time,ecg,hr,rr,marker,norm_time
1715312903449290714,0.07,93.0,640.0,,0.0
1715312903456986336,0.065,,,,0.007695622
1715312903464681958,0.058,,,,0.015391244
1715312903472377580,0.033,,,,0.023086866
1715312903480073202,0.029,,,,0.030782488
1715312903487768824,0.053,,,,0.03847811
1715312903495464446,0.06,,,,0.046173732
1715312903503160068,0.046,,,,0.053869354
1715312903510855690,0.036,,,,0.061564976
1715312903518551312,0.033,,,,0.069260598
1715312903526246934,0.033,,,,0.07695622
1715312903533942556,0.031,,,,0.084651842
1715312903541638178,0.021,,,,0.092347464
1715312903549333800,0.026,,,,0.100043086
1715312903557029422,0.038,,,,0.107738708
1715312903564725044,0.043,,,,0.11543433
1715312903572420666,0.036,,,,0.123129952
1715312903580116288,0.038,,,,0.130825574
1715312903587811910,0.046,,,,0.138521196
1715312903595507532,0.043,,,,0.146216818
1715312903603203154,0.036,,,,0.15391244
1715312903610898776,0.031,,,,0.161608062
1715312903618594398,0.031,,,,0.169303684
1715312903626290020,0.031,,,,0.176999306
1715312903633985642,0.029,,,,0.184694928
1715312903641681264,0.029,,,,0.19239055
1715312903649376886,0.033,,,,0.200086172
1715312903657072508,0.033,,,,0.207781794
1715312903664768130,0.031,,,,0.215477416
1715312903672463752,0.033,,,,0.223173038
1715312903680159374,0.033,,,,0.23086866
1715312903687854996,0.036,,,,0.238564282
1715312903695550618,0.043,,,,0.246259904
1715312903703246240,0.058,,,,0.253955526
1715312903710941862,0.075,,,,0.261651148
1715312903718637484,0.08,,,,0.26934677
1715312903726333106,0.07,,,,0.277042392
1715312903734028728,0.07,,,,0.284738014
1715312903741724350,0.075,,,,0.292433636
1715312903749419972,0.072,,,,0.300129258
1715312903757115594,0.067,,,,0.30782488
1715312903764811216,0.065,,,,0.315520502
1715312903772506838,0.053,,,,0.323216124
1715312903780202460,0.048,,,,0.330911746
1715312903787898082,0.067,,,,0.338607368
1715312903795593704,0.072,,,,0.34630299
1715312903803289326,0.055,,,,0.353998612
1715312903810984948,0.063,,,,0.361694234
1715312903818680570,0.16,,,,0.369389856
1715312903826376192,0.371,,,,0.377085478
1715312903834071814,0.611,,,,0.3847811
1715312903841767436,0.715,,,,0.392476722
1715312903849463058,0.526,,,,0.400172344
1715312903857158680,0.097,,,,0.407867966
1715312903864854302,-0.225,,,,0.415563588
1715312903872549924,-0.21,,,,0.42325921
1715312903880245546,-0.038,,,,0.430954832
1715312903887941168,0.046,,,,0.438650454
1715312903895636790,0.041,,,,0.446346076
1715312903903332412,0.048,,,,0.454041698
1715312903911028034,0.058,,,,0.46173732
1715312903918723656,0.05,,,,0.469432942
1715312903926419278,0.06,,,,0.477128564
1715312903934114900,0.08,,,,0.484824186
1715312903941810522,0.084,,,,0.492519808
1715312903949506144,0.092,,,,0.50021543
1715312903957201766,0.104,,,,0.507911052
1715312903964897388,0.116,,,,0.515606674
1715312903972593010,0.121,,,,0.523302296
1715312903980288632,0.118,,,,0.530997918
1715312903987984254,0.135,,,,0.53869354
1715312903995679876,0.157,,,,0.546389162
1715312904003375498,0.162,,,,0.554084784
1715312904011071144,0.164,,,,0.56178043
1715312904018766348,0.164,,,,0.569475634
1715312904026461552,0.167,,,,0.577170838
1715312904034156756,0.167,,,,0.584866042
1715312904041851960,0.16,,,,0.592561246
1715312904049547164,0.152,,,,0.60025645
1715312904057242368,0.143,,,,0.607951654
1715312904064937572,0.126,,,,0.615646858
1715312904072632776,0.109,,,,0.623342062
1715312904080327980,0.094,,,,0.631037266
1715312904088023184,0.087,,,,0.63873247
1715312904095718388,0.067,,,,0.646427674
1715312904103413592,0.043,,,,0.654122878
1715312904111108796,0.038,,,,0.661818082
1715312904118804000,0.036,,,,0.669513286
1715312904126499204,0.029,,,,0.67720849
1715312904134194408,0.019,,,,0.684903694
1715312904141889612,0.014,,,,0.692598898
1715312904149584816,0.021,,,,0.700294102
1715312904157280020,0.026,,,,0.707989306
1715312904164975224,0.029,,,,0.71568451
1715312904172670428,0.038,,,,0.723379714
1715312904180365632,0.048,,,,0.731074918
1715312904188060836,0.053,,,,0.738770122
1715312904195756040,0.053,,,,0.746465326
1715312904203451244,0.055,,,,0.75416053
1715312904211146448,0.058,,,,0.761855734
1715312904218841652,0.055,,,,0.769550938
1715312904226536856,0.05,,,,0.777246142
1715312904234232060,0.043,,,,0.784941346
1715312904241927264,0.043,,,,0.79263655
1715312904249622468,0.048,,,,0.800331754
1715312904257317672,0.046,,,,0.808026958
1715312904265012876,0.043,,,,0.815722162
1715312904272708080,0.046,,,,0.823417366
1715312904280403284,0.05,,,,0.83111257
1715312904288098488,0.055,,,,0.838807774
1715312904295793692,0.05,,,,0.846502978
1715312904303488896,0.036,,,,0.854198182
1715312904311184100,0.033,,,,0.861893386
1715312904318879304,0.038,,,,0.86958859
1715312904326574508,0.05,,,,0.877283794
1715312904334269712,0.063,,,,0.884978998
1715312904341964916,0.075,,,,0.892674202
1715312904349660120,0.089,,,,0.900369406
1715312904357355324,0.092,,,,0.90806461
1715312904365050528,0.082,,,,0.915759814
1715312904372745732,0.082,,,,0.923455018
1715312904380440936,0.084,,,,0.931150222
1715312904388136140,0.075,,,,0.938845426
1715312904395831344,0.058,,,,0.94654063
1715312904403526548,0.05,,,,0.954235834
1715312904411221752,0.053,,,,0.961931038
1715312904418916956,0.055,,,,0.969626242
1715312904426612160,0.055,,,,0.977321446
1715312904434307364,0.065,,,,0.98501665
1715312904442002568,0.067,,,,0.992711854
1715312904449697772,0.094,,,,1.000407058
1715312904457392976,0.244,,,,1.008102262
1715312904465088180,0.521,,,,1.015797466
1715312904472783384,0.756,,,,1.02349267
1715312904480478588,0.759,,,,1.031187874
1715312904488173792,0.438,,,,1.038883078
1715312904495868996,-0.033,,,,1.046578282
1715312904503564200,-0.271,,,,1.054273486
1715312904511259404,-0.157,,,,1.06196869
1715312904518954608,0.0,,,,1.069663894
1715312904526649812,0.026,,,,1.077359098
1715312904534345016,0.024,,,,1.085054302
1715312904542040220,0.048,,,,1.092749506
1715312904549735424,0.063,,,,1.10044471
1715312904557430628,0.072,,,,1.108139914
1715312904565125832,0.087,,,,1.115835118
1715312904572821056,0.084,93.0,682.0,,1.123530342
1715312904580516260,0.077,,660.0,,1.131225546
1715312904588211464,0.084,,,,1.13892075
1715312904595906668,0.104,,,,1.146615954
1715312904603601872,0.116,,,,1.154311158
1715312904611297076,0.121,,,,1.162006362
1715312904618992280,0.126,,,,1.169701566
1715312904626687484,0.145,,,,1.17739677
1715312904634382688,0.162,,,,1.185091974
1715312904642077892,0.172,,,,1.192787178
1715312904649773096,0.184,,,,1.200482382
1715312904657468300,0.186,,,,1.208177586
1715312904665163504,0.177,,,,1.21587279
1715312904672858708,0.16,,,,1.223567994
1715312904680553912,0.145,,,,1.231263198
1715312904688249116,0.138,,,,1.238958402
1715312904695944320,0.133,,,,1.246653606
1715312904703639524,0.126,,,,1.25434881
1715312904711334728,0.118,,,,1.262044014
1715312904719029932,0.106,,,,1.269739218
1715312904726725136,0.092,,,,1.277434422
1715312904734420340,0.084,,,,1.285129626
1715312904742115544,0.077,,,,1.29282483
1715312904749810748,0.072,,,,1.300520034
1715312904757505952,0.053,,,,1.308215238
1715312904765201156,0.041,,,,1.315910442
1715312904772896360,0.053,,,,1.323605646
1715312904780591564,0.063,,,,1.33130085
1715312904788286768,0.058,,,,1.338996054
1715312904795981972,0.06,,,,1.346691258
1715312904803677176,0.08,,,,1.354386462
1715312904811372380,0.087,,,,1.362081666
1715312904819067584,0.077,,,,1.36977687
1715312904826762788,0.08,,,,1.377472074
1715312904834457992,0.087,,,,1.385167278
1715312904842153196,0.084,,,,1.392862482
1715312904849848400,0.08,,,,1.400557686
1715312904857543604,0.07,,,,1.40825289
1715312904865238808,0.065,,,,1.415948094
1715312904872934012,0.065,,,,1.423643298
1715312904880629216,0.055,,,,1.431338502
1715312904888324420,0.05,,,,1.439033706
1715312904896019624,0.063,,,,1.44672891
1715312904903714828,0.067,,,,1.454424114
1715312904911410032,0.063,,,,1.462119318
1715312904919105236,0.058,,,,1.469814522
1715312904926800440,0.067,,,,1.477509726
1715312904934495644,0.072,,,,1.48520493
1715312904942190848,0.063,,,,1.492900134
1715312904949886052,0.058,,,,1.500595338
1715312904957581256,0.058,,,,1.508290542
1715312904965276460,0.058,,,,1.515985746
1715312904972971664,0.067,,,,1.52368095
1715312904980666868,0.08,,,,1.531376154
1715312904988362072,0.089,,,,1.539071358
1715312904996057276,0.082,,,,1.546766562
1715312905003752480,0.08,,,,1.554461766
1715312905011447684,0.087,,,,1.56215697
1715312905019142888,0.092,,,,1.569852174
1715312905026838092,0.082,,,,1.577547378
1715312905034533296,0.065,,,,1.585242582
1715312905042228500,0.053,,,,1.592937786
1715312905049923704,0.06,,,,1.60063299
1715312905057618908,0.065,,,,1.608328194
1715312905065314112,0.053,,,,1.616023398
1715312905073009316,0.05,,,,1.623718602
1715312905080704520,0.05,,,,1.631413806
1715312905088399724,0.082,,,,1.63910901
1715312905096094928,0.242,,,,1.646804214
1715312905103790132,0.518,,,,1.654499418
1715312905111485336,0.744,,,,1.662194622
1715312905119180540,0.727,,,,1.669889826
1715312905126875744,0.39,,,,1.67758503
1715312905134570968,-0.08,,,,1.685280254
1715312905142266590,-0.274,,,,1.692975876
1715312905149962212,-0.128,,,,1.700671498
1715312905157657834,0.012,,,,1.70836712
1715312905165353456,0.021,,,,1.716062742
1715312905173049078,0.026,,,,1.723758364
1715312905180744700,0.038,,,,1.731453986
1715312905188440322,0.038,,,,1.739149608
1715312905196135944,0.05,,,,1.74684523
1715312905203831566,0.067,,,,1.754540852
1715312905211527188,0.075,,,,1.762236474
1715312905219222810,0.084,,,,1.769932096
1715312905226918432,0.099,,,,1.777627718
1715312905234614054,0.109,,,,1.78532334
1715312905242309676,0.111,,,,1.793018962
1715312905250005298,0.121,,,,1.800714584
1715312905257700920,0.135,,,,1.808410206
1715312905265396542,0.147,,,,1.816105828
1715312905273092164,0.162,,,,1.82380145
1715312905280787786,0.174,,,,1.831497072
1715312905288483408,0.177,,,,1.839192694
1715312905296179030,0.169,,,,1.846888316
1715312905303874652,0.16,,,,1.854583938
1715312905311570274,0.157,,,,1.86227956
1715312905319265896,0.155,,,,1.869975182
1715312905326961518,0.143,,,,1.877670804
1715312905334657140,0.126,,,,1.885366426
1715312905342352762,0.113,,,,1.893062048
1715312905350048384,0.106,,,,1.90075767
1715312905357744006,0.097,,,,1.908453292
1715312905365439628,0.087,,,,1.916148914
1715312905373135250,0.075,,,,1.923844536
1715312905380830872,0.058,,,,1.931540158
1715312905388526494,0.053,,,,1.93923578
1715312905396222116,0.053,,,,1.946931402
1715312905403917738,0.053,,,,1.954627024
1715312905411613360,0.05,,,,1.962322646
1715312905419308982,0.033,,,,1.970018268
1715312905427004604,0.033,,,,1.97771389
1715312905434700226,0.053,,,,1.985409512
1715312905442395848,0.05,,,,1.993105134
1715312905450091470,0.046,,,,2.000800756
1715312905457787092,0.053,,,,2.008496378
1715312905465482714,0.058,,,,2.016192
1715312905473178336,0.053,,,,2.023887622
1715312905480873958,0.048,,,,2.031583244
1715312905488569580,0.058,,,,2.039278866
1715312905496265202,0.05,,,,2.046974488
1715312905503960824,0.038,,,,2.05467011
1715312905511656446,0.041,,,,2.062365732
1715312905519352068,0.033,,,,2.070061354
1715312905527047690,0.021,,,,2.077756976
1715312905534743312,0.026,,,,2.085452598
1715312905542438934,0.033,,,,2.09314822
1715312905550134556,0.031,,,,2.100843842
1715312905557830178,0.031,,,,2.108539464
1715312905565525800,0.031,,,,2.116235086
1715312905573221422,0.019,,,,2.123930708
1715312905580917044,0.014,,,,2.13162633
1715312905588612666,0.033,,,,2.139321952
1715312905596308288,0.038,,,,2.147017574
1715312905604003910,0.029,,,,2.154713196
1715312905611699532,0.031,,,,2.162408818
1715312905619395154,0.043,,,,2.17010444
1715312905627090776,0.058,,,,2.177800062
1715312905634786398,0.077,,,,2.185495684
1715312905642482020,0.092,,,,2.193191306
1715312905650177642,0.077,,,,2.200886928
1715312905657873264,0.06,,,,2.20858255
1715312905665568886,0.067,,,,2.216278172
1715312905673264508,0.08,,,,2.223973794
1715312905680960130,0.072,,,,2.231669416
1715312905688655752,0.053,,,,2.239365038
1715312905696351400,0.041,92.0,653.0,,2.247060686
1715312905704046604,0.05,,,,2.25475589
1715312905711741808,0.065,,,,2.262451094
1715312905719437012,0.06,,,,2.270146298
1715312905727132216,0.058,,,,2.277841502
1715312905734827420,0.082,,,,2.285536706
1715312905742522624,0.206,,,,2.29323191
1715312905750217828,0.46,,,,2.300927114
1715312905757913032,0.7000000000000001,,,,2.308622318
1715312905765608236,0.766,,,,2.316317522
1715312905773303440,0.531,,,,2.324012726
1715312905780998644,0.05,,,,2.33170793
1715312905788693848,-0.269,,,,2.339403134
1715312905796389052,-0.198,,,,2.347098338
1715312905804084256,-0.021,,,,2.354793542
1715312905811779460,0.014,,,,2.362488746
1715312905819474664,0.0,,,,2.37018395
1715312905827169868,0.026,,,,2.377879154
1715312905834865072,0.05,,,,2.385574358
1715312905842560276,0.053,,,,2.393269562
1715312905850255480,0.06,,,,2.400964766
1715312905857950684,0.07,,,,2.40865997
1715312905865645888,0.075,,,,2.416355174
1715312905873341092,0.082,,,,2.424050378
1715312905881036296,0.099,,,,2.431745582
1715312905888731500,0.121,,,,2.439440786
1715312905896426704,0.123,,,,2.44713599
1715312905904121908,0.123,,,,2.454831194
1715312905911817112,0.14,,,,2.462526398
1715312905919512316,0.16,,,,2.470221602
1715312905927207520,0.16,,,,2.477916806
1715312905934902724,0.16,,,,2.48561201
1715312905942597928,0.169,,,,2.493307214
1715312905950293132,0.177,,,,2.501002418
1715312905957988336,0.16,,,,2.508697622
1715312905965683540,0.14,,,,2.516392826
1715312905973378744,0.138,,,,2.52408803
1715312905981073948,0.14,,,,2.531783234
1715312905988769152,0.126,,,,2.539478438
1715312905996464356,0.094,,,,2.547173642
1715312906004159560,0.082,,,,2.554868846
1715312906011854764,0.087,,,,2.56256405
1715312906019549968,0.075,,,,2.570259254
1715312906027245172,0.06,,,,2.577954458
1715312906034940376,0.05,,,,2.585649662
1715312906042635580,0.038,,,,2.593344866
1715312906050330784,0.033,,,,2.60104007
1715312906058025988,0.041,,,,2.608735274
1715312906065721192,0.048,,,,2.616430478
1715312906073416396,0.046,,,,2.624125682
1715312906081111600,0.038,,,,2.631820886
1715312906088806804,0.053,,,,2.63951609
1715312906096502008,0.055,,,,2.647211294
1715312906104197212,0.038,,,,2.654906498
1715312906111892416,0.041,,,,2.662601702
1715312906119587620,0.058,,,,2.670296906
1715312906127282824,0.063,,,,2.67799211
1715312906134978028,0.065,,,,2.685687314
1715312906142673232,0.065,,,,2.693382518
1715312906150368436,0.065,,,,2.701077722
1715312906158063640,0.07,,,,2.708772926
1715312906165758844,0.072,,,,2.71646813
1715312906173454048,0.067,,,,2.724163334
1715312906181149252,0.067,,,,2.731858538
1715312906188844456,0.072,,,,2.739553742
1715312906196539660,0.067,,,,2.747248946
1715312906204234864,0.063,,,,2.75494415
1715312906211930068,0.07,,,,2.762639354
1715312906219625272,0.067,,,,2.770334558
1715312906227320476,0.06,,,,2.778029762
1715312906235015680,0.055,,,,2.785724966
1715312906242710884,0.058,,,,2.79342017
1715312906250406088,0.067,,,,2.801115374
1715312906258101312,0.065,,,,2.808810598
1715312906265796516,0.065,,,,2.816505802
1715312906273491720,0.075,,,,2.824201006
1715312906281186924,0.087,,,,2.83189621
1715312906288882128,0.099,,,,2.839591414
1715312906296577332,0.106,,,,2.847286618
1715312906304272536,0.099,,,,2.854981822
1715312906311967740,0.089,,,,2.862677026
1715312906319662944,0.082,,,,2.87037223
1715312906327358148,0.077,,,,2.878067434
1715312906335053352,0.077,,,,2.885762638
1715312906342748556,0.07,,,,2.893457842
1715312906350443760,0.058,,,,2.901153046
1715312906358138964,0.06,,,,2.90884825
1715312906365834168,0.075,,,,2.916543454
1715312906373529372,0.077,,,,2.924238658
1715312906381224576,0.063,,,,2.931933862
1715312906388919780,0.055,,,,2.939629066
1715312906396614984,0.101,,,,2.94732427
1715312906404310188,0.269,,,,2.955019474
1715312906412005392,0.531,,,,2.962714678
1715312906419700596,0.722,,,,2.970409882
1715312906427395800,0.659,,,,2.978105086
1715312906435091004,0.283,,,,2.98580029
1715312906442786208,-0.143,,,,2.993495494
1715312906450481412,-0.254,,,,3.001190698
1715312906458176616,-0.097,,,,3.008885902
1715312906465871820,0.021,,,,3.016581106
1715312906473567024,0.036,,,,3.02427631
1715312906481262228,0.043,,,,3.031971514
1715312906488957432,0.063,,,,3.039666718
1715312906496652636,0.05,,,,3.047361922
1715312906504347840,0.038,,,,3.055057126
1715312906512043044,0.058,,,,3.06275233
1715312906519738248,0.077,,,,3.070447534
1715312906527433452,0.089,,,,3.078142738
1715312906535128656,0.094,,,,3.085837942
1715312906542823860,0.089,,,,3.093533146
1715312906550519064,0.094,,,,3.10122835
1715312906558214268,0.113,,,,3.108923554
1715312906565909472,0.128,,,,3.116618758
1715312906573604676,0.14,,,,3.124313962
1715312906581299880,0.155,,,,3.132009166
1715312906588995084,0.162,,,,3.13970437
1715312906596690288,0.16,,,,3.147399574
1715312906604385492,0.164,,,,3.155094778
1715312906612080696,0.179,,,,3.162789982
1715312906619775900,0.172,,,,3.170485186
1715312906627471104,0.15,,,,3.17818039
1715312906635166308,0.135,,,,3.185875594
1715312906642861512,0.133,,,,3.193570798
1715312906650556716,0.133,,,,3.201266002
1715312906658251920,0.128,,,,3.208961206
1715312906665947124,0.116,,,,3.21665641
1715312906673642328,0.097,,,,3.224351614
1715312906681337532,0.072,,,,3.232046818
1715312906689032736,0.065,,,,3.239742022
1715312906696727940,0.063,,,,3.247437226
1715312906704423144,0.058,,,,3.25513243
1715312906712118348,0.058,,,,3.262827634
1715312906719813552,0.063,,,,3.270522838
1715312906727508756,0.06,,,,3.278218042
1715312906735203960,0.065,,,,3.285913246
1715312906742899164,0.075,,,,3.29360845
1715312906750594368,0.082,,,,3.301303654
1715312906758289572,0.075,,,,3.308998858
1715312906765984776,0.072,,,,3.316694062
1715312906773679980,0.075,,,,3.324389266
1715312906781375184,0.06,,,,3.33208447
1715312906789070388,0.046,,,,3.339779674
1715312906796765592,0.053,,,,3.347474878
1715312906804460796,0.07,,,,3.355170082
1715312906812156000,0.063,,,,3.362865286
1715312906819851224,0.053,92.0,636.0,,3.37056051
1715312906827546428,0.063,,638.0,,3.378255714
1715312906835241632,0.067,,,,3.385950918
1715312906842936836,0.055,,,,3.393646122
1715312906850632040,0.06,,,,3.401341326
1715312906858327244,0.06,,,,3.40903653
1715312906866022448,0.053,,,,3.416731734
1715312906873717652,0.058,,,,3.424426938
1715312906881412856,0.058,,,,3.432122142
1715312906889108060,0.041,,,,3.439817346
1715312906896803264,0.033,,,,3.44751255
1715312906904498468,0.036,,,,3.455207754
1715312906912193672,0.048,,,,3.462902958
1715312906919888876,0.06,,,,3.470598162
1715312906927584080,0.065,,,,3.478293366
1715312906935279284,0.067,,,,3.48598857
1715312906942974488,0.075,,,,3.493683774
1715312906950669692,0.08,,,,3.501378978
1715312906958364896,0.077,,,,3.509074182
1715312906966060100,0.072,,,,3.516769386
1715312906973755304,0.077,,,,3.52446459
1715312906981450508,0.072,,,,3.532159794
1715312906989145712,0.055,,,,3.539854998
1715312906996840916,0.046,,,,3.547550202
1715312907004536120,0.046,,,,3.555245406
1715312907012231324,0.05,,,,3.56294061
1715312907019926528,0.058,,,,3.570635814
1715312907027621732,0.053,,,,3.578331018
1715312907035316936,0.05,,,,3.586026222
1715312907043012140,0.143,,,,3.593721426
1715312907050707344,0.378,,,,3.60141663
1715312907058402548,0.615,,,,3.609111834
1715312907066097752,0.681,,,,3.616807038
1715312907073792956,0.465,,,,3.624502242
1715312907081488160,0.043,,,,3.632197446
1715312907089183364,-0.235,,,,3.63989265
1715312907096878568,-0.189,,,,3.647587854
1715312907104573772,-0.036,,,,3.655283058
1715312907112268976,0.033,,,,3.662978262
1715312907119964180,0.046,,,,3.670673466
1715312907127659384,0.06,,,,3.67836867
1715312907135354588,0.072,,,,3.686063874
1715312907143049792,0.072,,,,3.693759078
1715312907150744996,0.08,,,,3.701454282
1715312907158440200,0.097,,,,3.709149486
1715312907166135404,0.106,,,,3.71684469
1715312907173830608,0.113,,,,3.724539894
1715312907181525812,0.13,,,,3.732235098
1715312907189221016,0.138,,,,3.739930302
1715312907196916220,0.14,,,,3.747625506
1715312907204611424,0.155,,,,3.75532071
1715312907212306628,0.174,,,,3.763015914
1715312907220001832,0.181,,,,3.770711118
1715312907227697036,0.184,,,,3.778406322
1715312907235392240,0.186,,,,3.786101526
1715312907243087444,0.194,,,,3.79379673
1715312907250782648,0.198,,,,3.801491934
1715312907258477852,0.191,,,,3.809187138
1715312907266173056,0.181,,,,3.816882342
1715312907273868260,0.174,,,,3.824577546
1715312907281563464,0.15,,,,3.83227275
1715312907289258668,0.133,,,,3.839967954
1715312907296953872,0.14,,,,3.847663158
1715312907304649076,0.14,,,,3.855358362
1715312907312344280,0.118,,,,3.863053566
1715312907320039484,0.097,,,,3.87074877
1715312907327734688,0.089,,,,3.878443974
1715312907335429892,0.082,,,,3.886139178
1715312907343125096,0.075,,,,3.893834382
1715312907350820300,0.08,,,,3.901529586
1715312907358515504,0.077,,,,3.90922479
1715312907366210708,0.075,,,,3.916919994
1715312907373905912,0.075,,,,3.924615198
1715312907381601136,0.077,93.0,648.0,,3.932310422
1715312907389296758,0.089,,,,3.940006044
1715312907396992380,0.104,,,,3.947701666
1715312907404688002,0.097,,,,3.955397288
1715312907412383624,0.084,,,,3.96309291
1715312907420079246,0.082,,,,3.970788532
1715312907427774868,0.075,,,,3.978484154
1715312907435470490,0.075,,,,3.986179776
1715312907443166112,0.082,,,,3.993875398
1715312907450861734,0.092,,,,4.00157102
1715312907458557356,0.084,,,,4.009266642
1715312907466252978,0.08,,,,4.016962264
1715312907473948600,0.084,,,,4.024657886
1715312907481644222,0.092,,,,4.032353508
1715312907489339844,0.092,,,,4.04004913
1715312907497035466,0.075,,,,4.047744752
1715312907504731088,0.055,,,,4.055440374
1715312907512426710,0.05,,,,4.063135996
1715312907520122332,0.05,,,,4.070831618
1715312907527817954,0.053,,,,4.07852724
1715312907535513576,0.063,,,,4.086222862
1715312907543209198,0.063,,,,4.093918484
1715312907550904820,0.072,,,,4.101614106
1715312907558600442,0.092,,,,4.109309728
1715312907566296064,0.101,,,,4.11700535
1715312907573991686,0.099,,,,4.124700972
1715312907581687308,0.097,,,,4.132396594
1715312907589382930,0.097,,,,4.140092216
1715312907597078552,0.092,,,,4.147787838
1715312907604774174,0.077,,,,4.15548346
1715312907612469796,0.063,,,,4.163179082
1715312907620165418,0.06,,,,4.170874704
1715312907627861040,0.075,,,,4.178570326
1715312907635556662,0.08,,,,4.186265948
1715312907643252284,0.065,,,,4.19396157
1715312907650947906,0.067,,,,4.201657192
1715312907658643528,0.077,,,,4.209352814
1715312907666339150,0.135,,,,4.217048436
1715312907674034772,0.327,,,,4.224744058
1715312907681730394,0.601,,,,4.23243968
1715312907689426016,0.778,,,,4.240135302
1715312907697121638,0.676,,,,4.247830924
1715312907704817260,0.278,,,,4.255526546
1715312907712512882,-0.128,,,,4.263222168
1715312907720208504,-0.218,,,,4.27091779
1715312907727904126,-0.075,,,,4.278613412
1715312907735599748,0.024,,,,4.286309034
1715312907743295370,0.041,,,,4.294004656
1715312907750990992,0.067,,,,4.301700278
1715312907758686614,0.087,,,,4.3093959
1715312907766382236,0.082,,,,4.317091522
1715312907774077858,0.077,,,,4.324787144
1715312907781773480,0.084,,,,4.332482766
1715312907789469102,0.101,,,,4.340178388
1715312907797164724,0.113,,,,4.34787401
1715312907804860346,0.128,,,,4.355569632
1715312907812555968,0.143,,,,4.363265254
1715312907820251590,0.147,,,,4.370960876
1715312907827947212,0.155,,,,4.378656498
1715312907835642834,0.162,,,,4.38635212
1715312907843338456,0.169,,,,4.394047742
1715312907851034078,0.186,,,,4.401743364
1715312907858729700,0.198,,,,4.409438986
1715312907866425322,0.201,,,,4.417134608
1715312907874120944,0.201,,,,4.42483023
1715312907881816566,0.191,,,,4.432525852
1715312907889512188,0.184,,,,4.440221474
1715312907897207810,0.189,,,,4.447917096
1715312907904903432,0.177,,,,4.455612718
1715312907912599054,0.152,,,,4.46330834
1715312907920294676,0.14,,,,4.471003962
1715312907927990298,0.13,,,,4.478699584
1715312907935685920,0.118,,,,4.486395206
1715312907943381566,0.109,,,,4.494090852
1715312907951076770,0.109,,,,4.501786056
1715312907958771974,0.094,,,,4.50948126
1715312907966467178,0.077,,,,4.517176464
1715312907974162382,0.07,,,,4.524871668
1715312907981857586,0.06,,,,4.532566872
1715312907989552790,0.058,,,,4.540262076
1715312907997247994,0.063,,,,4.54795728
1715312908004943198,0.063,,,,4.555652484
1715312908012638402,0.058,,,,4.563347688
1715312908020333606,0.055,,,,4.571042892
1715312908028028810,0.065,,,,4.578738096
1715312908035724014,0.075,,,,4.5864333
1715312908043419218,0.072,,,,4.594128504
1715312908051114422,0.077,,,,4.601823708
1715312908058809626,0.084,,,,4.609518912
1715312908066504830,0.082,,,,4.617214116
1715312908074200034,0.072,,,,4.62490932
1715312908081895238,0.065,,,,4.632604524
1715312908089590442,0.075,,,,4.640299728
1715312908097285646,0.084,,,,4.647994932
1715312908104980850,0.08,,,,4.655690136
1715312908112676054,0.07,,,,4.66338534
1715312908120371258,0.067,,,,4.671080544
1715312908128066462,0.07,,,,4.678775748
1715312908135761666,0.075,,,,4.686470952
1715312908143456870,0.08,,,,4.694166156
1715312908151152074,0.072,,,,4.70186136
1715312908158847278,0.06,,,,4.709556564
1715312908166542482,0.075,,,,4.717251768
1715312908174237686,0.094,,,,4.724946972
1715312908181932890,0.084,,,,4.732642176
1715312908189628094,0.077,,,,4.74033738
1715312908197323298,0.084,,,,4.748032584
1715312908205018502,0.08,,,,4.755727788
1715312908212713706,0.065,,,,4.763422992
1715312908220408910,0.058,,,,4.771118196
1715312908228104114,0.063,,,,4.7788134
1715312908235799318,0.072,,,,4.786508604
1715312908243494522,0.07,,,,4.794203808
1715312908251189726,0.063,,,,4.801899012
1715312908258884930,0.055,,,,4.809594216
1715312908266580134,0.046,,,,4.81728942
1715312908274275338,0.099,,,,4.824984624
1715312908281970542,0.303,,,,4.832679828
1715312908289665746,0.603,,,,4.840375032
1715312908297360950,0.802,,,,4.848070236
1715312908305056154,0.7000000000000001,,,,4.85576544
1715312908312751358,0.283,,,,4.863460644
1715312908320446562,-0.155,,,,4.871155848
1715312908328141766,-0.252,,,,4.878851052
1715312908335836970,-0.075,,,,4.886546256
1715312908343532174,0.031,,,,4.89424146
1715312908351227378,0.024,,,,4.901936664
1715312908358922582,0.036,,,,4.909631868
1715312908366617786,0.058,,,,4.917327072
1715312908374312990,0.07,,,,4.925022276
1715312908382008194,0.082,,,,4.93271748
1715312908389703398,0.092,,,,4.940412684
1715312908397398602,0.092,,,,4.948107888
1715312908405093806,0.101,,,,4.955803092
1715312908412789010,0.123,,,,4.963498296
1715312908420484214,0.13,,,,4.9711935
1715312908428179418,0.133,,,,4.978888704
1715312908435874622,0.147,,,,4.986583908
1715312908443569826,0.16,,,,4.994279112
1715312908451265030,0.169,,,,5.001974316
1715312908458960234,0.184,,,,5.00966952
1715312908466655438,0.203,,,,5.017364724
1715312908474350642,0.213,,,,5.025059928
1715312908482045846,0.203,,,,5.032755132
1715312908489741050,0.196,,,,5.040450336
1715312908497436254,0.196,,,,5.04814554
1715312908505131478,0.181,93.0,658.0,,5.055840764
1715312908512827100,0.152,,643.0,,5.063536386
1715312908520522722,0.13,,,,5.071232008
1715312908528218344,0.123,,,,5.07892763
1715312908535913966,0.116,,,,5.086623252
1715312908543609588,0.104,,,,5.094318874
1715312908551305210,0.099,,,,5.102014496
1715312908559000832,0.089,,,,5.109710118
1715312908566696454,0.072,,,,5.11740574
1715312908574392076,0.067,,,,5.125101362
1715312908582087698,0.067,,,,5.132796984
1715312908589783320,0.065,,,,5.140492606
1715312908597478942,0.058,,,,5.148188228
1715312908605174564,0.058,,,,5.15588385
1715312908612870186,0.067,,,,5.163579472
1715312908620565808,0.08,,,,5.171275094
1715312908628261430,0.084,,,,5.178970716
1715312908635957052,0.082,,,,5.186666338
1715312908643652674,0.082,,,,5.19436196
1715312908651348296,0.094,,,,5.202057582
1715312908659043918,0.101,,,,5.209753204
1715312908666739540,0.092,,,,5.217448826
1715312908674435162,0.089,,,,5.225144448
1715312908682130784,0.084,,,,5.23284007
1715312908689826406,0.082,,,,5.240535692
1715312908697522028,0.08,,,,5.248231314
1715312908705217650,0.08,,,,5.255926936
1715312908712913272,0.084,,,,5.263622558
1715312908720608894,0.084,,,,5.27131818
1715312908728304516,0.084,,,,5.279013802
1715312908736000138,0.087,,,,5.286709424
1715312908743695760,0.084,,,,5.294405046
1715312908751391382,0.077,,,,5.302100668
1715312908759087004,0.07,,,,5.30979629
1715312908766782626,0.072,,,,5.317491912
1715312908774478248,0.08,,,,5.325187534
1715312908782173870,0.087,,,,5.332883156
1715312908789869492,0.097,,,,5.340578778
1715312908797565114,0.094,,,,5.3482744
1715312908805260736,0.084,,,,5.355970022
1715312908812956358,0.092,,,,5.363665644
1715312908820651980,0.094,,,,5.371361266
1715312908828347602,0.087,,,,5.379056888
1715312908836043224,0.082,,,,5.38675251
1715312908843738846,0.065,,,,5.394448132
1715312908851434468,0.053,,,,5.402143754
1715312908859130090,0.06,,,,5.409839376
1715312908866825712,0.072,,,,5.417534998
1715312908874521334,0.077,,,,5.42523062
1715312908882216956,0.06,,,,5.432926242
1715312908889912578,0.06,,,,5.440621864
1715312908897608200,0.172,,,,5.448317486
1715312908905303822,0.426,,,,5.456013108
1715312908912999444,0.708,,,,5.46370873
1715312908920695066,0.8240000000000001,,,,5.471404352
1715312908928390688,0.62,,,,5.479099974
1715312908936086310,0.133,,,,5.486795596
1715312908943781932,-0.247,,,,5.494491218
1715312908951477554,-0.208,,,,5.50218684
1715312908959173176,-0.007,,,,5.509882462
1715312908966868798,0.046,,,,5.517578084
1715312908974564420,0.033,,,,5.525273706
1715312908982260042,0.055,,,,5.532969328
1715312908989955664,0.065,,,,5.54066495
1715312908997651286,0.065,,,,5.548360572
1715312909005346908,0.075,,,,5.556056194
1715312909013042530,0.08,,,,5.563751816
1715312909020738152,0.077,,,,5.571447438
1715312909028433774,0.089,,,,5.57914306
1715312909036129396,0.104,,,,5.586838682
1715312909043825018,0.106,,,,5.594534304
1715312909051520640,0.123,,,,5.602229926
1715312909059216262,0.14,,,,5.609925548
1715312909066911910,0.147,,,,5.617621196
1715312909074607114,0.16,,,,5.6253164
1715312909082302318,0.174,,,,5.633011604
1715312909089997522,0.184,,,,5.640706808
1715312909097692726,0.191,,,,5.648402012
1715312909105387930,0.181,,,,5.656097216
1715312909113083134,0.172,,,,5.66379242
1715312909120778338,0.169,,,,5.671487624
1715312909128473542,0.155,,,,5.679182828
1715312909136168746,0.135,,,,5.686878032
1715312909143863950,0.128,,,,5.694573236
1715312909151559154,0.123,,,,5.70226844
1715312909159254358,0.113,,,,5.709963644
1715312909166949562,0.099,,,,5.717658848
1715312909174644766,0.08,,,,5.725354052
1715312909182339970,0.067,,,,5.733049256
1715312909190035174,0.075,,,,5.74074446
1715312909197730378,0.075,,,,5.748439664
1715312909205425582,0.055,,,,5.756134868
1715312909213120786,0.055,,,,5.763830072
1715312909220815990,0.07,,,,5.771525276
1715312909228511194,0.075,,,,5.77922048
1715312909236206398,0.077,,,,5.786915684
1715312909243901602,0.07,,,,5.794610888
1715312909251596806,0.063,,,,5.802306092
1715312909259292010,0.067,,,,5.810001296
1715312909266987214,0.08,,,,5.8176965
1715312909274682418,0.087,,,,5.825391704
1715312909282377622,0.077,,,,5.833086908
1715312909290072826,0.072,,,,5.840782112
1715312909297768030,0.08,,,,5.848477316
1715312909305463234,0.08,,,,5.85617252
1715312909313158438,0.082,,,,5.863867724
1715312909320853642,0.089,,,,5.871562928
1715312909328548846,0.089,,,,5.879258132
1715312909336244050,0.077,,,,5.886953336
1715312909343939254,0.072,,,,5.89464854
1715312909351634458,0.08,,,,5.902343744
1715312909359329662,0.082,,,,5.910038948
1715312909367024866,0.082,,,,5.917734152
1715312909374720070,0.082,,,,5.925429356
1715312909382415274,0.077,,,,5.93312456
1715312909390110478,0.08,,,,5.940819764
1715312909397805682,0.092,,,,5.948514968
1715312909405500886,0.094,,,,5.956210172
1715312909413196090,0.099,,,,5.963905376
1715312909420891294,0.104,,,,5.97160058
1715312909428586498,0.109,,,,5.979295784
1715312909436281702,0.111,,,,5.986990988
1715312909443976906,0.099,,,,5.994686192
1715312909451672110,0.084,,,,6.002381396
1715312909459367314,0.092,,,,6.0100766
1715312909467062518,0.104,,,,6.017771804
1715312909474757722,0.099,,,,6.025467008
1715312909482452926,0.084,,,,6.033162212
1715312909490148130,0.07,,,,6.040857416
1715312909497843334,0.06,,,,6.04855262
1715312909505538538,0.06,,,,6.056247824
1715312909513233742,0.072,,,,6.063943028
1715312909520928946,0.08,,,,6.071638232
1715312909528624150,0.077,,,,6.079333436
1715312909536319354,0.089,,,,6.08702864
1715312909544014558,0.213,,,,6.094723844
1715312909551709762,0.475,,,,6.102419048
1715312909559404966,0.712,,,,6.110114252
1715312909567100170,0.732,,,,6.117809456
1715312909574795374,0.421,,,,6.12550466
1715312909582490578,-0.048,,,,6.133199864
1715312909590185782,-0.257,,,,6.140895068
1715312909597880986,-0.118,,,,6.148590272
1715312909605576190,0.031,,,,6.156285476
1715312909613271394,0.05,,,,6.16398068
1715312909620966598,0.046,,,,6.171675884
1715312909628661822,0.05,93.0,627.0,,6.179371108
1715312909636357444,0.055,,608.0,,6.18706673
1715312909644053066,0.072,,,,6.194762352
1715312909651748688,0.092,,,,6.202457974
1715312909659444310,0.094,,,,6.210153596
1715312909667139932,0.106,,,,6.217849218
1715312909674835554,0.118,,,,6.22554484
1715312909682531176,0.118,,,,6.233240462
1715312909690226798,0.13,,,,6.240936084
1715312909697922420,0.147,,,,6.248631706
1715312909705618042,0.145,,,,6.256327328
1715312909713313664,0.147,,,,6.26402295
1715312909721009286,0.162,,,,6.271718572
1715312909728704908,0.177,,,,6.279414194
1715312909736400530,0.181,,,,6.287109816
1715312909744096152,0.172,,,,6.294805438
1715312909751791774,0.172,,,,6.30250106
1715312909759487396,0.181,,,,6.310196682
1715312909767183018,0.179,,,,6.317892304
1715312909774878640,0.164,,,,6.325587926
1715312909782574262,0.145,,,,6.333283548
1715312909790269884,0.14,,,,6.34097917
1715312909797965506,0.14,,,,6.348674792
1715312909805661128,0.13,,,,6.356370414
1715312909813356750,0.116,,,,6.364066036
1715312909821052372,0.101,,,,6.371761658
1715312909828747994,0.092,,,,6.37945728
1715312909836443616,0.089,,,,6.387152902
1715312909844139238,0.087,,,,6.394848524
1715312909851834860,0.08,,,,6.402544146
1715312909859530482,0.072,,,,6.410239768
1715312909867226104,0.072,,,,6.41793539
1715312909874921726,0.082,,,,6.425631012
1715312909882617348,0.099,,,,6.433326634
1715312909890312970,0.101,,,,6.441022256
1715312909898008592,0.094,,,,6.448717878
1715312909905704214,0.097,,,,6.4564135
1715312909913399836,0.104,,,,6.464109122
1715312909921095458,0.097,,,,6.471804744
1715312909928791080,0.092,,,,6.479500366
1715312909936486702,0.101,,,,6.487195988
1715312909944182324,0.101,,,,6.49489161
1715312909951877946,0.097,,,,6.502587232
1715312909959573568,0.094,,,,6.510282854
1715312909967269190,0.092,,,,6.517978476
1715312909974964812,0.094,,,,6.525674098
1715312909982660434,0.092,,,,6.53336972
1715312909990356056,0.084,,,,6.541065342
1715312909998051678,0.08,,,,6.548760964
1715312910005747300,0.084,,,,6.556456586
1715312910013442922,0.084,,,,6.564152208
1715312910021138544,0.067,,,,6.57184783
1715312910028834166,0.058,,,,6.579543452
1715312910036529788,0.06,,,,6.587239074
1715312910044225410,0.075,,,,6.594934696
1715312910051921032,0.082,,,,6.602630318
1715312910059616654,0.075,,,,6.61032594
1715312910067312276,0.065,,,,6.618021562
1715312910075007898,0.06,,,,6.625717184
1715312910082703520,0.06,,,,6.633412806
1715312910090399142,0.087,,,,6.641108428
1715312910098094764,0.111,,,,6.64880405
1715312910105790386,0.101,,,,6.656499672
1715312910113486008,0.082,,,,6.664195294
1715312910121181630,0.084,,,,6.671890916
1715312910128877252,0.089,,,,6.679586538
1715312910136572874,0.075,,,,6.68728216
1715312910144268496,0.063,,,,6.694977782
1715312910151964118,0.06,,,,6.702673404
1715312910159659740,0.055,,,,6.710369026
1715312910167355362,0.055,,,,6.718064648
1715312910175050984,0.07,,,,6.72576027
1715312910182746606,0.065,,,,6.733455892
1715312910190442252,0.048,,,,6.741151538
1715312910198137734,0.058,,,,6.74884702
1715312910205833216,0.15,,,,6.756542502
1715312910213528698,0.368,,,,6.764237984
1715312910221224180,0.606,,,,6.771933466
1715312910228919662,0.674,,,,6.779628948
1715312910236615144,0.453,,,,6.78732443
1715312910244310626,0.046,,,,6.795019912
1715312910252006108,-0.23,,,,6.802715394
1715312910259701590,-0.206,,,,6.810410876
1715312910267397072,-0.053,,,,6.818106358
1715312910275092554,0.024,,,,6.82580184
1715312910282788036,0.026,,,,6.833497322
1715312910290483518,0.029,,,,6.841192804
1715312910298179000,0.041,,,,6.848888286
1715312910305874482,0.055,,,,6.856583768
1715312910313569964,0.072,,,,6.86427925
1715312910321265446,0.082,,,,6.871974732
1715312910328960928,0.092,,,,6.879670214
1715312910336656410,0.101,,,,6.887365696
1715312910344351892,0.101,,,,6.895061178
1715312910352047374,0.113,,,,6.90275666
1715312910359742856,0.143,,,,6.910452142
1715312910367438338,0.16,,,,6.918147624
1715312910375133820,0.167,,,,6.925843106
1715312910382829302,0.177,,,,6.933538588
1715312910390524784,0.186,,,,6.94123407
1715312910398220266,0.189,,,,6.948929552
1715312910405915748,0.184,,,,6.956625034
1715312910413611230,0.186,,,,6.964320516
1715312910421306712,0.191,,,,6.972015998
1715312910429002194,0.186,,,,6.97971148
1715312910436697676,0.169,,,,6.987406962
1715312910444393158,0.155,,,,6.995102444
1715312910452088640,0.157,,,,7.002797926
1715312910459784122,0.155,,,,7.010493408
1715312910467479604,0.128,,,,7.01818889
1715312910475175086,0.104,,,,7.025884372
1715312910482870568,0.097,,,,7.033579854
1715312910490566050,0.094,,,,7.041275336
1715312910498261532,0.084,,,,7.048970818
1715312910505957014,0.072,,,,7.0566663
1715312910513652496,0.055,,,,7.064361782
1715312910521347978,0.048,,,,7.072057264
1715312910529043460,0.058,,,,7.079752746
1715312910536738942,0.058,,,,7.087448228
1715312910544434424,0.05,,,,7.09514371
1715312910552129906,0.055,,,,7.102839192
1715312910559825388,0.06,,,,7.110534674
1715312910567520870,0.067,,,,7.118230156
1715312910575216352,0.08,,,,7.125925638
1715312910582911834,0.077,,,,7.13362112
1715312910590607316,0.077,,,,7.141316602
1715312910598302798,0.084,,,,7.149012084
1715312910605998280,0.089,,,,7.156707566
1715312910613693762,0.082,,,,7.164403048
1715312910621389244,0.077,,,,7.17209853
1715312910629084726,0.082,,,,7.179794012
1715312910636780208,0.087,,,,7.187489494
1715312910644475690,0.087,,,,7.195184976
1715312910652171172,0.092,,,,7.202880458
1715312910659866654,0.092,,,,7.21057594
1715312910667562136,0.077,,,,7.218271422
1715312910675257618,0.067,,,,7.225966904
1715312910682953100,0.067,,,,7.233662386
1715312910690648582,0.077,,,,7.241357868
1715312910698344064,0.082,,,,7.24905335
1715312910706039546,0.075,,,,7.256748832
1715312910713735028,0.082,,,,7.264444314
1715312910721430510,0.094,,,,7.272139796
1715312910729125992,0.101,,,,7.279835278
1715312910736821474,0.101,,,,7.28753076
1715312910744516956,0.089,,,,7.295226242
1715312910752212508,0.087,94.0,621.0,,7.302921794
1715312910759907851,0.087,,,,7.310617137
1715312910767603194,0.072,,,,7.31831248
1715312910775298537,0.067,,,,7.326007823
1715312910782993880,0.067,,,,7.333703166
1715312910790689223,0.055,,,,7.341398509
1715312910798384566,0.053,,,,7.349093852
1715312910806079909,0.058,,,,7.356789195
1715312910813775252,0.06,,,,7.364484538
1715312910821470595,0.048,,,,7.372179881
1715312910829165938,0.043,,,,7.379875224
1715312910836861281,0.109,,,,7.387570567
1715312910844556624,0.303,,,,7.39526591
1715312910852251967,0.562,,,,7.402961253
1715312910859947310,0.681,,,,7.410656596
1715312910867642653,0.489,,,,7.418351939
1715312910875337996,0.084,,,,7.426047282
1715312910883033339,-0.198,,,,7.433742625
1715312910890728682,-0.177,,,,7.441437968
1715312910898424025,-0.029,,,,7.449133311
1715312910906119368,0.036,,,,7.456828654
1715312910913814711,0.046,,,,7.464523997
1715312910921510054,0.06,,,,7.47221934
1715312910929205397,0.065,,,,7.479914683
1715312910936900740,0.075,,,,7.487610026
1715312910944596083,0.089,,,,7.495305369
1715312910952291426,0.099,,,,7.503000712
1715312910959986769,0.109,,,,7.510696055
1715312910967682112,0.109,,,,7.518391398
1715312910975377455,0.111,,,,7.526086741
1715312910983072798,0.13,,,,7.533782084
1715312910990768141,0.145,,,,7.541477427
1715312910998463484,0.143,,,,7.54917277
1715312911006158827,0.155,,,,7.556868113
1715312911013854170,0.177,,,,7.564563456
1715312911021549513,0.167,,,,7.572258799
1715312911029244856,0.155,,,,7.579954142
1715312911036940199,0.186,,,,7.587649485
1715312911044635542,0.206,,,,7.595344828
1715312911052330885,0.186,,,,7.603040171
1715312911060026228,0.172,,,,7.610735514
1715312911067721571,0.167,,,,7.618430857
1715312911075416914,0.152,,,,7.6261262
1715312911083112257,0.135,,,,7.633821543
1715312911090807600,0.126,,,,7.641516886
1715312911098502943,0.121,,,,7.649212229
1715312911106198286,0.118,,,,7.656907572
1715312911113893629,0.111,,,,7.664602915
1715312911121588972,0.094,,,,7.672298258
1715312911129284315,0.08,,,,7.679993601
1715312911136979658,0.08,,,,7.687688944
1715312911144675001,0.077,,,,7.695384287
1715312911152370344,0.075,,,,7.70307963
1715312911160065687,0.082,,,,7.710774973
1715312911167761030,0.092,,,,7.718470316
1715312911175456373,0.087,,,,7.726165659
1715312911183151716,0.072,,,,7.733861002
1715312911190847059,0.082,,,,7.741556345
1715312911198542402,0.101,,,,7.749251688
1715312911206237745,0.097,,,,7.756947031
1715312911213933088,0.082,,,,7.764642374
1715312911221628431,0.087,,,,7.772337717
1715312911229323774,0.104,,,,7.78003306
1715312911237019117,0.109,,,,7.787728403
1715312911244714460,0.099,,,,7.795423746
1715312911252409803,0.097,,,,7.803119089
1715312911260105146,0.099,,,,7.810814432
1715312911267800489,0.097,,,,7.818509775
1715312911275495832,0.101,,,,7.826205118
1715312911283191175,0.106,,,,7.833900461
1715312911290886518,0.109,,,,7.841595804
1715312911298581861,0.109,,,,7.849291147
1715312911306277204,0.097,,,,7.85698649
1715312911313972594,0.087,,,,7.86468188
1715312911321667798,0.089,,,,7.872377084
1715312911329363002,0.089,,,,7.880072288
1715312911337058206,0.082,,,,7.887767492
1715312911344753410,0.082,,,,7.895462696
1715312911352448614,0.101,,,,7.9031579
1715312911360143818,0.113,,,,7.910853104
1715312911367839022,0.101,,,,7.918548308
1715312911375534226,0.094,,,,7.926243512
1715312911383229430,0.097,,,,7.933938716
1715312911390924634,0.087,,,,7.94163392
1715312911398619838,0.077,,,,7.949329124
1715312911406315042,0.082,,,,7.957024328
1715312911414010246,0.077,,,,7.964719532
1715312911421705450,0.065,,,,7.972414736
1715312911429400654,0.067,,,,7.98010994
1715312911437095858,0.072,,,,7.987805144
1715312911444791062,0.067,,,,7.995500348
1715312911452486266,0.063,,,,8.003195552
1715312911460181470,0.087,,,,8.010890756
1715312911467876674,0.225,,,,8.01858596
1715312911475571878,0.485,,,,8.026281164
1715312911483267082,0.7000000000000001,,,,8.033976368
1715312911490962286,0.6880000000000001,,,,8.041671572
1715312911498657490,0.38,,,,8.049366776
1715312911506352694,-0.05,,,,8.05706198
1715312911514047898,-0.244,,,,8.064757184
1715312911521743102,-0.14,,,,8.072452388
1715312911529438306,-0.004,,,,8.080147592
1715312911537133510,0.029,,,,8.087842796
1715312911544828714,0.036,,,,8.095538
1715312911552523918,0.06,,,,8.103233204
1715312911560219122,0.077,,,,8.110928408
1715312911567914326,0.087,,,,8.118623612
1715312911575609530,0.082,,,,8.126318816
1715312911583304734,0.084,,,,8.13401402
1715312911590999938,0.104,,,,8.141709224
1715312911598695142,0.118,,,,8.149404428
1715312911606390346,0.121,,,,8.157099632
1715312911614085550,0.128,,,,8.164794836
1715312911621780754,0.138,,,,8.17249004
1715312911629475958,0.152,,,,8.180185244
1715312911637171162,0.167,,,,8.187880448
1715312911644866366,0.174,,,,8.195575652
1715312911652561570,0.189,,,,8.203270856
1715312911660256774,0.203,,,,8.21096606
1715312911667951978,0.198,,,,8.218661264
1715312911675647182,0.196,,,,8.226356468
1715312911683342386,0.196,,,,8.234051672
1715312911691037590,0.186,,,,8.241746876
1715312911698732794,0.167,,,,8.24944208
1715312911706427998,0.152,,,,8.257137284
1715312911714123202,0.14,,,,8.264832488
1715312911721818406,0.123,,,,8.272527692
1715312911729513610,0.113,,,,8.280222896
1715312911737208814,0.109,,,,8.2879181
1715312911744904018,0.099,,,,8.295613304
1715312911752599222,0.089,,,,8.303308508
1715312911760294426,0.08,,,,8.311003712
1715312911767989630,0.077,,,,8.318698916
1715312911775684834,0.075,,,,8.32639412
1715312911783380038,0.06,,,,8.334089324
1715312911791075242,0.06,,,,8.341784528
1715312911798770446,0.077,,,,8.349479732
1715312911806465650,0.082,,,,8.357174936
1715312911814160854,0.084,,,,8.36487014
1715312911821856058,0.089,,,,8.372565344
1715312911829551262,0.097,,,,8.380260548
1715312911837246466,0.106,,,,8.387955752
1715312911844941670,0.106,,,,8.395650956
1715312911852636874,0.101,,,,8.40334616
1715312911860332078,0.092,,,,8.411041364
1715312911868027282,0.082,,,,8.418736568
1715312911875722506,0.089,94.0,644.0,,8.426431792
1715312911883418128,0.104,,663.0,,8.434127414
1715312911891113750,0.094,,,,8.441823036
1715312911898809372,0.077,,,,8.449518658
1715312911906504994,0.077,,,,8.45721428
1715312911914200616,0.084,,,,8.464909902
1715312911921896238,0.087,,,,8.472605524
1715312911929591860,0.082,,,,8.480301146
1715312911937287482,0.077,,,,8.487996768
1715312911944983104,0.08,,,,8.49569239
1715312911952678726,0.084,,,,8.503388012
1715312911960374348,0.084,,,,8.511083634
1715312911968069970,0.084,,,,8.518779256
1715312911975765592,0.087,,,,8.526474878
1715312911983461214,0.084,,,,8.5341705
1715312911991156836,0.082,,,,8.541866122
1715312911998852458,0.077,,,,8.549561744
1715312912006548080,0.067,,,,8.557257366
1715312912014243702,0.065,,,,8.564952988
1715312912021939324,0.058,,,,8.57264861
1715312912029634946,0.043,,,,8.580344232
1715312912037330568,0.041,,,,8.588039854
1715312912045026190,0.046,,,,8.595735476
1715312912052721812,0.05,,,,8.603431098
1715312912060417434,0.048,,,,8.61112672
1715312912068113056,0.111,,,,8.618822342
1715312912075808678,0.324,,,,8.626517964
1715312912083504300,0.603,,,,8.634213586
1715312912091199922,0.768,,,,8.641909208
1715312912098895544,0.649,,,,8.64960483
1715312912106591166,0.227,,,,8.657300452
1715312912114286788,-0.181,,,,8.664996074
1715312912121982410,-0.235,,,,8.672691696
1715312912129678032,-0.058,,,,8.680387318
1715312912137373654,0.029,,,,8.68808294
1715312912145069276,0.021,,,,8.695778562
1715312912152764898,0.038,,,,8.703474184
1715312912160460520,0.063,,,,8.711169806
1715312912168156142,0.067,,,,8.718865428
1715312912175851764,0.077,,,,8.72656105
1715312912183547386,0.08,,,,8.734256672
1715312912191243008,0.084,,,,8.741952294
1715312912198938630,0.101,,,,8.749647916
1715312912206634252,0.109,,,,8.757343538
1715312912214329874,0.118,,,,8.76503916
1715312912222025496,0.133,,,,8.772734782
1715312912229721118,0.138,,,,8.780430404
1715312912237416740,0.15,,,,8.788126026
1715312912245112362,0.167,,,,8.795821648
1715312912252807984,0.181,,,,8.80351727
1715312912260503606,0.186,,,,8.811212892
1715312912268199228,0.181,,,,8.818908514
1715312912275894850,0.177,,,,8.826604136
1715312912283590472,0.184,,,,8.834299758
1715312912291286094,0.189,,,,8.84199538
1715312912298981716,0.174,,,,8.849691002
1715312912306677338,0.152,,,,8.857386624
1715312912314372960,0.145,,,,8.865082246
1715312912322068582,0.143,,,,8.872777868
1715312912329764204,0.13,,,,8.88047349
1715312912337459826,0.118,,,,8.888169112
1715312912345155448,0.099,,,,8.895864734
1715312912352851070,0.084,,,,8.903560356
1715312912360546692,0.077,,,,8.911255978
1715312912368242314,0.08,,,,8.9189516
1715312912375937936,0.084,,,,8.926647222
1715312912383633558,0.075,,,,8.934342844
1715312912391329180,0.075,,,,8.942038466
1715312912399024802,0.084,,,,8.949734088
1715312912406720424,0.075,,,,8.95742971
1715312912414416046,0.072,,,,8.965125332
1715312912422111668,0.082,,,,8.972820954
1715312912429807290,0.082,,,,8.980516576
1715312912437502938,0.089,94.0,632.0,,8.988212224
1715312912445198420,0.092,,,,8.995907706
1715312912452893902,0.087,,,,9.003603188
1715312912460589384,0.087,,,,9.01129867
1715312912468284866,0.092,,,,9.018994152
1715312912475980348,0.092,,,,9.026689634
1715312912483675830,0.084,,,,9.034385116
1715312912491371312,0.087,,,,9.042080598
1715312912499066794,0.087,,,,9.04977608
1715312912506762276,0.067,,,,9.057471562
1715312912514457758,0.07,,,,9.065167044
1715312912522153240,0.08,,,,9.072862526
1715312912529848722,0.07,,,,9.080558008
1715312912537544204,0.058,,,,9.08825349
1715312912545239686,0.063,,,,9.095948972
1715312912552935168,0.067,,,,9.103644454
1715312912560630650,0.067,,,,9.111339936
1715312912568326132,0.072,,,,9.119035418
1715312912576021614,0.082,,,,9.1267309
1715312912583717096,0.094,,,,9.134426382
1715312912591412578,0.092,,,,9.142121864
1715312912599108060,0.075,,,,9.149817346
1715312912606803542,0.075,,,,9.157512828
1715312912614499024,0.087,,,,9.16520831
1715312912622194506,0.08,,,,9.172903792
1715312912629889988,0.065,,,,9.180599274
1715312912637585470,0.063,,,,9.188294756
1715312912645280952,0.05,,,,9.195990238
1715312912652976434,0.048,,,,9.20368572
1715312912660671916,0.065,,,,9.211381202
1715312912668367398,0.07,,,,9.219076684
1715312912676062880,0.058,,,,9.226772166
1715312912683758362,0.06,,,,9.234467648
1715312912691453844,0.172,,,,9.24216313
1715312912699149326,0.424,,,,9.249858612
1715312912706844808,0.683,,,,9.257554094
1715312912714540290,0.773,,,,9.265249576
1715312912722235772,0.557,,,,9.272945058
1715312912729931254,0.082,,,,9.28064054
1715312912737626736,-0.244,,,,9.288336022
1715312912745322218,-0.179,,,,9.296031504
1715312912753017700,0.004,,,,9.303726986
1715312912760713182,0.048,,,,9.311422468
1715312912768408664,0.026,,,,9.31911795
1715312912776104146,0.041,,,,9.326813432
1715312912783799628,0.06,,,,9.334508914
1715312912791495110,0.067,,,,9.342204396
1715312912799190592,0.075,,,,9.349899878
1715312912806886074,0.084,,,,9.35759536
1715312912814581556,0.101,,,,9.365290842
1715312912822277038,0.113,,,,9.372986324
1715312912829972520,0.121,,,,9.380681806
1715312912837668002,0.135,,,,9.388377288
1715312912845363484,0.143,,,,9.39607277
1715312912853058966,0.147,,,,9.403768252
1715312912860754448,0.155,,,,9.411463734
1715312912868449930,0.169,,,,9.419159216
1715312912876145412,0.189,,,,9.426854698
1715312912883840894,0.201,,,,9.43455018
1715312912891536376,0.206,,,,9.442245662
1715312912899231858,0.203,,,,9.449941144
1715312912906927340,0.191,,,,9.457636626
1715312912914622822,0.181,,,,9.465332108
1715312912922318304,0.177,,,,9.47302759
1715312912930013786,0.162,,,,9.480723072
1715312912937709268,0.152,,,,9.488418554
1715312912945404750,0.145,,,,9.496114036
1715312912953100232,0.13,,,,9.503809518
1715312912960795714,0.116,,,,9.511505
1715312912968491196,0.101,,,,9.519200482
1715312912976186678,0.082,,,,9.526895964
1715312912983882160,0.065,,,,9.534591446
1715312912991577642,0.07,,,,9.542286928
1715312912999273196,0.08,,,,9.549982482
1715312913006968539,0.072,,,,9.557677825
1715312913014663882,0.07,,,,9.565373168
1715312913022359225,0.089,,,,9.573068511
1715312913030054568,0.099,,,,9.580763854
1715312913037749911,0.084,,,,9.588459197
1715312913045445254,0.065,,,,9.59615454
1715312913053140597,0.065,,,,9.603849883
1715312913060835940,0.077,,,,9.611545226
1715312913068531283,0.08,,,,9.619240569
1715312913076226626,0.07,,,,9.626935912
1715312913083921969,0.075,,,,9.634631255
1715312913091617312,0.087,,,,9.642326598
1715312913099312655,0.08,,,,9.650021941
1715312913107007998,0.075,,,,9.657717284
1715312913114703341,0.087,,,,9.665412627
1715312913122398684,0.084,,,,9.67310797
1715312913130094027,0.08,,,,9.680803313
1715312913137789370,0.082,,,,9.688498656
1715312913145484713,0.082,,,,9.696193999
1715312913153180056,0.082,,,,9.703889342
1715312913160875399,0.087,,,,9.711584685
1715312913168570742,0.082,,,,9.719280028
1715312913176266085,0.087,,,,9.726975371
1715312913183961428,0.097,,,,9.734670714
1715312913191656771,0.087,,,,9.742366057
1715312913199352114,0.075,,,,9.7500614
1715312913207047457,0.084,,,,9.757756743
1715312913214742800,0.097,,,,9.765452086
1715312913222438143,0.101,,,,9.773147429
1715312913230133486,0.116,,,,9.780842772
1715312913237828829,0.116,,,,9.788538115
1715312913245524172,0.092,,,,9.796233458
1715312913253219515,0.094,,,,9.803928801
1715312913260914858,0.101,,,,9.811624144
1715312913268610201,0.087,,,,9.819319487
1715312913276305544,0.077,,,,9.82701483
1715312913284000887,0.072,,,,9.834710173
1715312913291696230,0.065,,,,9.842405516
1715312913299391573,0.067,,,,9.850100859
1715312913307086916,0.08,,,,9.857796202
1715312913314782259,0.084,,,,9.865491545
1715312913322477602,0.075,,,,9.873186888
1715312913330172945,0.13,,,,9.880882231
1715312913337868288,0.329,,,,9.888577574
1715312913345563631,0.589,,,,9.896272917
1715312913353258974,0.744,,,,9.90396826
1715312913360954317,0.628,,,,9.911663603
1715312913368649660,0.225,,,,9.919358946
1715312913376345003,-0.157,,,,9.927054289
1715312913384040346,-0.208,,,,9.934749632
1715312913391735689,-0.033,,,,9.942444975
1715312913399431032,0.063,,,,9.950140318
1715312913407126375,0.06,,,,9.957835661
1715312913414821718,0.077,,,,9.965531004
1715312913422517061,0.104,,,,9.973226347
1715312913430212404,0.094,,,,9.98092169
1715312913437907747,0.084,,,,9.988617033
1715312913445603090,0.094,,,,9.996312376
1715312913453298433,0.116,,,,10.004007719
1715312913460993776,0.126,,,,10.011703062
1715312913468689119,0.13,,,,10.019398405
1715312913476384462,0.147,,,,10.027093748
1715312913484079805,0.155,,,,10.034789091
1715312913491775148,0.155,,,,10.042484434
1715312913499470491,0.169,,,,10.050179777
1715312913507165834,0.189,,,,10.05787512
1715312913514861177,0.196,,,,10.065570463
1715312913522556520,0.203,,,,10.073265806
1715312913530251863,0.218,,,,10.080961149
1715312913537947206,0.218,,,,10.088656492
1715312913545642549,0.194,,,,10.096351835
1715312913553337892,0.177,,,,10.104047178
1715312913561033280,0.174,94.0,628.0,,10.111742566
1715312913568728484,0.164,,604.0,,10.11943777
1715312913576423688,0.155,,,,10.127132974
1715312913584118892,0.152,,,,10.134828178
1715312913591814096,0.145,,,,10.142523382
1715312913599509300,0.138,,,,10.150218586
1715312913607204504,0.123,,,,10.15791379
1715312913614899708,0.101,,,,10.165608994
1715312913622594912,0.092,,,,10.173304198
1715312913630290116,0.092,,,,10.180999402
1715312913637985320,0.08,,,,10.188694606
1715312913645680524,0.065,,,,10.19638981
1715312913653375728,0.07,,,,10.204085014
1715312913661070932,0.082,,,,10.211780218
1715312913668766136,0.087,,,,10.219475422
1715312913676461340,0.092,,,,10.227170626
1715312913684156544,0.089,,,,10.23486583
1715312913691851748,0.092,,,,10.242561034
1715312913699546952,0.099,,,,10.250256238
1715312913707242156,0.099,,,,10.257951442
1715312913714937360,0.089,,,,10.265646646
1715312913722632564,0.077,,,,10.27334185
1715312913730327768,0.082,,,,10.281037054
1715312913738022972,0.097,,,,10.288732258
1715312913745718176,0.101,,,,10.296427462
1715312913753413380,0.087,,,,10.304122666
1715312913761108584,0.077,,,,10.31181787
1715312913768803788,0.089,,,,10.319513074
1715312913776498992,0.106,,,,10.327208278
1715312913784194196,0.101,,,,10.334903482
1715312913791889400,0.082,,,,10.342598686
1715312913799584604,0.075,,,,10.35029389
1715312913807279808,0.082,,,,10.357989094
1715312913814975012,0.089,,,,10.365684298
1715312913822670216,0.087,,,,10.373379502
1715312913830365420,0.082,,,,10.381074706
1715312913838060624,0.087,,,,10.38876991
1715312913845755828,0.089,,,,10.396465114
1715312913853451032,0.094,,,,10.404160318
1715312913861146236,0.097,,,,10.411855522
1715312913868841440,0.104,,,,10.419550726
1715312913876536644,0.113,,,,10.42724593
1715312913884231848,0.113,,,,10.434941134
1715312913891927052,0.118,,,,10.442636338
1715312913899622256,0.116,,,,10.450331542
1715312913907317460,0.099,,,,10.458026746
1715312913915012664,0.084,,,,10.46572195
1715312913922707868,0.082,,,,10.473417154
1715312913930403072,0.082,,,,10.481112358
1715312913938098276,0.072,,,,10.488807562
1715312913945793480,0.053,,,,10.496502766
1715312913953488684,0.058,,,,10.50419797
1715312913961183888,0.07,,,,10.511893174
1715312913968879092,0.063,,,,10.519588378
1715312913976574296,0.058,,,,10.527283582
1715312913984269500,0.06,,,,10.534978786
1715312913991964704,0.106,,,,10.54267399
1715312913999659908,0.269,,,,10.550369194
1715312914007355112,0.509,,,,10.558064398
1715312914015050316,0.64,,,,10.565759602
1715312914022745520,0.492,,,,10.573454806
1715312914030440724,0.113,,,,10.58115001
1715312914038135928,-0.196,,,,10.588845214
1715312914045831132,-0.218,,,,10.596540418
1715312914053526336,-0.07,,,,10.604235622
1715312914061221540,0.021,,,,10.611930826
1715312914068916744,0.041,,,,10.61962603
1715312914076611948,0.063,,,,10.627321234
1715312914084307152,0.075,,,,10.635016438
1715312914092002356,0.058,,,,10.642711642
1715312914099697560,0.053,,,,10.650406846
1715312914107392764,0.07,,,,10.65810205
1715312914115087968,0.082,,,,10.665797254
1715312914122783192,0.089,,,,10.673492478
1715312914130478814,0.106,,,,10.6811881
1715312914138174436,0.123,,,,10.688883722
1715312914145870058,0.126,,,,10.696579344
1715312914153565680,0.118,,,,10.704274966
1715312914161261302,0.13,,,,10.711970588
1715312914168956924,0.152,,,,10.71966621
1715312914176652546,0.155,,,,10.727361832
1715312914184348168,0.138,,,,10.735057454
1715312914192043790,0.133,,,,10.742753076
1715312914199739412,0.157,,,,10.750448698
1715312914207435034,0.167,,,,10.75814432
1715312914215130656,0.155,,,,10.765839942
1715312914222826278,0.143,,,,10.773535564
1715312914230521900,0.135,,,,10.781231186
1715312914238217522,0.128,,,,10.788926808
1715312914245913144,0.118,,,,10.79662243
1715312914253608766,0.113,,,,10.804318052
1715312914261304388,0.109,,,,10.812013674
1715312914269000010,0.094,,,,10.819709296
1715312914276695632,0.077,,,,10.827404918
1715312914284391254,0.06,,,,10.83510054
1715312914292086876,0.055,,,,10.842796162
1715312914299782498,0.053,,,,10.850491784
1715312914307478120,0.043,,,,10.858187406
1715312914315173742,0.046,,,,10.865883028
1715312914322869364,0.063,,,,10.87357865
1715312914330564986,0.065,,,,10.881274272
1715312914338260608,0.058,,,,10.888969894
1715312914345956230,0.065,,,,10.896665516
1715312914353651852,0.075,,,,10.904361138
1715312914361347474,0.07,,,,10.91205676
1715312914369043096,0.067,,,,10.919752382
1715312914376738718,0.07,,,,10.927448004
1715312914384434340,0.063,,,,10.935143626
1715312914392129962,0.055,,,,10.942839248
1715312914399825584,0.07,,,,10.95053487
1715312914407521206,0.077,,,,10.958230492
1715312914415216828,0.07,,,,10.965926114
1715312914422912450,0.06,,,,10.973621736
1715312914430608072,0.053,,,,10.981317358
1715312914438303694,0.053,,,,10.98901298
1715312914445999316,0.048,,,,10.996708602
1715312914453694938,0.041,,,,11.004404224
1715312914461390560,0.048,,,,11.012099846
1715312914469086182,0.063,,,,11.019795468
1715312914476781804,0.06,,,,11.02749109
1715312914484477426,0.05,,,,11.035186712
1715312914492173048,0.06,,,,11.042882334
1715312914499868670,0.07,,,,11.050577956
1715312914507564292,0.053,,,,11.058273578
1715312914515259914,0.048,,,,11.0659692
1715312914522955536,0.065,,,,11.073664822
1715312914530651158,0.075,,,,11.081360444
1715312914538346780,0.075,,,,11.089056066
1715312914546042402,0.063,,,,11.096751688
1715312914553738024,0.046,,,,11.10444731
1715312914561433646,0.046,,,,11.112142932
1715312914569129268,0.05,,,,11.119838554
1715312914576824890,0.055,,,,11.127534176
1715312914584520512,0.046,,,,11.135229798
1715312914592216134,0.024,,,,11.14292542
1715312914599911756,0.014,,,,11.150621042
1715312914607607378,0.019,,,,11.158316664
1715312914615303000,0.033,,,,11.166012286
1715312914622998622,0.046,,,,11.173707908
1715312914630694244,0.036,,,,11.18140353
1715312914638389866,0.046,,,,11.189099152
1715312914646085488,0.152,,,,11.196794774
1715312914653781110,0.366,,,,11.204490396
1715312914661476732,0.5670000000000001,,,,11.212186018
1715312914669172354,0.579,,,,11.21988164
1715312914676867976,0.303,,,,11.227577262
1715312914684563622,-0.087,95.0,621.0,,11.235272908
1715312914692258826,-0.252,,,,11.242968112
1715312914699954030,-0.14,,,,11.250663316
1715312914707649234,-0.012,,,,11.25835852
1715312914715344438,0.014,,,,11.266053724
1715312914723039642,0.009,,,,11.273748928
1715312914730734846,0.021,,,,11.281444132
1715312914738430050,0.043,,,,11.289139336
1715312914746125254,0.053,,,,11.29683454
1715312914753820458,0.05,,,,11.304529744
1715312914761515662,0.063,,,,11.312224948
1715312914769210866,0.092,,,,11.319920152
1715312914776906070,0.111,,,,11.327615356
1715312914784601274,0.106,,,,11.33531056
1715312914792296478,0.099,,,,11.343005764
1715312914799991682,0.113,,,,11.350700968
1715312914807686886,0.126,,,,11.358396172
1715312914815382090,0.14,,,,11.366091376
1715312914823077294,0.162,,,,11.37378658
1715312914830772498,0.174,,,,11.381481784
1715312914838467702,0.179,,,,11.389176988
1715312914846162906,0.172,,,,11.396872192
1715312914853858110,0.157,,,,11.404567396
1715312914861553314,0.152,,,,11.4122626
1715312914869248518,0.152,,,,11.419957804
1715312914876943722,0.152,,,,11.427653008
1715312914884638926,0.15,,,,11.435348212
1715312914892334130,0.138,,,,11.443043416
1715312914900029334,0.118,,,,11.45073862
1715312914907724538,0.099,,,,11.458433824
1715312914915419742,0.099,,,,11.466129028
1715312914923114946,0.104,,,,11.473824232
1715312914930810150,0.087,,,,11.481519436
1715312914938505354,0.065,,,,11.48921464
1715312914946200558,0.048,,,,11.496909844
1715312914953895762,0.048,,,,11.504605048
1715312914961590966,0.053,,,,11.512300252
1715312914969286170,0.058,,,,11.519995456
1715312914976981374,0.067,,,,11.52769066
1715312914984676578,0.07,,,,11.535385864
1715312914992371782,0.058,,,,11.543081068
1715312915000066986,0.058,,,,11.550776272
1715312915007762190,0.075,,,,11.558471476
1715312915015457394,0.075,,,,11.56616668
1715312915023152598,0.065,,,,11.573861884
1715312915030847802,0.072,,,,11.581557088
1715312915038543006,0.082,,,,11.589252292
1715312915046238210,0.07,,,,11.596947496
1715312915053933414,0.055,,,,11.6046427
1715312915061628618,0.055,,,,11.612337904
1715312915069323822,0.067,,,,11.620033108
1715312915077019026,0.075,,,,11.627728312
1715312915084714230,0.063,,,,11.635423516
1715312915092409434,0.05,,,,11.64311872
1715312915100104638,0.058,,,,11.650813924
1715312915107799842,0.067,,,,11.658509128
1715312915115495046,0.07,,,,11.666204332
1715312915123190250,0.067,,,,11.673899536
1715312915130885454,0.063,,,,11.68159474
1715312915138580658,0.063,,,,11.689289944
1715312915146275862,0.065,,,,11.696985148
1715312915153971066,0.072,,,,11.704680352
1715312915161666270,0.065,,,,11.712375556
1715312915169361474,0.058,,,,11.72007076
1715312915177056678,0.075,,,,11.727765964
1715312915184751882,0.087,,,,11.735461168
1715312915192447086,0.082,,,,11.743156372
1715312915200142290,0.077,,,,11.750851576
1715312915207837494,0.063,,,,11.75854678
1715312915215532698,0.046,,,,11.766241984
1715312915223227902,0.046,,,,11.773937188
1715312915230923106,0.06,,,,11.781632392
1715312915238618310,0.072,,,,11.789327596
1715312915246313534,0.065,,,,11.79702282
1715312915254008738,0.053,,,,11.804718024
1715312915261703942,0.043,,,,11.812413228
1715312915269399146,0.087,,,,11.820108432
1715312915277094350,0.266,,,,11.827803636
1715312915284789554,0.523,,,,11.83549884
1715312915292484758,0.676,,,,11.843194044
1715312915300179962,0.557,,,,11.850889248
1715312915307875166,0.177,,,,11.858584452
1715312915315570370,-0.177,,,,11.866279656
1715312915323265574,-0.225,,,,11.87397486
1715312915330960778,-0.077,,,,11.881670064
1715312915338655982,0.026,,,,11.889365268
1715312915346351186,0.046,,,,11.897060472
1715312915354046390,0.046,,,,11.904755676
1715312915361741594,0.053,,,,11.91245088
1715312915369436798,0.067,,,,11.920146084
1715312915377132002,0.082,,,,11.927841288
1715312915384827206,0.092,,,,11.935536492
1715312915392522410,0.109,,,,11.943231696
1715312915400217614,0.123,,,,11.9509269
1715312915407912818,0.118,,,,11.958622104
1715312915415608022,0.118,,,,11.966317308
1715312915423303226,0.13,,,,11.974012512
1715312915430998430,0.147,,,,11.981707716
1715312915438693634,0.162,,,,11.98940292
1715312915446388838,0.167,,,,11.997098124
1715312915454084042,0.177,,,,12.004793328
1715312915461779246,0.203,,,,12.012488532
1715312915469474450,0.213,,,,12.020183736
1715312915477169654,0.198,,,,12.02787894
1715312915484864858,0.186,,,,12.035574144
1715312915492560062,0.191,,,,12.043269348
1715312915500255266,0.191,,,,12.050964552
1715312915507950470,0.177,,,,12.058659756
1715312915515645674,0.174,,,,12.06635496
1715312915523340878,0.169,,,,12.074050164
1715312915531036082,0.143,,,,12.081745368
1715312915538731286,0.126,,,,12.089440572
1715312915546426490,0.123,,,,12.097135776
1715312915554121694,0.106,,,,12.10483098
1715312915561816898,0.084,,,,12.112526184
1715312915569512102,0.077,,,,12.120221388
1715312915577207306,0.077,,,,12.127916592
1715312915584902510,0.07,,,,12.135611796
1715312915592597714,0.07,,,,12.143307
1715312915600292918,0.082,,,,12.151002204
1715312915607988122,0.084,,,,12.158697408
1715312915615683326,0.077,,,,12.166392612
1715312915623378530,0.087,,,,12.174087816
1715312915631073734,0.104,,,,12.18178302
1715312915638768938,0.106,,,,12.189478224
1715312915646464142,0.089,,,,12.197173428
1715312915654159346,0.077,,,,12.204868632
1715312915661854550,0.087,,,,12.212563836
1715312915669549754,0.092,,,,12.22025904
1715312915677244958,0.089,,,,12.227954244
1715312915684940162,0.087,,,,12.235649448
1715312915692635366,0.089,,,,12.243344652
1715312915700330570,0.094,,,,12.251039856
1715312915708025774,0.094,,,,12.25873506
1715312915715720978,0.087,,,,12.266430264
1715312915723416182,0.08,,,,12.274125468
1715312915731111386,0.084,,,,12.281820672
1715312915738806590,0.092,,,,12.289515876
1715312915746501794,0.084,,,,12.29721108
1715312915754196998,0.082,,,,12.304906284
1715312915761892202,0.087,,,,12.312601488
1715312915769587406,0.084,,,,12.320296692
1715312915777282610,0.075,,,,12.327991896
1715312915784977814,0.077,,,,12.3356871
1715312915792673018,0.092,,,,12.343382304
1715312915800368222,0.109,,,,12.351077508
1715312915808063448,0.109,95.0,641.0,,12.358772734
1715312915815759070,0.101,,661.0,,12.366468356
1715312915823454692,0.109,,,,12.374163978
1715312915831150314,0.109,,,,12.3818596
1715312915838845936,0.092,,,,12.389555222
1715312915846541558,0.077,,,,12.397250844
1715312915854237180,0.065,,,,12.404946466
1715312915861932802,0.063,,,,12.412642088
1715312915869628424,0.067,,,,12.42033771
1715312915877324046,0.08,,,,12.428033332
1715312915885019668,0.084,,,,12.435728954
1715312915892715290,0.065,,,,12.443424576
1715312915900410912,0.087,,,,12.451120198
1715312915908106534,0.24,,,,12.45881582
1715312915915802156,0.489,,,,12.466511442
1715312915923497778,0.676,,,,12.474207064
1715312915931193400,0.645,,,,12.481902686
1715312915938889022,0.332,,,,12.489598308
1715312915946584644,-0.092,,,,12.49729393
1715312915954280266,-0.257,,,,12.504989552
1715312915961975888,-0.121,,,,12.512685174
1715312915969671510,0.012,,,,12.520380796
1715312915977367132,0.033,,,,12.528076418
1715312915985062754,0.036,,,,12.53577204
1715312915992758376,0.053,,,,12.543467662
1715312916000453998,0.065,,,,12.551163284
1715312916008149620,0.075,,,,12.558858906
1715312916015845242,0.092,,,,12.566554528
1715312916023540864,0.099,,,,12.57425015
1715312916031236486,0.104,,,,12.581945772
1715312916038932108,0.118,,,,12.589641394
1715312916046627730,0.128,,,,12.597337016
1715312916054323352,0.128,,,,12.605032638
1715312916062018974,0.14,,,,12.61272826
1715312916069714596,0.147,,,,12.620423882
1715312916077410218,0.152,,,,12.628119504
1715312916085105840,0.172,,,,12.635815126
1715312916092801462,0.186,,,,12.643510748
1715312916100497084,0.184,,,,12.65120637
1715312916108192706,0.181,,,,12.658901992
1715312916115888328,0.186,,,,12.666597614
1715312916123583950,0.181,,,,12.674293236
1715312916131279572,0.164,,,,12.681988858
1715312916138975194,0.15,,,,12.68968448
1715312916146670816,0.133,,,,12.697380102
1715312916154366438,0.123,,,,12.705075724
1715312916162062060,0.126,,,,12.712771346
1715312916169757682,0.116,,,,12.720466968
1715312916177453304,0.106,,,,12.72816259
1715312916185148926,0.106,,,,12.735858212
1715312916192844548,0.094,,,,12.743553834
1715312916200540170,0.07,,,,12.751249456
1715312916208235792,0.063,,,,12.758945078
1715312916215931414,0.072,,,,12.7666407
1715312916223627036,0.075,,,,12.774336322
1715312916231322658,0.07,,,,12.782031944
1715312916239018280,0.077,,,,12.789727566
1715312916246713902,0.084,,,,12.797423188
1715312916254409524,0.084,,,,12.80511881
1715312916262105146,0.089,,,,12.812814432
1715312916269800768,0.089,,,,12.820510054
1715312916277496390,0.082,,,,12.828205676
1715312916285192012,0.08,,,,12.835901298
1715312916292887634,0.092,,,,12.84359692
1715312916300583256,0.106,,,,12.851292542
1715312916308278878,0.094,,,,12.858988164
1715312916315974500,0.077,,,,12.866683786
1715312916323670122,0.08,,,,12.874379408
1715312916331365744,0.082,,,,12.88207503
1715312916339061366,0.082,,,,12.889770652
1715312916346756988,0.084,,,,12.897466274
1715312916354452610,0.087,,,,12.905161896
1715312916362148232,0.082,,,,12.912857518
1715312916369843878,0.067,94.0,650.0,,12.920553164
1715312916377539082,0.07,,628.0,,12.928248368
1715312916385234286,0.077,,,,12.935943572
1715312916392929490,0.065,,,,12.943638776
1715312916400624694,0.058,,,,12.95133398
1715312916408319898,0.063,,,,12.959029184
1715312916416015102,0.067,,,,12.966724388
1715312916423710306,0.072,,,,12.974419592
1715312916431405510,0.07,,,,12.982114796
1715312916439100714,0.07,,,,12.98981
1715312916446795918,0.077,,,,12.997505204
1715312916454491122,0.084,,,,13.005200408
1715312916462186326,0.082,,,,13.012895612
1715312916469881530,0.084,,,,13.020590816
1715312916477576734,0.094,,,,13.02828602
1715312916485271938,0.08,,,,13.035981224
1715312916492967142,0.06,,,,13.043676428
1715312916500662346,0.058,,,,13.051371632
1715312916508357550,0.063,,,,13.059066836
1715312916516052754,0.065,,,,13.06676204
1715312916523747958,0.065,,,,13.074457244
1715312916531443162,0.07,,,,13.082152448
1715312916539138366,0.077,,,,13.089847652
1715312916546833570,0.075,,,,13.097542856
1715312916554528774,0.128,,,,13.10523806
1715312916562223978,0.315,,,,13.112933264
1715312916569919182,0.552,,,,13.120628468
1715312916577614386,0.674,,,,13.128323672
1715312916585309590,0.54,,,,13.136018876
1715312916593004794,0.157,,,,13.14371408
1715312916600699998,-0.186,,,,13.151409284
1715312916608395202,-0.213,,,,13.159104488
1715312916616090406,-0.046,,,,13.166799692
1715312916623785610,0.041,,,,13.174494896
1715312916631480814,0.033,,,,13.1821901
1715312916639176018,0.041,,,,13.189885304
1715312916646871222,0.05,,,,13.197580508
1715312916654566426,0.046,,,,13.205275712
1715312916662261630,0.06,,,,13.212970916
1715312916669956834,0.082,,,,13.22066612
1715312916677652038,0.099,,,,13.228361324
1715312916685347242,0.118,,,,13.236056528
1715312916693042446,0.123,,,,13.243751732
1715312916700737650,0.116,,,,13.251446936
1715312916708432854,0.128,,,,13.25914214
1715312916716128058,0.147,,,,13.266837344
1715312916723823262,0.157,,,,13.274532548
1715312916731518466,0.16,,,,13.282227752
1715312916739213670,0.167,,,,13.289922956
1715312916746908874,0.184,,,,13.29761816
1715312916754604078,0.201,,,,13.305313364
1715312916762299282,0.203,,,,13.313008568
1715312916769994486,0.189,,,,13.320703772
1715312916777689690,0.186,,,,13.328398976
1715312916785384894,0.179,,,,13.33609418
1715312916793080098,0.167,,,,13.343789384
1715312916800775302,0.167,,,,13.351484588
1715312916808470506,0.16,,,,13.359179792
1715312916816165710,0.14,,,,13.366874996
1715312916823860914,0.128,,,,13.3745702
1715312916831556118,0.121,,,,13.382265404
1715312916839251322,0.109,,,,13.389960608
1715312916846946526,0.092,,,,13.397655812
1715312916854641730,0.077,,,,13.405351016
1715312916862336934,0.08,,,,13.41304622
1715312916870032138,0.08,,,,13.420741424
1715312916877727342,0.077,,,,13.428436628
1715312916885422546,0.084,,,,13.436131832
1715312916893117750,0.089,,,,13.443827036
1715312916900812954,0.084,,,,13.45152224
1715312916908508158,0.077,,,,13.459217444
1715312916916203362,0.084,,,,13.466912648
1715312916923898566,0.092,,,,13.474607852
1715312916931593790,0.08,,,,13.482303076
1715312916939288994,0.072,,,,13.48999828
1715312916946984198,0.077,,,,13.497693484
1715312916954679402,0.082,,,,13.505388688
1715312916962374606,0.087,,,,13.513083892
1715312916970069810,0.082,,,,13.520779096
1715312916977765014,0.082,,,,13.5284743
1715312916985460218,0.092,,,,13.536169504
1715312916993155422,0.094,,,,13.543864708
1715312917000850626,0.08,,,,13.551559912
1715312917008545830,0.063,,,,13.559255116
1715312917016241034,0.06,,,,13.56695032
1715312917023936238,0.058,,,,13.574645524
1715312917031631442,0.05,,,,13.582340728
1715312917039326646,0.055,,,,13.590035932
1715312917047021850,0.065,,,,13.597731136
1715312917054717054,0.067,,,,13.60542634
1715312917062412258,0.067,,,,13.613121544
1715312917070107462,0.06,,,,13.620816748
1715312917077802666,0.053,,,,13.628511952
1715312917085497870,0.046,,,,13.636207156
1715312917093193074,0.041,,,,13.64390236
1715312917100888278,0.05,,,,13.651597564
1715312917108583482,0.065,,,,13.659292768
1715312917116278686,0.067,,,,13.666987972
1715312917123973890,0.06,,,,13.674683176
1715312917131669094,0.058,,,,13.68237838
1715312917139364298,0.075,,,,13.690073584
1715312917147059502,0.087,,,,13.697768788
1715312917154754706,0.094,,,,13.705463992
1715312917162449910,0.097,,,,13.713159196
1715312917170145114,0.092,,,,13.7208544
1715312917177840318,0.099,,,,13.728549604
1715312917185535522,0.099,,,,13.736244808
1715312917193230726,0.089,,,,13.743940012
1715312917200925930,0.089,,,,13.751635216
1715312917208621134,0.077,,,,13.75933042
1715312917216316338,0.07,,,,13.767025624
1715312917224011542,0.084,,,,13.774720828
1715312917231706746,0.092,,,,13.782416032
1715312917239401950,0.084,,,,13.790111236
1715312917247097154,0.082,,,,13.79780644
1715312917254792358,0.08,,,,13.805501644
1715312917262487562,0.135,,,,13.813196848
1715312917270182766,0.303,,,,13.820892052
1715312917277877970,0.523,,,,13.828587256
1715312917285573174,0.666,,,,13.83628246
1715312917293268378,0.601,,,,13.843977664
1715312917300963582,0.271,,,,13.851672868
1715312917308658786,-0.111,,,,13.859368072
1715312917316353990,-0.194,,,,13.867063276
1715312917324049194,-0.031,,,,13.87475848
1715312917331744398,0.067,,,,13.882453684
1715312917339439602,0.067,,,,13.890148888
1715312917347134806,0.067,,,,13.897844092
1715312917354830010,0.077,,,,13.905539296
1715312917362525214,0.089,,,,13.9132345
1715312917370220418,0.097,,,,13.920929704
1715312917377915622,0.099,,,,13.928624908
1715312917385610826,0.101,,,,13.936320112
1715312917393306030,0.109,,,,13.944015316
1715312917401001234,0.126,,,,13.95171052
1715312917408696438,0.14,,,,13.959405724
1715312917416391642,0.15,,,,13.967100928
1715312917424086846,0.162,,,,13.974796132
1715312917431782050,0.172,,,,13.982491336
1715312917439477254,0.184,,,,13.99018654
1715312917447172458,0.191,,,,13.997881744
1715312917454867662,0.198,,,,14.005576948
1715312917462562866,0.208,,,,14.013272152
1715312917470258070,0.213,,,,14.020967356
1715312917477953274,0.213,,,,14.02866256
1715312917485648478,0.208,,,,14.036357764
1715312917493343702,0.201,94.0,634.0,,14.044052988
1715312917501039324,0.194,,,,14.05174861
1715312917508734946,0.181,,,,14.059444232
1715312917516430568,0.164,,,,14.067139854
1715312917524126190,0.147,,,,14.074835476
1715312917531821812,0.138,,,,14.082531098
1715312917539517434,0.126,,,,14.09022672
1715312917547213056,0.111,,,,14.097922342
1715312917554908678,0.101,,,,14.105617964
1715312917562604300,0.092,,,,14.113313586
1715312917570299922,0.077,,,,14.121009208
1715312917577995544,0.07,,,,14.12870483
1715312917585691166,0.072,,,,14.136400452
1715312917593386788,0.072,,,,14.144096074
1715312917601082410,0.075,,,,14.151791696
1715312917608778032,0.072,,,,14.159487318
1715312917616473654,0.065,,,,14.16718294
1715312917624169276,0.06,,,,14.174878562
1715312917631864898,0.065,,,,14.182574184
1715312917639560520,0.075,,,,14.190269806
1715312917647256142,0.077,,,,14.197965428
1715312917654951764,0.075,,,,14.20566105
1715312917662647386,0.072,,,,14.213356672
1715312917670343008,0.06,,,,14.221052294
1715312917678038630,0.06,,,,14.228747916
1715312917685734252,0.065,,,,14.236443538
1715312917693429874,0.058,,,,14.24413916
1715312917701125496,0.065,,,,14.251834782
1715312917708821118,0.07,,,,14.259530404
1715312917716516740,0.065,,,,14.267226026
1715312917724212362,0.07,,,,14.274921648
1715312917731907984,0.072,,,,14.28261727
1715312917739603606,0.072,,,,14.290312892
1715312917747299228,0.072,,,,14.298008514
1715312917754994850,0.07,,,,14.305704136
1715312917762690472,0.07,,,,14.313399758
1715312917770386094,0.067,,,,14.32109538
1715312917778081716,0.072,,,,14.328791002
1715312917785777338,0.084,,,,14.336486624
1715312917793472960,0.084,,,,14.344182246
1715312917801168582,0.07,,,,14.351877868
1715312917808864204,0.067,,,,14.35957349
1715312917816559826,0.084,,,,14.367269112
1715312917824255448,0.084,,,,14.374964734
1715312917831951070,0.067,,,,14.382660356
1715312917839646692,0.075,,,,14.390355978
1715312917847342314,0.099,,,,14.3980516
1715312917855037936,0.106,,,,14.405747222
1715312917862733558,0.101,,,,14.413442844
1715312917870429180,0.089,,,,14.421138466
1715312917878124802,0.104,,,,14.428834088
1715312917885820424,0.126,,,,14.43652971
1715312917893516046,0.123,,,,14.444225332
1715312917901211668,0.116,,,,14.451920954
1715312917908907290,0.111,,,,14.459616576
1715312917916602912,0.094,,,,14.467312198
1715312917924298534,0.08,,,,14.47500782
1715312917931994156,0.075,,,,14.482703442
1715312917939689778,0.084,,,,14.490399064
1715312917947385400,0.094,,,,14.498094686
1715312917955081022,0.089,,,,14.505790308
1715312917962776644,0.087,,,,14.51348593
1715312917970472266,0.087,,,,14.521181552
1715312917978167888,0.104,,,,14.528877174
1715312917985863510,0.208,,,,14.536572796
1715312917993559132,0.407,,,,14.544268418
1715312918001254754,0.591,,,,14.55196404
1715312918008950376,0.599,,,,14.559659662
1715312918016645998,0.346,,,,14.567355284
1715312918024341620,-0.026,,,,14.575050906
1715312918032037242,-0.203,,,,14.582746528
1715312918039732864,-0.111,,,,14.59044215
1715312918047428486,0.024,,,,14.598137772
1715312918055124132,0.075,,,,14.605833418
1715312918062819336,0.087,,,,14.613528622
1715312918070514540,0.101,,,,14.621223826
1715312918078209744,0.113,,,,14.62891903
1715312918085904948,0.106,,,,14.636614234
1715312918093600152,0.104,,,,14.644309438
1715312918101295356,0.116,,,,14.652004642
1715312918108990560,0.126,,,,14.659699846
1715312918116685764,0.123,,,,14.66739505
1715312918124380968,0.126,,,,14.675090254
1715312918132076172,0.126,,,,14.682785458
1715312918139771376,0.133,,,,14.690480662
1715312918147466580,0.147,,,,14.698175866
1715312918155161784,0.157,,,,14.70587107
1715312918162856988,0.169,,,,14.713566274
1715312918170552192,0.186,,,,14.721261478
1715312918178247396,0.198,,,,14.728956682
1715312918185942600,0.206,,,,14.736651886
1715312918193637804,0.203,,,,14.74434709
1715312918201333008,0.186,,,,14.752042294
1715312918209028212,0.174,,,,14.759737498
1715312918216723416,0.179,,,,14.767432702
1715312918224418620,0.174,,,,14.775127906
1715312918232113824,0.15,,,,14.78282311
1715312918239809028,0.138,,,,14.790518314
1715312918247504232,0.135,,,,14.798213518
1715312918255199436,0.123,,,,14.805908722
1715312918262894640,0.106,,,,14.813603926
1715312918270589844,0.094,,,,14.82129913
1715312918278285048,0.094,,,,14.828994334
1715312918285980252,0.094,,,,14.836689538
1715312918293675456,0.084,,,,14.844384742
1715312918301370660,0.08,,,,14.852079946
1715312918309065864,0.077,,,,14.85977515
1715312918316761068,0.065,,,,14.867470354
1715312918324456272,0.05,,,,14.875165558
1715312918332151476,0.05,,,,14.882860762
1715312918339846680,0.06,,,,14.890555966
1715312918347541884,0.06,,,,14.89825117
1715312918355237088,0.058,,,,14.905946374
1715312918362932292,0.058,,,,14.913641578
1715312918370627496,0.063,,,,14.921336782
1715312918378322700,0.067,,,,14.929031986
1715312918386017904,0.067,,,,14.93672719
1715312918393713108,0.072,,,,14.944422394
1715312918401408312,0.082,,,,14.952117598
1715312918409103516,0.082,,,,14.959812802
1715312918416798720,0.07,,,,14.967508006
1715312918424493924,0.06,,,,14.97520321
1715312918432189128,0.05,,,,14.982898414
1715312918439884332,0.046,,,,14.990593618
1715312918447579536,0.053,,,,14.998288822
1715312918455274740,0.063,,,,15.005984026
1715312918462969944,0.06,,,,15.01367923
1715312918470665148,0.063,,,,15.021374434
1715312918478360352,0.07,,,,15.029069638
1715312918486055556,0.067,,,,15.036764842
1715312918493750760,0.067,,,,15.044460046
1715312918501445964,0.072,,,,15.05215525
1715312918509141168,0.075,,,,15.059850454
1715312918516836372,0.082,,,,15.067545658
1715312918524531576,0.089,,,,15.075240862
1715312918532226780,0.075,,,,15.082936066
1715312918539921984,0.063,,,,15.09063127
1715312918547617188,0.07,,,,15.098326474
1715312918555312392,0.084,,,,15.106021678
1715312918563007596,0.097,,,,15.113716882
1715312918570702800,0.111,,,,15.121412086
1715312918578398004,0.118,,,,15.12910729
1715312918586093208,0.109,,,,15.136802494
1715312918593788412,0.089,,,,15.144497698
1715312918601483616,0.082,,,,15.152192902
1715312918609178820,0.087,,,,15.159888106
1715312918616874044,0.082,94.0,651.0,,15.16758333
1715312918624569248,0.063,,,,15.175278534
1715312918632264452,0.053,,,,15.182973738
1715312918639959656,0.06,,,,15.190668942
1715312918647654860,0.065,,,,15.198364146
1715312918655350064,0.063,,,,15.20605935
1715312918663045268,0.063,,,,15.213754554
1715312918670740472,0.05,,,,15.221449758
1715312918678435676,0.063,,,,15.229144962
1715312918686130880,0.172,,,,15.236840166
1715312918693826084,0.38,,,,15.24453537
1715312918701521288,0.5670000000000001,,,,15.252230574
1715312918709216492,0.577,,,,15.259925778
1715312918716911696,0.322,,,,15.267620982
1715312918724606900,-0.053,,,,15.275316186
1715312918732302104,-0.225,,,,15.28301139
1715312918739997308,-0.138,,,,15.290706594
1715312918747692512,-0.014,,,,15.298401798
1715312918755387716,0.036,,,,15.306097002
1715312918763082920,0.065,,,,15.313792206
1715312918770778124,0.089,,,,15.32148741
1715312918778473328,0.087,,,,15.329182614
1715312918786168532,0.077,,,,15.336877818
1715312918793863736,0.082,,,,15.344573022
1715312918801558940,0.089,,,,15.352268226
1715312918809254144,0.092,,,,15.35996343
1715312918816949348,0.106,,,,15.367658634
1715312918824644552,0.128,,,,15.375353838
1715312918832339756,0.135,,,,15.383049042
1715312918840034960,0.133,,,,15.390744246
1715312918847730164,0.14,,,,15.39843945
1715312918855425368,0.157,,,,15.406134654
1715312918863120572,0.167,,,,15.413829858
1715312918870815776,0.167,,,,15.421525062
1715312918878510980,0.177,,,,15.429220266
1715312918886206184,0.189,,,,15.43691547
1715312918893901388,0.181,,,,15.444610674
1715312918901596592,0.169,,,,15.452305878
1715312918909291796,0.167,,,,15.460001082
1715312918916987000,0.15,,,,15.467696286
1715312918924682204,0.126,,,,15.47539149
1715312918932377408,0.126,,,,15.483086694
1715312918940072612,0.126,,,,15.490781898
1715312918947767816,0.111,,,,15.498477102
1715312918955463020,0.087,,,,15.506172306
1715312918963158224,0.06,,,,15.51386751
1715312918970853428,0.06,,,,15.521562714
1715312918978548632,0.07,,,,15.529257918
1715312918986243836,0.046,,,,15.536953122
1715312918993939040,0.016,,,,15.544648326
1715312919001634244,0.021,,,,15.55234353
1715312919009329448,0.038,,,,15.560038734
1715312919017024652,0.043,,,,15.567733938
1715312919024719856,0.033,,,,15.575429142
1715312919032415060,0.026,,,,15.583124346
1715312919040110264,0.033,,,,15.59081955
1715312919047805468,0.041,,,,15.598514754
1715312919055500672,0.05,,,,15.606209958
1715312919063195876,0.06,,,,15.613905162
1715312919070891080,0.053,,,,15.621600366
1715312919078586284,0.048,,,,15.62929557
1715312919086281488,0.058,,,,15.636990774
1715312919093976692,0.053,,,,15.644685978
1715312919101671896,0.031,,,,15.652381182
1715312919109367100,0.024,,,,15.660076386
1715312919117062304,0.031,,,,15.66777159
1715312919124757508,0.031,,,,15.675466794
1715312919132452712,0.036,,,,15.683161998
1715312919140147916,0.043,,,,15.690857202
1715312919147843120,0.046,,,,15.698552406
1715312919155538324,0.055,,,,15.70624761
1715312919163233528,0.06,,,,15.713942814
1715312919170928732,0.05,,,,15.721638018
1715312919178623958,0.046,,,,15.729333244
1715312919186319580,0.046,,,,15.737028866
1715312919194015202,0.048,,,,15.744724488
1715312919201710824,0.053,,,,15.75242011
1715312919209406446,0.055,,,,15.760115732
1715312919217102068,0.065,,,,15.767811354
1715312919224797690,0.075,,,,15.775506976
1715312919232493312,0.077,,,,15.783202598
1715312919240188934,0.087,,,,15.79089822
1715312919247884556,0.094,,,,15.798593842
1715312919255580178,0.087,,,,15.806289464
1715312919263275800,0.084,,,,15.813985086
1715312919270971422,0.082,,,,15.821680708
1715312919278667044,0.07,,,,15.82937633
1715312919286362666,0.06,,,,15.837071952
1715312919294058288,0.055,,,,15.844767574
1715312919301753910,0.058,,,,15.852463196
1715312919309449532,0.06,,,,15.860158818
1715312919317145154,0.058,,,,15.86785444
1715312919324840776,0.058,,,,15.875550062
1715312919332536398,0.065,,,,15.883245684
1715312919340232020,0.065,,,,15.890941306
1715312919347927642,0.118,,,,15.898636928
1715312919355623264,0.303,,,,15.90633255
1715312919363318886,0.54,,,,15.914028172
1715312919371014508,0.649,,,,15.921723794
1715312919378710130,0.502,,,,15.929419416
1715312919386405752,0.133,,,,15.937115038
1715312919394101374,-0.186,,,,15.94481066
1715312919401796996,-0.218,,,,15.952506282
1715312919409492618,-0.065,,,,15.960201904
1715312919417188240,0.031,,,,15.967897526
1715312919424883862,0.043,,,,15.975593148
1715312919432579484,0.046,,,,15.98328877
1715312919440275106,0.063,,,,15.990984392
1715312919447970728,0.075,,,,15.998680014
1715312919455666350,0.082,,,,16.006375636
1715312919463361972,0.082,,,,16.014071258
1715312919471057594,0.084,,,,16.02176688
1715312919478753216,0.106,,,,16.029462502
1715312919486448838,0.118,,,,16.037158124
1715312919494144460,0.106,,,,16.044853746
1715312919501840082,0.109,,,,16.052549368
1715312919509535704,0.135,,,,16.06024499
1715312919517231326,0.147,,,,16.067940612
1715312919524926948,0.157,,,,16.075636234
1715312919532622570,0.177,,,,16.083331856
1715312919540318192,0.179,,,,16.091027478
1715312919548013814,0.174,,,,16.0987231
1715312919555709436,0.186,,,,16.106418722
1715312919563405058,0.186,,,,16.114114344
1715312919571100680,0.174,,,,16.121809966
1715312919578796302,0.172,,,,16.129505588
1715312919586491924,0.157,,,,16.13720121
1715312919594187546,0.121,,,,16.144896832
1715312919601883168,0.089,,,,16.152592454
1715312919609578790,0.065,,,,16.160288076
1715312919617274412,0.053,,,,16.167983698
1715312919624970034,0.053,,,,16.17567932
1715312919632665656,0.046,,,,16.183374942
1715312919640361278,0.029,,,,16.191070564
1715312919648056900,0.021,,,,16.198766186
1715312919655752522,0.019,,,,16.206461808
1715312919663448144,0.016,,,,16.21415743
1715312919671143766,0.014,,,,16.221853052
1715312919678839388,0.014,,,,16.229548674
1715312919686535010,0.024,,,,16.237244296
1715312919694230632,0.036,,,,16.244939918
1715312919701926254,0.031,,,,16.25263554
1715312919709621876,0.026,,,,16.260331162
1715312919717317498,0.033,,,,16.268026784
1715312919725013120,0.041,,,,16.275722406
1715312919732708742,0.05,,,,16.283418028
1715312919740404388,0.06,93.0,710.0,,16.291113674
1715312919748099592,0.053,,718.0,,16.298808878
1715312919755794796,0.041,,,,16.306504082
1715312919763490000,0.05,,,,16.314199286
1715312919771185204,0.065,,,,16.32189449
1715312919778880408,0.067,,,,16.329589694
1715312919786575612,0.053,,,,16.337284898
1715312919794270816,0.038,,,,16.344980102
1715312919801966020,0.046,,,,16.352675306
1715312919809661224,0.058,,,,16.36037051
1715312919817356428,0.053,,,,16.368065714
1715312919825051632,0.055,,,,16.375760918
1715312919832746836,0.058,,,,16.383456122
1715312919840442040,0.048,,,,16.391151326
1715312919848137244,0.05,,,,16.39884653
1715312919855832448,0.063,,,,16.406541734
1715312919863527652,0.06,,,,16.414236938
1715312919871222856,0.063,,,,16.421932142
1715312919878918060,0.075,,,,16.429627346
1715312919886613264,0.077,,,,16.43732255
1715312919894308468,0.072,,,,16.445017754
1715312919902003672,0.075,,,,16.452712958
1715312919909698876,0.084,,,,16.460408162
1715312919917394080,0.084,,,,16.468103366
1715312919925089284,0.075,,,,16.47579857
1715312919932784488,0.08,,,,16.483493774
1715312919940479692,0.101,,,,16.491188978
1715312919948174896,0.118,,,,16.498884182
1715312919955870100,0.123,,,,16.506579386
1715312919963565304,0.121,,,,16.51427459
1715312919971260508,0.113,,,,16.521969794
1715312919978955712,0.106,,,,16.529664998
1715312919986650916,0.106,,,,16.537360202
1715312919994346120,0.099,,,,16.545055406
1715312920002041324,0.087,,,,16.55275061
1715312920009736528,0.084,,,,16.560445814
1715312920017431732,0.092,,,,16.568141018
1715312920025126936,0.097,,,,16.575836222
1715312920032822140,0.094,,,,16.583531426
1715312920040517344,0.092,,,,16.59122663
1715312920048212548,0.15,,,,16.598921834
1715312920055907752,0.317,,,,16.606617038
1715312920063602956,0.55,,,,16.614312242
1715312920071298160,0.712,,,,16.622007446
1715312920078993364,0.664,,,,16.62970265
1715312920086688568,0.327,,,,16.637397854
1715312920094383772,-0.092,,,,16.645093058
1715312920102078976,-0.213,,,,16.652788262
1715312920109774180,-0.053,,,,16.660483466
1715312920117469384,0.046,,,,16.66817867
1715312920125164588,0.043,,,,16.675873874
1715312920132859792,0.06,,,,16.683569078
1715312920140554996,0.082,,,,16.691264282
1715312920148250200,0.072,,,,16.698959486
1715312920155945404,0.072,,,,16.70665469
1715312920163640608,0.089,,,,16.714349894
1715312920171335812,0.101,,,,16.722045098
1715312920179031016,0.094,,,,16.729740302
1715312920186726220,0.094,,,,16.737435506
1715312920194421424,0.113,,,,16.74513071
1715312920202116628,0.133,,,,16.752825914
1715312920209811832,0.138,,,,16.760521118
1715312920217507036,0.15,,,,16.768216322
1715312920225202240,0.174,,,,16.775911526
1715312920232897444,0.181,,,,16.78360673
1715312920240592648,0.184,,,,16.791301934
1715312920248287852,0.201,,,,16.798997138
1715312920255983056,0.206,,,,16.806692342
1715312920263678260,0.181,,,,16.814387546
1715312920271373464,0.16,,,,16.82208275
1715312920279068668,0.157,,,,16.829777954
1715312920286763872,0.152,,,,16.837473158
1715312920294459076,0.143,,,,16.845168362
1715312920302154300,0.133,,,,16.852863586
1715312920309849922,0.113,,,,16.860559208
1715312920317545544,0.104,,,,16.86825483
1715312920325241166,0.099,,,,16.875950452
1715312920332936788,0.082,,,,16.883646074
1715312920340632410,0.06,,,,16.891341696
1715312920348328032,0.05,,,,16.899037318
1715312920356023654,0.048,,,,16.90673294
1715312920363719276,0.041,,,,16.914428562
1715312920371414898,0.029,,,,16.922124184
1715312920379110520,0.036,,,,16.929819806
1715312920386806142,0.048,,,,16.937515428
1715312920394501764,0.036,,,,16.94521105
1715312920402197386,0.033,,,,16.952906672
1715312920409893008,0.05,,,,16.960602294
1715312920417588630,0.06,,,,16.968297916
1715312920425284252,0.058,,,,16.975993538
1715312920432979874,0.05,,,,16.98368916
1715312920440675496,0.041,,,,16.991384782
1715312920448371118,0.043,,,,16.999080404
1715312920456066740,0.055,,,,17.006776026
1715312920463762362,0.065,,,,17.014471648
1715312920471457984,0.07,,,,17.02216727
1715312920479153606,0.067,,,,17.029862892
1715312920486849228,0.055,,,,17.037558514
1715312920494544850,0.053,,,,17.045254136
1715312920502240472,0.058,,,,17.052949758
1715312920509936094,0.065,,,,17.06064538
1715312920517631716,0.075,,,,17.068341002
1715312920525327338,0.077,,,,17.076036624
1715312920533022960,0.07,,,,17.083732246
1715312920540718582,0.067,,,,17.091427868
1715312920548414204,0.067,,,,17.09912349
1715312920556109826,0.08,,,,17.106819112
1715312920563805448,0.099,,,,17.114514734
1715312920571501070,0.089,,,,17.122210356
1715312920579196692,0.07,,,,17.129905978
1715312920586892314,0.077,,,,17.1376016
1715312920594587936,0.087,,,,17.145297222
1715312920602283558,0.082,,,,17.152992844
1715312920609979180,0.082,,,,17.160688466
1715312920617674802,0.077,,,,17.168384088
1715312920625370424,0.065,,,,17.17607971
1715312920633066046,0.077,,,,17.183775332
1715312920640761668,0.109,,,,17.191470954
1715312920648457290,0.118,,,,17.199166576
1715312920656152912,0.104,,,,17.206862198
1715312920663848534,0.101,,,,17.21455782
1715312920671544156,0.106,,,,17.222253442
1715312920679239778,0.109,,,,17.229949064
1715312920686935400,0.111,,,,17.237644686
1715312920694631022,0.097,,,,17.245340308
1715312920702326644,0.084,,,,17.25303593
1715312920710022266,0.087,,,,17.260731552
1715312920717717888,0.084,,,,17.268427174
1715312920725413510,0.08,,,,17.276122796
1715312920733109132,0.082,,,,17.283818418
1715312920740804754,0.092,,,,17.29151404
1715312920748500376,0.128,,,,17.299209662
1715312920756195998,0.252,,,,17.306905284
1715312920763891620,0.455,,,,17.314600906
1715312920771587242,0.654,,,,17.322296528
1715312920779282864,0.708,,,,17.32999215
1715312920786978486,0.453,,,,17.337687772
1715312920794674108,0.0,,,,17.345383394
1715312920802369730,-0.215,,,,17.353079016
1715312920810065352,-0.084,,,,17.360774638
1715312920817760974,0.06,,,,17.36847026
1715312920825456596,0.067,,,,17.376165882
1715312920833152218,0.063,,,,17.383861504
1715312920840847840,0.087,,,,17.391557126
1715312920848543462,0.092,,,,17.399252748
1715312920856239084,0.087,,,,17.40694837
1715312920863934730,0.097,92.0,700.0,,17.414644016
1715312920871629934,0.101,,,,17.42233922
1715312920879325138,0.118,,,,17.430034424
1715312920887020342,0.13,,,,17.437729628
1715312920894715546,0.126,,,,17.445424832
1715312920902410750,0.128,,,,17.453120036
1715312920910105954,0.145,,,,17.46081524
1715312920917801158,0.16,,,,17.468510444
1715312920925496362,0.169,,,,17.476205648
1715312920933191566,0.181,,,,17.483900852
1715312920940886770,0.186,,,,17.491596056
1715312920948581974,0.177,,,,17.49929126
1715312920956277178,0.169,,,,17.506986464
1715312920963972382,0.169,,,,17.514681668
1715312920971667586,0.169,,,,17.522376872
1715312920979362790,0.172,,,,17.530072076
1715312920987057994,0.152,,,,17.53776728
1715312920994753198,0.13,,,,17.545462484
1715312921002448402,0.133,,,,17.553157688
1715312921010143606,0.13,,,,17.560852892
1715312921017838810,0.097,,,,17.568548096
1715312921025534014,0.065,,,,17.5762433
1715312921033229218,0.058,,,,17.583938504
1715312921040924422,0.065,,,,17.591633708
1715312921048619626,0.055,,,,17.599328912
1715312921056314830,0.043,,,,17.607024116
1715312921064010034,0.041,,,,17.61471932
1715312921071705238,0.036,,,,17.622414524
1715312921079400442,0.036,,,,17.630109728
1715312921087095646,0.043,,,,17.637804932
1715312921094790850,0.05,,,,17.645500136
1715312921102486054,0.06,,,,17.65319534
1715312921110181258,0.06,,,,17.660890544
1715312921117876462,0.038,,,,17.668585748
1715312921125571666,0.021,,,,17.676280952
1715312921133266870,0.046,,,,17.683976156
1715312921140962074,0.075,,,,17.69167136
1715312921148657278,0.065,,,,17.699366564
1715312921156352482,0.053,,,,17.707061768
1715312921164047686,0.055,,,,17.714756972
1715312921171742890,0.058,,,,17.722452176
1715312921179438094,0.058,,,,17.73014738
1715312921187133298,0.06,,,,17.737842584
1715312921194828502,0.067,,,,17.745537788
1715312921202523706,0.075,,,,17.753232992
1715312921210218910,0.077,,,,17.760928196
1715312921217914114,0.077,,,,17.7686234
1715312921225609318,0.067,,,,17.776318604
1715312921233304522,0.055,,,,17.784013808
1715312921240999726,0.065,,,,17.791709012
1715312921248694930,0.077,,,,17.799404216
1715312921256390134,0.082,,,,17.80709942
1715312921264085338,0.089,,,,17.814794624
1715312921271780542,0.092,,,,17.822489828
1715312921279475746,0.089,,,,17.830185032
1715312921287170950,0.089,,,,17.837880236
1715312921294866154,0.092,,,,17.84557544
1715312921302561358,0.094,,,,17.853270644
1715312921310256562,0.089,,,,17.860965848
1715312921317951766,0.084,,,,17.868661052
1715312921325646970,0.087,,,,17.876356256
1715312921333342174,0.101,,,,17.88405146
1715312921341037378,0.106,,,,17.891746664
1715312921348732582,0.099,,,,17.899441868
1715312921356427786,0.111,,,,17.907137072
1715312921364122990,0.133,,,,17.914832276
1715312921371818194,0.123,,,,17.92252748
1715312921379513398,0.111,,,,17.930222684
1715312921387208602,0.113,,,,17.937917888
1715312921394903806,0.109,,,,17.945613092
1715312921402599010,0.106,,,,17.953308296
1715312921410294214,0.104,,,,17.9610035
1715312921417989418,0.092,,,,17.968698704
1715312921425684642,0.087,90.0,665.0,,17.976393928
1715312921433380264,0.092,,703.0,,17.98408955
1715312921441075886,0.099,,,,17.991785172
1715312921448771508,0.101,,,,17.999480794
1715312921456467130,0.087,,,,18.007176416
1715312921464162752,0.097,,,,18.014872038
1715312921471858374,0.218,,,,18.02256766
1715312921479553996,0.441,,,,18.030263282
1715312921487249618,0.63,,,,18.037958904
1715312921494945240,0.632,,,,18.045654526
1715312921502640862,0.366,,,,18.053350148
1715312921510336484,-0.041,,,,18.06104577
1715312921518032106,-0.215,,,,18.068741392
1715312921525727728,-0.089,,,,18.076437014
1715312921533423350,0.041,,,,18.084132636
1715312921541118972,0.058,,,,18.091828258
1715312921548814594,0.065,,,,18.09952388
1715312921556510216,0.077,,,,18.107219502
1715312921564205838,0.065,,,,18.114915124
1715312921571901460,0.067,,,,18.122610746
1715312921579597082,0.092,,,,18.130306368
1715312921587292704,0.104,,,,18.13800199
1715312921594988326,0.104,,,,18.145697612
1715312921602683948,0.109,,,,18.153393234
1715312921610379570,0.113,,,,18.161088856
1715312921618075192,0.118,,,,18.168784478
1715312921625770814,0.126,,,,18.1764801
1715312921633466436,0.133,,,,18.184175722
1715312921641162058,0.143,,,,18.191871344
1715312921648857680,0.157,,,,18.199566966
1715312921656553302,0.164,,,,18.207262588
1715312921664248924,0.167,,,,18.21495821
1715312921671944546,0.169,,,,18.222653832
1715312921679640168,0.162,,,,18.230349454
1715312921687335790,0.143,,,,18.238045076
1715312921695031412,0.138,,,,18.245740698
1715312921702727034,0.143,,,,18.25343632
1715312921710422656,0.133,,,,18.261131942
1715312921718118278,0.121,,,,18.268827564
1715312921725813900,0.109,,,,18.276523186
1715312921733509522,0.08,,,,18.284218808
1715312921741205144,0.063,,,,18.29191443
1715312921748900766,0.06,,,,18.299610052
1715312921756596388,0.053,,,,18.307305674
1715312921764292010,0.046,,,,18.315001296
1715312921771987632,0.033,,,,18.322696918
1715312921779683254,0.029,,,,18.33039254
1715312921787378876,0.036,,,,18.338088162
1715312921795074498,0.041,,,,18.345783784
1715312921802770120,0.041,,,,18.353479406
1715312921810465742,0.036,,,,18.361175028
1715312921818161364,0.029,,,,18.36887065
1715312921825856986,0.029,,,,18.376566272
1715312921833552608,0.036,,,,18.384261894
1715312921841248230,0.05,,,,18.391957516
1715312921848943852,0.053,,,,18.399653138
1715312921856639474,0.041,,,,18.40734876
1715312921864335096,0.043,,,,18.415044382
1715312921872030718,0.055,,,,18.422740004
1715312921879726340,0.058,,,,18.430435626
1715312921887421962,0.053,,,,18.438131248
1715312921895117584,0.053,,,,18.44582687
1715312921902813206,0.058,,,,18.453522492
1715312921910508828,0.06,,,,18.461218114
1715312921918204450,0.058,,,,18.468913736
1715312921925900072,0.05,,,,18.476609358
1715312921933595694,0.055,,,,18.48430498
1715312921941291316,0.065,,,,18.492000602
1715312921948986938,0.065,,,,18.499696224
1715312921956682560,0.058,,,,18.507391846
1715312921964378182,0.06,,,,18.515087468
1715312921972073804,0.07,,,,18.52278309
1715312921979769426,0.072,,,,18.530478712
1715312921987465072,0.065,,,,18.538174358
1715312921995160276,0.067,,,,18.545869562
1715312922002855480,0.07,,,,18.553564766
1715312922010550684,0.06,,,,18.56125997
1715312922018245888,0.06,,,,18.568955174
1715312922025941092,0.075,,,,18.576650378
1715312922033636296,0.072,,,,18.584345582
1715312922041331500,0.063,,,,18.592040786
1715312922049026704,0.063,,,,18.59973599
1715312922056721908,0.06,,,,18.607431194
1715312922064417112,0.058,,,,18.615126398
1715312922072112316,0.065,,,,18.622821602
1715312922079807520,0.077,,,,18.630516806
1715312922087502724,0.082,,,,18.63821201
1715312922095197928,0.089,,,,18.645907214
1715312922102893132,0.099,,,,18.653602418
1715312922110588336,0.111,,,,18.661297622
1715312922118283540,0.116,,,,18.668992826
1715312922125978744,0.101,,,,18.67668803
1715312922133673948,0.084,,,,18.684383234
1715312922141369152,0.082,,,,18.692078438
1715312922149064356,0.077,,,,18.699773642
1715312922156759560,0.067,,,,18.707468846
1715312922164454764,0.06,,,,18.71516405
1715312922172149968,0.06,,,,18.722859254
1715312922179845172,0.067,,,,18.730554458
1715312922187540376,0.072,,,,18.738249662
1715312922195235580,0.072,,,,18.745944866
1715312922202930784,0.072,,,,18.75364007
1715312922210625988,0.072,,,,18.761335274
1715312922218321192,0.14,,,,18.769030478
1715312922226016396,0.322,,,,18.776725682
1715312922233711600,0.523,,,,18.784420886
1715312922241406804,0.599,,,,18.79211609
1715312922249102008,0.426,,,,18.799811294
1715312922256797212,0.053,,,,18.807506498
1715312922264492416,-0.201,,,,18.815201702
1715312922272187620,-0.157,,,,18.822896906
1715312922279882824,-0.009,,,,18.83059211
1715312922287578028,0.041,,,,18.838287314
1715312922295273232,0.033,,,,18.845982518
1715312922302968436,0.036,,,,18.853677722
1715312922310663640,0.046,,,,18.861372926
1715312922318358844,0.065,,,,18.86906813
1715312922326054048,0.077,,,,18.876763334
1715312922333749252,0.075,,,,18.884458538
1715312922341444456,0.082,,,,18.892153742
1715312922349139660,0.099,,,,18.899848946
1715312922356834864,0.106,,,,18.90754415
1715312922364530068,0.109,,,,18.915239354
1715312922372225272,0.113,,,,18.922934558
1715312922379920476,0.121,,,,18.930629762
1715312922387615680,0.121,,,,18.938324966
1715312922395310884,0.121,,,,18.94602017
1715312922403006088,0.13,,,,18.953715374
1715312922410701292,0.145,,,,18.961410578
1715312922418396496,0.155,,,,18.969105782
1715312922426091700,0.16,,,,18.976800986
1715312922433786904,0.152,,,,18.98449619
1715312922441482108,0.145,,,,18.992191394
1715312922449177312,0.143,,,,18.999886598
1715312922456872516,0.135,,,,19.007581802
1715312922464567720,0.123,,,,19.015277006
1715312922472262924,0.106,,,,19.02297221
1715312922479958128,0.092,,,,19.030667414
1715312922487653332,0.082,,,,19.038362618
1715312922495348536,0.077,,,,19.046057822
1715312922503043740,0.077,,,,19.053753026
1715312922510738944,0.067,,,,19.06144823
1715312922518434148,0.046,,,,19.069143434
1715312922526129352,0.038,,,,19.076838638
1715312922533824556,0.043,,,,19.084533842
1715312922541519760,0.05,,,,19.092229046
1715312922549214986,0.05,90.0,702.0,,19.099924272
1715312922556910608,0.058,,,,19.107619894
1715312922564606230,0.065,,,,19.115315516
1715312922572301852,0.058,,,,19.123011138
1715312922579997474,0.048,,,,19.13070676
1715312922587693096,0.05,,,,19.138402382
1715312922595388718,0.058,,,,19.146098004
1715312922603084340,0.063,,,,19.153793626
1715312922610779962,0.055,,,,19.161489248
1715312922618475584,0.05,,,,19.16918487
1715312922626171206,0.055,,,,19.176880492
1715312922633866828,0.055,,,,19.184576114
1715312922641562450,0.046,,,,19.192271736
1715312922649258072,0.043,,,,19.199967358
1715312922656953694,0.05,,,,19.20766298
1715312922664649316,0.058,,,,19.215358602
1715312922672344938,0.05,,,,19.223054224
1715312922680040560,0.055,,,,19.230749846
1715312922687736182,0.067,,,,19.238445468
1715312922695431804,0.067,,,,19.24614109
1715312922703127426,0.06,,,,19.253836712
1715312922710823048,0.058,,,,19.261532334
1715312922718518670,0.06,,,,19.269227956
1715312922726214292,0.06,,,,19.276923578
1715312922733909914,0.06,,,,19.2846192
1715312922741605536,0.07,,,,19.292314822
1715312922749301158,0.08,,,,19.300010444
1715312922756996780,0.087,,,,19.307706066
1715312922764692402,0.092,,,,19.315401688
1715312922772388024,0.104,,,,19.32309731
1715312922780083646,0.118,,,,19.330792932
1715312922787779268,0.113,,,,19.338488554
1715312922795474890,0.097,,,,19.346184176
1715312922803170512,0.092,,,,19.353879798
1715312922810866134,0.087,,,,19.36157542
1715312922818561756,0.075,,,,19.369271042
1715312922826257378,0.065,,,,19.376966664
1715312922833953000,0.072,,,,19.384662286
1715312922841648622,0.082,,,,19.392357908
1715312922849344244,0.075,,,,19.40005353
1715312922857039866,0.067,,,,19.407749152
1715312922864735488,0.07,,,,19.415444774
1715312922872431110,0.087,,,,19.423140396
1715312922880126732,0.177,,,,19.430836018
1715312922887822354,0.368,,,,19.43853164
1715312922895517976,0.586,,,,19.446227262
1715312922903213598,0.671,,,,19.453922884
1715312922910909220,0.468,,,,19.461618506
1715312922918604842,0.063,,,,19.469314128
1715312922926300464,-0.21,,,,19.47700975
1715312922933996086,-0.179,,,,19.484705372
1715312922941691708,-0.029,,,,19.492400994
1715312922949387330,0.036,,,,19.500096616
1715312922957082952,0.048,,,,19.507792238
1715312922964778574,0.065,,,,19.51548786
1715312922972474196,0.07,,,,19.523183482
1715312922980169818,0.07,,,,19.530879104
1715312922987865440,0.08,,,,19.538574726
1715312922995561062,0.082,,,,19.546270348
1715312923003256684,0.089,,,,19.55396597
1715312923010952306,0.106,,,,19.561661592
1715312923018647928,0.113,,,,19.569357214
1715312923026343550,0.111,,,,19.577052836
1715312923034039172,0.113,,,,19.584748458
1715312923041734794,0.128,,,,19.59244408
1715312923049430416,0.135,,,,19.600139702
1715312923057126038,0.14,,,,19.607835324
1715312923064821660,0.15,,,,19.615530946
1715312923072517282,0.16,,,,19.623226568
1715312923080212904,0.167,,,,19.63092219
1715312923087908526,0.164,,,,19.638617812
1715312923095604148,0.16,,,,19.646313434
1715312923103299770,0.152,,,,19.654009056
1715312923110995416,0.135,,,,19.661704702
1715312923118690620,0.123,,,,19.669399906
1715312923126385824,0.121,,,,19.67709511
1715312923134081028,0.106,,,,19.684790314
1715312923141776232,0.08,,,,19.692485518
1715312923149471436,0.055,,,,19.700180722
1715312923157166640,0.05,,,,19.707875926
1715312923164861844,0.041,,,,19.71557113
1715312923172557048,0.019,,,,19.723266334
1715312923180252252,0.014,,,,19.730961538
1715312923187947456,0.014,,,,19.738656742
1715312923195642660,0.007,,,,19.746351946
1715312923203337864,0.009,,,,19.75404715
1715312923211033068,0.019,,,,19.761742354
1715312923218728272,0.019,,,,19.769437558
1715312923226423476,0.021,,,,19.777132762
1715312923234118680,0.031,,,,19.784827966
1715312923241813884,0.043,,,,19.79252317
1715312923249509088,0.041,,,,19.800218374
1715312923257204292,0.033,,,,19.807913578
1715312923264899496,0.043,,,,19.815608782
1715312923272594700,0.055,,,,19.823303986
1715312923280289904,0.05,,,,19.83099919
1715312923287985108,0.038,,,,19.838694394
1715312923295680312,0.043,,,,19.846389598
1715312923303375516,0.043,,,,19.854084802
1715312923311070720,0.038,,,,19.861780006
1715312923318765924,0.05,,,,19.86947521
1715312923326461128,0.063,,,,19.877170414
1715312923334156332,0.055,,,,19.884865618
1715312923341851536,0.05,,,,19.892560822
1715312923349546740,0.058,,,,19.900256026
1715312923357241944,0.06,,,,19.90795123
1715312923364937148,0.063,,,,19.915646434
1715312923372632352,0.063,,,,19.923341638
1715312923380327556,0.065,,,,19.931036842
1715312923388022760,0.067,,,,19.938732046
1715312923395717964,0.067,,,,19.94642725
1715312923403413168,0.087,,,,19.954122454
1715312923411108372,0.113,,,,19.961817658
1715312923418803576,0.111,,,,19.969512862
1715312923426498780,0.089,,,,19.977208066
1715312923434193984,0.097,,,,19.98490327
1715312923441889188,0.109,,,,19.992598474
1715312923449584392,0.087,,,,20.000293678
1715312923457279596,0.072,,,,20.007988882
1715312923464974800,0.084,,,,20.015684086
1715312923472670004,0.082,,,,20.02337929
1715312923480365208,0.077,,,,20.031074494
1715312923488060412,0.075,,,,20.038769698
1715312923495755616,0.072,,,,20.046464902
1715312923503450820,0.067,,,,20.054160106
1715312923511146024,0.087,,,,20.06185531
1715312923518841228,0.23,,,,20.069550514
1715312923526536432,0.487,,,,20.077245718
1715312923534231636,0.6960000000000001,,,,20.084940922
1715312923541926840,0.722,,,,20.092636126
1715312923549622044,0.448,,,,20.10033133
1715312923557317248,-0.012,,,,20.108026534
1715312923565012452,-0.257,,,,20.115721738
1715312923572707656,-0.14,,,,20.123416942
1715312923580402860,0.026,,,,20.131112146
1715312923588098064,0.058,,,,20.13880735
1715312923595793268,0.053,,,,20.146502554
1715312923603488472,0.07,,,,20.154197758
1715312923611183676,0.07,,,,20.161892962
1715312923618878880,0.075,,,,20.169588166
1715312923626574084,0.087,,,,20.17728337
1715312923634269288,0.092,,,,20.184978574
1715312923641964492,0.111,,,,20.192673778
1715312923649659696,0.116,,,,20.200368982
1715312923657354900,0.097,,,,20.208064186
1715312923665050104,0.109,,,,20.21575939
1715312923672745328,0.128,88.0,715.0,,20.223454614
1715312923680440671,0.135,,749.0,,20.231149957
1715312923688136014,0.145,,,,20.2388453
1715312923695831357,0.16,,,,20.246540643
1715312923703526700,0.179,,,,20.254235986
1715312923711222043,0.189,,,,20.261931329
1715312923718917386,0.179,,,,20.269626672
1715312923726612729,0.152,,,,20.277322015
1715312923734308072,0.143,,,,20.285017358
1715312923742003415,0.143,,,,20.292712701
1715312923749698758,0.126,,,,20.300408044
1715312923757394101,0.101,,,,20.308103387
1715312923765089444,0.089,,,,20.31579873
1715312923772784787,0.077,,,,20.323494073
1715312923780480130,0.063,,,,20.331189416
1715312923788175473,0.053,,,,20.338884759
1715312923795870816,0.046,,,,20.346580102
1715312923803566159,0.031,,,,20.354275445
1715312923811261502,0.019,,,,20.361970788
1715312923818956845,0.016,,,,20.369666131
1715312923826652188,0.016,,,,20.377361474
1715312923834347531,0.012,,,,20.385056817
1715312923842042874,0.007,,,,20.39275216
1715312923849738217,0.004,,,,20.400447503
1715312923857433560,0.021,,,,20.408142846
1715312923865128903,0.038,,,,20.415838189
1715312923872824246,0.029,,,,20.423533532
1715312923880519589,0.024,,,,20.431228875
1715312923888214932,0.043,,,,20.438924218
1715312923895910275,0.048,,,,20.446619561
1715312923903605618,0.046,,,,20.454314904
1715312923911300961,0.05,,,,20.462010247
1715312923918996304,0.048,,,,20.46970559
1715312923926691647,0.046,,,,20.477400933
1715312923934386990,0.043,,,,20.485096276
1715312923942082333,0.048,,,,20.492791619
1715312923949777676,0.05,,,,20.500486962
1715312923957473019,0.048,,,,20.508182305
1715312923965168362,0.046,,,,20.515877648
1715312923972863705,0.05,,,,20.523572991
1715312923980559048,0.05,,,,20.531268334
1715312923988254391,0.058,,,,20.538963677
1715312923995949734,0.075,,,,20.54665902
1715312924003645077,0.067,,,,20.554354363
1715312924011340420,0.043,,,,20.562049706
1715312924019035763,0.053,,,,20.569745049
1715312924026731106,0.07,,,,20.577440392
1715312924034426449,0.075,,,,20.585135735
1715312924042121792,0.089,,,,20.592831078
1715312924049817135,0.099,,,,20.600526421
1715312924057512478,0.097,,,,20.608221764
1715312924065207821,0.092,,,,20.615917107
1715312924072903164,0.092,,,,20.62361245
1715312924080598507,0.084,,,,20.631307793
1715312924088293850,0.075,,,,20.639003136
1715312924095989193,0.072,,,,20.646698479
1715312924103684536,0.077,,,,20.654393822
1715312924111379879,0.072,,,,20.662089165
1715312924119075222,0.082,,,,20.669784508
1715312924126770565,0.094,,,,20.677479851
1715312924134465908,0.077,,,,20.685175194
1715312924142161251,0.06,,,,20.692870537
1715312924149856594,0.087,,,,20.70056588
1715312924157551937,0.218,,,,20.708261223
1715312924165247280,0.448,,,,20.715956566
1715312924172942623,0.659,,,,20.723651909
1715312924180637966,0.705,,,,20.731347252
1715312924188333309,0.443,,,,20.739042595
1715312924196028652,-0.029,,,,20.746737938
1715312924203723995,-0.278,,,,20.754433281
1715312924211419338,-0.162,,,,20.762128624
1715312924219114681,0.002,,,,20.769823967
1715312924226810024,0.029,,,,20.77751931
1715312924234505414,0.019,,,,20.7852147
1715312924242200896,0.041,,,,20.792910182
1715312924249896378,0.058,,,,20.800605664
1715312924257591860,0.063,,,,20.808301146
1715312924265287342,0.067,,,,20.815996628
1715312924272982824,0.067,,,,20.82369211
1715312924280678306,0.082,,,,20.831387592
1715312924288373788,0.094,,,,20.839083074
1715312924296069270,0.089,,,,20.846778556
1715312924303764752,0.097,,,,20.854474038
1715312924311460234,0.111,,,,20.86216952
1715312924319155716,0.113,,,,20.869865002
1715312924326851198,0.123,,,,20.877560484
1715312924334546680,0.14,,,,20.885255966
1715312924342242162,0.147,,,,20.892951448
1715312924349937644,0.145,,,,20.90064693
1715312924357633126,0.147,,,,20.908342412
1715312924365328608,0.152,,,,20.916037894
1715312924373024090,0.152,,,,20.923733376
1715312924380719572,0.143,,,,20.931428858
1715312924388415054,0.13,,,,20.93912434
1715312924396110536,0.126,,,,20.946819822
1715312924403806018,0.121,,,,20.954515304
1715312924411501500,0.101,,,,20.962210786
1715312924419196982,0.08,,,,20.969906268
1715312924426892464,0.077,,,,20.97760175
1715312924434587946,0.065,,,,20.985297232
1715312924442283428,0.046,,,,20.992992714
1715312924449978910,0.036,,,,21.000688196
1715312924457674392,0.021,,,,21.008383678
1715312924465369874,0.012,,,,21.01607916
1715312924473065356,0.019,,,,21.023774642
1715312924480760838,0.026,,,,21.031470124
1715312924488456320,0.026,,,,21.039165606
1715312924496151802,0.036,,,,21.046861088
1715312924503847284,0.041,,,,21.05455657
1715312924511542766,0.026,,,,21.062252052
1715312924519238248,0.024,,,,21.069947534
1715312924526933730,0.038,,,,21.077643016
1715312924534629212,0.041,,,,21.085338498
1715312924542324694,0.036,,,,21.09303398
1715312924550020176,0.038,,,,21.100729462
1715312924557715658,0.041,,,,21.108424944
1715312924565411140,0.033,,,,21.116120426
1715312924573106622,0.038,,,,21.123815908
1715312924580802104,0.055,,,,21.13151139
1715312924588497586,0.05,,,,21.139206872
1715312924596193068,0.043,,,,21.146902354
1715312924603888550,0.05,,,,21.154597836
1715312924611584032,0.041,,,,21.162293318
1715312924619279514,0.024,,,,21.1699888
1715312924626974996,0.043,,,,21.177684282
1715312924634670478,0.07,,,,21.185379764
1715312924642365960,0.058,,,,21.193075246
1715312924650061442,0.041,,,,21.200770728
1715312924657756924,0.063,,,,21.20846621
1715312924665452406,0.058,,,,21.216161692
1715312924673147888,0.026,,,,21.223857174
1715312924680843370,0.033,,,,21.231552656
1715312924688538852,0.055,,,,21.239248138
1715312924696234334,0.08,,,,21.24694362
1715312924703929816,0.099,,,,21.254639102
1715312924711625298,0.087,,,,21.262334584
1715312924719320780,0.072,,,,21.270030066
1715312924727016262,0.08,,,,21.277725548
1715312924734711744,0.08,,,,21.28542103
1715312924742407226,0.065,,,,21.293116512
1715312924750102708,0.065,,,,21.300811994
1715312924757798190,0.065,,,,21.308507476
1715312924765493672,0.048,,,,21.316202958
1715312924773189154,0.046,,,,21.32389844
1715312924780884636,0.07,,,,21.331593922
1715312924788580118,0.082,,,,21.339289404
1715312924796275670,0.065,88.0,662.0,,21.346984956
1715312924803970874,0.072,,,,21.35468016
1715312924811666078,0.174,,,,21.362375364
1715312924819361282,0.392,,,,21.370070568
1715312924827056486,0.62,,,,21.377765772
1715312924834751690,0.681,,,,21.385460976
1715312924842446894,0.426,,,,21.39315618
1715312924850142098,-0.031,,,,21.400851384
1715312924857837302,-0.278,,,,21.408546588
1715312924865532506,-0.16,,,,21.416241792
1715312924873227710,0.012,,,,21.423936996
1715312924880922914,0.033,,,,21.4316322
1715312924888618118,0.029,,,,21.439327404
1715312924896313322,0.055,,,,21.447022608
1715312924904008526,0.048,,,,21.454717812
1715312924911703730,0.041,,,,21.462413016
1715312924919398934,0.07,,,,21.47010822
1715312924927094138,0.094,,,,21.477803424
1715312924934789342,0.087,,,,21.485498628
1715312924942484546,0.087,,,,21.493193832
1715312924950179750,0.099,,,,21.500889036
1715312924957874954,0.111,,,,21.50858424
1715312924965570158,0.123,,,,21.516279444
1715312924973265362,0.138,,,,21.523974648
1715312924980960566,0.152,,,,21.531669852
1715312924988655770,0.16,,,,21.539365056
1715312924996350974,0.16,,,,21.54706026
1715312925004046178,0.162,,,,21.554755464
1715312925011741382,0.162,,,,21.562450668
1715312925019436586,0.164,,,,21.570145872
1715312925027131790,0.157,,,,21.577841076
1715312925034826994,0.15,,,,21.58553628
1715312925042522198,0.145,,,,21.593231484
1715312925050217402,0.123,,,,21.600926688
1715312925057912606,0.121,,,,21.608621892
1715312925065607810,0.133,,,,21.616317096
1715312925073303014,0.111,,,,21.6240123
1715312925080998218,0.089,,,,21.631707504
1715312925088693422,0.082,,,,21.639402708
1715312925096388626,0.063,,,,21.647097912
1715312925104083830,0.043,,,,21.654793116
1715312925111779034,0.036,,,,21.66248832
1715312925119474238,0.043,,,,21.670183524
1715312925127169442,0.046,,,,21.677878728
1715312925134864646,0.041,,,,21.685573932
1715312925142559850,0.046,,,,21.693269136
1715312925150255054,0.038,,,,21.70096434
1715312925157950258,0.031,,,,21.708659544
1715312925165645462,0.038,,,,21.716354748
1715312925173340666,0.029,,,,21.724049952
1715312925181035870,0.021,,,,21.731745156
1715312925188731074,0.019,,,,21.73944036
1715312925196426278,0.016,,,,21.747135564
1715312925204121482,0.026,,,,21.754830768
1715312925211816686,0.033,,,,21.762525972
1715312925219511890,0.033,,,,21.770221176
1715312925227207094,0.033,,,,21.77791638
1715312925234902298,0.031,,,,21.785611584
1715312925242597502,0.029,,,,21.793306788
1715312925250292706,0.033,,,,21.801001992
1715312925257987910,0.031,,,,21.808697196
1715312925265683114,0.029,,,,21.8163924
1715312925273378318,0.046,,,,21.824087604
1715312925281073522,0.046,,,,21.831782808
1715312925288768726,0.031,,,,21.839478012
1715312925296463930,0.041,,,,21.847173216
1715312925304159134,0.055,,,,21.85486842
1715312925311854338,0.046,,,,21.862563624
1715312925319549542,0.041,,,,21.870258828
1715312925327244746,0.048,,,,21.877954032
1715312925334939950,0.053,,,,21.885649236
1715312925342635154,0.067,,,,21.89334444
1715312925350330358,0.084,,,,21.901039644
1715312925358025582,0.099,88.0,638.0,,21.908734868
1715312925365721204,0.099,,639.0,,21.91643049
1715312925373416826,0.092,,,,21.924126112
1715312925381112448,0.094,,,,21.931821734
1715312925388808070,0.094,,,,21.939517356
1715312925396503692,0.087,,,,21.947212978
1715312925404199314,0.065,,,,21.9549086
1715312925411894936,0.05,,,,21.962604222
1715312925419590558,0.065,,,,21.970299844
1715312925427286180,0.075,,,,21.977995466
1715312925434981802,0.063,,,,21.985691088
1715312925442677424,0.055,,,,21.99338671
1715312925450373046,0.055,,,,22.001082332
1715312925458068668,0.113,,,,22.008777954
1715312925465764290,0.293,,,,22.016473576
1715312925473459912,0.526,,,,22.024169198
1715312925481155534,0.669,,,,22.03186482
1715312925488851156,0.5740000000000001,,,,22.039560442
1715312925496546778,0.21,,,,22.047256064
1715312925504242400,-0.16,,,,22.054951686
1715312925511938022,-0.218,,,,22.062647308
1715312925519633644,-0.058,,,,22.07034293
1715312925527329266,0.041,,,,22.078038552
1715312925535024888,0.055,,,,22.085734174
1715312925542720510,0.07,,,,22.093429796
1715312925550416132,0.08,,,,22.101125418
1715312925558111754,0.08,,,,22.10882104
1715312925565807376,0.082,,,,22.116516662
1715312925573502998,0.094,,,,22.124212284
1715312925581198620,0.109,,,,22.131907906
1715312925588894242,0.118,,,,22.139603528
1715312925596589864,0.13,,,,22.14729915
1715312925604285486,0.133,,,,22.154994772
1715312925611981108,0.138,,,,22.162690394
1715312925619676730,0.16,,,,22.170386016
1715312925627372352,0.169,,,,22.178081638
1715312925635067974,0.177,,,,22.18577726
1715312925642763596,0.189,,,,22.193472882
1715312925650459218,0.203,,,,22.201168504
1715312925658154840,0.218,,,,22.208864126
1715312925665850462,0.21,,,,22.216559748
1715312925673546084,0.191,,,,22.22425537
1715312925681241706,0.181,,,,22.231950992
1715312925688937328,0.174,,,,22.239646614
1715312925696632950,0.169,,,,22.247342236
1715312925704328572,0.162,,,,22.255037858
1715312925712024194,0.152,,,,22.26273348
1715312925719719816,0.147,,,,22.270429102
1715312925727415438,0.138,,,,22.278124724
1715312925735111060,0.121,,,,22.285820346
1715312925742806682,0.109,,,,22.293515968
1715312925750502304,0.087,,,,22.30121159
1715312925758197926,0.067,,,,22.308907212
