time,ecg,hr,rr,marker,norm_time
1715227247385192660,-0.244,,,,0.0
1715227247392888282,-0.281,,,,0.007695622
1715227247400583904,-0.305,,,,0.015391244
1715227247408279526,-0.32,,,,0.023086866
1715227247415975148,-0.317,,,,0.030782488
1715227247423670770,-0.3,,,,0.03847811
1715227247431366392,-0.266,,,,0.046173732
1715227247439062014,-0.22,,,,0.053869354
1715227247446757636,-0.164,,,,0.061564976
1715227247454453258,-0.08,,,,0.069260598
1715227247462148880,0.026,,,,0.07695622
1715227247469844502,0.118,,,,0.084651842
1715227247477540124,0.196,,,,0.092347464
1715227247485235746,0.261,,,,0.100043086
1715227247492931368,0.312,,,,0.107738708
1715227247500626990,0.339,,,,0.11543433
1715227247508322612,0.351,,,,0.123129952
1715227247516018234,0.354,,,,0.130825574
1715227247523713856,0.346,,,,0.138521196
1715227247531409478,0.339,,,,0.146216818
1715227247539105100,0.329,,,,0.15391244
1715227247546800722,0.317,,,,0.161608062
1715227247554496344,0.305,,,,0.169303684
1715227247562191966,0.291,,,,0.176999306
1715227247569887588,0.274,,,,0.184694928
1715227247577583210,0.269,,,,0.19239055
1715227247585278832,0.261,,,,0.200086172
1715227247592974454,0.247,,,,0.207781794
1715227247600670076,0.232,,,,0.215477416
1715227247608365698,0.225,,,,0.223173038
1715227247616061320,0.223,,,,0.23086866
1715227247623756942,0.215,,,,0.238564282
1715227247631452564,0.208,,,,0.246259904
1715227247639148186,0.198,,,,0.253955526
1715227247646843808,0.189,,,,0.261651148
1715227247654539430,0.186,,,,0.26934677
1715227247662235052,0.191,,,,0.277042392
1715227247669930674,0.194,,,,0.284738014
1715227247677626296,0.194,,,,0.292433636
1715227247685321918,0.191,,,,0.300129258
1715227247693017540,0.191,,,,0.30782488
1715227247700713162,0.198,,,,0.315520502
1715227247708408784,0.21,,,,0.323216124
1715227247716104406,0.225,,,,0.330911746
1715227247723800028,0.203,,,,0.338607368
1715227247731495650,0.155,,,,0.34630299
1715227247739191272,0.123,,,,0.353998612
1715227247746886894,0.118,,,,0.361694234
1715227247754582516,0.135,,,,0.369389856
1715227247762278138,0.16,,,,0.377085478
1715227247769973760,0.174,,,,0.3847811
1715227247777669382,0.181,,,,0.392476722
1715227247785365004,0.184,,,,0.400172344
1715227247793060626,0.184,,,,0.407867966
1715227247800756248,0.186,,,,0.415563588
1715227247808451870,0.184,,,,0.42325921
1715227247816147492,0.184,,,,0.430954832
1715227247823843114,0.184,,,,0.438650454
1715227247831538736,0.179,,,,0.446346076
1715227247839234358,0.172,,,,0.454041698
1715227247846929980,0.147,,,,0.46173732
1715227247854625602,0.099,,,,0.469432942
1715227247862321224,-0.05,,,,0.477128564
1715227247870016846,-0.463,,,,0.484824186
1715227247877712468,-0.987,,,,0.492519808
1715227247885408090,-0.892,,,,0.50021543
1715227247893103712,0.113,,,,0.507911052
1715227247900799334,0.926,,,,0.515606674
1715227247908494956,0.732,,,,0.523302296
1715227247916190578,0.329,,,,0.530997918
1715227247923886200,0.269,,,,0.53869354
1715227247931581822,0.203,,,,0.546389162
1715227247939277444,0.111,,,,0.554084784
1715227247946973090,0.13,98.0,613.0,,0.56178043
1715227247954668712,0.126,,651.0,,0.569476052
1715227247962364334,0.08,,,,0.577171674
1715227247970059956,0.07,,,,0.584867296
1715227247977755578,0.065,,,,0.592562918
1715227247985451200,0.029,,,,0.60025854
1715227247993146822,0.002,,,,0.607954162
1715227248000842444,-0.007,,,,0.615649784
1715227248008538066,-0.033,,,,0.623345406
1715227248016233688,-0.075,,,,0.631041028
1715227248023929310,-0.111,,,,0.63873665
1715227248031624932,-0.143,,,,0.646432272
1715227248039320554,-0.181,,,,0.654127894
1715227248047016176,-0.23,,,,0.661823516
1715227248054711798,-0.266,,,,0.669519138
1715227248062407420,-0.291,,,,0.67721476
1715227248070103042,-0.305,,,,0.684910382
1715227248077798664,-0.298,,,,0.692606004
1715227248085494286,-0.274,,,,0.700301626
1715227248093189908,-0.24,,,,0.707997248
1715227248100885530,-0.196,,,,0.71569287
1715227248108581152,-0.13,,,,0.723388492
1715227248116276774,-0.043,,,,0.731084114
1715227248123972396,0.055,,,,0.738779736
1715227248131668018,0.147,,,,0.746475358
1715227248139363640,0.22,,,,0.75417098
1715227248147059262,0.271,,,,0.761866602
1715227248154754884,0.31,,,,0.769562224
1715227248162450506,0.327,,,,0.777257846
1715227248170146128,0.334,,,,0.784953468
1715227248177841750,0.341,,,,0.79264909
1715227248185537372,0.344,,,,0.800344712
1715227248193232994,0.337,,,,0.808040334
1715227248200928616,0.322,,,,0.815735956
1715227248208624238,0.303,,,,0.823431578
1715227248216319860,0.288,,,,0.8311272
1715227248224015482,0.276,,,,0.838822822
1715227248231711104,0.261,,,,0.846518444
1715227248239406726,0.254,,,,0.854214066
1715227248247102348,0.247,,,,0.861909688
1715227248254797970,0.232,,,,0.86960531
1715227248262493592,0.218,,,,0.877300932
1715227248270189214,0.213,,,,0.884996554
1715227248277884836,0.213,,,,0.892692176
1715227248285580458,0.208,,,,0.900387798
1715227248293276080,0.206,,,,0.90808342
1715227248300971702,0.206,,,,0.915779042
1715227248308667324,0.203,,,,0.923474664
1715227248316362946,0.206,,,,0.931170286
1715227248324058568,0.208,,,,0.938865908
1715227248331754190,0.21,,,,0.94656153
1715227248339449812,0.208,,,,0.954257152
1715227248347145434,0.201,,,,0.961952774
1715227248354841056,0.196,,,,0.969648396
1715227248362536678,0.206,,,,0.977344018
1715227248370232300,0.227,,,,0.98503964
1715227248377927922,0.232,,,,0.992735262
1715227248385623544,0.194,,,,1.000430884
1715227248393319166,0.143,,,,1.008126506
1715227248401014788,0.118,,,,1.015822128
1715227248408710410,0.118,,,,1.02351775
1715227248416406032,0.14,,,,1.031213372
1715227248424101654,0.172,,,,1.038908994
1715227248431797276,0.186,,,,1.046604616
1715227248439492898,0.191,,,,1.054300238
1715227248447188520,0.194,,,,1.06199586
1715227248454884142,0.191,,,,1.069691482
1715227248462579764,0.189,,,,1.077387104
1715227248470275386,0.186,,,,1.085082726
1715227248477971008,0.179,,,,1.092778348
1715227248485666630,0.174,,,,1.10047397
1715227248493362252,0.174,,,,1.108169592
1715227248501057874,0.162,,,,1.115865214
1715227248508753520,0.123,,,,1.12356086
1715227248516449072,0.043,,,,1.131256412
1715227248524144624,-0.196,,,,1.138951964
1715227248531840176,-0.7000000000000001,,,,1.146647516
1715227248539535728,-1.076,,,,1.154343068
1715227248547231280,-0.579,,,,1.16203862
1715227248554926832,0.526,,,,1.169734172
1715227248562622384,0.938,,,,1.177429724
1715227248570317936,0.526,,,,1.185125276
1715227248578013488,0.257,,,,1.192820828
1715227248585709040,0.235,,,,1.20051638
1715227248593404592,0.133,,,,1.208211932
1715227248601100144,0.082,,,,1.215907484
1715227248608795696,0.099,,,,1.223603036
1715227248616491248,0.067,,,,1.231298588
1715227248624186800,0.038,,,,1.23899414
1715227248631882352,0.041,,,,1.246689692
1715227248639577904,0.021,,,,1.254385244
1715227248647273456,-0.019,,,,1.262080796
1715227248654969008,-0.038,,,,1.269776348
1715227248662664560,-0.055,,,,1.2774719
1715227248670360112,-0.089,,,,1.285167452
1715227248678055664,-0.121,,,,1.292863004
1715227248685751216,-0.152,,,,1.300558556
1715227248693446768,-0.189,,,,1.308254108
1715227248701142320,-0.227,,,,1.31594966
1715227248708837872,-0.276,,,,1.323645212
1715227248716533424,-0.324,,,,1.331340764
1715227248724228976,-0.349,,,,1.339036316
1715227248731924528,-0.344,,,,1.346731868
1715227248739620080,-0.334,,,,1.35442742
1715227248747315632,-0.322,,,,1.362122972
1715227248755011184,-0.293,,,,1.369818524
1715227248762706736,-0.244,,,,1.377514076
1715227248770402288,-0.167,,,,1.385209628
1715227248778097840,-0.063,,,,1.39290518
1715227248785793392,0.043,,,,1.400600732
1715227248793488944,0.133,,,,1.408296284
1715227248801184496,0.206,,,,1.415991836
1715227248808880048,0.257,,,,1.423687388
1715227248816575600,0.293,,,,1.43138294
1715227248824271152,0.312,,,,1.439078492
1715227248831966704,0.32,,,,1.446774044
1715227248839662256,0.32,,,,1.454469596
1715227248847357808,0.32,,,,1.462165148
1715227248855053360,0.307,,,,1.4698607
1715227248862748912,0.291,,,,1.477556252
1715227248870444464,0.281,,,,1.485251804
1715227248878140016,0.281,,,,1.492947356
1715227248885835568,0.274,,,,1.500642908
1715227248893531120,0.257,,,,1.50833846
1715227248901226672,0.242,,,,1.516034012
1715227248908922224,0.24,,,,1.523729564
1715227248916617776,0.235,,,,1.531425116
1715227248924313328,0.223,,,,1.539120668
1715227248932008880,0.227,,,,1.54681622
1715227248939704432,0.23,,,,1.554511772
1715227248947399984,0.218,,,,1.562207324
1715227248955095536,0.218,,,,1.569902876
1715227248962791088,0.225,,,,1.577598428
1715227248970486640,0.225,,,,1.58529398
1715227248978182192,0.22,,,,1.592989532
1715227248985877744,0.22,,,,1.600685084
1715227248993573296,0.215,,,,1.608380636
1715227249001268848,0.208,,,,1.616076188
1715227249008964400,0.215,,,,1.62377174
1715227249016659952,0.237,,,,1.631467292
1715227249024355504,0.232,,,,1.639162844
1715227249032051056,0.189,,,,1.646858396
1715227249039746608,0.15,,,,1.654553948
1715227249047442160,0.138,,,,1.6622495
1715227249055137712,0.147,,,,1.669945052
1715227249062833264,0.174,,,,1.677640604
1715227249070528866,0.194,98.0,660.0,,1.685336206
1715227249078224139,0.203,,,,1.693031479
1715227249085919412,0.21,,,,1.700726752
1715227249093614685,0.213,,,,1.708422025
1715227249101309958,0.206,,,,1.716117298
1715227249109005231,0.201,,,,1.723812571
1715227249116700504,0.206,,,,1.731507844
1715227249124395777,0.203,,,,1.739203117
1715227249132091050,0.194,,,,1.74689839
1715227249139786323,0.181,,,,1.754593663
1715227249147481596,0.138,,,,1.762288936
1715227249155176869,0.053,,,,1.769984209
1715227249162872142,-0.135,,,,1.777679482
1715227249170567415,-0.562,,,,1.785374755
1715227249178262688,-0.999,,,,1.793070028
1715227249185957961,-0.727,,,,1.800765301
1715227249193653234,0.303,,,,1.808460574
1715227249201348507,0.928,,,,1.816155847
1715227249209043780,0.64,,,,1.82385112
1715227249216739053,0.317,,,,1.831546393
1715227249224434326,0.278,,,,1.839241666
1715227249232129599,0.174,,,,1.846936939
1715227249239824872,0.087,,,,1.854632212
1715227249247520145,0.106,,,,1.862327485
1715227249255215418,0.094,,,,1.870022758
1715227249262910691,0.055,,,,1.877718031
1715227249270605964,0.046,,,,1.885413304
1715227249278301237,0.033,,,,1.893108577
1715227249285996510,0.012,,,,1.90080385
1715227249293691783,-0.002,,,,1.908499123
1715227249301387056,-0.021,,,,1.916194396
1715227249309082329,-0.053,,,,1.923889669
1715227249316777602,-0.082,,,,1.931584942
1715227249324472875,-0.113,,,,1.939280215
1715227249332168148,-0.152,,,,1.946975488
1715227249339863421,-0.201,,,,1.954670761
1715227249347558694,-0.247,,,,1.962366034
1715227249355253967,-0.283,,,,1.970061307
1715227249362949240,-0.312,,,,1.97775658
1715227249370644513,-0.327,,,,1.985451853
1715227249378339786,-0.317,,,,1.993147126
1715227249386035059,-0.291,,,,2.000842399
1715227249393730332,-0.257,,,,2.008537672
1715227249401425605,-0.208,,,,2.016232945
1715227249409120878,-0.135,,,,2.023928218
1715227249416816151,-0.038,,,,2.031623491
1715227249424511424,0.058,,,,2.039318764
1715227249432206697,0.147,,,,2.047014037
1715227249439901970,0.223,,,,2.05470931
1715227249447597243,0.274,,,,2.062404583
1715227249455292516,0.305,,,,2.070099856
1715227249462987789,0.324,,,,2.077795129
1715227249470683062,0.339,,,,2.085490402
1715227249478378335,0.344,,,,2.093185675
1715227249486073608,0.339,,,,2.100880948
1715227249493768881,0.324,,,,2.108576221
1715227249501464154,0.31,,,,2.116271494
1715227249509159427,0.3,,,,2.123966767
1715227249516854700,0.291,,,,2.13166204
1715227249524549973,0.278,,,,2.139357313
1715227249532245246,0.269,,,,2.147052586
1715227249539940519,0.259,,,,2.154747859
1715227249547635792,0.247,,,,2.162443132
1715227249555331065,0.242,,,,2.170138405
1715227249563026338,0.242,,,,2.177833678
1715227249570721611,0.24,,,,2.185528951
1715227249578416884,0.235,,,,2.193224224
1715227249586112157,0.232,,,,2.200919497
1715227249593807430,0.235,,,,2.20861477
1715227249601502703,0.235,,,,2.216310043
1715227249609197976,0.232,,,,2.224005316
1715227249616893249,0.232,,,,2.231700589
1715227249624588522,0.237,,,,2.239395862
1715227249632283864,0.244,,,,2.247091204
1715227249639979486,0.257,,,,2.254786826
1715227249647675108,0.259,,,,2.262482448
1715227249655370730,0.223,,,,2.27017807
1715227249663066352,0.167,,,,2.277873692
1715227249670761974,0.147,,,,2.285569314
1715227249678457596,0.15,,,,2.293264936
1715227249686153218,0.162,,,,2.300960558
1715227249693848840,0.184,,,,2.30865618
1715227249701544462,0.191,,,,2.316351802
1715227249709240084,0.198,,,,2.324047424
1715227249716935706,0.208,,,,2.331743046
1715227249724631328,0.203,,,,2.339438668
1715227249732326950,0.194,,,,2.34713429
1715227249740022572,0.189,,,,2.354829912
1715227249747718194,0.186,,,,2.362525534
1715227249755413816,0.184,,,,2.370221156
1715227249763109438,0.179,,,,2.377916778
1715227249770805060,0.162,,,,2.3856124
1715227249778500682,0.111,,,,2.393308022
1715227249786196304,-0.002,,,,2.401003644
1715227249793891926,-0.312,,,,2.408699266
1715227249801587548,-0.8260000000000001,,,,2.416394888
1715227249809283170,-0.984,,,,2.42409051
1715227249816978792,-0.213,,,,2.431786132
1715227249824674414,0.785,,,,2.439481754
1715227249832370036,0.882,,,,2.447177376
1715227249840065658,0.436,,,,2.454872998
1715227249847761280,0.276,,,,2.46256862
1715227249855456902,0.244,,,,2.470264242
1715227249863152524,0.143,,,,2.477959864
1715227249870848146,0.123,,,,2.485655486
1715227249878543768,0.135,,,,2.493351108
1715227249886239390,0.099,,,,2.50104673
1715227249893935012,0.082,,,,2.508742352
1715227249901630634,0.077,,,,2.516437974
1715227249909326256,0.053,,,,2.524133596
1715227249917021878,0.026,,,,2.531829218
1715227249924717500,0.012,,,,2.53952484
1715227249932413122,-0.009,,,,2.547220462
1715227249940108744,-0.036,,,,2.554916084
1715227249947804366,-0.07,,,,2.562611706
1715227249955499988,-0.104,,,,2.570307328
1715227249963195610,-0.147,,,,2.57800295
1715227249970891232,-0.194,,,,2.585698572
1715227249978586854,-0.237,,,,2.593394194
1715227249986282476,-0.278,,,,2.601089816
1715227249993978098,-0.293,,,,2.608785438
1715227250001673720,-0.288,,,,2.61648106
1715227250009369342,-0.271,,,,2.624176682
1715227250017064964,-0.244,,,,2.631872304
1715227250024760586,-0.21,,,,2.639567926
1715227250032456208,-0.152,,,,2.647263548
1715227250040151830,-0.063,,,,2.65495917
1715227250047847452,0.033,,,,2.662654792
1715227250055543074,0.123,,,,2.670350414
1715227250063238696,0.203,,,,2.678046036
1715227250070934318,0.271,,,,2.685741658
1715227250078629940,0.312,,,,2.69343728
1715227250086325562,0.332,,,,2.701132902
1715227250094021184,0.339,,,,2.708828524
1715227250101716806,0.339,,,,2.716524146
1715227250109412428,0.337,,,,2.724219768
1715227250117108050,0.329,,,,2.73191539
1715227250124803672,0.315,,,,2.739611012
1715227250132499294,0.307,,,,2.747306634
1715227250140194916,0.3,,,,2.755002256
1715227250147890538,0.283,,,,2.762697878
1715227250155586160,0.269,,,,2.7703935
1715227250163281782,0.252,,,,2.778089122
1715227250170977404,0.237,,,,2.785784744
1715227250178673026,0.235,,,,2.793480366
1715227250186368648,0.232,,,,2.801175988
1715227250194064294,0.227,96.0,661.0,,2.808871634
1715227250201759498,0.225,,659.0,,2.816566838
1715227250209454702,0.223,,,,2.824262042
1715227250217149906,0.225,,,,2.831957246
1715227250224845110,0.223,,,,2.83965245
1715227250232540314,0.215,,,,2.847347654
1715227250240235518,0.21,,,,2.855042858
1715227250247930722,0.213,,,,2.862738062
1715227250255625926,0.218,,,,2.870433266
1715227250263321130,0.215,,,,2.87812847
1715227250271016334,0.215,,,,2.885823674
1715227250278711538,0.232,,,,2.893518878
1715227250286406742,0.23,,,,2.901214082
1715227250294101946,0.186,,,,2.908909286
1715227250301797150,0.14,,,,2.91660449
1715227250309492354,0.126,,,,2.924299694
1715227250317187558,0.138,,,,2.931994898
1715227250324882762,0.16,,,,2.939690102
1715227250332577966,0.181,,,,2.947385306
1715227250340273170,0.194,,,,2.95508051
1715227250347968374,0.206,,,,2.962775714
1715227250355663578,0.208,,,,2.970470918
1715227250363358782,0.201,,,,2.978166122
1715227250371053986,0.201,,,,2.985861326
1715227250378749190,0.203,,,,2.99355653
1715227250386444394,0.196,,,,3.001251734
1715227250394139598,0.194,,,,3.008946938
1715227250401834802,0.189,,,,3.016642142
1715227250409530006,0.167,,,,3.024337346
1715227250417225210,0.109,,,,3.03203255
1715227250424920414,-0.038,,,,3.039727754
1715227250432615618,-0.407,,,,3.047422958
1715227250440310822,-0.919,,,,3.055118162
1715227250448006026,-0.936,,,,3.062813366
1715227250455701230,-0.021,,,,3.07050857
1715227250463396434,0.892,,,,3.078203774
1715227250471091638,0.812,,,,3.085898978
1715227250478786842,0.371,,,,3.093594182
1715227250486482046,0.269,,,,3.101289386
1715227250494177250,0.225,,,,3.10898459
1715227250501872454,0.123,,,,3.116679794
1715227250509567658,0.121,,,,3.124374998
1715227250517262862,0.123,,,,3.132070202
1715227250524958066,0.087,,,,3.139765406
1715227250532653270,0.075,,,,3.14746061
1715227250540348474,0.065,,,,3.155155814
1715227250548043678,0.041,,,,3.162851018
1715227250555738882,0.021,,,,3.170546222
1715227250563434086,0.0,,,,3.178241426
1715227250571129290,-0.029,,,,3.18593663
1715227250578824494,-0.055,,,,3.193631834
1715227250586519698,-0.082,,,,3.201327038
1715227250594214902,-0.116,,,,3.209022242
1715227250601910106,-0.164,,,,3.216717446
1715227250609605310,-0.208,,,,3.22441265
1715227250617300514,-0.24,,,,3.232107854
1715227250624995718,-0.271,,,,3.239803058
1715227250632690922,-0.288,,,,3.247498262
1715227250640386126,-0.286,,,,3.255193466
1715227250648081330,-0.266,,,,3.26288867
1715227250655776534,-0.235,,,,3.270583874
1715227250663471738,-0.201,,,,3.278279078
1715227250671166942,-0.152,,,,3.285974282
1715227250678862146,-0.075,,,,3.293669486
1715227250686557350,0.012,,,,3.30136469
1715227250694252554,0.097,,,,3.309059894
1715227250701947758,0.181,,,,3.316755098
1715227250709642962,0.252,,,,3.324450302
1715227250717338166,0.295,,,,3.332145506
1715227250725033370,0.315,,,,3.33984071
1715227250732728574,0.327,,,,3.347535914
1715227250740423778,0.322,,,,3.355231118
1715227250748118982,0.307,,,,3.362926322
1715227250755814206,0.298,95.0,641.0,,3.370621546
1715227250763509828,0.295,,,,3.378317168
1715227250771205450,0.288,,,,3.38601279
1715227250778901072,0.271,,,,3.393708412
1715227250786596694,0.257,,,,3.401404034
1715227250794292316,0.247,,,,3.409099656
1715227250801987938,0.235,,,,3.416795278
1715227250809683560,0.223,,,,3.4244909
1715227250817379182,0.218,,,,3.432186522
1715227250825074804,0.215,,,,3.439882144
1715227250832770426,0.208,,,,3.447577766
1715227250840466048,0.203,,,,3.455273388
1715227250848161670,0.208,,,,3.46296901
1715227250855857292,0.215,,,,3.470664632
1715227250863552914,0.213,,,,3.478360254
1715227250871248536,0.208,,,,3.486055876
1715227250878944158,0.208,,,,3.493751498
1715227250886639780,0.206,,,,3.50144712
1715227250894335402,0.206,,,,3.509142742
1715227250902031024,0.213,,,,3.516838364
1715227250909726646,0.237,,,,3.524533986
1715227250917422268,0.244,,,,3.532229608
1715227250925117890,0.203,,,,3.53992523
1715227250932813512,0.16,,,,3.547620852
1715227250940509134,0.145,,,,3.555316474
1715227250948204756,0.14,,,,3.563012096
1715227250955900378,0.157,,,,3.570707718
1715227250963596000,0.186,,,,3.57840334
1715227250971291622,0.186,,,,3.586098962
1715227250978987244,0.186,,,,3.593794584
1715227250986682866,0.198,,,,3.601490206
1715227250994378488,0.196,,,,3.609185828
1715227251002074110,0.189,,,,3.61688145
1715227251009769732,0.194,,,,3.624577072
1715227251017465354,0.194,,,,3.632272694
1715227251025160976,0.181,,,,3.639968316
1715227251032856598,0.181,,,,3.647663938
1715227251040552220,0.164,,,,3.65535956
1715227251048247842,0.111,,,,3.663055182
1715227251055943464,0.002,,,,3.670750804
1715227251063639086,-0.3,,,,3.678446426
1715227251071334708,-0.805,,,,3.686142048
1715227251079030330,-0.97,,,,3.69383767
1715227251086725952,-0.22,,,,3.701533292
1715227251094421574,0.766,,,,3.709228914
1715227251102117196,0.86,,,,3.716924536
1715227251109812818,0.436,,,,3.724620158
1715227251117508440,0.3,,,,3.73231578
1715227251125204062,0.254,,,,3.740011402
1715227251132899684,0.13,,,,3.747707024
1715227251140595306,0.111,,,,3.755402646
1715227251148290928,0.133,,,,3.763098268
1715227251155986550,0.094,,,,3.77079389
1715227251163682172,0.065,,,,3.778489512
1715227251171377794,0.055,,,,3.786185134
1715227251179073416,0.026,,,,3.793880756
1715227251186769038,-0.004,,,,3.801576378
1715227251194464660,-0.019,,,,3.809272
1715227251202160282,-0.041,,,,3.816967622
1715227251209855904,-0.077,,,,3.824663244
1715227251217551526,-0.109,,,,3.832358866
1715227251225247148,-0.143,,,,3.840054488
1715227251232942770,-0.184,,,,3.84775011
1715227251240638392,-0.223,,,,3.855445732
1715227251248334014,-0.264,,,,3.863141354
1715227251256029636,-0.298,,,,3.870836976
1715227251263725258,-0.31,,,,3.878532598
1715227251271420880,-0.298,,,,3.88622822
1715227251279116502,-0.281,,,,3.893923842
1715227251286812124,-0.257,,,,3.901619464
1715227251294507746,-0.218,,,,3.909315086
1715227251302203368,-0.16,,,,3.917010708
1715227251309898990,-0.08,,,,3.92470633
1715227251317594636,0.014,,,,3.932401976
1715227251325289840,0.109,,,,3.94009718
1715227251332985044,0.194,,,,3.947792384
1715227251340680248,0.261,,,,3.955487588
1715227251348375452,0.298,,,,3.963182792
1715227251356070656,0.329,,,,3.970877996
1715227251363765860,0.351,,,,3.9785732
1715227251371461064,0.354,,,,3.986268404
1715227251379156268,0.339,,,,3.993963608
1715227251386851472,0.322,,,,4.001658812
1715227251394546676,0.31,,,,4.009354016
1715227251402241880,0.295,,,,4.01704922
1715227251409937084,0.281,,,,4.024744424
1715227251417632288,0.269,,,,4.032439628
1715227251425327492,0.257,,,,4.040134832
1715227251433022696,0.249,,,,4.047830036
1715227251440717900,0.237,,,,4.05552524
1715227251448413104,0.227,,,,4.063220444
1715227251456108308,0.223,,,,4.070915648
1715227251463803512,0.21,,,,4.078610852
1715227251471498716,0.206,,,,4.086306056
1715227251479193920,0.21,,,,4.09400126
1715227251486889124,0.208,,,,4.101696464
1715227251494584328,0.208,,,,4.109391668
1715227251502279532,0.208,,,,4.117086872
1715227251509974736,0.21,,,,4.124782076
1715227251517669940,0.215,,,,4.13247728
1715227251525365144,0.215,,,,4.140172484
1715227251533060348,0.223,,,,4.147867688
1715227251540755552,0.242,,,,4.155562892
1715227251548450756,0.235,,,,4.163258096
1715227251556145960,0.194,,,,4.1709533
1715227251563841164,0.155,,,,4.178648504
1715227251571536368,0.143,,,,4.186343708
1715227251579231572,0.15,,,,4.194038912
1715227251586926776,0.174,,,,4.201734116
1715227251594621980,0.196,,,,4.20942932
1715227251602317184,0.208,,,,4.217124524
1715227251610012388,0.218,,,,4.224819728
1715227251617707592,0.215,,,,4.232514932
1715227251625402796,0.208,,,,4.240210136
1715227251633098000,0.21,,,,4.24790534
1715227251640793204,0.213,,,,4.255600544
1715227251648488408,0.206,,,,4.263295748
1715227251656183612,0.203,,,,4.270990952
1715227251663878816,0.196,,,,4.278686156
1715227251671574020,0.157,,,,4.28638136
1715227251679269224,0.084,,,,4.294076564
1715227251686964428,-0.087,,,,4.301771768
1715227251694659632,-0.497,,,,4.309466972
1715227251702354836,-0.96,,,,4.317162176
1715227251710050040,-0.776,,,,4.32485738
1715227251717745244,0.232,,,,4.332552584
1715227251725440448,0.94,,,,4.340247788
1715227251733135652,0.6930000000000001,,,,4.347942992
1715227251740830856,0.32,,,,4.355638196
1715227251748526060,0.269,,,,4.3633334
1715227251756221264,0.191,,,,4.371028604
1715227251763916468,0.099,,,,4.378723808
1715227251771611672,0.116,,,,4.386419012
1715227251779306876,0.111,,,,4.394114216
1715227251787002080,0.072,,,,4.40180942
1715227251794697284,0.063,,,,4.409504624
1715227251802392488,0.053,,,,4.417199828
1715227251810087692,0.026,,,,4.424895032
1715227251817782896,0.007,,,,4.432590236
1715227251825478100,-0.009,,,,4.44028544
1715227251833173304,-0.033,,,,4.447980644
1715227251840868508,-0.063,,,,4.455675848
1715227251848563712,-0.094,,,,4.463371052
1715227251856258916,-0.133,,,,4.471066256
1715227251863954120,-0.177,,,,4.47876146
1715227251871649324,-0.21,,,,4.486456664
1715227251879344548,-0.242,94.0,627.0,,4.494151888
1715227251887040170,-0.274,,638.0,,4.50184751
1715227251894735792,-0.281,,,,4.509543132
1715227251902431414,-0.269,,,,4.517238754
1715227251910127036,-0.247,,,,4.524934376
1715227251917822658,-0.223,,,,4.532629998
1715227251925518280,-0.181,,,,4.54032562
1715227251933213902,-0.109,,,,4.548021242
1715227251940909524,-0.021,,,,4.555716864
1715227251948605146,0.063,,,,4.563412486
1715227251956300768,0.145,,,,4.571108108
1715227251963996390,0.225,,,,4.57880373
1715227251971692012,0.288,,,,4.586499352
1715227251979387634,0.322,,,,4.594194974
1715227251987083256,0.339,,,,4.601890596
1715227251994778878,0.351,,,,4.609586218
1715227252002474500,0.351,,,,4.61728184
1715227252010170122,0.334,,,,4.624977462
1715227252017865744,0.324,,,,4.632673084
1715227252025561366,0.32,,,,4.640368706
1715227252033256988,0.312,,,,4.648064328
1715227252040952610,0.3,,,,4.65575995
1715227252048648232,0.283,,,,4.663455572
1715227252056343854,0.274,,,,4.671151194
1715227252064039476,0.264,,,,4.678846816
1715227252071735098,0.252,,,,4.686542438
1715227252079430720,0.24,,,,4.69423806
1715227252087126342,0.23,,,,4.701933682
1715227252094821964,0.227,,,,4.709629304
1715227252102517586,0.227,,,,4.717324926
1715227252110213208,0.225,,,,4.725020548
1715227252117908830,0.227,,,,4.73271617
1715227252125604452,0.225,,,,4.740411792
1715227252133300074,0.22,,,,4.748107414
1715227252140995696,0.218,,,,4.755803036
1715227252148691318,0.223,,,,4.763498658
1715227252156386940,0.223,,,,4.77119428
1715227252164082562,0.227,,,,4.778889902
1715227252171778184,0.247,,,,4.786585524
1715227252179473806,0.244,,,,4.794281146
1715227252187169428,0.198,,,,4.801976768
1715227252194865050,0.15,,,,4.80967239
1715227252202560672,0.126,,,,4.817368012
1715227252210256294,0.121,,,,4.825063634
1715227252217951916,0.138,,,,4.832759256
1715227252225647538,0.167,,,,4.840454878
1715227252233343160,0.186,,,,4.8481505
1715227252241038782,0.194,,,,4.855846122
1715227252248734404,0.196,,,,4.863541744
1715227252256430026,0.196,,,,4.871237366
1715227252264125648,0.198,,,,4.878932988
1715227252271821270,0.198,,,,4.88662861
1715227252279516892,0.191,,,,4.894324232
1715227252287212514,0.186,,,,4.902019854
1715227252294908136,0.186,,,,4.909715476
1715227252302603758,0.162,,,,4.917411098
1715227252310299380,0.106,,,,4.92510672
1715227252317995002,-0.014,,,,4.932802342
1715227252325690624,-0.349,,,,4.940497964
1715227252333386246,-0.87,,,,4.948193586
1715227252341081868,-0.967,,,,4.955889208
1715227252348777490,-0.123,,,,4.96358483
1715227252356473112,0.834,,,,4.971280452
1715227252364168734,0.839,,,,4.978976074
1715227252371864356,0.4,,,,4.986671696
1715227252379559978,0.278,,,,4.994367318
1715227252387255600,0.235,,,,5.00206294
1715227252394951222,0.135,,,,5.009758562
1715227252402646844,0.128,,,,5.017454184
1715227252410342466,0.135,,,,5.025149806
1715227252418038088,0.099,,,,5.032845428
1715227252425733710,0.08,,,,5.04054105
1715227252433429332,0.072,,,,5.048236672
1715227252441124980,0.048,,,,5.05593232
1715227252448820602,0.019,,,,5.063627942
1715227252456516224,-0.002,,,,5.071323564
1715227252464211846,-0.024,,,,5.079019186
1715227252471907468,-0.046,,,,5.086714808
1715227252479603090,-0.072,,,,5.09441043
1715227252487298712,-0.111,,,,5.102106052
1715227252494994334,-0.15,,,,5.109801674
1715227252502689956,-0.189,,,,5.117497296
1715227252510385578,-0.227,,,,5.125192918
1715227252518081200,-0.261,,,,5.13288854
1715227252525776822,-0.276,,,,5.140584162
1715227252533472444,-0.266,,,,5.148279784
1715227252541168066,-0.247,,,,5.155975406
1715227252548863688,-0.227,,,,5.163671028
1715227252556559310,-0.186,,,,5.17136665
1715227252564254932,-0.128,,,,5.179062272
1715227252571950554,-0.053,,,,5.186757894
1715227252579646176,0.036,,,,5.194453516
1715227252587341798,0.126,,,,5.202149138
1715227252595037420,0.208,,,,5.20984476
1715227252602733042,0.266,,,,5.217540382
1715227252610428664,0.307,,,,5.225236004
1715227252618124286,0.339,,,,5.232931626
1715227252625819908,0.354,,,,5.240627248
1715227252633515530,0.356,,,,5.24832287
1715227252641211152,0.344,,,,5.256018492
1715227252648906774,0.329,,,,5.263714114
1715227252656602396,0.327,,,,5.271409736
1715227252664298018,0.315,,,,5.279105358
1715227252671993640,0.298,,,,5.28680098
1715227252679689262,0.293,,,,5.294496602
1715227252687384884,0.281,,,,5.302192224
1715227252695080506,0.254,,,,5.309887846
1715227252702776128,0.237,,,,5.317583468
1715227252710471750,0.24,,,,5.32527909
1715227252718167372,0.232,,,,5.332974712
1715227252725862994,0.213,,,,5.340670334
1715227252733558616,0.208,,,,5.348365956
1715227252741254238,0.213,,,,5.356061578
1715227252748949860,0.218,,,,5.3637572
1715227252756645482,0.213,,,,5.371452822
1715227252764341104,0.21,,,,5.379148444
1715227252772036726,0.215,,,,5.386844066
1715227252779732348,0.215,,,,5.394539688
1715227252787427970,0.213,,,,5.40223531
1715227252795123592,0.23,,,,5.409930932
1715227252802819214,0.247,,,,5.417626554
1715227252810514836,0.22,,,,5.425322176
1715227252818210458,0.162,,,,5.433017798
1715227252825906080,0.128,,,,5.44071342
1715227252833601702,0.135,,,,5.448409042
1715227252841297324,0.16,,,,5.456104664
1715227252848992946,0.179,,,,5.463800286
1715227252856688568,0.191,,,,5.471495908
1715227252864384190,0.201,,,,5.47919153
1715227252872079812,0.203,,,,5.486887152
1715227252879775434,0.196,,,,5.494582774
1715227252887471056,0.194,,,,5.502278396
1715227252895166678,0.196,,,,5.509974018
1715227252902862300,0.196,,,,5.51766964
1715227252910557922,0.191,,,,5.525365262
1715227252918253544,0.186,,,,5.533060884
1715227252925949166,0.172,,,,5.540756506
1715227252933644788,0.133,,,,5.548452128
1715227252941340410,0.038,,,,5.55614775
1715227252949036032,-0.23,,,,5.563843372
1715227252956731654,-0.744,,,,5.571538994
1715227252964427276,-1.057,,,,5.579234616
1715227252972122898,-0.47,,,,5.586930238
1715227252979818520,0.606,,,,5.59462586
1715227252987514142,0.916,,,,5.602321482
1715227252995209764,0.504,,,,5.610017104
1715227253002905410,0.286,94.0,633.0,,5.61771275
1715227253010600823,0.254,,628.0,,5.625408163
1715227253018296236,0.138,,,,5.633103576
1715227253025991649,0.094,,,,5.640798989
1715227253033687062,0.123,,,,5.648494402
1715227253041382475,0.094,,,,5.656189815
1715227253049077888,0.055,,,,5.663885228
1715227253056773301,0.053,,,,5.671580641
1715227253064468714,0.041,,,,5.679276054
1715227253072164127,0.019,,,,5.686971467
1715227253079859540,-0.004,,,,5.69466688
1715227253087554953,-0.038,,,,5.702362293
1715227253095250366,-0.075,,,,5.710057706
1715227253102945779,-0.101,,,,5.717753119
1715227253110641192,-0.13,,,,5.725448532
1715227253118336605,-0.174,,,,5.733143945
1715227253126032018,-0.215,,,,5.740839358
1715227253133727431,-0.244,,,,5.748534771
1715227253141422844,-0.276,,,,5.756230184
1715227253149118257,-0.303,,,,5.763925597
1715227253156813670,-0.3,,,,5.77162101
1715227253164509083,-0.276,,,,5.779316423
1715227253172204496,-0.247,,,,5.787011836
1715227253179899909,-0.22,,,,5.794707249
1715227253187595322,-0.184,,,,5.802402662
1715227253195290735,-0.123,,,,5.810098075
1715227253202986148,-0.033,,,,5.817793488
1715227253210681561,0.07,,,,5.825488901
1715227253218376974,0.155,,,,5.833184314
1715227253226072387,0.218,,,,5.840879727
1715227253233767800,0.274,,,,5.84857514
1715227253241463213,0.307,,,,5.856270553
1715227253249158626,0.327,,,,5.863965966
1715227253256854039,0.339,,,,5.871661379
1715227253264549452,0.334,,,,5.879356792
1715227253272244865,0.32,,,,5.887052205
1715227253279940278,0.312,,,,5.894747618
1715227253287635691,0.303,,,,5.902443031
1715227253295331104,0.283,,,,5.910138444
1715227253303026517,0.274,,,,5.917833857
1715227253310721930,0.276,,,,5.92552927
1715227253318417343,0.261,,,,5.933224683
1715227253326112756,0.237,,,,5.940920096
1715227253333808169,0.225,,,,5.948615509
1715227253341503582,0.223,,,,5.956310922
1715227253349198995,0.22,,,,5.964006335
1715227253356894408,0.21,,,,5.971701748
1715227253364589821,0.206,,,,5.979397161
1715227253372285234,0.208,,,,5.987092574
1715227253379980647,0.21,,,,5.994787987
1715227253387676060,0.203,,,,6.0024834
1715227253395371473,0.203,,,,6.010178813
1715227253403066886,0.208,,,,6.017874226
1715227253410762299,0.213,,,,6.025569639
1715227253418457712,0.223,,,,6.033265052
1715227253426153125,0.227,,,,6.040960465
1715227253433848538,0.198,,,,6.048655878
1715227253441543951,0.152,,,,6.056351291
1715227253449239364,0.13,,,,6.064046704
1715227253456934777,0.128,,,,6.071742117
1715227253464630190,0.145,,,,6.07943753
1715227253472325603,0.172,,,,6.087132943
1715227253480021016,0.184,,,,6.094828356
1715227253487716429,0.191,,,,6.102523769
1715227253495411842,0.198,,,,6.110219182
1715227253503107255,0.194,,,,6.117914595
1715227253510802668,0.191,,,,6.125610008
1715227253518498081,0.191,,,,6.133305421
1715227253526193494,0.189,,,,6.141000834
1715227253533888907,0.186,,,,6.148696247
1715227253541584320,0.179,,,,6.15639166
1715227253549279733,0.16,,,,6.164087073
1715227253556975146,0.116,,,,6.171782486
1715227253564670582,0.007,,,,6.179477922
1715227253572365995,-0.286,,,,6.187173335
1715227253580061408,-0.778,,,,6.194868748
1715227253587756821,-0.94,,,,6.202564161
1715227253595452234,-0.215,,,,6.210259574
1715227253603147647,0.744,,,,6.217954987
1715227253610843060,0.848,,,,6.2256504
1715227253618538473,0.451,,,,6.233345813
1715227253626233886,0.307,,,,6.241041226
1715227253633929299,0.242,,,,6.248736639
1715227253641624712,0.111,,,,6.256432052
1715227253649320125,0.097,,,,6.264127465
1715227253657015538,0.111,,,,6.271822878
1715227253664710951,0.067,,,,6.279518291
1715227253672406364,0.053,,,,6.287213704
1715227253680101777,0.048,,,,6.294909117
1715227253687797190,0.016,,,,6.30260453
1715227253695492603,-0.009,,,,6.310299943
1715227253703188016,-0.036,,,,6.317995356
1715227253710883429,-0.065,,,,6.325690769
1715227253718578842,-0.087,,,,6.333386182
1715227253726274255,-0.116,,,,6.341081595
1715227253733969668,-0.15,,,,6.348777008
1715227253741665081,-0.191,,,,6.356472421
1715227253749360494,-0.232,,,,6.364167834
1715227253757055907,-0.266,,,,6.371863247
1715227253764751320,-0.291,,,,6.37955866
1715227253772446733,-0.3,,,,6.387254073
1715227253780142146,-0.293,,,,6.394949486
1715227253787837559,-0.271,,,,6.402644899
1715227253795532972,-0.242,,,,6.410340312
1715227253803228385,-0.203,,,,6.418035725
1715227253810923798,-0.145,,,,6.425731138
1715227253818619211,-0.06,,,,6.433426551
1715227253826314624,0.033,,,,6.441121964
1715227253834010037,0.126,,,,6.448817377
1715227253841705450,0.198,,,,6.45651279
1715227253849400863,0.266,,,,6.464208203
1715227253857096276,0.317,,,,6.471903616
1715227253864791689,0.341,,,,6.479599029
1715227253872487102,0.356,,,,6.487294442
1715227253880182515,0.368,,,,6.494989855
1715227253887877928,0.363,,,,6.502685268
1715227253895573341,0.354,,,,6.510380681
1715227253903268754,0.341,,,,6.518076094
1715227253910964167,0.329,,,,6.525771507
1715227253918659580,0.312,,,,6.53346692
1715227253926354993,0.291,,,,6.541162333
1715227253934050406,0.276,,,,6.548857746
1715227253941745819,0.271,,,,6.556553159
1715227253949441232,0.266,,,,6.564248572
1715227253957136645,0.252,,,,6.571943985
1715227253964832058,0.237,,,,6.579639398
1715227253972527471,0.235,,,,6.587334811
1715227253980222884,0.232,,,,6.595030224
1715227253987918297,0.223,,,,6.602725637
1715227253995613710,0.223,,,,6.61042105
1715227254003309123,0.225,,,,6.618116463
1715227254011004536,0.227,,,,6.625811876
1715227254018699949,0.227,,,,6.633507289
1715227254026395362,0.232,,,,6.641202702
1715227254034090775,0.254,,,,6.648898115
1715227254041786188,0.254,,,,6.656593528
1715227254049481601,0.213,,,,6.664288941
1715227254057177014,0.172,,,,6.671984354
1715227254064872427,0.16,,,,6.679679767
1715227254072567840,0.157,,,,6.68737518
1715227254080263253,0.177,,,,6.695070593
1715227254087958666,0.203,,,,6.702766006
1715227254095654079,0.218,,,,6.710461419
1715227254103349492,0.225,,,,6.718156832
1715227254111044905,0.225,,,,6.725852245
1715227254118740318,0.22,,,,6.733547658
1715227254126435752,0.218,95.0,634.0,,6.741243092
1715227254134131025,0.223,,,,6.748938365
1715227254141826298,0.218,,,,6.756633638
1715227254149521571,0.213,,,,6.764328911
1715227254157216844,0.208,,,,6.772024184
1715227254164912117,0.181,,,,6.779719457
1715227254172607390,0.128,,,,6.78741473
1715227254180302663,0.0,,,,6.795110003
1715227254187997936,-0.366,,,,6.802805276
1715227254195693209,-0.909,,,,6.810500549
1715227254203388482,-0.979,,,,6.818195822
1715227254211083755,-0.101,,,,6.825891095
1715227254218779028,0.834,,,,6.833586368
1715227254226474301,0.805,,,,6.841281641
1715227254234169574,0.375,,,,6.848976914
1715227254241864847,0.259,,,,6.856672187
1715227254249560120,0.215,,,,6.86436746
1715227254257255393,0.116,,,,6.872062733
1715227254264950666,0.111,,,,6.879758006
1715227254272645939,0.121,,,,6.887453279
1715227254280341212,0.087,,,,6.895148552
1715227254288036485,0.067,,,,6.902843825
1715227254295731758,0.06,,,,6.910539098
1715227254303427031,0.038,,,,6.918234371
1715227254311122304,0.019,,,,6.925929644
1715227254318817577,0.002,,,,6.933624917
1715227254326512850,-0.021,,,,6.94132019
1715227254334208123,-0.043,,,,6.949015463
1715227254341903396,-0.072,,,,6.956710736
1715227254349598669,-0.113,,,,6.964406009
1715227254357293942,-0.15,,,,6.972101282
1715227254364989215,-0.186,,,,6.979796555
1715227254372684488,-0.223,,,,6.987491828
1715227254380379761,-0.254,,,,6.995187101
1715227254388075034,-0.264,,,,7.002882374
1715227254395770307,-0.252,,,,7.010577647
1715227254403465580,-0.232,,,,7.01827292
1715227254411160853,-0.203,,,,7.025968193
1715227254418856126,-0.167,,,,7.033663466
1715227254426551399,-0.109,,,,7.041358739
1715227254434246672,-0.026,,,,7.049054012
1715227254441941945,0.06,,,,7.056749285
1715227254449637218,0.15,,,,7.064444558
1715227254457332491,0.232,,,,7.072139831
1715227254465027764,0.291,,,,7.079835104
1715227254472723037,0.329,,,,7.087530377
1715227254480418310,0.356,,,,7.09522565
1715227254488113583,0.366,,,,7.102920923
1715227254495808856,0.368,,,,7.110616196
1715227254503504129,0.363,,,,7.118311469
1715227254511199402,0.358,,,,7.126006742
1715227254518894675,0.349,,,,7.133702015
1715227254526589948,0.339,,,,7.141397288
1715227254534285221,0.324,,,,7.149092561
1715227254541980494,0.31,,,,7.156787834
1715227254549675767,0.303,,,,7.164483107
1715227254557371040,0.295,,,,7.17217838
1715227254565066313,0.281,,,,7.179873653
1715227254572761586,0.278,,,,7.187568926
1715227254580456859,0.276,,,,7.195264199
1715227254588152132,0.266,,,,7.202959472
1715227254595847405,0.254,,,,7.210654745
1715227254603542678,0.252,,,,7.218350018
1715227254611237951,0.249,,,,7.226045291
1715227254618933224,0.24,,,,7.233740564
1715227254626628497,0.235,,,,7.241435837
1715227254634323770,0.24,,,,7.24913111
1715227254642019043,0.24,,,,7.256826383
1715227254649714316,0.242,,,,7.264521656
1715227254657409589,0.259,,,,7.272216929
1715227254665104862,0.252,,,,7.279912202
1715227254672800135,0.203,,,,7.287607475
1715227254680495408,0.157,,,,7.295302748
1715227254688190752,0.135,,,,7.302998092
1715227254695886722,0.135,,,,7.310694062
1715227254703582692,0.167,,,,7.318390032
1715227254711278662,0.198,,,,7.326086002
1715227254718974632,0.194,,,,7.333781972
1715227254726670602,0.194,,,,7.341477942
1715227254734366572,0.201,,,,7.349173912
1715227254742062542,0.194,,,,7.356869882
1715227254749758512,0.194,,,,7.364565852
1715227254757454482,0.201,,,,7.372261822
1715227254765150452,0.189,,,,7.379957792
1715227254772846422,0.177,,,,7.387653762
1715227254780542392,0.172,,,,7.395349732
1715227254788238362,0.143,,,,7.403045702
1715227254795934332,0.072,,,,7.410741672
1715227254803630302,-0.087,,,,7.418437642
1715227254811326272,-0.482,,,,7.426133612
1715227254819022242,-0.991,,,,7.433829582
1715227254826718212,-0.921,,,,7.441525552
1715227254834414182,0.063,,,,7.449221522
1715227254842110152,0.902,,,,7.456917492
1715227254849806122,0.742,,,,7.464613462
1715227254857502092,0.334,,,,7.472309432
1715227254865198062,0.266,,,,7.480005402
1715227254872894032,0.198,,,,7.487701372
1715227254880590002,0.094,,,,7.495397342
1715227254888285972,0.109,,,,7.503093312
1715227254895981942,0.118,,,,7.510789282
1715227254903677912,0.067,,,,7.518485252
1715227254911373882,0.046,,,,7.526181222
1715227254919069852,0.038,,,,7.533877192
1715227254926765822,0.014,,,,7.541573162
1715227254934461792,0.0,,,,7.549269132
1715227254942157762,-0.014,,,,7.556965102
1715227254949853732,-0.046,,,,7.564661072
1715227254957549702,-0.084,,,,7.572357042
1715227254965245672,-0.109,,,,7.580053012
1715227254972941642,-0.135,,,,7.587748982
1715227254980637612,-0.184,,,,7.595444952
1715227254988333582,-0.23,,,,7.603140922
1715227254996029552,-0.254,,,,7.610836892
1715227255003725522,-0.278,,,,7.618532862
1715227255011421492,-0.293,,,,7.626228832
1715227255019117462,-0.283,,,,7.633924802
1715227255026813432,-0.259,,,,7.641620772
1715227255034509402,-0.227,,,,7.649316742
1715227255042205372,-0.186,,,,7.657012712
1715227255049901342,-0.121,,,,7.664708682
1715227255057597312,-0.033,,,,7.672404652
1715227255065293282,0.063,,,,7.680100622
1715227255072989252,0.152,,,,7.687796592
1715227255080685222,0.232,,,,7.695492562
1715227255088381192,0.298,,,,7.703188532
1715227255096077162,0.344,,,,7.710884502
1715227255103773132,0.366,,,,7.718580472
1715227255111469102,0.375,,,,7.726276442
1715227255119165072,0.38,,,,7.733972412
1715227255126861042,0.38,,,,7.741668382
1715227255134557012,0.368,,,,7.749364352
1715227255142252982,0.354,,,,7.757060322
1715227255149948952,0.349,,,,7.764756292
1715227255157644922,0.337,,,,7.772452262
1715227255165340892,0.32,,,,7.780148232
1715227255173036862,0.305,,,,7.787844202
1715227255180732832,0.295,,,,7.795540172
1715227255188428802,0.288,,,,7.803236142
1715227255196124772,0.283,,,,7.810932112
1715227255203820742,0.271,,,,7.818628082
1715227255211516712,0.259,,,,7.826324052
1715227255219212682,0.242,,,,7.834020022
1715227255226908652,0.232,,,,7.841715992
1715227255234604622,0.232,,,,7.849411962
1715227255242300592,0.225,,,,7.857107932
1715227255249996612,0.223,95.0,626.0,,7.864803952
1715227255257691816,0.232,,622.0,,7.872499156
1715227255265387020,0.24,,,,7.88019436
1715227255273082224,0.244,,,,7.887889564
1715227255280777428,0.223,,,,7.895584768
1715227255288472632,0.181,,,,7.903279972
1715227255296167836,0.157,,,,7.910975176
1715227255303863040,0.147,,,,7.91867038
1715227255311558244,0.143,,,,7.926365584
1715227255319253448,0.167,,,,7.934060788
1715227255326948652,0.196,,,,7.941755992
1715227255334643856,0.203,,,,7.949451196
1715227255342339060,0.206,,,,7.9571464
1715227255350034264,0.208,,,,7.964841604
1715227255357729468,0.206,,,,7.972536808
1715227255365424672,0.203,,,,7.980232012
1715227255373119876,0.203,,,,7.987927216
1715227255380815080,0.203,,,,7.99562242
1715227255388510284,0.196,,,,8.003317624
1715227255396205488,0.177,,,,8.011012828
1715227255403900692,0.135,,,,8.018708032
1715227255411595896,0.075,,,,8.026403236
1715227255419291100,-0.116,,,,8.03409844
1715227255426986304,-0.586,,,,8.041793644
1715227255434681508,-1.006,,,,8.049488848
1715227255442376712,-0.635,,,,8.057184052
1715227255450071916,0.414,,,,8.064879256
1715227255457767120,0.919,,,,8.07257446
1715227255465462324,0.579,,,,8.080269664
1715227255473157528,0.317,,,,8.087964868
1715227255480852732,0.303,,,,8.095660072
1715227255488547936,0.184,,,,8.103355276
1715227255496243140,0.111,,,,8.11105048
1715227255503938344,0.147,,,,8.118745684
1715227255511633548,0.126,,,,8.126440888
1715227255519328752,0.08,,,,8.134136092
1715227255527023956,0.08,,,,8.141831296
1715227255534719160,0.072,,,,8.1495265
1715227255542414364,0.038,,,,8.157221704
1715227255550109568,0.016,,,,8.164916908
1715227255557804772,0.0,,,,8.172612112
1715227255565499976,-0.026,,,,8.180307316
1715227255573195180,-0.063,,,,8.18800252
1715227255580890384,-0.097,,,,8.195697724
1715227255588585588,-0.13,,,,8.203392928
1715227255596280792,-0.174,,,,8.211088132
1715227255603975996,-0.22,,,,8.218783336
1715227255611671200,-0.249,,,,8.22647854
1715227255619366404,-0.266,,,,8.234173744
1715227255627061608,-0.269,,,,8.241868948
1715227255634756812,-0.254,,,,8.249564152
1715227255642452016,-0.235,,,,8.257259356
1715227255650147220,-0.203,,,,8.26495456
1715227255657842424,-0.147,,,,8.272649764
1715227255665537628,-0.067,,,,8.280344968
1715227255673232832,0.026,,,,8.288040172
1715227255680928036,0.118,,,,8.295735376
1715227255688623240,0.201,,,,8.30343058
1715227255696318444,0.274,,,,8.311125784
1715227255704013648,0.324,,,,8.318820988
1715227255711708852,0.358,,,,8.326516192
1715227255719404056,0.371,,,,8.334211396
1715227255727099260,0.368,,,,8.3419066
1715227255734794464,0.366,,,,8.349601804
1715227255742489668,0.366,,,,8.357297008
1715227255750184872,0.356,,,,8.364992212
1715227255757880076,0.341,,,,8.372687416
1715227255765575280,0.334,,,,8.38038262
1715227255773270484,0.322,,,,8.388077824
1715227255780965688,0.31,,,,8.395773028
1715227255788660892,0.303,,,,8.403468232
1715227255796356096,0.293,,,,8.411163436
1715227255804051300,0.281,,,,8.41885864
1715227255811746526,0.269,95.0,614.0,,8.426553866
1715227255819442148,0.261,,,,8.434249488
1715227255827137770,0.257,,,,8.44194511
1715227255834833392,0.259,,,,8.449640732
1715227255842529014,0.259,,,,8.457336354
1715227255850224636,0.254,,,,8.465031976
1715227255857920258,0.249,,,,8.472727598
1715227255865615880,0.247,,,,8.48042322
1715227255873311502,0.249,,,,8.488118842
1715227255881007124,0.244,,,,8.495814464
1715227255888702746,0.225,,,,8.503510086
1715227255896398368,0.184,,,,8.511205708
1715227255904093990,0.15,,,,8.51890133
1715227255911789612,0.138,,,,8.526596952
1715227255919485234,0.143,,,,8.534292574
1715227255927180856,0.169,,,,8.541988196
1715227255934876478,0.189,,,,8.549683818
1715227255942572100,0.196,,,,8.55737944
1715227255950267722,0.206,,,,8.565075062
1715227255957963344,0.208,,,,8.572770684
1715227255965658966,0.201,,,,8.580466306
1715227255973354588,0.194,,,,8.588161928
1715227255981050210,0.196,,,,8.59585755
1715227255988745832,0.196,,,,8.603553172
1715227255996441454,0.191,,,,8.611248794
1715227256004137076,0.174,,,,8.618944416
1715227256011832698,0.147,,,,8.626640038
1715227256019528320,0.077,,,,8.63433566
1715227256027223942,-0.172,,,,8.642031282
1715227256034919564,-0.686,,,,8.649726904
1715227256042615186,-1.035,,,,8.657422526
1715227256050310808,-0.504,,,,8.665118148
1715227256058006430,0.56,,,,8.67281377
1715227256065702052,0.909,,,,8.680509392
1715227256073397674,0.518,,,,8.688205014
1715227256081093296,0.298,,,,8.695900636
1715227256088788918,0.276,,,,8.703596258
1715227256096484540,0.167,,,,8.71129188
1715227256104180162,0.118,,,,8.718987502
1715227256111875784,0.14,,,,8.726683124
1715227256119571406,0.111,,,,8.734378746
1715227256127267028,0.082,,,,8.742074368
1715227256134962650,0.077,,,,8.74976999
1715227256142658272,0.048,,,,8.757465612
1715227256150353894,0.014,,,,8.765161234
1715227256158049516,0.002,,,,8.772856856
1715227256165745138,-0.012,,,,8.780552478
1715227256173440760,-0.043,,,,8.7882481
1715227256181136382,-0.077,,,,8.795943722
1715227256188832004,-0.106,,,,8.803639344
1715227256196527626,-0.147,,,,8.811334966
1715227256204223248,-0.196,,,,8.819030588
1715227256211918870,-0.235,,,,8.82672621
1715227256219614492,-0.274,,,,8.834421832
1715227256227310114,-0.3,,,,8.842117454
1715227256235005736,-0.295,,,,8.849813076
1715227256242701358,-0.276,,,,8.857508698
1715227256250396980,-0.249,,,,8.86520432
1715227256258092602,-0.206,,,,8.872899942
1715227256265788224,-0.147,,,,8.880595564
1715227256273483846,-0.067,,,,8.888291186
1715227256281179468,0.026,,,,8.895986808
1715227256288875090,0.121,,,,8.90368243
1715227256296570712,0.198,,,,8.911378052
1715227256304266334,0.266,,,,8.919073674
1715227256311961956,0.315,,,,8.926769296
1715227256319657578,0.339,,,,8.934464918
1715227256327353200,0.349,,,,8.94216054
1715227256335048822,0.356,,,,8.949856162
1715227256342744444,0.356,,,,8.957551784
1715227256350440066,0.349,,,,8.965247406
1715227256358135688,0.337,,,,8.972943028
1715227256365831310,0.327,,,,8.98063865
1715227256373526956,0.32,,,,8.988334296
1715227256381222578,0.303,,,,8.996029918
1715227256388918200,0.288,,,,9.00372554
1715227256396613822,0.281,,,,9.011421162
1715227256404309444,0.276,,,,9.019116784
1715227256412005066,0.266,,,,9.026812406
1715227256419700688,0.259,,,,9.034508028
1715227256427396310,0.247,,,,9.04220365
1715227256435091932,0.24,,,,9.049899272
1715227256442787554,0.235,,,,9.057594894
1715227256450483176,0.227,,,,9.065290516
1715227256458178798,0.225,,,,9.072986138
1715227256465874420,0.227,,,,9.08068176
1715227256473570042,0.223,,,,9.088377382
1715227256481265664,0.218,,,,9.096073004
1715227256488961286,0.237,,,,9.103768626
1715227256496656908,0.249,,,,9.111464248
1715227256504352530,0.21,,,,9.11915987
1715227256512048152,0.16,,,,9.126855492
1715227256519743774,0.135,,,,9.134551114
1715227256527439396,0.13,,,,9.142246736
1715227256535135018,0.152,,,,9.149942358
1715227256542830640,0.181,,,,9.15763798
1715227256550526262,0.194,,,,9.165333602
1715227256558221884,0.198,,,,9.173029224
1715227256565917506,0.201,,,,9.180724846
1715227256573613128,0.196,,,,9.188420468
1715227256581308750,0.194,,,,9.19611609
1715227256589004372,0.194,,,,9.203811712
1715227256596699994,0.191,,,,9.211507334
1715227256604395616,0.184,,,,9.219202956
1715227256612091238,0.179,,,,9.226898578
1715227256619786860,0.162,,,,9.2345942
1715227256627482482,0.123,,,,9.242289822
1715227256635178104,0.012,,,,9.249985444
1715227256642873726,-0.329,,,,9.257681066
1715227256650569348,-0.906,,,,9.265376688
1715227256658264970,-1.127,,,,9.27307231
1715227256665960592,-0.341,,,,9.280767932
1715227256673656214,0.717,,,,9.288463554
1715227256681351836,0.8190000000000001,,,,9.296159176
1715227256689047458,0.371,,,,9.303854798
1715227256696743080,0.252,,,,9.31155042
1715227256704438702,0.249,,,,9.319246042
1715227256712134324,0.143,,,,9.326941664
1715227256719829946,0.121,,,,9.334637286
1715227256727525568,0.133,,,,9.342332908
1715227256735221190,0.089,,,,9.35002853
1715227256742916812,0.06,,,,9.357724152
1715227256750612434,0.058,,,,9.365419774
1715227256758308056,0.038,,,,9.373115396
1715227256766003678,0.016,,,,9.380811018
1715227256773699300,0.002,,,,9.38850664
1715227256781394922,-0.021,,,,9.396202262
1715227256789090544,-0.05,,,,9.403897884
1715227256796786166,-0.082,,,,9.411593506
1715227256804481788,-0.118,,,,9.419289128
1715227256812177410,-0.16,,,,9.42698475
1715227256819873032,-0.198,,,,9.434680372
1715227256827568654,-0.232,,,,9.442375994
1715227256835264276,-0.264,,,,9.450071616
1715227256842959898,-0.278,,,,9.457767238
1715227256850655520,-0.271,,,,9.46546286
1715227256858351142,-0.249,,,,9.473158482
1715227256866046764,-0.223,,,,9.480854104
1715227256873742386,-0.186,,,,9.488549726
1715227256881438008,-0.13,,,,9.496245348
1715227256889133630,-0.05,,,,9.50394097
1715227256896829252,0.043,,,,9.511636592
1715227256904524874,0.13,,,,9.519332214
1715227256912220496,0.21,,,,9.527027836
1715227256919916118,0.274,,,,9.534723458
1715227256927611740,0.307,,,,9.54241908
1715227256935307386,0.327,96.0,622.0,,9.550114726
1715227256943003008,0.339,,613.0,,9.557810348
1715227256950698630,0.346,,,,9.56550597
1715227256958394252,0.339,,,,9.573201592
1715227256966089874,0.327,,,,9.580897214
1715227256973785496,0.322,,,,9.588592836
1715227256981481118,0.307,,,,9.596288458
1715227256989176740,0.286,,,,9.60398408
1715227256996872362,0.274,,,,9.611679702
1715227257004567984,0.271,,,,9.619375324
1715227257012263606,0.261,,,,9.627070946
1715227257019959228,0.242,,,,9.634766568
1715227257027654850,0.23,,,,9.64246219
1715227257035350472,0.235,,,,9.650157812
1715227257043046094,0.232,,,,9.657853434
1715227257050741716,0.22,,,,9.665549056
1715227257058437338,0.213,,,,9.673244678
1715227257066132960,0.215,,,,9.6809403
1715227257073828582,0.215,,,,9.688635922
1715227257081524204,0.21,,,,9.696331544
1715227257089219826,0.218,,,,9.704027166
1715227257096915448,0.218,,,,9.711722788
1715227257104611070,0.215,,,,9.71941841
1715227257112306692,0.223,,,,9.727114032
1715227257120002314,0.21,,,,9.734809654
1715227257127697936,0.16,,,,9.742505276
1715227257135393558,0.113,,,,9.750200898
1715227257143089180,0.101,,,,9.75789652
1715227257150784802,0.106,,,,9.765592142
1715227257158480424,0.128,,,,9.773287764
1715227257166176046,0.147,,,,9.780983386
1715227257173871668,0.16,,,,9.788679008
1715227257181567290,0.169,,,,9.79637463
1715227257189262912,0.169,,,,9.804070252
1715227257196958534,0.167,,,,9.811765874
1715227257204654156,0.167,,,,9.819461496
1715227257212349778,0.167,,,,9.827157118
1715227257220045400,0.157,,,,9.83485274
1715227257227741022,0.152,,,,9.842548362
1715227257235436644,0.14,,,,9.850243984
1715227257243132266,0.101,,,,9.857939606
1715227257250827888,0.043,,,,9.865635228
1715227257258523510,-0.133,,,,9.87333085
1715227257266219132,-0.579,,,,9.881026472
1715227257273914754,-1.084,,,,9.888722094
1715227257281610376,-0.894,,,,9.896417716
1715227257289305998,0.155,,,,9.904113338
1715227257297001620,0.873,,,,9.91180896
1715227257304697242,0.606,,,,9.919504582
1715227257312392864,0.259,,,,9.927200204
1715227257320088486,0.249,,,,9.934895826
1715227257327784108,0.174,,,,9.942591448
1715227257335479730,0.082,,,,9.95028707
1715227257343175352,0.101,,,,9.957982692
1715227257350870974,0.092,,,,9.965678314
1715227257358566596,0.046,,,,9.973373936
1715227257366262218,0.038,,,,9.981069558
1715227257373957840,0.024,,,,9.98876518
1715227257381653462,-0.009,,,,9.996460802
1715227257389349084,-0.021,,,,10.004156424
1715227257397044706,-0.036,,,,10.011852046
1715227257404740328,-0.065,,,,10.019547668
1715227257412435950,-0.092,,,,10.02724329
1715227257420131572,-0.123,,,,10.034938912
1715227257427827194,-0.162,,,,10.042634534
1715227257435522816,-0.208,,,,10.050330156
1715227257443218438,-0.249,,,,10.058025778
1715227257450914060,-0.278,,,,10.0657214
1715227257458609682,-0.303,,,,10.073417022
1715227257466305304,-0.307,,,,10.081112644
1715227257474000926,-0.288,,,,10.088808266
1715227257481696548,-0.261,,,,10.096503888
1715227257489392170,-0.237,,,,10.10419951
1715227257497087816,-0.191,,,,10.111895156
1715227257504783020,-0.116,,,,10.11959036
1715227257512478224,-0.016,,,,10.127285564
1715227257520173428,0.084,,,,10.134980768
1715227257527868632,0.172,,,,10.142675972
1715227257535563836,0.24,,,,10.150371176
1715227257543259040,0.293,,,,10.15806638
1715227257550954244,0.329,,,,10.165761584
1715227257558649448,0.344,,,,10.173456788
1715227257566344652,0.351,,,,10.181151992
1715227257574039856,0.356,,,,10.188847196
1715227257581735060,0.344,,,,10.1965424
1715227257589430264,0.329,,,,10.204237604
1715227257597125468,0.327,,,,10.211932808
1715227257604820672,0.327,,,,10.219628012
1715227257612515876,0.315,,,,10.227323216
1715227257620211080,0.3,,,,10.23501842
1715227257627906284,0.291,,,,10.242713624
1715227257635601488,0.281,,,,10.250408828
1715227257643296692,0.269,,,,10.258104032
1715227257650991896,0.261,,,,10.265799236
1715227257658687100,0.257,,,,10.27349444
1715227257666382304,0.244,,,,10.281189644
1715227257674077508,0.237,,,,10.288884848
1715227257681772712,0.242,,,,10.296580052
1715227257689467916,0.247,,,,10.304275256
1715227257697163120,0.24,,,,10.31197046
1715227257704858324,0.237,,,,10.319665664
1715227257712553528,0.237,,,,10.327360868
1715227257720248732,0.237,,,,10.335056072
1715227257727943936,0.249,,,,10.342751276
1715227257735639140,0.242,,,,10.35044648
1715227257743334344,0.186,,,,10.358141684
1715227257751029548,0.15,,,,10.365836888
1715227257758724752,0.14,,,,10.373532092
1715227257766419956,0.133,,,,10.381227296
1715227257774115160,0.157,,,,10.3889225
1715227257781810364,0.191,,,,10.396617704
1715227257789505568,0.196,,,,10.404312908
1715227257797200772,0.198,,,,10.412008112
1715227257804895976,0.206,,,,10.419703316
1715227257812591180,0.196,,,,10.42739852
1715227257820286384,0.194,,,,10.435093724
1715227257827981588,0.194,,,,10.442788928
1715227257835676792,0.189,,,,10.450484132
1715227257843371996,0.186,,,,10.458179336
1715227257851067200,0.179,,,,10.46587454
1715227257858762404,0.145,,,,10.473569744
1715227257866457608,0.075,,,,10.481264948
1715227257874152812,-0.128,,,,10.488960152
1715227257881848016,-0.591,,,,10.496655356
1715227257889543220,-0.979,,,,10.50435056
1715227257897238424,-0.5740000000000001,,,,10.512045764
1715227257904933628,0.46,,,,10.519740968
1715227257912628832,0.902,,,,10.527436172
1715227257920324036,0.538,,,,10.535131376
1715227257928019240,0.312,,,,10.54282658
1715227257935714444,0.324,,,,10.550521784
1715227257943409648,0.194,,,,10.558216988
1715227257951104852,0.111,,,,10.565912192
1715227257958800056,0.15,,,,10.573607396
1715227257966495260,0.135,,,,10.5813026
1715227257974190464,0.087,,,,10.588997804
1715227257981885668,0.077,,,,10.596693008
1715227257989580872,0.063,,,,10.604388212
1715227257997276076,0.041,,,,10.612083416
1715227258004971280,0.029,,,,10.61977862
1715227258012666484,0.009,,,,10.627473824
1715227258020361688,-0.029,,,,10.635169028
1715227258028056892,-0.055,,,,10.642864232
1715227258035752096,-0.087,,,,10.650559436
1715227258043447300,-0.135,,,,10.65825464
1715227258051142504,-0.179,,,,10.665949844
1715227258058837728,-0.22,96.0,606.0,,10.673645068
1715227258066533350,-0.257,,613.0,,10.68134069
1715227258074228972,-0.269,,,,10.689036312
1715227258081924594,-0.266,,,,10.696731934
1715227258089620216,-0.266,,,,10.704427556
1715227258097315838,-0.252,,,,10.712123178
1715227258105011460,-0.21,,,,10.7198188
1715227258112707082,-0.152,,,,10.727514422
1715227258120402704,-0.07,,,,10.735210044
1715227258128098326,0.031,,,,10.742905666
1715227258135793948,0.121,,,,10.750601288
1715227258143489570,0.203,,,,10.75829691
1715227258151185192,0.283,,,,10.765992532
1715227258158880814,0.327,,,,10.773688154
1715227258166576436,0.349,,,,10.781383776
1715227258174272058,0.371,,,,10.789079398
1715227258181967680,0.385,,,,10.79677502
1715227258189663302,0.38,,,,10.804470642
1715227258197358924,0.375,,,,10.812166264
1715227258205054546,0.373,,,,10.819861886
1715227258212750168,0.366,,,,10.827557508
1715227258220445790,0.346,,,,10.83525313
1715227258228141412,0.334,,,,10.842948752
1715227258235837034,0.324,,,,10.850644374
1715227258243532656,0.305,,,,10.858339996
1715227258251228278,0.286,,,,10.866035618
1715227258258923900,0.283,,,,10.87373124
1715227258266619522,0.283,,,,10.881426862
1715227258274315144,0.271,,,,10.889122484
1715227258282010766,0.264,,,,10.896818106
1715227258289706388,0.276,,,,10.904513728
1715227258297402010,0.278,,,,10.91220935
1715227258305097632,0.264,,,,10.919904972
1715227258312793254,0.259,,,,10.927600594
1715227258320488876,0.276,,,,10.935296216
1715227258328184498,0.291,,,,10.942991838
1715227258335880120,0.271,,,,10.95068746
1715227258343575742,0.227,,,,10.958383082
1715227258351271364,0.203,,,,10.966078704
1715227258358966986,0.194,,,,10.973774326
1715227258366662608,0.184,,,,10.981469948
1715227258374358230,0.198,,,,10.98916557
1715227258382053852,0.232,,,,10.996861192
1715227258389749474,0.247,,,,11.004556814
1715227258397445096,0.24,,,,11.012252436
1715227258405140718,0.237,,,,11.019948058
1715227258412836340,0.242,,,,11.02764368
1715227258420531962,0.24,,,,11.035339302
1715227258428227584,0.235,,,,11.043034924
1715227258435923206,0.232,,,,11.050730546
1715227258443618828,0.227,,,,11.058426168
1715227258451314450,0.215,,,,11.06612179
1715227258459010072,0.184,,,,11.073817412
1715227258466705694,0.104,,,,11.081513034
1715227258474401316,-0.143,,,,11.089208656
1715227258482096938,-0.618,,,,11.096904278
1715227258489792560,-0.885,,,,11.1045999
1715227258497488182,-0.31,,,,11.112295522
1715227258505183804,0.654,,,,11.119991144
1715227258512879426,0.87,,,,11.127686766
1715227258520575048,0.492,,,,11.135382388
1715227258528270670,0.358,,,,11.14307801
1715227258535966292,0.341,,,,11.150773632
1715227258543661914,0.189,,,,11.158469254
1715227258551357536,0.128,,,,11.166164876
1715227258559053158,0.16,,,,11.173860498
1715227258566748780,0.13,,,,11.18155612
1715227258574444402,0.094,,,,11.189251742
1715227258582140024,0.092,,,,11.196947364
1715227258589835646,0.077,,,,11.204642986
1715227258597531268,0.046,,,,11.212338608
1715227258605226890,0.014,,,,11.22003423
1715227258612922512,-0.016,,,,11.227729852
1715227258620618158,-0.048,,,,11.235425498
1715227258628313780,-0.072,,,,11.24312112
1715227258636009402,-0.104,,,,11.250816742
1715227258643705024,-0.155,,,,11.258512364
1715227258651400646,-0.203,,,,11.266207986
1715227258659096268,-0.249,,,,11.273903608
1715227258666791890,-0.293,,,,11.28159923
1715227258674487512,-0.3,,,,11.289294852
1715227258682183134,-0.293,,,,11.296990474
1715227258689878756,-0.288,,,,11.304686096
1715227258697574378,-0.266,,,,11.312381718
1715227258705270000,-0.215,,,,11.32007734
1715227258712965622,-0.138,,,,11.327772962
1715227258720661244,-0.053,,,,11.335468584
1715227258728356866,0.041,,,,11.343164206
1715227258736052488,0.138,,,,11.350859828
1715227258743748110,0.21,,,,11.35855545
1715227258751443732,0.259,,,,11.366251072
1715227258759139354,0.31,,,,11.373946694
1715227258766834976,0.349,,,,11.381642316
1715227258774530598,0.361,,,,11.389337938
1715227258782226220,0.373,,,,11.39703356
1715227258789921842,0.368,,,,11.404729182
1715227258797617464,0.349,,,,11.412424804
1715227258805313086,0.354,,,,11.420120426
1715227258813008708,0.351,,,,11.427816048
1715227258820704330,0.32,,,,11.43551167
1715227258828399952,0.307,,,,11.443207292
1715227258836095574,0.307,,,,11.450902914
1715227258843791196,0.286,,,,11.458598536
1715227258851486818,0.271,,,,11.466294158
1715227258859182440,0.266,,,,11.47398978
1715227258866878062,0.259,,,,11.481685402
1715227258874573684,0.259,,,,11.489381024
1715227258882269306,0.257,,,,11.497076646
1715227258889964928,0.252,,,,11.504772268
1715227258897660550,0.247,,,,11.51246789
1715227258905356172,0.24,,,,11.520163512
1715227258913051794,0.244,,,,11.527859134
1715227258920747416,0.261,,,,11.535554756
1715227258928443038,0.247,,,,11.543250378
1715227258936138660,0.208,,,,11.550946
1715227258943834282,0.194,,,,11.558641622
1715227258951529904,0.194,,,,11.566337244
1715227258959225526,0.194,,,,11.574032866
1715227258966921148,0.203,,,,11.581728488
1715227258974616770,0.208,,,,11.58942411
1715227258982312392,0.215,,,,11.597119732
1715227258990008014,0.227,,,,11.604815354
1715227258997703636,0.218,,,,11.612510976
1715227259005399258,0.208,,,,11.620206598
1715227259013094880,0.215,,,,11.62790222
1715227259020790502,0.21,,,,11.635597842
1715227259028486124,0.198,,,,11.643293464
1715227259036181746,0.189,,,,11.650989086
1715227259043877368,0.169,,,,11.658684708
1715227259051572990,0.113,,,,11.66638033
1715227259059268612,0.007,,,,11.674075952
1715227259066964234,-0.259,,,,11.681771574
1715227259074659856,-0.669,,,,11.689467196
1715227259082355478,-0.71,,,,11.697162818
1715227259090051100,0.024,,,,11.70485844
1715227259097746722,0.78,,,,11.712554062
1715227259105442344,0.715,,,,11.720249684
1715227259113137966,0.385,,,,11.727945306
1715227259120833588,0.344,,,,11.735640928
1715227259128529210,0.269,,,,11.74333655
1715227259136224832,0.113,,,,11.751032172
1715227259143920454,0.099,,,,11.758727794
1715227259151616076,0.111,,,,11.766423416
1715227259159311698,0.065,,,,11.774119038
1715227259167007320,0.048,,,,11.78181466
1715227259174702942,0.05,,,,11.789510282
1715227259182398590,0.026,97.0,620.0,,11.79720593
1715227259190093794,0.004,,,,11.804901134
1715227259197788998,-0.014,,,,11.812596338
1715227259205484202,-0.043,,,,11.820291542
1715227259213179406,-0.07,,,,11.827986746
1715227259220874610,-0.099,,,,11.83568195
1715227259228569814,-0.138,,,,11.843377154
1715227259236265018,-0.181,,,,11.851072358
1715227259243960222,-0.23,,,,11.858767562
1715227259251655426,-0.278,,,,11.866462766
1715227259259350630,-0.31,,,,11.87415797
1715227259267045834,-0.317,,,,11.881853174
1715227259274741038,-0.31,,,,11.889548378
1715227259282436242,-0.281,,,,11.897243582
1715227259290131446,-0.242,,,,11.904938786
1715227259297826650,-0.201,,,,11.91263399
1715227259305521854,-0.133,,,,11.920329194
1715227259313217058,-0.029,,,,11.928024398
1715227259320912262,0.077,,,,11.935719602
1715227259328607466,0.162,,,,11.943414806
1715227259336302670,0.23,,,,11.95111001
1715227259343997874,0.281,,,,11.958805214
1715227259351693078,0.307,,,,11.966500418
1715227259359388282,0.329,,,,11.974195622
1715227259367083486,0.351,,,,11.981890826
1715227259374778690,0.354,,,,11.98958603
1715227259382473894,0.339,,,,11.997281234
1715227259390169098,0.334,,,,12.004976438
1715227259397864302,0.332,,,,12.012671642
1715227259405559506,0.32,,,,12.020366846
1715227259413254710,0.303,,,,12.02806205
1715227259420949914,0.288,,,,12.035757254
1715227259428645118,0.281,,,,12.043452458
1715227259436340322,0.271,,,,12.051147662
1715227259444035526,0.264,,,,12.058842866
1715227259451730730,0.254,,,,12.06653807
1715227259459425934,0.247,,,,12.074233274
1715227259467121138,0.249,,,,12.081928478
1715227259474816342,0.244,,,,12.089623682
1715227259482511546,0.237,,,,12.097318886
1715227259490206750,0.24,,,,12.10501409
1715227259497901954,0.249,,,,12.112709294
1715227259505597158,0.259,,,,12.120404498
1715227259513292362,0.252,,,,12.128099702
1715227259520987566,0.218,,,,12.135794906
1715227259528682770,0.194,,,,12.14349011
1715227259536377974,0.186,,,,12.151185314
1715227259544073178,0.186,,,,12.158880518
1715227259551768382,0.206,,,,12.166575722
1715227259559463586,0.223,,,,12.174270926
1715227259567158790,0.22,,,,12.18196613
1715227259574853994,0.223,,,,12.189661334
1715227259582549198,0.223,,,,12.197356538
1715227259590244402,0.213,,,,12.205051742
1715227259597939606,0.203,,,,12.212746946
1715227259605634810,0.198,,,,12.22044215
1715227259613330014,0.194,,,,12.228137354
1715227259621025218,0.186,,,,12.235832558
1715227259628720422,0.172,,,,12.243527762
1715227259636415626,0.133,,,,12.251222966
1715227259644110830,0.063,,,,12.25891817
1715227259651806034,-0.14,,,,12.266613374
1715227259659501238,-0.611,,,,12.274308578
1715227259667196442,-0.982,,,,12.282003782
1715227259674891646,-0.523,,,,12.289698986
1715227259682586850,0.521,,,,12.29739419
1715227259690282054,0.921,,,,12.305089394
1715227259697977258,0.528,,,,12.312784598
1715227259705672462,0.274,,,,12.320479802
1715227259713367666,0.252,,,,12.328175006
1715227259721062870,0.147,,,,12.33587021
1715227259728758074,0.099,,,,12.343565414
1715227259736453278,0.126,,,,12.351260618
1715227259744148502,0.099,97.0,614.0,,12.358955842
1715227259751844124,0.055,,599.0,,12.366651464
1715227259759539746,0.041,,,,12.374347086
1715227259767235368,0.029,,,,12.382042708
1715227259774930990,0.007,,,,12.38973833
1715227259782626612,-0.014,,,,12.397433952
1715227259790322234,-0.036,,,,12.405129574
1715227259798017856,-0.06,,,,12.412825196
1715227259805713478,-0.099,,,,12.420520818
1715227259813409100,-0.138,,,,12.42821644
1715227259821104722,-0.172,,,,12.435912062
1715227259828800344,-0.21,,,,12.443607684
1715227259836495966,-0.259,,,,12.451303306
1715227259844191588,-0.291,,,,12.458998928
1715227259851887210,-0.298,,,,12.46669455
1715227259859582832,-0.293,,,,12.474390172
1715227259867278454,-0.278,,,,12.482085794
1715227259874974076,-0.244,,,,12.489781416
1715227259882669698,-0.201,,,,12.497477038
1715227259890365320,-0.147,,,,12.50517266
1715227259898060942,-0.07,,,,12.512868282
1715227259905756564,0.033,,,,12.520563904
1715227259913452186,0.128,,,,12.528259526
1715227259921147808,0.206,,,,12.535955148
1715227259928843430,0.269,,,,12.54365077
1715227259936539052,0.315,,,,12.551346392
1715227259944234674,0.344,,,,12.559042014
1715227259951930296,0.358,,,,12.566737636
1715227259959625918,0.356,,,,12.574433258
1715227259967321540,0.354,,,,12.58212888
1715227259975017162,0.351,,,,12.589824502
1715227259982712784,0.339,,,,12.597520124
1715227259990408406,0.324,,,,12.605215746
1715227259998104028,0.317,,,,12.612911368
1715227260005799650,0.315,,,,12.62060699
1715227260013495272,0.307,,,,12.628302612
1715227260021190894,0.295,,,,12.635998234
1715227260028886516,0.288,,,,12.643693856
1715227260036582138,0.286,,,,12.651389478
1715227260044277760,0.281,,,,12.6590851
1715227260051973382,0.274,,,,12.666780722
1715227260059669004,0.271,,,,12.674476344
1715227260067364626,0.269,,,,12.682171966
1715227260075060248,0.269,,,,12.689867588
1715227260082755870,0.274,,,,12.69756321
1715227260090451492,0.288,,,,12.705258832
1715227260098147114,0.281,,,,12.712954454
1715227260105842736,0.237,,,,12.720650076
1715227260113538358,0.203,,,,12.728345698
1715227260121233980,0.189,,,,12.73604132
1715227260128929602,0.186,,,,12.743736942
1715227260136625224,0.206,,,,12.751432564
1715227260144320846,0.23,,,,12.759128186
1715227260152016468,0.242,,,,12.766823808
1715227260159712090,0.247,,,,12.77451943
1715227260167407712,0.24,,,,12.782215052
1715227260175103334,0.23,,,,12.789910674
1715227260182798956,0.227,,,,12.797606296
1715227260190494578,0.223,,,,12.805301918
1715227260198190200,0.208,,,,12.81299754
1715227260205885822,0.203,,,,12.820693162
1715227260213581444,0.189,,,,12.828388784
1715227260221277066,0.147,,,,12.836084406
1715227260228972688,0.063,,,,12.843780028
1715227260236668310,-0.201,,,,12.85147565
1715227260244363932,-0.717,,,,12.859171272
1715227260252059554,-1.018,,,,12.866866894
1715227260259755176,-0.426,,,,12.874562516
1715227260267450798,0.632,,,,12.882258138
1715227260275146420,0.921,,,,12.88995376
1715227260282842042,0.475,,,,12.897649382
1715227260290537664,0.247,,,,12.905345004
1715227260298233286,0.24,,,,12.913040626
1715227260305928932,0.145,,,,12.920736272
1715227260313624554,0.111,,,,12.928431894
1715227260321320176,0.13,,,,12.936127516
1715227260329015798,0.094,,,,12.943823138
1715227260336711420,0.063,,,,12.95151876
1715227260344407042,0.063,,,,12.959214382
1715227260352102664,0.041,,,,12.966910004
1715227260359798286,0.014,,,,12.974605626
1715227260367493908,0.0,,,,12.982301248
1715227260375189530,-0.029,,,,12.98999687
1715227260382885152,-0.067,,,,12.997692492
1715227260390580774,-0.094,,,,13.005388114
1715227260398276396,-0.123,,,,13.013083736
1715227260405972018,-0.164,,,,13.020779358
1715227260413667640,-0.206,,,,13.02847498
1715227260421363262,-0.24,,,,13.036170602
1715227260429058884,-0.269,,,,13.043866224
1715227260436754506,-0.288,,,,13.051561846
1715227260444450128,-0.283,,,,13.059257468
1715227260452145750,-0.254,,,,13.06695309
1715227260459841372,-0.223,,,,13.074648712
1715227260467536994,-0.181,,,,13.082344334
1715227260475232616,-0.116,,,,13.090039956
1715227260482928238,-0.029,,,,13.097735578
1715227260490623860,0.072,,,,13.1054312
1715227260498319482,0.164,,,,13.113126822
1715227260506015104,0.24,,,,13.120822444
1715227260513710726,0.3,,,,13.128518066
1715227260521406348,0.341,,,,13.136213688
1715227260529101970,0.358,,,,13.14390931
1715227260536797592,0.363,,,,13.151604932
1715227260544493214,0.371,,,,13.159300554
1715227260552188836,0.368,,,,13.166996176
1715227260559884458,0.354,,,,13.174691798
1715227260567580080,0.344,,,,13.18238742
1715227260575275702,0.332,,,,13.190083042
1715227260582971324,0.317,,,,13.197778664
1715227260590666946,0.31,,,,13.205474286
1715227260598362568,0.305,,,,13.213169908
1715227260606058190,0.298,,,,13.22086553
1715227260613753812,0.293,,,,13.228561152
1715227260621449434,0.286,,,,13.236256774
1715227260629145056,0.283,,,,13.243952396
1715227260636840678,0.281,,,,13.251648018
1715227260644536300,0.278,,,,13.25934364
1715227260652231922,0.274,,,,13.267039262
1715227260659927544,0.286,,,,13.274734884
1715227260667623166,0.305,,,,13.282430506
1715227260675318788,0.288,,,,13.290126128
1715227260683014410,0.242,,,,13.29782175
1715227260690710032,0.215,,,,13.305517372
1715227260698405654,0.208,,,,13.313212994
1715227260706101276,0.208,,,,13.320908616
1715227260713796898,0.23,,,,13.328604238
1715227260721492520,0.254,,,,13.33629986
1715227260729188142,0.266,,,,13.343995482
1715227260736883764,0.269,,,,13.351691104
1715227260744579386,0.264,,,,13.359386726
1715227260752275008,0.257,,,,13.367082348
1715227260759970630,0.247,,,,13.37477797
1715227260767666252,0.227,,,,13.382473592
1715227260775361874,0.223,,,,13.390169214
1715227260783057496,0.223,,,,13.397864836
1715227260790753118,0.196,,,,13.405560458
1715227260798448740,0.15,,,,13.41325608
1715227260806144362,0.048,,,,13.420951702
1715227260813839984,-0.291,,,,13.428647324
1715227260821535606,-0.851,,,,13.436342946
1715227260829231228,-0.996,,,,13.444038568
1715227260836926850,-0.184,,,,13.45173419
1715227260844622472,0.805,,,,13.459429812
1715227260852318094,0.841,,,,13.467125434
1715227260860013716,0.356,,,,13.474821056
1715227260867709362,0.21,98.0,590.0,,13.482516702
1715227260875404984,0.218,,589.0,,13.490212324
1715227260883100606,0.13,,,,13.497907946
1715227260890796228,0.104,,,,13.505603568
1715227260898491850,0.116,,,,13.51329919
1715227260906187472,0.087,,,,13.520994812
1715227260913883094,0.055,,,,13.528690434
1715227260921578716,0.043,,,,13.536386056
1715227260929274338,0.026,,,,13.544081678
1715227260936969960,0.007,,,,13.5517773
1715227260944665582,-0.012,,,,13.559472922
1715227260952361204,-0.038,,,,13.567168544
1715227260960056826,-0.067,,,,13.574864166
1715227260967752448,-0.092,,,,13.582559788
1715227260975448070,-0.126,,,,13.59025541
1715227260983143692,-0.167,,,,13.597951032
1715227260990839314,-0.203,,,,13.605646654
1715227260998534936,-0.242,,,,13.613342276
1715227261006230558,-0.266,,,,13.621037898
1715227261013926180,-0.269,,,,13.62873352
1715227261021621802,-0.257,,,,13.636429142
1715227261029317424,-0.23,,,,13.644124764
1715227261037013046,-0.201,,,,13.651820386
1715227261044708668,-0.16,,,,13.659516008
1715227261052404290,-0.087,,,,13.66721163
1715227261060099912,0.002,,,,13.674907252
1715227261067795534,0.089,,,,13.682602874
1715227261075491156,0.172,,,,13.690298496
1715227261083186778,0.249,,,,13.697994118
1715227261090882400,0.303,,,,13.70568974
1715227261098578022,0.329,,,,13.713385362
1715227261106273644,0.349,,,,13.721080984
1715227261113969266,0.361,,,,13.728776606
1715227261121664888,0.361,,,,13.736472228
1715227261129360510,0.351,,,,13.74416785
1715227261137056132,0.341,,,,13.751863472
1715227261144751754,0.337,,,,13.759559094
1715227261152447376,0.332,,,,13.767254716
1715227261160142998,0.32,,,,13.774950338
1715227261167838620,0.315,,,,13.78264596
1715227261175534242,0.31,,,,13.790341582
1715227261183229864,0.295,,,,13.798037204
1715227261190925486,0.288,,,,13.805732826
1715227261198621108,0.288,,,,13.813428448
1715227261206316730,0.288,,,,13.82112407
1715227261214012352,0.283,,,,13.828819692
1715227261221707974,0.278,,,,13.836515314
1715227261229403596,0.283,,,,13.844210936
1715227261237099218,0.298,,,,13.851906558
1715227261244794840,0.3,,,,13.85960218
1715227261252490462,0.269,,,,13.867297802
1715227261260186084,0.22,,,,13.874993424
1715227261267881706,0.196,,,,13.882689046
1715227261275577328,0.184,,,,13.890384668
1715227261283272950,0.189,,,,13.89808029
1715227261290968572,0.22,,,,13.905775912
1715227261298664194,0.24,,,,13.913471534
1715227261306359816,0.247,,,,13.921167156
1715227261314055438,0.247,,,,13.928862778
1715227261321751060,0.244,,,,13.9365584
1715227261329446682,0.242,,,,13.944254022
1715227261337142304,0.235,,,,13.951949644
1715227261344837926,0.23,,,,13.959645266
1715227261352533548,0.225,,,,13.967340888
1715227261360229170,0.215,,,,13.97503651
1715227261367924792,0.198,,,,13.982732132
1715227261375620414,0.179,,,,13.990427754
1715227261383316036,0.019,,,,13.998123376
1715227261391011658,-0.463,,,,14.005818998
1715227261398707280,-0.965,,,,14.01351462
1715227261406402902,-0.7000000000000001,,,,14.021210242
1715227261414098524,0.346,,,,14.028905864
1715227261421794146,0.943,,,,14.036601486
1715227261429489792,0.608,,,,14.044297132
1715227261437185414,0.266,,,,14.051992754
1715227261444881036,0.247,,,,14.059688376
1715227261452576658,0.167,,,,14.067383998
1715227261460272280,0.075,,,,14.07507962
1715227261467967902,0.092,,,,14.082775242
1715227261475663524,0.084,,,,14.090470864
1715227261483359146,0.046,,,,14.098166486
1715227261491054768,0.036,,,,14.105862108
1715227261498750390,0.029,,,,14.11355773
1715227261506446012,0.002,,,,14.121253352
1715227261514141634,-0.021,,,,14.128948974
1715227261521837256,-0.038,,,,14.136644596
1715227261529532878,-0.063,,,,14.144340218
1715227261537228500,-0.094,,,,14.15203584
1715227261544924122,-0.128,,,,14.159731462
1715227261552619744,-0.172,,,,14.167427084
1715227261560315366,-0.218,,,,14.175122706
1715227261568010988,-0.252,,,,14.182818328
1715227261575706610,-0.278,,,,14.19051395
1715227261583402232,-0.293,,,,14.198209572
1715227261591097854,-0.288,,,,14.205905194
1715227261598793476,-0.271,,,,14.213600816
1715227261606489098,-0.247,,,,14.221296438
1715227261614184720,-0.208,,,,14.22899206
1715227261621880342,-0.152,,,,14.236687682
1715227261629575964,-0.075,,,,14.244383304
1715227261637271586,0.014,,,,14.252078926
1715227261644967208,0.101,,,,14.259774548
1715227261652662830,0.181,,,,14.26747017
1715227261660358452,0.249,,,,14.275165792
1715227261668054074,0.295,,,,14.282861414
1715227261675749696,0.324,,,,14.290557036
1715227261683445318,0.339,,,,14.298252658
1715227261691140940,0.341,,,,14.30594828
1715227261698836562,0.337,,,,14.313643902
1715227261706532184,0.332,,,,14.321339524
1715227261714227806,0.324,,,,14.329035146
1715227261721923428,0.315,,,,14.336730768
1715227261729619050,0.305,,,,14.34442639
1715227261737314672,0.293,,,,14.352122012
1715227261745010294,0.286,,,,14.359817634
1715227261752705916,0.281,,,,14.367513256
1715227261760401538,0.269,,,,14.375208878
1715227261768097160,0.254,,,,14.3829045
1715227261775792782,0.244,,,,14.390600122
1715227261783488404,0.24,,,,14.398295744
1715227261791184026,0.24,,,,14.405991366
1715227261798879648,0.242,,,,14.413686988
1715227261806575270,0.252,,,,14.42138261
1715227261814270892,0.261,,,,14.429078232
1715227261821966514,0.237,,,,14.436773854
1715227261829662136,0.194,,,,14.444469476
1715227261837357758,0.169,,,,14.452165098
1715227261845053380,0.167,,,,14.45986072
1715227261852749002,0.172,,,,14.467556342
1715227261860444624,0.198,,,,14.475251964
1715227261868140246,0.225,,,,14.482947586
1715227261875835868,0.23,,,,14.490643208
1715227261883531490,0.235,,,,14.49833883
1715227261891227112,0.242,,,,14.506034452
1715227261898922734,0.237,,,,14.513730074
1715227261906618356,0.232,,,,14.521425696
1715227261914313978,0.227,,,,14.529121318
1715227261922009600,0.225,,,,14.53681694
1715227261929705222,0.22,,,,14.544512562
1715227261937400844,0.213,,,,14.552208184
1715227261945096466,0.203,,,,14.559903806
1715227261952792088,0.099,,,,14.567599428
1715227261960487710,-0.303,,,,14.57529505
1715227261968183332,-0.865,,,,14.582990672
1715227261975878954,-0.846,,,,14.590686294
1715227261983574576,0.092,,,,14.598381916
1715227261991270222,0.909,99.0,584.0,,14.606077562
1715227261998965426,0.744,,575.0,,14.613772766
1715227262006660630,0.324,,,,14.62146797
1715227262014355834,0.244,,,,14.629163174
1715227262022051038,0.179,,,,14.636858378
1715227262029746242,0.075,,,,14.644553582
1715227262037441446,0.077,,,,14.652248786
1715227262045136650,0.077,,,,14.65994399
1715227262052831854,0.026,,,,14.667639194
1715227262060527058,0.007,,,,14.675334398
1715227262068222262,0.007,,,,14.683029602
1715227262075917466,-0.014,,,,14.690724806
1715227262083612670,-0.041,,,,14.69842001
1715227262091307874,-0.058,,,,14.706115214
1715227262099003078,-0.084,,,,14.713810418
1715227262106698282,-0.116,,,,14.721505622
1715227262114393486,-0.145,,,,14.729200826
1715227262122088690,-0.179,,,,14.73689603
1715227262129783894,-0.213,,,,14.744591234
1715227262137479098,-0.247,,,,14.752286438
1715227262145174302,-0.281,,,,14.759981642
1715227262152869506,-0.303,,,,14.767676846
1715227262160564710,-0.3,,,,14.77537205
1715227262168259914,-0.278,,,,14.783067254
1715227262175955118,-0.257,,,,14.790762458
1715227262183650322,-0.225,,,,14.798457662
1715227262191345526,-0.174,,,,14.806152866
1715227262199040730,-0.109,,,,14.81384807
1715227262206735934,-0.026,,,,14.821543274
1715227262214431138,0.063,,,,14.829238478
1715227262222126342,0.145,,,,14.836933682
1715227262229821546,0.215,,,,14.844628886
1715227262237516750,0.264,,,,14.85232409
1715227262245211954,0.295,,,,14.860019294
1715227262252907158,0.317,,,,14.867714498
1715227262260602362,0.324,,,,14.875409702
1715227262268297566,0.317,,,,14.883104906
1715227262275992770,0.298,,,,14.89080011
1715227262283687974,0.281,,,,14.898495314
1715227262291383178,0.271,,,,14.906190518
1715227262299078382,0.261,,,,14.913885722
1715227262306773586,0.254,,,,14.921580926
1715227262314468790,0.254,,,,14.92927613
1715227262322163994,0.244,,,,14.936971334
1715227262329859198,0.232,,,,14.944666538
1715227262337554402,0.23,,,,14.952361742
1715227262345249606,0.235,,,,14.960056946
1715227262352944810,0.232,,,,14.96775215
1715227262360640014,0.218,,,,14.975447354
1715227262368335218,0.215,,,,14.983142558
1715227262376030422,0.227,,,,14.990837762
1715227262383725626,0.237,,,,14.998532966
1715227262391420830,0.225,,,,15.00622817
1715227262399116034,0.186,,,,15.013923374
1715227262406811238,0.169,,,,15.021618578
1715227262414506442,0.172,,,,15.029313782
1715227262422201646,0.167,,,,15.037008986
1715227262429896850,0.186,,,,15.04470419
1715227262437592054,0.213,,,,15.052399394
1715227262445287258,0.223,,,,15.060094598
1715227262452982462,0.223,,,,15.067789802
1715227262460677666,0.227,,,,15.075485006
1715227262468372870,0.223,,,,15.08318021
1715227262476068074,0.215,,,,15.090875414
1715227262483763278,0.22,,,,15.098570618
1715227262491458482,0.218,,,,15.106265822
1715227262499153686,0.206,,,,15.113961026
1715227262506848890,0.194,,,,15.12165623
1715227262514544094,0.177,,,,15.129351434
1715227262522239298,0.055,,,,15.137046638
1715227262529934502,-0.346,,,,15.144741842
1715227262537629706,-0.846,,,,15.152437046
1715227262545324910,-0.737,,,,15.16013225
1715227262553020136,0.201,,,,15.167827476
1715227262560715758,0.902,,,,15.175523098
1715227262568411380,0.676,,,,15.18321872
1715227262576107002,0.312,,,,15.190914342
1715227262583802624,0.271,,,,15.198609964
1715227262591498246,0.181,,,,15.206305586
1715227262599193868,0.067,,,,15.214001208
1715227262606889490,0.08,,,,15.22169683
1715227262614585112,0.072,,,,15.229392452
1715227262622280734,0.019,,,,15.237088074
1715227262629976356,0.0,,,,15.244783696
1715227262637671978,-0.012,,,,15.252479318
1715227262645367600,-0.033,,,,15.26017494
1715227262653063222,-0.053,,,,15.267870562
1715227262660758844,-0.082,,,,15.275566184
1715227262668454466,-0.111,,,,15.283261806
1715227262676150088,-0.138,,,,15.290957428
1715227262683845710,-0.174,,,,15.29865305
1715227262691541332,-0.213,,,,15.306348672
1715227262699236954,-0.244,,,,15.314044294
1715227262706932576,-0.281,,,,15.321739916
1715227262714628198,-0.315,,,,15.329435538
1715227262722323820,-0.329,,,,15.33713116
1715227262730019442,-0.322,,,,15.344826782
1715227262737715064,-0.307,,,,15.352522404
1715227262745410686,-0.286,,,,15.360218026
1715227262753106308,-0.249,,,,15.367913648
1715227262760801930,-0.194,,,,15.37560927
1715227262768497552,-0.121,,,,15.383304892
1715227262776193174,-0.038,,,,15.391000514
1715227262783888796,0.041,,,,15.398696136
1715227262791584418,0.116,,,,15.406391758
1715227262799280040,0.184,,,,15.41408738
1715227262806975662,0.237,,,,15.421783002
1715227262814671284,0.271,,,,15.429478624
1715227262822366906,0.293,,,,15.437174246
1715227262830062528,0.307,,,,15.444869868
1715227262837758150,0.305,,,,15.45256549
1715227262845453772,0.291,,,,15.460261112
1715227262853149394,0.288,,,,15.467956734
1715227262860845016,0.281,,,,15.475652356
1715227262868540638,0.266,,,,15.483347978
1715227262876236260,0.257,,,,15.4910436
1715227262883931882,0.254,,,,15.498739222
1715227262891627504,0.244,,,,15.506434844
1715227262899323126,0.232,,,,15.514130466
1715227262907018748,0.232,,,,15.521826088
1715227262914714370,0.235,,,,15.52952171
1715227262922409992,0.23,,,,15.537217332
1715227262930105614,0.22,,,,15.544912954
1715227262937801236,0.223,,,,15.552608576
1715227262945496858,0.247,,,,15.560304198
1715227262953192480,0.257,,,,15.56799982
1715227262960888102,0.223,,,,15.575695442
1715227262968583724,0.184,,,,15.583391064
1715227262976279346,0.181,,,,15.591086686
1715227262983974968,0.179,,,,15.598782308
1715227262991670590,0.184,,,,15.60647793
1715227262999366212,0.213,,,,15.614173552
1715227263007061834,0.237,,,,15.621869174
1715227263014757456,0.24,,,,15.629564796
1715227263022453078,0.237,,,,15.637260418
1715227263030148700,0.237,,,,15.64495604
1715227263037844322,0.227,,,,15.652651662
1715227263045539944,0.218,,,,15.660347284
1715227263053235566,0.218,,,,15.668042906
1715227263060931188,0.213,,,,15.675738528
1715227263068626810,0.203,,,,15.68343415
1715227263076322432,0.186,,,,15.691129772
1715227263084018054,0.143,,,,15.698825394
1715227263091713676,-0.063,,,,15.706521016
1715227263099409298,-0.55,,,,15.714216638
1715227263107104920,-0.899,,,,15.72191226
1715227263114800566,-0.404,100.0,574.0,,15.729607906
1715227263122496188,0.606,,,,15.737303528
1715227263130191810,0.931,,,,15.74499915
1715227263137887432,0.531,,,,15.752694772
1715227263145583054,0.298,,,,15.760390394
1715227263153278676,0.266,,,,15.768086016
1715227263160974298,0.14,,,,15.775781638
1715227263168669920,0.08,,,,15.78347726
1715227263176365542,0.099,,,,15.791172882
1715227263184061164,0.067,,,,15.798868504
1715227263191756786,0.031,,,,15.806564126
1715227263199452408,0.021,,,,15.814259748
1715227263207148030,-0.002,,,,15.82195537
1715227263214843652,-0.033,,,,15.829650992
1715227263222539274,-0.048,,,,15.837346614
1715227263230234896,-0.067,,,,15.845042236
1715227263237930518,-0.101,,,,15.852737858
1715227263245626140,-0.133,,,,15.86043348
1715227263253321762,-0.169,,,,15.868129102
1715227263261017384,-0.213,,,,15.875824724
1715227263268713006,-0.247,,,,15.883520346
1715227263276408628,-0.283,,,,15.891215968
1715227263284104250,-0.324,,,,15.89891159
1715227263291799872,-0.344,,,,15.906607212
1715227263299495494,-0.327,,,,15.914302834
1715227263307191116,-0.303,,,,15.921998456
1715227263314886738,-0.278,,,,15.929694078
1715227263322582360,-0.237,,,,15.9373897
1715227263330277982,-0.169,,,,15.945085322
1715227263337973604,-0.084,,,,15.952780944
1715227263345669226,0.007,,,,15.960476566
1715227263353364848,0.092,,,,15.968172188
1715227263361060470,0.169,,,,15.97586781
1715227263368756092,0.235,,,,15.983563432
1715227263376451714,0.274,,,,15.991259054
1715227263384147336,0.298,,,,15.998954676
1715227263391842958,0.312,,,,16.006650298
1715227263399538580,0.315,,,,16.01434592
1715227263407234202,0.312,,,,16.022041542
1715227263414929824,0.307,,,,16.029737164
1715227263422625446,0.3,,,,16.037432786
1715227263430321068,0.293,,,,16.045128408
1715227263438016690,0.281,,,,16.05282403
1715227263445712312,0.269,,,,16.060519652
1715227263453407934,0.261,,,,16.068215274
1715227263461103556,0.257,,,,16.075910896
1715227263468799178,0.249,,,,16.083606518
1715227263476494800,0.242,,,,16.09130214
1715227263484190422,0.24,,,,16.098997762
1715227263491886044,0.237,,,,16.106693384
1715227263499581666,0.232,,,,16.114389006
1715227263507277288,0.24,,,,16.122084628
1715227263514972910,0.259,,,,16.12978025
1715227263522668532,0.266,,,,16.137475872
1715227263530364154,0.232,,,,16.145171494
1715227263538059776,0.186,,,,16.152867116
1715227263545755398,0.174,,,,16.160562738
1715227263553451020,0.174,,,,16.16825836
1715227263561146642,0.177,,,,16.175953982
1715227263568842264,0.21,,,,16.183649604
1715227263576537886,0.237,,,,16.191345226
1715227263584233508,0.242,,,,16.199040848
1715227263591929130,0.242,,,,16.20673647
1715227263599624752,0.242,,,,16.214432092
1715227263607320374,0.244,,,,16.222127714
1715227263615015996,0.24,,,,16.229823336
1715227263622711618,0.235,,,,16.237518958
1715227263630407240,0.227,,,,16.24521458
1715227263638102862,0.22,,,,16.252910202
1715227263645798484,0.206,,,,16.260605824
1715227263653494106,0.164,,,,16.268301446
1715227263661189728,-0.041,,,,16.275997068
1715227263668885350,-0.543,,,,16.28369269
1715227263676580996,-0.957,,,,16.291388336
1715227263684276200,-0.528,,,,16.29908354
1715227263691971404,0.538,,,,16.306778744
1715227263699666608,0.991,,,,16.314473948
1715227263707361812,0.599,,,,16.322169152
1715227263715057016,0.288,,,,16.329864356
1715227263722752220,0.259,,,,16.33755956
1715227263730447424,0.169,,,,16.345254764
1715227263738142628,0.101,,,,16.352949968
1715227263745837832,0.111,,,,16.360645172
1715227263753533036,0.097,,,,16.368340376
1715227263761228240,0.063,,,,16.37603558
1715227263768923444,0.043,,,,16.383730784
1715227263776618648,0.021,,,,16.391425988
1715227263784313852,-0.007,,,,16.399121192
1715227263792009056,-0.041,,,,16.406816396
1715227263799704260,-0.08,,,,16.4145116
1715227263807399464,-0.106,,,,16.422206804
1715227263815094668,-0.133,,,,16.429902008
1715227263822789872,-0.172,,,,16.437597212
1715227263830485076,-0.208,,,,16.445292416
1715227263838180280,-0.244,,,,16.45298762
1715227263845875484,-0.278,,,,16.460682824
1715227263853570688,-0.307,,,,16.468378028
1715227263861265892,-0.32,,,,16.476073232
1715227263868961096,-0.31,,,,16.483768436
1715227263876656300,-0.288,,,,16.49146364
1715227263884351504,-0.257,,,,16.499158844
1715227263892046708,-0.215,,,,16.506854048
1715227263899741912,-0.157,,,,16.514549252
1715227263907437116,-0.077,,,,16.522244456
1715227263915132320,0.014,,,,16.52993966
1715227263922827524,0.101,,,,16.537634864
1715227263930522728,0.181,,,,16.545330068
1715227263938217932,0.244,,,,16.553025272
1715227263945913136,0.283,,,,16.560720476
1715227263953608340,0.305,,,,16.56841568
1715227263961303544,0.317,,,,16.576110884
1715227263968998748,0.324,,,,16.583806088
1715227263976693952,0.32,,,,16.591501292
1715227263984389156,0.31,,,,16.599196496
1715227263992084360,0.305,,,,16.6068917
1715227263999779564,0.293,,,,16.614586904
1715227264007474768,0.283,,,,16.622282108
1715227264015169972,0.274,,,,16.629977312
1715227264022865176,0.261,,,,16.637672516
1715227264030560380,0.252,,,,16.64536772
1715227264038255584,0.247,,,,16.653062924
1715227264045950788,0.242,,,,16.660758128
1715227264053645992,0.24,,,,16.668453332
1715227264061341196,0.24,,,,16.676148536
1715227264069036400,0.237,,,,16.68384374
1715227264076731604,0.235,,,,16.691538944
1715227264084426808,0.244,,,,16.699234148
1715227264092122012,0.259,,,,16.706929352
1715227264099817216,0.266,,,,16.714624556
1715227264107512420,0.247,,,,16.72231976
1715227264115207624,0.203,,,,16.730014964
1715227264122902828,0.179,,,,16.737710168
1715227264130598032,0.172,,,,16.745405372
1715227264138293236,0.177,,,,16.753100576
1715227264145988440,0.208,,,,16.76079578
1715227264153683644,0.237,,,,16.768490984
1715227264161378848,0.242,,,,16.776186188
1715227264169074052,0.244,,,,16.783881392
1715227264176769256,0.244,,,,16.791576596
1715227264184464460,0.24,,,,16.7992718
1715227264192159664,0.237,,,,16.806967004
1715227264199854868,0.237,,,,16.814662208
1715227264207550072,0.235,,,,16.822357412
1715227264215245276,0.225,,,,16.830052616
1715227264222940480,0.208,,,,16.83774782
1715227264230635684,0.177,,,,16.845443024
1715227264238330908,0.024,102.0,571.0,,16.853138248
1715227264246026530,-0.419,,568.0,,16.86083387
1715227264253722152,-0.94,,,,16.868529492
1715227264261417774,-0.776,,,,16.876225114
1715227264269113396,0.254,,,,16.883920736
1715227264276809018,0.974,,,,16.891616358
1715227264284504640,0.6960000000000001,,,,16.89931198
1715227264292200262,0.288,,,,16.907007602
1715227264299895884,0.23,,,,16.914703224
1715227264307591506,0.16,,,,16.922398846
1715227264315287128,0.075,,,,16.930094468
1715227264322982750,0.092,,,,16.93779009
1715227264330678372,0.084,,,,16.945485712
1715227264338373994,0.041,,,,16.953181334
1715227264346069616,0.024,,,,16.960876956
1715227264353765238,0.009,,,,16.968572578
1715227264361460860,-0.024,,,,16.9762682
1715227264369156482,-0.053,,,,16.983963822
1715227264376852104,-0.067,,,,16.991659444
1715227264384547726,-0.087,,,,16.999355066
1715227264392243348,-0.121,,,,17.007050688
1715227264399938970,-0.157,,,,17.01474631
1715227264407634592,-0.191,,,,17.022441932
1715227264415330214,-0.232,,,,17.030137554
1715227264423025836,-0.274,,,,17.037833176
1715227264430721458,-0.303,,,,17.045528798
1715227264438417080,-0.317,,,,17.05322442
1715227264446112702,-0.312,,,,17.060920042
1715227264453808324,-0.298,,,,17.068615664
1715227264461503946,-0.274,,,,17.076311286
1715227264469199568,-0.235,,,,17.084006908
1715227264476895190,-0.179,,,,17.09170253
1715227264484590812,-0.104,,,,17.099398152
1715227264492286434,-0.012,,,,17.107093774
1715227264499982056,0.08,,,,17.114789396
1715227264507677678,0.16,,,,17.122485018
1715227264515373300,0.22,,,,17.13018064
1715227264523068922,0.266,,,,17.137876262
1715227264530764544,0.303,,,,17.145571884
1715227264538460166,0.322,,,,17.153267506
1715227264546155788,0.322,,,,17.160963128
1715227264553851410,0.317,,,,17.16865875
1715227264561547032,0.312,,,,17.176354372
1715227264569242654,0.31,,,,17.184049994
1715227264576938276,0.3,,,,17.191745616
1715227264584633898,0.293,,,,17.199441238
1715227264592329520,0.286,,,,17.20713686
1715227264600025142,0.271,,,,17.214832482
1715227264607720764,0.266,,,,17.222528104
1715227264615416386,0.264,,,,17.230223726
1715227264623112008,0.261,,,,17.237919348
1715227264630807630,0.257,,,,17.24561497
1715227264638503252,0.247,,,,17.253310592
1715227264646198874,0.244,,,,17.261006214
1715227264653894496,0.244,,,,17.268701836
1715227264661590118,0.242,,,,17.276397458
1715227264669285740,0.244,,,,17.28409308
1715227264676981362,0.261,,,,17.291788702
1715227264684676984,0.278,,,,17.299484324
1715227264692372606,0.254,,,,17.307179946
1715227264700068228,0.203,,,,17.314875568
1715227264707763850,0.179,,,,17.32257119
1715227264715459472,0.177,,,,17.330266812
1715227264723155094,0.181,,,,17.337962434
1715227264730850716,0.203,,,,17.345658056
1715227264738546338,0.227,,,,17.353353678
1715227264746241960,0.24,,,,17.3610493
1715227264753937582,0.242,,,,17.368744922
1715227264761633204,0.232,,,,17.376440544
1715227264769328826,0.227,,,,17.384136166
1715227264777024448,0.227,,,,17.391831788
1715227264784720070,0.225,,,,17.39952741
1715227264792415692,0.218,,,,17.407223032
1715227264800111338,0.208,103.0,566.0,,17.414918678
1715227264807806542,0.181,,570.0,,17.422613882
1715227264815501746,0.143,,,,17.430309086
1715227264823196950,0.014,,,,17.43800429
1715227264830892154,-0.383,,,,17.445699494
1715227264838587358,-0.911,,,,17.453394698
1715227264846282562,-0.846,,,,17.461089902
1715227264853977766,0.138,,,,17.468785106
1715227264861672970,0.953,,,,17.47648031
1715227264869368174,0.746,,,,17.484175514
1715227264877063378,0.312,,,,17.491870718
1715227264884758582,0.244,,,,17.499565922
1715227264892453786,0.184,,,,17.507261126
1715227264900148990,0.082,,,,17.51495633
1715227264907844194,0.089,,,,17.522651534
1715227264915539398,0.082,,,,17.530346738
1715227264923234602,0.038,,,,17.538041942
1715227264930929806,0.026,,,,17.545737146
1715227264938625010,0.014,,,,17.55343235
1715227264946320214,-0.019,,,,17.561127554
1715227264954015418,-0.036,,,,17.568822758
1715227264961710622,-0.058,,,,17.576517962
1715227264969405826,-0.094,,,,17.584213166
1715227264977101030,-0.126,,,,17.59190837
1715227264984796234,-0.152,,,,17.599603574
1715227264992491438,-0.194,,,,17.607298778
1715227265000186642,-0.242,,,,17.614993982
1715227265007881846,-0.286,,,,17.622689186
1715227265015577050,-0.315,,,,17.63038439
1715227265023272254,-0.332,,,,17.638079594
1715227265030967458,-0.339,,,,17.645774798
1715227265038662662,-0.327,,,,17.653470002
1715227265046357866,-0.295,,,,17.661165206
1715227265054053070,-0.264,,,,17.66886041
1715227265061748274,-0.218,,,,17.676555614
1715227265069443478,-0.138,,,,17.684250818
1715227265077138682,-0.041,,,,17.691946022
1715227265084833886,0.053,,,,17.699641226
1715227265092529090,0.143,,,,17.70733643
1715227265100224294,0.213,,,,17.715031634
1715227265107919498,0.266,,,,17.722726838
1715227265115614702,0.303,,,,17.730422042
1715227265123309906,0.32,,,,17.738117246
1715227265131005110,0.324,,,,17.74581245
1715227265138700314,0.329,,,,17.753507654
1715227265146395518,0.327,,,,17.761202858
1715227265154090722,0.312,,,,17.768898062
1715227265161785926,0.295,,,,17.776593266
1715227265169481130,0.291,,,,17.78428847
1715227265177176334,0.288,,,,17.791983674
1715227265184871538,0.283,,,,17.799678878
1715227265192566742,0.276,,,,17.807374082
1715227265200261946,0.261,,,,17.815069286
1715227265207957150,0.254,,,,17.82276449
1715227265215652354,0.247,,,,17.830459694
1715227265223347558,0.247,,,,17.838154898
1715227265231042762,0.247,,,,17.845850102
1715227265238737966,0.24,,,,17.853545306
1715227265246433170,0.232,,,,17.86124051
1715227265254128374,0.232,,,,17.868935714
1715227265261823578,0.232,,,,17.876630918
1715227265269518782,0.24,,,,17.884326122
1715227265277213986,0.257,,,,17.892021326
1715227265284909190,0.252,,,,17.89971653
1715227265292604394,0.208,,,,17.907411734
1715227265300299598,0.172,,,,17.915106938
1715227265307994802,0.157,,,,17.922802142
1715227265315690006,0.15,,,,17.930497346
1715227265323385210,0.164,,,,17.93819255
1715227265331080414,0.194,,,,17.945887754
1715227265338775618,0.206,,,,17.953582958
1715227265346470822,0.213,,,,17.961278162
1715227265354166026,0.215,,,,17.968973366
1715227265361861250,0.21,,,,17.97666859
1715227265369556872,0.206,,,,17.984364212
1715227265377252494,0.206,,,,17.992059834
1715227265384948116,0.201,,,,17.999755456
1715227265392643738,0.196,,,,18.007451078
1715227265400339360,0.184,,,,18.0151467
1715227265408034982,0.152,,,,18.022842322
1715227265415730604,0.055,,,,18.030537944
1715227265423426226,-0.261,,,,18.038233566
1715227265431121848,-0.778,,,,18.045929188
1715227265438817470,-0.914,,,,18.05362481
1715227265446513092,-0.13,,,,18.061320432
1715227265454208714,0.8190000000000001,,,,18.069016054
1715227265461904336,0.843,,,,18.076711676
1715227265469599958,0.407,,,,18.084407298
1715227265477295580,0.281,,,,18.09210292
1715227265484991202,0.223,,,,18.099798542
1715227265492686824,0.082,,,,18.107494164
1715227265500382446,0.06,,,,18.115189786
1715227265508078068,0.067,,,,18.122885408
1715227265515773690,0.024,,,,18.13058103
1715227265523469312,0.009,,,,18.138276652
1715227265531164934,0.009,,,,18.145972274
1715227265538860556,-0.019,,,,18.153667896
1715227265546556178,-0.043,,,,18.161363518
1715227265554251800,-0.055,,,,18.16905914
1715227265561947422,-0.082,,,,18.176754762
1715227265569643044,-0.118,,,,18.184450384
1715227265577338666,-0.147,,,,18.192146006
1715227265585034288,-0.181,,,,18.199841628
1715227265592729910,-0.225,,,,18.20753725
1715227265600425532,-0.266,,,,18.215232872
1715227265608121154,-0.303,,,,18.222928494
1715227265615816776,-0.327,,,,18.230624116
1715227265623512398,-0.329,,,,18.238319738
1715227265631208020,-0.317,,,,18.24601536
1715227265638903642,-0.295,,,,18.253710982
1715227265646599264,-0.259,,,,18.261406604
1715227265654294886,-0.213,,,,18.269102226
1715227265661990508,-0.145,,,,18.276797848
1715227265669686130,-0.05,,,,18.28449347
1715227265677381752,0.05,,,,18.292189092
1715227265685077374,0.138,,,,18.299884714
1715227265692772996,0.215,,,,18.307580336
1715227265700468618,0.278,,,,18.315275958
1715227265708164240,0.312,,,,18.32297158
1715227265715859862,0.332,,,,18.330667202
1715227265723555484,0.349,,,,18.338362824
1715227265731251106,0.356,,,,18.346058446
1715227265738946728,0.351,,,,18.353754068
1715227265746642350,0.337,,,,18.36144969
1715227265754337972,0.32,,,,18.369145312
1715227265762033594,0.312,,,,18.376840934
1715227265769729216,0.307,,,,18.384536556
1715227265777424838,0.295,,,,18.392232178
1715227265785120460,0.283,,,,18.3999278
1715227265792816082,0.276,,,,18.407623422
1715227265800511704,0.266,,,,18.415319044
1715227265808207326,0.257,,,,18.423014666
1715227265815902948,0.247,,,,18.430710288
1715227265823598570,0.235,,,,18.43840591
1715227265831294192,0.232,,,,18.446101532
1715227265838989814,0.235,,,,18.453797154
1715227265846685436,0.235,,,,18.461492776
1715227265854381058,0.235,,,,18.469188398
1715227265862076680,0.24,,,,18.47688402
1715227265869772302,0.249,,,,18.484579642
1715227265877467924,0.266,,,,18.492275264
1715227265885163546,0.266,,,,18.499970886
1715227265892859168,0.227,,,,18.507666508
1715227265900554790,0.186,,,,18.51536213
1715227265908250412,0.174,,,,18.523057752
1715227265915946034,0.174,,,,18.530753374
1715227265923641682,0.194,104.0,579.0,,18.538449022
1715227265931337304,0.22,,,,18.546144644
1715227265939032926,0.23,,,,18.553840266
1715227265946728548,0.235,,,,18.561535888
1715227265954424170,0.24,,,,18.56923151
1715227265962119792,0.237,,,,18.576927132
1715227265969815414,0.242,,,,18.584622754
1715227265977511036,0.24,,,,18.592318376
1715227265985206658,0.23,,,,18.600013998
1715227265992902280,0.218,,,,18.60770962
1715227266000597902,0.198,,,,18.615405242
1715227266008293524,0.16,,,,18.623100864
1715227266015989146,0.065,,,,18.630796486
1715227266023684768,-0.218,,,,18.638492108
1715227266031380390,-0.732,,,,18.64618773
1715227266039076012,-0.982,,,,18.653883352
1715227266046771634,-0.324,,,,18.661578974
1715227266054467256,0.715,,,,18.669274596
1715227266062162878,0.923,,,,18.676970218
1715227266069858500,0.47,,,,18.68466584
1715227266077554122,0.257,,,,18.692361462
1715227266085249744,0.218,,,,18.700057084
1715227266092945366,0.109,,,,18.707752706
1715227266100640988,0.08,,,,18.715448328
1715227266108336610,0.097,,,,18.72314395
1715227266116032232,0.063,,,,18.730839572
1715227266123727854,0.033,,,,18.738535194
1715227266131423476,0.031,,,,18.746230816
1715227266139119098,0.009,,,,18.753926438
1715227266146814720,-0.014,,,,18.76162206
1715227266154510342,-0.029,,,,18.769317682
1715227266162205964,-0.053,,,,18.777013304
1715227266169901586,-0.089,,,,18.784708926
1715227266177597208,-0.121,,,,18.792404548
1715227266185292830,-0.15,,,,18.80010017
1715227266192988452,-0.194,,,,18.807795792
1715227266200684074,-0.237,,,,18.815491414
1715227266208379696,-0.274,,,,18.823187036
1715227266216075318,-0.3,,,,18.830882658
1715227266223770940,-0.312,,,,18.83857828
1715227266231466562,-0.305,,,,18.846273902
1715227266239162184,-0.291,,,,18.853969524
1715227266246857806,-0.261,,,,18.861665146
1715227266254553428,-0.215,,,,18.869360768
1715227266262249050,-0.15,,,,18.87705639
1715227266269944672,-0.06,,,,18.884752012
1715227266277640294,0.041,,,,18.892447634
1715227266285335916,0.13,,,,18.900143256
1715227266293031538,0.208,,,,18.907838878
1715227266300727160,0.269,,,,18.9155345
1715227266308422782,0.31,,,,18.923230122
1715227266316118404,0.332,,,,18.930925744
1715227266323814026,0.339,,,,18.938621366
1715227266331509648,0.337,,,,18.946316988
1715227266339205270,0.337,,,,18.95401261
1715227266346900892,0.329,,,,18.961708232
1715227266354596514,0.317,,,,18.969403854
1715227266362292136,0.31,,,,18.977099476
1715227266369987758,0.303,,,,18.984795098
1715227266377683380,0.291,,,,18.99249072
1715227266385379002,0.276,,,,19.000186342
1715227266393074624,0.271,,,,19.007881964
1715227266400770246,0.266,,,,19.015577586
1715227266408465868,0.261,,,,19.023273208
1715227266416161490,0.257,,,,19.03096883
1715227266423857112,0.257,,,,19.038664452
1715227266431552734,0.257,,,,19.046360074
1715227266439248356,0.254,,,,19.054055696
1715227266446943978,0.252,,,,19.061751318
1715227266454639600,0.254,,,,19.06944694
1715227266462335222,0.254,,,,19.077142562
1715227266470030844,0.252,,,,19.084838184
1715227266477726466,0.252,,,,19.092533806
1715227266485422112,0.247,,,,19.100229452
1715227266493117316,0.242,,,,19.107924656
1715227266500812520,0.254,,,,19.11561986
1715227266508507724,0.276,,,,19.123315064
1715227266516202928,0.261,,,,19.131010268
1715227266523898132,0.208,,,,19.138705472
1715227266531593336,0.167,,,,19.146400676
1715227266539288540,0.16,,,,19.15409588
1715227266546983744,0.174,,,,19.161791084
1715227266554678948,0.198,,,,19.169486288
1715227266562374152,0.208,,,,19.177181492
1715227266570069356,0.213,,,,19.184876696
1715227266577764560,0.215,,,,19.1925719
1715227266585459764,0.21,,,,19.200267104
1715227266593154968,0.206,,,,19.207962308
1715227266600850172,0.208,,,,19.215657512
1715227266608545376,0.208,,,,19.223352716
1715227266616240580,0.198,,,,19.23104792
1715227266623935784,0.184,,,,19.238743124
1715227266631630988,0.16,,,,19.246438328
1715227266639326192,0.106,,,,19.254133532
1715227266647021396,-0.043,,,,19.261828736
1715227266654716600,-0.421,,,,19.26952394
1715227266662411804,-0.955,,,,19.277219144
1715227266670107008,-0.994,,,,19.284914348
1715227266677802212,-0.07,,,,19.292609552
1715227266685497416,0.88,,,,19.300304756
1715227266693192620,0.809,,,,19.30799996
1715227266700887824,0.358,,,,19.315695164
1715227266708583028,0.259,,,,19.323390368
1715227266716278232,0.208,,,,19.331085572
1715227266723973436,0.099,,,,19.338780776
1715227266731668640,0.094,,,,19.34647598
1715227266739363844,0.097,,,,19.354171184
1715227266747059048,0.058,,,,19.361866388
1715227266754754252,0.046,,,,19.369561592
1715227266762449456,0.038,,,,19.377256796
1715227266770144660,0.009,,,,19.384952
1715227266777839864,-0.009,,,,19.392647204
1715227266785535068,-0.021,,,,19.400342408
1715227266793230272,-0.046,,,,19.408037612
1715227266800925476,-0.077,,,,19.415732816
1715227266808620680,-0.109,,,,19.42342802
1715227266816315884,-0.147,,,,19.431123224
1715227266824011088,-0.191,,,,19.438818428
1715227266831706292,-0.242,,,,19.446513632
1715227266839401496,-0.283,,,,19.454208836
1715227266847096700,-0.305,,,,19.46190404
1715227266854791904,-0.315,,,,19.469599244
1715227266862487108,-0.31,,,,19.477294448
1715227266870182312,-0.288,,,,19.484989652
1715227266877877516,-0.254,,,,19.492684856
1715227266885572720,-0.21,,,,19.50038006
1715227266893267924,-0.143,,,,19.508075264
1715227266900963128,-0.053,,,,19.515770468
1715227266908658332,0.038,,,,19.523465672
1715227266916353536,0.126,,,,19.531160876
1715227266924048740,0.206,,,,19.53885608
1715227266931743944,0.269,,,,19.546551284
1715227266939439148,0.312,,,,19.554246488
1715227266947134352,0.337,,,,19.561941692
1715227266954829556,0.344,,,,19.569636896
1715227266962524760,0.346,,,,19.5773321
1715227266970219964,0.341,,,,19.585027304
1715227266977915168,0.329,,,,19.592722508
1715227266985610372,0.317,,,,19.600417712
1715227266993305576,0.31,,,,19.608112916
1715227267001000780,0.3,,,,19.61580812
1715227267008695984,0.286,,,,19.623503324
1715227267016391188,0.278,,,,19.631198528
1715227267024086392,0.278,,,,19.638893732
1715227267031781596,0.274,,,,19.646588936
1715227267039476800,0.261,,,,19.65428414
1715227267047172024,0.254,104.0,586.0,,19.661979364
1715227267054867646,0.252,,595.0,,19.669674986
1715227267062563268,0.249,,,,19.677370608
1715227267070258890,0.247,,,,19.68506623
1715227267077954512,0.249,,,,19.692761852
1715227267085650134,0.252,,,,19.700457474
1715227267093345756,0.24,,,,19.708153096
1715227267101041378,0.225,,,,19.715848718
1715227267108737000,0.225,,,,19.72354434
1715227267116432622,0.227,,,,19.731239962
1715227267124128244,0.227,,,,19.738935584
1715227267131823866,0.23,,,,19.746631206
1715227267139519488,0.237,,,,19.754326828
1715227267147215110,0.242,,,,19.76202245
1715227267154910732,0.21,,,,19.769718072
1715227267162606354,0.16,,,,19.777413694
1715227267170301976,0.13,,,,19.785109316
1715227267177997598,0.13,,,,19.792804938
1715227267185693220,0.152,,,,19.80050056
1715227267193388842,0.172,,,,19.808196182
1715227267201084464,0.172,,,,19.815891804
1715227267208780086,0.177,,,,19.823587426
1715227267216475708,0.184,,,,19.831283048
1715227267224171330,0.179,,,,19.83897867
1715227267231866952,0.169,,,,19.846674292
1715227267239562574,0.164,,,,19.854369914
1715227267247258196,0.16,,,,19.862065536
1715227267254953818,0.155,,,,19.869761158
1715227267262649440,0.147,,,,19.87745678
1715227267270345062,0.116,,,,19.885152402
1715227267278040684,0.036,,,,19.892848024
1715227267285736306,-0.167,,,,19.900543646
1715227267293431928,-0.62,,,,19.908239268
1715227267301127550,-1.042,,,,19.91593489
1715227267308823172,-0.6910000000000001,,,,19.923630512
1715227267316518794,0.395,,,,19.931326134
1715227267324214416,0.957,,,,19.939021756
1715227267331910038,0.594,,,,19.946717378
1715227267339605660,0.269,,,,19.954413
1715227267347301282,0.242,,,,19.962108622
1715227267354996904,0.138,,,,19.969804244
1715227267362692526,0.055,,,,19.977499866
1715227267370388148,0.082,,,,19.985195488
1715227267378083770,0.067,,,,19.99289111
1715227267385779392,0.029,,,,20.000586732
1715227267393475014,0.021,,,,20.008282354
1715227267401170636,0.016,,,,20.015977976
1715227267408866258,-0.004,,,,20.023673598
1715227267416561880,-0.033,,,,20.03136922
1715227267424257502,-0.055,,,,20.039064842
1715227267431953124,-0.077,,,,20.046760464
1715227267439648746,-0.104,,,,20.054456086
1715227267447344368,-0.14,,,,20.062151708
1715227267455039990,-0.184,,,,20.06984733
1715227267462735612,-0.235,,,,20.077542952
1715227267470431234,-0.286,,,,20.085238574
1715227267478126856,-0.324,,,,20.092934196
1715227267485822478,-0.341,,,,20.100629818
1715227267493518100,-0.341,,,,20.10832544
1715227267501213722,-0.329,,,,20.116021062
1715227267508909344,-0.307,,,,20.123716684
1715227267516604966,-0.271,,,,20.131412306
1715227267524300588,-0.21,,,,20.139107928
1715227267531996210,-0.123,,,,20.14680355
1715227267539691832,-0.021,,,,20.154499172
1715227267547387454,0.08,,,,20.162194794
1715227267555083076,0.167,,,,20.169890416
1715227267562778698,0.244,,,,20.177586038
1715227267570474320,0.307,,,,20.18528166
1715227267578169942,0.339,,,,20.192977282
1715227267585865564,0.361,,,,20.200672904
1715227267593561186,0.378,,,,20.208368526
1715227267601256808,0.378,,,,20.216064148
1715227267608952454,0.363,,,,20.223759794
1715227267616648076,0.354,,,,20.231455416
1715227267624343698,0.356,,,,20.239151038
1715227267632039320,0.349,,,,20.24684666
1715227267639734942,0.329,,,,20.254542282
1715227267647430564,0.317,,,,20.262237904
1715227267655126186,0.31,,,,20.269933526
1715227267662821808,0.3,,,,20.277629148
1715227267670517430,0.293,,,,20.28532477
1715227267678213052,0.288,,,,20.293020392
1715227267685908674,0.283,,,,20.300716014
1715227267693604296,0.271,,,,20.308411636
1715227267701299918,0.257,,,,20.316107258
1715227267708995540,0.254,,,,20.32380288
1715227267716691162,0.252,,,,20.331498502
1715227267724386784,0.244,,,,20.339194124
1715227267732082406,0.24,,,,20.346889746
1715227267739778028,0.237,,,,20.354585368
1715227267747473650,0.24,,,,20.36228099
1715227267755169272,0.242,,,,20.369976612
1715227267762864894,0.257,,,,20.377672234
1715227267770560516,0.266,,,,20.385367856
1715227267778256138,0.24,,,,20.393063478
1715227267785951760,0.186,,,,20.4007591
1715227267793647382,0.155,,,,20.408454722
1715227267801343004,0.147,,,,20.416150344
1715227267809038626,0.162,,,,20.423845966
1715227267816734248,0.189,,,,20.431541588
1715227267824429870,0.203,,,,20.43923721
1715227267832125492,0.208,,,,20.446932832
1715227267839821114,0.203,,,,20.454628454
1715227267847516736,0.191,,,,20.462324076
1715227267855212358,0.189,,,,20.470019698
1715227267862907980,0.198,,,,20.47771532
1715227267870603602,0.194,,,,20.485410942
1715227267878299224,0.184,,,,20.493106564
1715227267885994846,0.179,,,,20.500802186
1715227267893690468,0.157,,,,20.508497808
1715227267901386090,0.109,,,,20.51619343
1715227267909081712,-0.029,,,,20.523889052
1715227267916777334,-0.419,,,,20.531584674
1715227267924472956,-0.919,,,,20.539280296
1715227267932168578,-0.834,,,,20.546975918
1715227267939864200,0.135,,,,20.55467154
1715227267947559822,0.94,,,,20.562367162
1715227267955255444,0.763,,,,20.570062784
1715227267962951066,0.361,,,,20.577758406
1715227267970646688,0.295,,,,20.585454028
1715227267978342310,0.218,,,,20.59314965
1715227267986037932,0.109,,,,20.600845272
1715227267993733554,0.123,,,,20.608540894
1715227268001429176,0.123,,,,20.616236516
1715227268009124798,0.08,,,,20.623932138
1715227268016820420,0.067,,,,20.63162776
1715227268024516042,0.065,,,,20.639323382
1715227268032211664,0.038,,,,20.647019004
1715227268039907286,0.019,,,,20.654714626
1715227268047602908,0.007,,,,20.662410248
1715227268055298530,-0.024,,,,20.67010587
1715227268062994152,-0.065,,,,20.677801492
1715227268070689774,-0.097,,,,20.685497114
1715227268078385396,-0.128,,,,20.693192736
1715227268086081018,-0.174,,,,20.700888358
1715227268093776640,-0.223,,,,20.70858398
1715227268101472262,-0.259,,,,20.716279602
1715227268109167884,-0.283,,,,20.723975224
1715227268116863506,-0.293,,,,20.731670846
1715227268124559128,-0.281,,,,20.739366468
1715227268132254750,-0.254,,,,20.74706209
1715227268139950372,-0.223,,,,20.754757712
1715227268147645994,-0.172,,,,20.762453334
1715227268155341616,-0.094,,,,20.770148956
1715227268163037238,0.007,,,,20.777844578
1715227268170732884,0.111,103.0,602.0,,20.785540224
1715227268178428506,0.201,,629.0,,20.793235846
1715227268186124128,0.281,,,,20.800931468
1715227268193819750,0.339,,,,20.80862709
1715227268201515372,0.371,,,,20.816322712
1715227268209210994,0.388,,,,20.824018334
1715227268216906616,0.397,,,,20.831713956
1715227268224602238,0.404,,,,20.839409578
1715227268232297860,0.4,,,,20.8471052
1715227268239993482,0.38,,,,20.854800822
1715227268247689104,0.363,,,,20.862496444
1715227268255384726,0.361,,,,20.870192066
1715227268263080348,0.354,,,,20.877887688
1715227268270775970,0.334,,,,20.88558331
1715227268278471592,0.322,,,,20.893278932
1715227268286167214,0.317,,,,20.900974554
1715227268293862836,0.307,,,,20.908670176
1715227268301558458,0.293,,,,20.916365798
1715227268309254080,0.286,,,,20.92406142
1715227268316949702,0.283,,,,20.931757042
1715227268324645324,0.278,,,,20.939452664
1715227268332340946,0.271,,,,20.947148286
1715227268340036568,0.264,,,,20.954843908
1715227268347732190,0.257,,,,20.96253953
1715227268355427812,0.244,,,,20.970235152
1715227268363123434,0.242,,,,20.977930774
1715227268370819056,0.242,,,,20.985626396
1715227268378514678,0.232,,,,20.993322018
1715227268386210300,0.225,,,,21.00101764
1715227268393905922,0.232,,,,21.008713262
1715227268401601544,0.254,,,,21.016408884
1715227268409297166,0.264,,,,21.024104506
1715227268416992788,0.23,,,,21.031800128
1715227268424688410,0.179,,,,21.03949575
1715227268432384032,0.155,,,,21.047191372
1715227268440079654,0.152,,,,21.054886994
1715227268447775276,0.169,,,,21.062582616
1715227268455470898,0.191,,,,21.070278238
1715227268463166520,0.206,,,,21.07797386
1715227268470862142,0.218,,,,21.085669482
1715227268478557764,0.218,,,,21.093365104
1715227268486253386,0.21,,,,21.101060726
1715227268493949008,0.215,,,,21.108756348
1715227268501644630,0.22,,,,21.11645197
1715227268509340252,0.213,,,,21.124147592
1715227268517035874,0.208,,,,21.131843214
1715227268524731496,0.203,,,,21.139538836
1715227268532427118,0.177,,,,21.147234458
1715227268540122740,0.121,,,,21.15493008
1715227268547818362,-0.016,,,,21.162625702
1715227268555513984,-0.395,,,,21.170321324
1715227268563209606,-0.911,,,,21.178016946
1715227268570905228,-0.88,,,,21.185712568
1715227268578600850,0.075,,,,21.19340819
1715227268586296472,0.953,,,,21.201103812
1715227268593992094,0.8190000000000001,,,,21.208799434
1715227268601687716,0.38,,,,21.216495056
1715227268609383338,0.295,,,,21.224190678
1715227268617078960,0.24,,,,21.2318863
1715227268624774582,0.138,,,,21.239581922
1715227268632470204,0.145,,,,21.247277544
1715227268640165826,0.15,,,,21.254973166
1715227268647861448,0.111,,,,21.262668788
1715227268655557070,0.092,,,,21.27036441
1715227268663252692,0.084,,,,21.278060032
1715227268670948314,0.06,,,,21.285755654
1715227268678643936,0.041,,,,21.293451276
1715227268686339558,0.024,,,,21.301146898
1715227268694035180,-0.007,,,,21.30884252
1715227268701730802,-0.043,,,,21.316538142
1715227268709426424,-0.075,,,,21.324233764
1715227268717122046,-0.111,,,,21.331929386
1715227268724817668,-0.155,,,,21.339625008
1715227268732513314,-0.201,102.0,636.0,,21.347320654
1715227268740208518,-0.24,,,,21.355015858
1715227268747903722,-0.269,,,,21.362711062
1715227268755598926,-0.283,,,,21.370406266
1715227268763294130,-0.274,,,,21.37810147
1715227268770989334,-0.252,,,,21.385796674
1715227268778684538,-0.232,,,,21.393491878
1715227268786379742,-0.191,,,,21.401187082
1715227268794074946,-0.113,,,,21.408882286
1715227268801770150,-0.024,,,,21.41657749
1715227268809465354,0.07,,,,21.424272694
1715227268817160558,0.164,,,,21.431967898
1715227268824855762,0.249,,,,21.439663102
1715227268832550966,0.307,,,,21.447358306
1715227268840246170,0.341,,,,21.45505351
1715227268847941374,0.363,,,,21.462748714
1715227268855636578,0.373,,,,21.470443918
1715227268863331782,0.366,,,,21.478139122
1715227268871026986,0.356,,,,21.485834326
1715227268878722190,0.351,,,,21.49352953
1715227268886417394,0.344,,,,21.501224734
1715227268894112598,0.329,,,,21.508919938
1715227268901807802,0.315,,,,21.516615142
1715227268909503006,0.3,,,,21.524310346
1715227268917198210,0.293,,,,21.53200555
1715227268924893414,0.286,,,,21.539700754
1715227268932588618,0.274,,,,21.547395958
1715227268940283822,0.261,,,,21.555091162
1715227268947979026,0.249,,,,21.562786366
1715227268955674230,0.235,,,,21.57048157
1715227268963369434,0.23,,,,21.578176774
1715227268971064638,0.227,,,,21.585871978
1715227268978759842,0.22,,,,21.593567182
1715227268986455046,0.218,,,,21.601262386
1715227268994150250,0.22,,,,21.60895759
1715227269001845454,0.22,,,,21.616652794
1715227269009540658,0.218,,,,21.624347998
1715227269017235862,0.215,,,,21.632043202
1715227269024931066,0.215,,,,21.639738406
1715227269032626270,0.225,,,,21.64743361
1715227269040321474,0.244,,,,21.655128814
1715227269048016678,0.237,,,,21.662824018
1715227269055711882,0.186,,,,21.670519222
1715227269063407086,0.147,,,,21.678214426
1715227269071102290,0.138,,,,21.68590963
1715227269078797494,0.135,,,,21.693604834
1715227269086492698,0.162,,,,21.701300038
1715227269094187902,0.191,,,,21.708995242
1715227269101883106,0.203,,,,21.716690446
1715227269109578310,0.21,,,,21.72438565
1715227269117273514,0.21,,,,21.732080854
1715227269124968718,0.206,,,,21.739776058
1715227269132663922,0.203,,,,21.747471262
1715227269140359126,0.201,,,,21.755166466
1715227269148054330,0.196,,,,21.76286167
1715227269155749534,0.194,,,,21.770556874
1715227269163444738,0.179,,,,21.778252078
1715227269171139942,0.14,,,,21.785947282
1715227269178835146,0.048,,,,21.793642486
1715227269186530350,-0.21,,,,21.80133769
1715227269194225554,-0.734,,,,21.809032894
1715227269201920758,-1.088,,,,21.816728098
1715227269209615962,-0.528,,,,21.824423302
1715227269217311166,0.584,,,,21.832118506
1715227269225006370,0.943,,,,21.83981371
1715227269232701574,0.514,,,,21.847508914
1715227269240396778,0.276,,,,21.855204118
1715227269248091982,0.259,,,,21.862899322
1715227269255787186,0.145,,,,21.870594526
1715227269263482390,0.097,,,,21.87828973
1715227269271177594,0.126,,,,21.885984934
1715227269278872798,0.094,,,,21.893680138
1715227269286568002,0.055,,,,21.901375342
1715227269294263228,0.053,,,,21.909070568
1715227269301958850,0.038,,,,21.91676619
1715227269309654472,0.007,,,,21.924461812
1715227269317350094,-0.014,,,,21.932157434
1715227269325045716,-0.033,,,,21.939853056
1715227269332741338,-0.058,,,,21.947548678
1715227269340436960,-0.092,,,,21.9552443
1715227269348132582,-0.135,,,,21.962939922
1715227269355828204,-0.181,,,,21.970635544
1715227269363523826,-0.23,,,,21.978331166
1715227269371219448,-0.283,,,,21.986026788
1715227269378915070,-0.322,,,,21.99372241
1715227269386610692,-0.337,,,,22.001418032
1715227269394306314,-0.341,,,,22.009113654
1715227269402001936,-0.332,,,,22.016809276
1715227269409697558,-0.315,,,,22.024504898
1715227269417393180,-0.278,,,,22.03220052
1715227269425088802,-0.215,,,,22.039896142
1715227269432784424,-0.133,,,,22.047591764
1715227269440480046,-0.043,,,,22.055287386
1715227269448175668,0.05,,,,22.062983008
1715227269455871290,0.143,,,,22.07067863
1715227269463566912,0.22,,,,22.078374252
1715227269471262534,0.271,,,,22.086069874
1715227269478958156,0.303,,,,22.093765496
1715227269486653778,0.322,,,,22.101461118
1715227269494349400,0.324,,,,22.10915674
1715227269502045022,0.317,,,,22.116852362
1715227269509740644,0.31,,,,22.124547984
1715227269517436266,0.303,,,,22.132243606
1715227269525131888,0.288,,,,22.139939228
1715227269532827510,0.278,,,,22.14763485
1715227269540523132,0.274,,,,22.155330472
1715227269548218754,0.261,,,,22.163026094
1715227269555914376,0.242,,,,22.170721716
