time,ecg,hr,rr,marker,norm_time
1715227738374056006,-0.24,,,,0.0
1715227738381751628,-0.768,,,,0.007695622
1715227738389447250,-1.069,,,,0.015391244
1715227738397142872,-0.438,,,,0.023086866
1715227738404838494,0.645,,,,0.030782488
1715227738412534116,0.923,,,,0.03847811
1715227738420229738,0.492,,,,0.046173732
1715227738427925360,0.283,,,,0.053869354
1715227738435620982,0.254,,,,0.061564976
1715227738443316604,0.128,,,,0.069260598
1715227738451012226,0.084,,,,0.07695622
1715227738458707848,0.113,,,,0.084651842
1715227738466403470,0.077,,,,0.092347464
1715227738474099092,0.043,,,,0.100043086
1715227738481794714,0.043,,,,0.107738708
1715227738489490336,0.031,,,,0.11543433
1715227738497185958,0.002,,,,0.123129952
1715227738504881580,-0.029,,,,0.130825574
1715227738512577202,-0.053,,,,0.138521196
1715227738520272824,-0.072,,,,0.146216818
1715227738527968446,-0.101,,,,0.15391244
1715227738535664068,-0.14,,,,0.161608062
1715227738543359690,-0.177,,,,0.169303684
1715227738551055312,-0.213,,,,0.176999306
1715227738558750934,-0.254,,,,0.184694928
1715227738566446556,-0.291,,,,0.19239055
1715227738574142178,-0.303,,,,0.200086172
1715227738581837800,-0.298,,,,0.207781794
1715227738589533422,-0.286,,,,0.215477416
1715227738597229044,-0.264,,,,0.223173038
1715227738604924666,-0.24,,,,0.23086866
1715227738612620288,-0.196,,,,0.238564282
1715227738620315910,-0.118,,,,0.246259904
1715227738628011532,-0.026,,,,0.253955526
1715227738635707154,0.065,,,,0.261651148
1715227738643402776,0.147,,,,0.26934677
1715227738651098398,0.213,,,,0.277042392
1715227738658794020,0.264,,,,0.284738014
1715227738666489642,0.3,,,,0.292433636
1715227738674185264,0.32,,,,0.300129258
1715227738681880886,0.324,,,,0.30782488
1715227738689576508,0.324,,,,0.315520502
1715227738697272130,0.317,,,,0.323216124
1715227738704967752,0.305,,,,0.330911746
1715227738712663374,0.293,,,,0.338607368
1715227738720358996,0.286,,,,0.34630299
1715227738728054618,0.281,,,,0.353998612
1715227738735750240,0.271,,,,0.361694234
1715227738743445862,0.254,,,,0.369389856
1715227738751141484,0.244,,,,0.377085478
1715227738758837106,0.242,,,,0.3847811
1715227738766532728,0.237,,,,0.392476722
1715227738774228350,0.227,,,,0.400172344
1715227738781923972,0.22,,,,0.407867966
1715227738789619594,0.213,,,,0.415563588
1715227738797315216,0.21,,,,0.42325921
1715227738805010838,0.21,,,,0.430954832
1715227738812706460,0.213,,,,0.438650454
1715227738820402082,0.218,,,,0.446346076
1715227738828097704,0.215,,,,0.454041698
1715227738835793326,0.213,,,,0.46173732
1715227738843488948,0.218,,,,0.469432942
1715227738851184570,0.23,,,,0.477128564
1715227738858880192,0.23,,,,0.484824186
1715227738866575814,0.196,,,,0.492519808
1715227738874271436,0.162,,,,0.50021543
1715227738881967058,0.145,,,,0.507911052
1715227738889662680,0.143,,,,0.515606674
1715227738897358302,0.16,,,,0.523302296
1715227738905053924,0.184,,,,0.530997918
1715227738912749546,0.198,,,,0.53869354
1715227738920445168,0.206,,,,0.546389162
1715227738928140790,0.208,,,,0.554084784
1715227738935836436,0.203,98.0,652.0,,0.56178043
1715227738943532058,0.203,,,,0.569476052
1715227738951227680,0.203,,,,0.577171674
1715227738958923302,0.201,,,,0.584867296
1715227738966618924,0.196,,,,0.592562918
1715227738974314546,0.186,,,,0.60025854
1715227738982010168,0.152,,,,0.607954162
1715227738989705790,0.097,,,,0.615649784
1715227738997401412,0.007,,,,0.623345406
1715227739005097034,-0.288,,,,0.631041028
1715227739012792656,-0.8,,,,0.63873665
1715227739020488278,-0.967,,,,0.646432272
1715227739028183900,-0.23,,,,0.654127894
1715227739035879522,0.749,,,,0.661823516
1715227739043575144,0.853,,,,0.669519138
1715227739051270766,0.441,,,,0.67721476
1715227739058966388,0.312,,,,0.684910382
1715227739066662010,0.261,,,,0.692606004
1715227739074357632,0.116,,,,0.700301626
1715227739082053254,0.097,,,,0.707997248
1715227739089748876,0.118,,,,0.71569287
1715227739097444498,0.067,,,,0.723388492
1715227739105140120,0.038,,,,0.731084114
1715227739112835742,0.046,,,,0.738779736
1715227739120531364,0.024,,,,0.746475358
1715227739128226986,-0.004,,,,0.75417098
1715227739135922608,-0.019,,,,0.761866602
1715227739143618230,-0.041,,,,0.769562224
1715227739151313852,-0.067,,,,0.777257846
1715227739159009474,-0.099,,,,0.784953468
1715227739166705096,-0.14,,,,0.79264909
1715227739174400718,-0.179,,,,0.800344712
1715227739182096340,-0.215,,,,0.808040334
1715227739189791962,-0.252,,,,0.815735956
1715227739197487584,-0.276,,,,0.823431578
1715227739205183206,-0.286,,,,0.8311272
1715227739212878828,-0.281,,,,0.838822822
1715227739220574450,-0.259,,,,0.846518444
1715227739228270072,-0.227,,,,0.854214066
1715227739235965694,-0.186,,,,0.861909688
1715227739243661316,-0.128,,,,0.86960531
1715227739251356938,-0.06,,,,0.877300932
1715227739259052560,0.021,,,,0.884996554
1715227739266748182,0.111,,,,0.892692176
1715227739274443804,0.196,,,,0.900387798
1715227739282139426,0.254,,,,0.90808342
1715227739289835048,0.286,,,,0.915779042
1715227739297530670,0.31,,,,0.923474664
1715227739305226292,0.324,,,,0.931170286
1715227739312921914,0.324,,,,0.938865908
1715227739320617536,0.315,,,,0.94656153
1715227739328313158,0.307,,,,0.954257152
1715227739336008780,0.295,,,,0.961952774
1715227739343704402,0.276,,,,0.969648396
1715227739351400024,0.257,,,,0.977344018
1715227739359095646,0.249,,,,0.98503964
1715227739366791268,0.242,,,,0.992735262
1715227739374486890,0.23,,,,1.000430884
1715227739382182512,0.223,,,,1.008126506
1715227739389878134,0.215,,,,1.015822128
1715227739397573756,0.208,,,,1.02351775
1715227739405269378,0.206,,,,1.031213372
1715227739412965000,0.208,,,,1.038908994
1715227739420660622,0.21,,,,1.046604616
1715227739428356244,0.208,,,,1.054300238
1715227739436051866,0.21,,,,1.06199586
1715227739443747488,0.213,,,,1.069691482
1715227739451443110,0.215,,,,1.077387104
1715227739459138732,0.22,,,,1.085082726
1715227739466834354,0.22,,,,1.092778348
1715227739474529976,0.232,,,,1.10047397
1715227739482225598,0.249,,,,1.108169592
1715227739489921220,0.23,,,,1.115865214
1715227739497616866,0.181,,,,1.12356086
1715227739505312488,0.155,,,,1.131256482
1715227739513008110,0.152,,,,1.138952104
1715227739520703732,0.155,,,,1.146647726
1715227739528399354,0.174,,,,1.154343348
1715227739536094976,0.198,,,,1.16203897
1715227739543790598,0.206,,,,1.169734592
1715227739551486220,0.208,,,,1.177430214
1715227739559181842,0.213,,,,1.185125836
1715227739566877464,0.21,,,,1.192821458
1715227739574573086,0.208,,,,1.20051708
1715227739582268708,0.203,,,,1.208212702
1715227739589964330,0.196,,,,1.215908324
1715227739597659952,0.191,,,,1.223603946
1715227739605355574,0.181,,,,1.231299568
1715227739613051196,0.145,,,,1.23899519
1715227739620746818,0.082,,,,1.246690812
1715227739628442440,-0.094,,,,1.254386434
1715227739636138062,-0.535,,,,1.262082056
1715227739643833684,-1.04,,,,1.269777678
1715227739651529306,-0.851,,,,1.2774733
1715227739659224928,0.194,,,,1.285168922
1715227739666920550,0.911,,,,1.292864544
1715227739674616172,0.671,,,,1.300560166
1715227739682311794,0.332,,,,1.308255788
1715227739690007416,0.298,,,,1.31595141
1715227739697703038,0.203,,,,1.323647032
1715227739705398660,0.104,,,,1.331342654
1715227739713094282,0.128,,,,1.339038276
1715227739720789904,0.121,,,,1.346733898
1715227739728485526,0.072,,,,1.35442952
1715227739736181148,0.067,,,,1.362125142
1715227739743876770,0.063,,,,1.369820764
1715227739751572392,0.033,,,,1.377516386
1715227739759268014,0.012,,,,1.385212008
1715227739766963636,-0.007,,,,1.39290763
1715227739774659258,-0.031,,,,1.400603252
1715227739782354880,-0.055,,,,1.408298874
1715227739790050502,-0.092,,,,1.415994496
1715227739797746124,-0.138,,,,1.423690118
1715227739805441746,-0.179,,,,1.43138574
1715227739813137368,-0.213,,,,1.439081362
1715227739820832990,-0.249,,,,1.446776984
1715227739828528612,-0.278,,,,1.454472606
1715227739836224234,-0.283,,,,1.462168228
1715227739843919856,-0.266,,,,1.46986385
1715227739851615478,-0.244,,,,1.477559472
1715227739859311100,-0.213,,,,1.485255094
1715227739867006722,-0.169,,,,1.492950716
1715227739874702344,-0.106,,,,1.500646338
1715227739882397966,-0.031,,,,1.50834196
1715227739890093588,0.055,,,,1.516037582
1715227739897789210,0.138,,,,1.523733204
1715227739905484832,0.203,,,,1.531428826
1715227739913180454,0.257,,,,1.539124448
1715227739920876076,0.3,,,,1.54682007
1715227739928571698,0.324,,,,1.554515692
1715227739936267320,0.334,,,,1.562211314
1715227739943962942,0.334,,,,1.569906936
1715227739951658564,0.322,,,,1.577602558
1715227739959354186,0.307,,,,1.58529818
1715227739967049808,0.3,,,,1.592993802
1715227739974745430,0.286,,,,1.600689424
1715227739982441052,0.269,,,,1.608385046
1715227739990136674,0.259,,,,1.616080668
1715227739997832296,0.252,,,,1.62377629
1715227740005527918,0.244,,,,1.631471912
1715227740013223540,0.237,,,,1.639167534
1715227740020919162,0.235,,,,1.646863156
1715227740028614784,0.232,,,,1.654558778
1715227740036310406,0.23,,,,1.6622544
1715227740044006028,0.225,,,,1.669950022
1715227740051701650,0.227,,,,1.677645644
1715227740059397296,0.23,96.0,655.0,,1.68534129
1715227740067092500,0.225,,655.0,,1.693036494
1715227740074787704,0.225,,,,1.700731698
1715227740082482908,0.22,,,,1.708426902
1715227740090178112,0.21,,,,1.716122106
1715227740097873316,0.206,,,,1.72381731
1715227740105568520,0.223,,,,1.731512514
1715227740113263724,0.24,,,,1.739207718
1715227740120958928,0.213,,,,1.746902922
1715227740128654132,0.152,,,,1.754598126
1715227740136349336,0.126,,,,1.76229333
1715227740144044540,0.126,,,,1.769988534
1715227740151739744,0.128,,,,1.777683738
1715227740159434948,0.152,,,,1.785378942
1715227740167130152,0.181,,,,1.793074146
1715227740174825356,0.194,,,,1.80076935
1715227740182520560,0.194,,,,1.808464554
1715227740190215764,0.194,,,,1.816159758
1715227740197910968,0.196,,,,1.823854962
1715227740205606172,0.196,,,,1.831550166
1715227740213301376,0.189,,,,1.83924537
1715227740220996580,0.186,,,,1.846940574
1715227740228691784,0.186,,,,1.854635778
1715227740236386988,0.181,,,,1.862330982
1715227740244082192,0.157,,,,1.870026186
1715227740251777396,0.104,,,,1.87772139
1715227740259472600,-0.07,,,,1.885416594
1715227740267167804,-0.531,,,,1.893111798
1715227740274863008,-1.069,,,,1.900807002
1715227740282558212,-0.89,,,,1.908502206
1715227740290253416,0.186,,,,1.91619741
1715227740297948620,0.923,,,,1.923892614
1715227740305643824,0.664,,,,1.931587818
1715227740313339028,0.322,,,,1.939283022
1715227740321034232,0.298,,,,1.946978226
1715227740328729436,0.191,,,,1.95467343
1715227740336424640,0.087,,,,1.962368634
1715227740344119844,0.118,,,,1.970063838
1715227740351815048,0.116,,,,1.977759042
1715227740359510252,0.067,,,,1.985454246
1715227740367205456,0.05,,,,1.99314945
1715227740374900660,0.05,,,,2.000844654
1715227740382595864,0.031,,,,2.008539858
1715227740390291068,0.009,,,,2.016235062
1715227740397986272,-0.009,,,,2.023930266
1715227740405681476,-0.038,,,,2.03162547
1715227740413376680,-0.072,,,,2.039320674
1715227740421071884,-0.104,,,,2.047015878
1715227740428767088,-0.14,,,,2.054711082
1715227740436462292,-0.179,,,,2.062406286
1715227740444157496,-0.218,,,,2.07010149
1715227740451852700,-0.259,,,,2.077796694
1715227740459547904,-0.278,,,,2.085491898
1715227740467243108,-0.274,,,,2.093187102
1715227740474938312,-0.264,,,,2.100882306
1715227740482633516,-0.249,,,,2.10857751
1715227740490328720,-0.22,,,,2.116272714
1715227740498023924,-0.174,,,,2.123967918
1715227740505719128,-0.116,,,,2.131663122
1715227740513414332,-0.038,,,,2.139358326
1715227740521109536,0.055,,,,2.14705353
1715227740528804740,0.147,,,,2.154748734
1715227740536499944,0.225,,,,2.162443938
1715227740544195148,0.291,,,,2.170139142
1715227740551890352,0.329,,,,2.177834346
1715227740559585556,0.346,,,,2.18552955
1715227740567280760,0.351,,,,2.193224754
1715227740574975964,0.351,,,,2.200919958
1715227740582671168,0.344,,,,2.208615162
1715227740590366372,0.332,,,,2.216310366
1715227740598061576,0.327,,,,2.22400557
1715227740605756780,0.312,,,,2.231700774
1715227740613451984,0.295,,,,2.239395978
1715227740621147208,0.291,,,,2.247091202
1715227740628842830,0.276,,,,2.254786824
1715227740636538452,0.257,,,,2.262482446
1715227740644234074,0.247,,,,2.270178068
1715227740651929696,0.244,,,,2.27787369
1715227740659625318,0.242,,,,2.285569312
1715227740667320940,0.237,,,,2.293264934
1715227740675016562,0.237,,,,2.300960556
1715227740682712184,0.232,,,,2.308656178
1715227740690407806,0.223,,,,2.3163518
1715227740698103428,0.22,,,,2.324047422
1715227740705799050,0.22,,,,2.331743044
1715227740713494672,0.22,,,,2.339438666
1715227740721190294,0.223,,,,2.347134288
1715227740728885916,0.235,,,,2.35482991
1715227740736581538,0.252,,,,2.362525532
1715227740744277160,0.235,,,,2.370221154
1715227740751972782,0.186,,,,2.377916776
1715227740759668404,0.152,,,,2.385612398
1715227740767364026,0.145,,,,2.39330802
1715227740775059648,0.155,,,,2.401003642
1715227740782755270,0.179,,,,2.408699264
1715227740790450892,0.198,,,,2.416394886
1715227740798146514,0.206,,,,2.424090508
1715227740805842136,0.198,,,,2.43178613
1715227740813537758,0.186,,,,2.439481752
1715227740821233380,0.184,,,,2.447177374
1715227740828929002,0.184,,,,2.454872996
1715227740836624624,0.181,,,,2.462568618
1715227740844320246,0.179,,,,2.47026424
1715227740852015868,0.174,,,,2.477959862
1715227740859711490,0.164,,,,2.485655484
1715227740867407112,0.135,,,,2.493351106
1715227740875102734,0.07,,,,2.501046728
1715227740882798356,-0.133,,,,2.50874235
1715227740890493978,-0.611,,,,2.516437972
1715227740898189600,-1.057,,,,2.524133594
1715227740905885222,-0.725,,,,2.531829216
1715227740913580844,0.349,,,,2.539524838
1715227740921276466,0.923,,,,2.54722046
1715227740928972088,0.601,,,,2.554916082
1715227740936667710,0.322,,,,2.562611704
1715227740944363332,0.317,,,,2.570307326
1715227740952058954,0.191,,,,2.578002948
1715227740959754576,0.092,,,,2.58569857
1715227740967450198,0.123,,,,2.593394192
1715227740975145820,0.106,,,,2.601089814
1715227740982841442,0.063,,,,2.608785436
1715227740990537064,0.055,,,,2.616481058
1715227740998232686,0.046,,,,2.62417668
1715227741005928308,0.019,,,,2.631872302
1715227741013623930,0.002,,,,2.639567924
1715227741021319552,-0.016,,,,2.647263546
1715227741029015174,-0.053,,,,2.654959168
1715227741036710796,-0.084,,,,2.66265479
1715227741044406418,-0.113,,,,2.670350412
1715227741052102040,-0.157,,,,2.678046034
1715227741059797662,-0.206,,,,2.685741656
1715227741067493284,-0.254,,,,2.693437278
1715227741075188906,-0.288,,,,2.7011329
1715227741082884528,-0.307,,,,2.708828522
1715227741090580150,-0.31,,,,2.716524144
1715227741098275772,-0.288,,,,2.724219766
1715227741105971394,-0.266,,,,2.731915388
1715227741113667016,-0.232,,,,2.73961101
1715227741121362638,-0.177,,,,2.747306632
1715227741129058260,-0.104,,,,2.755002254
1715227741136753882,-0.014,,,,2.762697876
1715227741144449504,0.08,,,,2.770393498
1715227741152145126,0.167,,,,2.77808912
1715227741159840748,0.244,,,,2.785784742
1715227741167536370,0.298,,,,2.793480364
1715227741175231992,0.337,,,,2.801175986
1715227741182927640,0.358,95.0,630.0,,2.808871634
1715227741190623262,0.371,,628.0,,2.816567256
1715227741198318884,0.371,,,,2.824262878
1715227741206014506,0.358,,,,2.8319585
1715227741213710128,0.346,,,,2.839654122
1715227741221405750,0.334,,,,2.847349744
1715227741229101372,0.317,,,,2.855045366
1715227741236796994,0.305,,,,2.862740988
1715227741244492616,0.295,,,,2.87043661
1715227741252188238,0.283,,,,2.878132232
1715227741259883860,0.264,,,,2.885827854
1715227741267579482,0.242,,,,2.893523476
1715227741275275104,0.23,,,,2.901219098
1715227741282970726,0.223,,,,2.90891472
1715227741290666348,0.206,,,,2.916610342
1715227741298361970,0.203,,,,2.924305964
1715227741306057592,0.206,,,,2.932001586
1715227741313753214,0.196,,,,2.939697208
1715227741321448836,0.186,,,,2.94739283
1715227741329144458,0.196,,,,2.955088452
1715227741336840080,0.215,,,,2.962784074
1715227741344535702,0.225,,,,2.970479696
1715227741352231324,0.201,,,,2.978175318
1715227741359926946,0.16,,,,2.98587094
1715227741367622568,0.138,,,,2.993566562
1715227741375318190,0.133,,,,3.001262184
1715227741383013812,0.138,,,,3.008957806
1715227741390709434,0.16,,,,3.016653428
1715227741398405056,0.186,,,,3.02434905
1715227741406100678,0.196,,,,3.032044672
1715227741413796300,0.196,,,,3.039740294
1715227741421491922,0.196,,,,3.047435916
1715227741429187544,0.194,,,,3.055131538
1715227741436883166,0.194,,,,3.06282716
1715227741444578788,0.186,,,,3.070522782
1715227741452274410,0.186,,,,3.078218404
1715227741459970032,0.186,,,,3.085914026
1715227741467665654,0.167,,,,3.093609648
1715227741475361276,0.128,,,,3.10130527
1715227741483056898,0.048,,,,3.109000892
1715227741490752520,-0.215,,,,3.116696514
1715227741498448142,-0.756,,,,3.124392136
1715227741506143764,-1.127,,,,3.132087758
1715227741513839386,-0.577,,,,3.13978338
1715227741521535008,0.548,,,,3.147479002
1715227741529230630,0.928,,,,3.155174624
1715227741536926252,0.514,,,,3.162870246
1715227741544621874,0.291,,,,3.170565868
1715227741552317496,0.283,,,,3.17826149
1715227741560013118,0.155,,,,3.185957112
1715227741567708740,0.094,,,,3.193652734
1715227741575404362,0.13,,,,3.201348356
1715227741583099984,0.104,,,,3.209043978
1715227741590795606,0.063,,,,3.2167396
1715227741598491228,0.063,,,,3.224435222
1715227741606186850,0.05,,,,3.232130844
1715227741613882472,0.019,,,,3.239826466
1715227741621578094,0.002,,,,3.247522088
1715227741629273716,-0.016,,,,3.25521771
1715227741636969338,-0.046,,,,3.262913332
1715227741644664960,-0.077,,,,3.270608954
1715227741652360582,-0.116,,,,3.278304576
1715227741660056204,-0.16,,,,3.286000198
1715227741667751826,-0.203,,,,3.29369582
1715227741675447448,-0.242,,,,3.301391442
1715227741683143070,-0.276,,,,3.309087064
1715227741690838692,-0.293,,,,3.316782686
1715227741698534314,-0.288,,,,3.324478308
1715227741706229936,-0.271,,,,3.33217393
1715227741713925558,-0.244,,,,3.339869552
1715227741721621180,-0.201,,,,3.347565174
1715227741729316802,-0.14,,,,3.355260796
1715227741737012424,-0.065,,,,3.362956418
1715227741744708070,0.026,95.0,631.0,,3.370652064
1715227741752403692,0.121,,,,3.378347686
1715227741760099314,0.208,,,,3.386043308
1715227741767794936,0.276,,,,3.39373893
1715227741775490558,0.32,,,,3.401434552
1715227741783186180,0.349,,,,3.409130174
1715227741790881802,0.366,,,,3.416825796
1715227741798577424,0.366,,,,3.424521418
1715227741806273046,0.354,,,,3.43221704
1715227741813968668,0.334,,,,3.439912662
1715227741821664290,0.32,,,,3.447608284
1715227741829359912,0.305,,,,3.455303906
1715227741837055534,0.286,,,,3.462999528
1715227741844751156,0.274,,,,3.47069515
1715227741852446778,0.271,,,,3.478390772
1715227741860142400,0.261,,,,3.486086394
1715227741867838022,0.244,,,,3.493782016
1715227741875533644,0.237,,,,3.501477638
1715227741883229266,0.235,,,,3.50917326
1715227741890924888,0.223,,,,3.516868882
1715227741898620510,0.22,,,,3.524564504
1715227741906316132,0.225,,,,3.532260126
1715227741914011754,0.22,,,,3.539955748
1715227741921707376,0.213,,,,3.54765137
1715227741929402998,0.208,,,,3.555346992
1715227741937098620,0.208,,,,3.563042614
1715227741944794242,0.213,,,,3.570738236
1715227741952489864,0.23,,,,3.578433858
1715227741960185486,0.223,,,,3.58612948
1715227741967881108,0.177,,,,3.593825102
1715227741975576730,0.138,,,,3.601520724
1715227741983272352,0.126,,,,3.609216346
1715227741990967974,0.128,,,,3.616911968
1715227741998663596,0.152,,,,3.62460759
1715227742006359218,0.177,,,,3.632303212
1715227742014054840,0.186,,,,3.639998834
1715227742021750462,0.194,,,,3.647694456
1715227742029446084,0.196,,,,3.655390078
1715227742037141706,0.194,,,,3.6630857
1715227742044837328,0.191,,,,3.670781322
1715227742052532950,0.184,,,,3.678476944
1715227742060228572,0.181,,,,3.686172566
1715227742067924194,0.177,,,,3.693868188
1715227742075619816,0.169,,,,3.70156381
1715227742083315438,0.152,,,,3.709259432
1715227742091011060,0.111,,,,3.716955054
1715227742098706682,-0.029,,,,3.724650676
1715227742106402304,-0.431,,,,3.732346298
1715227742114097926,-1.025,,,,3.74004192
1715227742121793548,-1.113,,,,3.747737542
1715227742129489170,-0.167,,,,3.755433164
1715227742137184792,0.843,,,,3.763128786
1715227742144880414,0.807,,,,3.770824408
1715227742152576036,0.361,,,,3.77852003
1715227742160271658,0.281,,,,3.786215652
1715227742167967280,0.244,,,,3.793911274
1715227742175662902,0.13,,,,3.801606896
1715227742183358524,0.138,,,,3.809302518
1715227742191054146,0.147,,,,3.81699814
1715227742198749768,0.099,,,,3.824693762
1715227742206445390,0.08,,,,3.832389384
1715227742214141012,0.077,,,,3.840085006
1715227742221836634,0.053,,,,3.847780628
1715227742229532256,0.033,,,,3.85547625
1715227742237227878,0.021,,,,3.863171872
1715227742244923500,-0.002,,,,3.870867494
1715227742252619122,-0.033,,,,3.878563116
1715227742260314744,-0.065,,,,3.886258738
1715227742268010366,-0.101,,,,3.89395436
1715227742275705988,-0.145,,,,3.901649982
1715227742283401610,-0.191,,,,3.909345604
1715227742291097232,-0.237,,,,3.917041226
1715227742298792854,-0.271,,,,3.924736848
1715227742306488500,-0.288,,,,3.932432494
1715227742314183704,-0.286,,,,3.940127698
1715227742321878908,-0.269,,,,3.947822902
1715227742329574112,-0.232,,,,3.955518106
1715227742337269316,-0.184,,,,3.96321331
1715227742344964520,-0.126,,,,3.970908514
1715227742352659724,-0.041,,,,3.978603718
1715227742360354928,0.06,,,,3.986298922
1715227742368050132,0.145,,,,3.993994126
1715227742375745336,0.213,,,,4.00168933
1715227742383440540,0.276,,,,4.009384534
1715227742391135744,0.324,,,,4.017079738
1715227742398830948,0.346,,,,4.024774942
1715227742406526152,0.356,,,,4.032470146
1715227742414221356,0.366,,,,4.04016535
1715227742421916560,0.366,,,,4.047860554
1715227742429611764,0.356,,,,4.055555758
1715227742437306968,0.346,,,,4.063250962
1715227742445002172,0.339,,,,4.070946166
1715227742452697376,0.329,,,,4.07864137
1715227742460392580,0.322,,,,4.086336574
1715227742468087784,0.312,,,,4.094031778
1715227742475782988,0.307,,,,4.101726982
1715227742483478192,0.305,,,,4.109422186
1715227742491173396,0.291,,,,4.11711739
1715227742498868600,0.278,,,,4.124812594
1715227742506563804,0.276,,,,4.132507798
1715227742514259008,0.278,,,,4.140203002
1715227742521954212,0.276,,,,4.147898206
1715227742529649416,0.271,,,,4.15559341
1715227742537344620,0.269,,,,4.163288614
1715227742545039824,0.259,,,,4.170983818
1715227742552735028,0.247,,,,4.178679022
1715227742560430232,0.247,,,,4.186374226
1715227742568125436,0.249,,,,4.19406943
1715227742575820640,0.257,,,,4.201764634
1715227742583515844,0.271,,,,4.209459838
1715227742591211048,0.266,,,,4.217155042
1715227742598906252,0.225,,,,4.224850246
1715227742606601456,0.179,,,,4.23254545
1715227742614296660,0.162,,,,4.240240654
1715227742621991864,0.162,,,,4.247935858
1715227742629687068,0.179,,,,4.255631062
1715227742637382272,0.206,,,,4.263326266
1715227742645077476,0.22,,,,4.27102147
1715227742652772680,0.227,,,,4.278716674
1715227742660467884,0.235,,,,4.286411878
1715227742668163088,0.23,,,,4.294107082
1715227742675858292,0.225,,,,4.301802286
1715227742683553496,0.223,,,,4.30949749
1715227742691248700,0.225,,,,4.317192694
1715227742698943904,0.22,,,,4.324887898
1715227742706639108,0.215,,,,4.332583102
1715227742714334312,0.203,,,,4.340278306
1715227742722029516,0.169,,,,4.34797351
1715227742729724720,0.07,,,,4.355668714
1715227742737419924,-0.218,,,,4.363363918
1715227742745115128,-0.773,,,,4.371059122
1715227742752810332,-1.117,,,,4.378754326
1715227742760505536,-0.485,,,,4.38644953
1715227742768200740,0.659,,,,4.394144734
1715227742775895944,0.97,,,,4.401839938
1715227742783591148,0.523,,,,4.409535142
1715227742791286352,0.32,,,,4.417230346
1715227742798981556,0.307,,,,4.42492555
1715227742806676760,0.184,,,,4.432620754
1715227742814371964,0.135,,,,4.440315958
1715227742822067168,0.162,,,,4.448011162
1715227742829762372,0.113,,,,4.455706366
1715227742837457576,0.077,,,,4.46340157
1715227742845152780,0.087,,,,4.471096774
1715227742852847984,0.065,,,,4.478791978
1715227742860543188,0.029,,,,4.486487182
1715227742868238412,0.016,95.0,622.0,,4.494182406
1715227742875934034,0.0,,606.0,,4.501878028
1715227742883629656,-0.033,,,,4.50957365
1715227742891325278,-0.065,,,,4.517269272
1715227742899020900,-0.094,,,,4.524964894
1715227742906716522,-0.145,,,,4.532660516
1715227742914412144,-0.203,,,,4.540356138
1715227742922107766,-0.244,,,,4.54805176
1715227742929803388,-0.271,,,,4.555747382
1715227742937499010,-0.291,,,,4.563443004
1715227742945194632,-0.298,,,,4.571138626
1715227742952890254,-0.288,,,,4.578834248
1715227742960585876,-0.259,,,,4.58652987
1715227742968281498,-0.22,,,,4.594225492
1715227742975977120,-0.162,,,,4.601921114
1715227742983672742,-0.075,,,,4.609616736
1715227742991368364,0.024,,,,4.617312358
1715227742999063986,0.118,,,,4.62500798
1715227743006759608,0.206,,,,4.632703602
1715227743014455230,0.288,,,,4.640399224
1715227743022150852,0.349,,,,4.648094846
1715227743029846474,0.375,,,,4.655790468
1715227743037542096,0.383,,,,4.66348609
1715227743045237718,0.388,,,,4.671181712
1715227743052933340,0.39,,,,4.678877334
1715227743060628962,0.383,,,,4.686572956
1715227743068324584,0.368,,,,4.694268578
1715227743076020206,0.366,,,,4.7019642
1715227743083715828,0.361,,,,4.709659822
1715227743091411450,0.344,,,,4.717355444
1715227743099107072,0.329,,,,4.725051066
1715227743106802694,0.322,,,,4.732746688
1715227743114498316,0.317,,,,4.74044231
1715227743122193938,0.3,,,,4.748137932
1715227743129889560,0.283,,,,4.755833554
1715227743137585182,0.281,,,,4.763529176
1715227743145280804,0.283,,,,4.771224798
1715227743152976426,0.271,,,,4.77892042
1715227743160672048,0.266,,,,4.786616042
1715227743168367670,0.269,,,,4.794311664
1715227743176063292,0.261,,,,4.802007286
1715227743183758914,0.249,,,,4.809702908
1715227743191454536,0.242,,,,4.81739853
1715227743199150158,0.24,,,,4.825094152
1715227743206845780,0.244,,,,4.832789774
1715227743214541402,0.261,,,,4.840485396
1715227743222237024,0.261,,,,4.848181018
1715227743229932646,0.218,,,,4.85587664
1715227743237628268,0.172,,,,4.863572262
1715227743245323890,0.157,,,,4.871267884
1715227743253019512,0.16,,,,4.878963506
1715227743260715134,0.181,,,,4.886659128
1715227743268410756,0.203,,,,4.89435475
1715227743276106378,0.206,,,,4.902050372
1715227743283802000,0.206,,,,4.909745994
1715227743291497622,0.206,,,,4.917441616
1715227743299193244,0.203,,,,4.925137238
1715227743306888866,0.201,,,,4.93283286
1715227743314584488,0.198,,,,4.940528482
1715227743322280110,0.191,,,,4.948224104
1715227743329975732,0.177,,,,4.955919726
1715227743337671354,0.164,,,,4.963615348
1715227743345366976,0.155,,,,4.97131097
1715227743353062598,0.121,,,,4.979006592
1715227743360758220,0.029,,,,4.986702214
1715227743368453842,-0.259,,,,4.994397836
1715227743376149464,-0.795,,,,5.002093458
1715227743383845086,-1.091,,,,5.00978908
1715227743391540708,-0.465,,,,5.017484702
1715227743399236330,0.623,,,,5.025180324
1715227743406931952,0.914,,,,5.032875946
1715227743414627574,0.494,,,,5.040571568
1715227743422323196,0.295,,,,5.04826719
1715227743430018842,0.269,,,,5.055962836
1715227743437714464,0.135,,,,5.063658458
1715227743445410086,0.092,,,,5.07135408
1715227743453105708,0.118,,,,5.079049702
1715227743460801330,0.08,,,,5.086745324
1715227743468496952,0.046,,,,5.094440946
1715227743476192574,0.046,,,,5.102136568
1715227743483888196,0.019,,,,5.10983219
1715227743491583818,-0.012,,,,5.117527812
1715227743499279440,-0.026,,,,5.125223434
1715227743506975062,-0.048,,,,5.132919056
1715227743514670684,-0.084,,,,5.140614678
1715227743522366306,-0.116,,,,5.1483103
1715227743530061928,-0.155,,,,5.156005922
1715227743537757550,-0.201,,,,5.163701544
1715227743545453172,-0.249,,,,5.171397166
1715227743553148794,-0.293,,,,5.179092788
1715227743560844416,-0.32,,,,5.18678841
1715227743568540038,-0.337,,,,5.194484032
1715227743576235660,-0.334,,,,5.202179654
1715227743583931282,-0.312,,,,5.209875276
1715227743591626904,-0.286,,,,5.217570898
1715227743599322526,-0.244,,,,5.22526652
1715227743607018148,-0.179,,,,5.232962142
1715227743614713770,-0.089,,,,5.240657764
1715227743622409392,0.012,,,,5.248353386
1715227743630105014,0.106,,,,5.256049008
1715227743637800636,0.191,,,,5.26374463
1715227743645496258,0.266,,,,5.271440252
1715227743653191880,0.315,,,,5.279135874
1715227743660887502,0.346,,,,5.286831496
1715227743668583124,0.361,,,,5.294527118
1715227743676278746,0.371,,,,5.30222274
1715227743683974368,0.375,,,,5.309918362
1715227743691669990,0.363,,,,5.317613984
1715227743699365612,0.349,,,,5.325309606
1715227743707061234,0.344,,,,5.333005228
1715227743714756856,0.337,,,,5.34070085
1715227743722452478,0.322,,,,5.348396472
1715227743730148100,0.305,,,,5.356092094
1715227743737843722,0.293,,,,5.363787716
1715227743745539344,0.283,,,,5.371483338
1715227743753234966,0.266,,,,5.37917896
1715227743760930588,0.259,,,,5.386874582
1715227743768626210,0.252,,,,5.394570204
1715227743776321832,0.242,,,,5.402265826
1715227743784017454,0.23,,,,5.409961448
1715227743791713076,0.227,,,,5.41765707
1715227743799408698,0.232,,,,5.425352692
1715227743807104320,0.23,,,,5.433048314
1715227743814799942,0.223,,,,5.440743936
1715227743822495564,0.22,,,,5.448439558
1715227743830191186,0.208,,,,5.45613518
1715227743837886808,0.201,,,,5.463830802
1715227743845582430,0.215,,,,5.471526424
1715227743853278052,0.218,,,,5.479222046
1715227743860973674,0.177,,,,5.486917668
1715227743868669296,0.13,,,,5.49461329
1715227743876364918,0.116,,,,5.502308912
1715227743884060540,0.118,,,,5.510004534
1715227743891756162,0.138,,,,5.517700156
1715227743899451784,0.167,,,,5.525395778
1715227743907147406,0.179,,,,5.5330914
1715227743914843028,0.184,,,,5.540787022
1715227743922538650,0.191,,,,5.548482644
1715227743930234272,0.186,,,,5.556178266
1715227743937929894,0.181,,,,5.563873888
1715227743945625516,0.184,,,,5.57156951
1715227743953321138,0.181,,,,5.579265132
1715227743961016760,0.177,,,,5.586960754
1715227743968712382,0.169,,,,5.594656376
1715227743976408004,0.162,,,,5.602351998
1715227743984103626,0.14,,,,5.61004762
1715227743991799272,0.065,96.0,612.0,,5.617743266
1715227743999494894,-0.169,,,,5.625438888
1715227744007190516,-0.681,,,,5.63313451
1715227744014886138,-1.151,,,,5.640830132
1715227744022581760,-0.788,,,,5.648525754
1715227744030277382,0.337,,,,5.656221376
1715227744037973004,0.926,,,,5.663916998
1715227744045668626,0.603,,,,5.67161262
1715227744053364248,0.307,,,,5.679308242
1715227744061059870,0.271,,,,5.687003864
1715227744068755492,0.15,,,,5.694699486
1715227744076451114,0.075,,,,5.702395108
1715227744084146736,0.104,,,,5.71009073
1715227744091842358,0.082,,,,5.717786352
1715227744099537980,0.043,,,,5.725481974
1715227744107233602,0.041,,,,5.733177596
1715227744114929224,0.024,,,,5.740873218
1715227744122624846,0.0,,,,5.74856884
1715227744130320468,-0.014,,,,5.756264462
1715227744138016090,-0.033,,,,5.763960084
1715227744145711712,-0.067,,,,5.771655706
1715227744153407334,-0.101,,,,5.779351328
1715227744161102956,-0.13,,,,5.78704695
1715227744168798578,-0.172,,,,5.794742572
1715227744176494200,-0.223,,,,5.802438194
1715227744184189822,-0.264,,,,5.810133816
1715227744191885444,-0.303,,,,5.817829438
1715227744199581066,-0.329,,,,5.82552506
1715227744207276688,-0.337,,,,5.833220682
1715227744214972310,-0.32,,,,5.840916304
1715227744222667932,-0.291,,,,5.848611926
1715227744230363554,-0.257,,,,5.856307548
1715227744238059176,-0.203,,,,5.86400317
1715227744245754798,-0.128,,,,5.871698792
1715227744253450420,-0.031,,,,5.879394414
1715227744261146042,0.065,,,,5.887090036
1715227744268841664,0.147,,,,5.894785658
1715227744276537286,0.22,,,,5.90248128
1715227744284232908,0.281,,,,5.910176902
1715227744291928530,0.312,,,,5.917872524
1715227744299624152,0.334,,,,5.925568146
1715227744307319774,0.351,,,,5.933263768
1715227744315015396,0.354,,,,5.94095939
1715227744322711018,0.349,,,,5.948655012
1715227744330406640,0.341,,,,5.956350634
1715227744338102262,0.327,,,,5.964046256
1715227744345797884,0.305,,,,5.971741878
1715227744353493506,0.291,,,,5.9794375
1715227744361189128,0.283,,,,5.987133122
1715227744368884750,0.274,,,,5.994828744
1715227744376580372,0.259,,,,6.002524366
1715227744384275994,0.244,,,,6.010219988
1715227744391971616,0.237,,,,6.01791561
1715227744399667238,0.235,,,,6.025611232
1715227744407362860,0.227,,,,6.033306854
1715227744415058482,0.223,,,,6.041002476
1715227744422754104,0.22,,,,6.048698098
1715227744430449726,0.218,,,,6.05639372
1715227744438145348,0.218,,,,6.064089342
1715227744445840970,0.213,,,,6.071784964
1715227744453536592,0.206,,,,6.079480586
1715227744461232214,0.21,,,,6.087176208
1715227744468927836,0.21,,,,6.09487183
1715227744476623458,0.201,,,,6.102567452
1715227744484319080,0.201,,,,6.110263074
1715227744492014702,0.206,,,,6.117958696
1715227744499710324,0.208,,,,6.125654318
1715227744507405946,0.215,,,,6.13334994
1715227744515101568,0.225,,,,6.141045562
1715227744522797190,0.203,,,,6.148741184
1715227744530492812,0.147,,,,6.156436806
1715227744538188434,0.113,,,,6.164132428
1715227744545884056,0.116,,,,6.17182805
1715227744553579704,0.128,,,,6.179523698
1715227744561274908,0.147,,,,6.187218902
1715227744568970112,0.167,,,,6.194914106
1715227744576665316,0.181,,,,6.20260931
1715227744584360520,0.189,,,,6.210304514
1715227744592055724,0.186,,,,6.217999718
1715227744599750928,0.186,,,,6.225694922
1715227744607446132,0.189,,,,6.233390126
1715227744615141336,0.184,,,,6.24108533
1715227744622836540,0.174,,,,6.248780534
1715227744630531744,0.169,,,,6.256475738
1715227744638226948,0.172,,,,6.264170942
1715227744645922152,0.164,,,,6.271866146
1715227744653617356,0.123,,,,6.27956135
1715227744661312560,0.029,,,,6.287256554
1715227744669007764,-0.257,,,,6.294951758
1715227744676702968,-0.809,,,,6.302646962
1715227744684398172,-1.147,,,,6.310342166
1715227744692093376,-0.55,,,,6.31803737
1715227744699788580,0.5670000000000001,,,,6.325732574
1715227744707483784,0.931,,,,6.333427778
1715227744715178988,0.54,,,,6.341122982
1715227744722874192,0.332,,,,6.348818186
1715227744730569396,0.303,,,,6.35651339
1715227744738264600,0.16,,,,6.364208594
1715227744745959804,0.099,,,,6.371903798
1715227744753655008,0.126,,,,6.379599002
1715227744761350212,0.087,,,,6.387294206
1715227744769045416,0.046,,,,6.39498941
1715227744776740620,0.048,,,,6.402684614
1715227744784435824,0.033,,,,6.410379818
1715227744792131028,0.0,,,,6.418075022
1715227744799826232,-0.019,,,,6.425770226
1715227744807521436,-0.038,,,,6.43346543
1715227744815216640,-0.063,,,,6.441160634
1715227744822911844,-0.092,,,,6.448855838
1715227744830607048,-0.133,,,,6.456551042
1715227744838302252,-0.184,,,,6.464246246
1715227744845997456,-0.24,,,,6.47194145
1715227744853692660,-0.295,,,,6.479636654
1715227744861387864,-0.332,,,,6.487331858
1715227744869083068,-0.351,,,,6.495027062
1715227744876778272,-0.354,,,,6.502722266
1715227744884473476,-0.346,,,,6.51041747
1715227744892168680,-0.327,,,,6.518112674
1715227744899863884,-0.283,,,,6.525807878
1715227744907559088,-0.218,,,,6.533503082
1715227744915254292,-0.14,,,,6.541198286
1715227744922949496,-0.043,,,,6.54889349
1715227744930644700,0.06,,,,6.556588694
1715227744938339904,0.16,,,,6.564283898
1715227744946035108,0.244,,,,6.571979102
1715227744953730312,0.305,,,,6.579674306
1715227744961425516,0.344,,,,6.58736951
1715227744969120720,0.366,,,,6.595064714
1715227744976815924,0.375,,,,6.602759918
1715227744984511128,0.373,,,,6.610455122
1715227744992206332,0.366,,,,6.618150326
1715227744999901536,0.361,,,,6.62584553
1715227745007596740,0.344,,,,6.633540734
1715227745015291944,0.324,,,,6.641235938
1715227745022987148,0.315,,,,6.648931142
1715227745030682352,0.303,,,,6.656626346
1715227745038377556,0.286,,,,6.66432155
1715227745046072760,0.266,,,,6.672016754
1715227745053767964,0.249,,,,6.679711958
1715227745061463168,0.24,,,,6.687407162
1715227745069158372,0.232,,,,6.695102366
1715227745076853576,0.22,,,,6.70279757
1715227745084548780,0.218,,,,6.710492774
1715227745092243984,0.22,,,,6.718187978
1715227745099939188,0.215,,,,6.725883182
1715227745107634392,0.213,,,,6.733578386
1715227745115329616,0.215,96.0,634.0,,6.74127361
1715227745123025238,0.218,,631.0,,6.748969232
1715227745130720860,0.21,,,,6.756664854
1715227745138416482,0.208,,,,6.764360476
1715227745146112104,0.215,,,,6.772056098
1715227745153807726,0.215,,,,6.77975172
1715227745161503348,0.208,,,,6.787447342
1715227745169198970,0.206,,,,6.795142964
1715227745176894592,0.208,,,,6.802838586
1715227745184590214,0.21,,,,6.810534208
1715227745192285836,0.213,,,,6.81822983
1715227745199981458,0.223,,,,6.825925452
1715227745207677080,0.206,,,,6.833621074
1715227745215372702,0.147,,,,6.841316696
1715227745223068324,0.099,,,,6.849012318
1715227745230763946,0.092,,,,6.85670794
1715227745238459568,0.118,,,,6.864403562
1715227745246155190,0.15,,,,6.872099184
1715227745253850812,0.16,,,,6.879794806
1715227745261546434,0.167,,,,6.887490428
1715227745269242056,0.174,,,,6.89518605
1715227745276937678,0.172,,,,6.902881672
1715227745284633300,0.169,,,,6.910577294
1715227745292328922,0.169,,,,6.918272916
1715227745300024544,0.169,,,,6.925968538
1715227745307720166,0.164,,,,6.93366416
1715227745315415788,0.16,,,,6.941359782
1715227745323111410,0.16,,,,6.949055404
1715227745330807032,0.152,,,,6.956751026
1715227745338502654,0.123,,,,6.964446648
1715227745346198276,0.036,,,,6.97214227
1715227745353893898,-0.257,,,,6.979837892
1715227745361589520,-0.8290000000000001,,,,6.987533514
1715227745369285142,-1.212,,,,6.995229136
1715227745376980764,-0.662,,,,7.002924758
1715227745384676386,0.487,,,,7.01062038
1715227745392372008,0.911,,,,7.018316002
1715227745400067630,0.506,,,,7.026011624
1715227745407763252,0.269,,,,7.033707246
1715227745415458874,0.264,,,,7.041402868
1715227745423154496,0.147,,,,7.04909849
1715227745430850118,0.084,,,,7.056794112
1715227745438545740,0.113,,,,7.064489734
1715227745446241362,0.089,,,,7.072185356
1715227745453936984,0.053,,,,7.079880978
1715227745461632606,0.053,,,,7.0875766
1715227745469328228,0.036,,,,7.095272222
1715227745477023850,0.012,,,,7.102967844
1715227745484719472,-0.002,,,,7.110663466
1715227745492415094,-0.029,,,,7.118359088
1715227745500110716,-0.065,,,,7.12605471
1715227745507806338,-0.097,,,,7.133750332
1715227745515501960,-0.13,,,,7.141445954
1715227745523197582,-0.177,,,,7.149141576
1715227745530893204,-0.225,,,,7.156837198
1715227745538588826,-0.269,,,,7.16453282
1715227745546284448,-0.312,,,,7.172228442
1715227745553980070,-0.341,,,,7.179924064
1715227745561675692,-0.346,,,,7.187619686
1715227745569371314,-0.329,,,,7.195315308
1715227745577066936,-0.305,,,,7.20301093
1715227745584762558,-0.276,,,,7.210706552
1715227745592458180,-0.227,,,,7.218402174
1715227745600153802,-0.147,,,,7.226097796
1715227745607849424,-0.05,,,,7.233793418
1715227745615545046,0.05,,,,7.24148904
1715227745623240668,0.145,,,,7.249184662
1715227745630936290,0.225,,,,7.256880284
1715227745638631912,0.286,,,,7.264575906
1715227745646327534,0.32,,,,7.272271528
1715227745654023156,0.337,,,,7.27996715
1715227745661718778,0.346,,,,7.287662772
1715227745669414400,0.341,,,,7.295358394
1715227745677110046,0.327,,,,7.30305404
1715227745684805250,0.32,,,,7.310749244
1715227745692500454,0.31,,,,7.318444448
1715227745700195658,0.3,,,,7.326139652
1715227745707890862,0.288,,,,7.333834856
1715227745715586066,0.278,,,,7.34153006
1715227745723281270,0.266,,,,7.349225264
1715227745730976474,0.249,,,,7.356920468
1715227745738671678,0.232,,,,7.364615672
1715227745746366882,0.223,,,,7.372310876
1715227745754062086,0.218,,,,7.38000608
1715227745761757290,0.21,,,,7.387701284
1715227745769452494,0.203,,,,7.395396488
1715227745777147698,0.203,,,,7.403091692
1715227745784842902,0.208,,,,7.410786896
1715227745792538106,0.206,,,,7.4184821
1715227745800233310,0.206,,,,7.426177304
1715227745807928514,0.203,,,,7.433872508
1715227745815623718,0.201,,,,7.441567712
1715227745823318922,0.201,,,,7.449262916
1715227745831014126,0.203,,,,7.45695812
1715227745838709330,0.206,,,,7.464653324
1715227745846404534,0.206,,,,7.472348528
1715227745854099738,0.196,,,,7.480043732
1715227745861794942,0.181,,,,7.487738936
1715227745869490146,0.181,,,,7.49543414
1715227745877185350,0.189,,,,7.503129344
1715227745884880554,0.194,,,,7.510824548
1715227745892575758,0.208,,,,7.518519752
1715227745900270962,0.223,,,,7.526214956
1715227745907966166,0.194,,,,7.53391016
1715227745915661370,0.135,,,,7.541605364
1715227745923356574,0.113,,,,7.549300568
1715227745931051778,0.116,,,,7.556995772
1715227745938746982,0.126,,,,7.564690976
1715227745946442186,0.152,,,,7.57238618
1715227745954137390,0.177,,,,7.580081384
1715227745961832594,0.184,,,,7.587776588
1715227745969527798,0.184,,,,7.595471792
1715227745977223002,0.184,,,,7.603166996
1715227745984918206,0.181,,,,7.6108622
1715227745992613410,0.174,,,,7.618557404
1715227746000308614,0.167,,,,7.626252608
1715227746008003818,0.164,,,,7.633947812
1715227746015699022,0.167,,,,7.641643016
1715227746023394226,0.167,,,,7.64933822
1715227746031089430,0.155,,,,7.657033424
1715227746038784634,0.128,,,,7.664728628
1715227746046479838,0.033,,,,7.672423832
1715227746054175042,-0.288,,,,7.680119036
1715227746061870246,-0.887,,,,7.68781424
1715227746069565450,-1.253,,,,7.695509444
1715227746077260654,-0.62,,,,7.703204648
1715227746084955858,0.543,,,,7.710899852
1715227746092651062,0.877,,,,7.718595056
1715227746100346266,0.468,,,,7.72629026
1715227746108041470,0.291,,,,7.733985464
1715227746115736674,0.281,,,,7.741680668
1715227746123431878,0.15,,,,7.749375872
1715227746131127082,0.106,,,,7.757071076
1715227746138822286,0.14,,,,7.76476628
1715227746146517490,0.104,,,,7.772461484
1715227746154212694,0.067,,,,7.780156688
1715227746161907898,0.07,,,,7.787851892
1715227746169603102,0.055,,,,7.795547096
1715227746177298306,0.026,,,,7.8032423
1715227746184993510,0.007,,,,7.810937504
1715227746192688714,-0.014,,,,7.818632708
1715227746200383918,-0.038,,,,7.826327912
1715227746208079122,-0.07,,,,7.834023116
1715227746215774326,-0.111,,,,7.84171832
1715227746223469530,-0.157,,,,7.849413524
1715227746231164734,-0.213,,,,7.857108728
1715227746238859958,-0.271,96.0,633.0,,7.864803952
1715227746246555580,-0.317,,,,7.872499574
1715227746254251202,-0.341,,,,7.880195196
1715227746261946824,-0.349,,,,7.887890818
1715227746269642446,-0.344,,,,7.89558644
1715227746277338068,-0.329,,,,7.903282062
1715227746285033690,-0.3,,,,7.910977684
1715227746292729312,-0.252,,,,7.918673306
1715227746300424934,-0.191,,,,7.926368928
1715227746308120556,-0.104,,,,7.93406455
1715227746315816178,0.004,,,,7.941760172
1715227746323511800,0.099,,,,7.949455794
1715227746331207422,0.167,,,,7.957151416
1715227746338903044,0.22,,,,7.964847038
1715227746346598666,0.266,,,,7.97254266
1715227746354294288,0.286,,,,7.980238282
1715227746361989910,0.283,,,,7.987933904
1715227746369685532,0.281,,,,7.995629526
1715227746377381154,0.286,,,,8.003325148
1715227746385076776,0.286,,,,8.01102077
1715227746392772398,0.274,,,,8.018716392
1715227746400468020,0.266,,,,8.026412014
1715227746408163642,0.259,,,,8.034107636
1715227746415859264,0.247,,,,8.041803258
1715227746423554886,0.242,,,,8.04949888
1715227746431250508,0.24,,,,8.057194502
1715227746438946130,0.23,,,,8.064890124
1715227746446641752,0.223,,,,8.072585746
1715227746454337374,0.22,,,,8.080281368
1715227746462032996,0.218,,,,8.08797699
1715227746469728618,0.215,,,,8.095672612
1715227746477424240,0.215,,,,8.103368234
1715227746485119862,0.208,,,,8.111063856
1715227746492815484,0.206,,,,8.118759478
1715227746500511106,0.213,,,,8.1264551
1715227746508206728,0.21,,,,8.134150722
1715227746515902350,0.208,,,,8.141846344
1715227746523597972,0.215,,,,8.149541966
1715227746531293594,0.215,,,,8.157237588
1715227746538989216,0.21,,,,8.16493321
1715227746546684838,0.208,,,,8.172628832
1715227746554380460,0.21,,,,8.180324454
1715227746562076082,0.213,,,,8.188020076
1715227746569771704,0.208,,,,8.195715698
1715227746577467326,0.206,,,,8.20341132
1715227746585162948,0.208,,,,8.211106942
1715227746592858570,0.21,,,,8.218802564
1715227746600554192,0.218,,,,8.226498186
1715227746608249814,0.237,,,,8.234193808
1715227746615945436,0.242,,,,8.24188943
1715227746623641058,0.201,,,,8.249585052
1715227746631336680,0.147,,,,8.257280674
1715227746639032302,0.128,,,,8.264976296
1715227746646727924,0.138,,,,8.272671918
1715227746654423546,0.162,,,,8.28036754
1715227746662119168,0.186,,,,8.288063162
1715227746669814790,0.196,,,,8.295758784
1715227746677510412,0.208,,,,8.303454406
1715227746685206034,0.213,,,,8.311150028
1715227746692901656,0.206,,,,8.31884565
1715227746700597278,0.203,,,,8.326541272
1715227746708292900,0.208,,,,8.334236894
1715227746715988522,0.208,,,,8.341932516
1715227746723684144,0.201,,,,8.349628138
1715227746731379766,0.191,,,,8.35732376
1715227746739075388,0.184,,,,8.365019382
1715227746746771010,0.167,,,,8.372715004
1715227746754466632,0.126,,,,8.380410626
1715227746762162254,-0.033,,,,8.388106248
1715227746769857876,-0.48,,,,8.39580187
1715227746777553498,-1.054,,,,8.403497492
1715227746785249120,-1.018,,,,8.411193114
1715227746792944742,-0.016,,,,8.418888736
1715227746800640388,0.88,95.0,668.0,,8.426584382
1715227746808335592,0.756,,686.0,,8.434279586
1715227746816030796,0.373,,,,8.44197479
1715227746823726000,0.337,,,,8.449669994
1715227746831421204,0.261,,,,8.457365198
1715227746839116408,0.126,,,,8.465060402
1715227746846811612,0.13,,,,8.472755606
1715227746854506816,0.133,,,,8.48045081
1715227746862202020,0.072,,,,8.488146014
1715227746869897224,0.038,,,,8.495841218
1715227746877592428,0.036,,,,8.503536422
1715227746885287632,0.019,,,,8.511231626
1715227746892982836,-0.002,,,,8.51892683
1715227746900678040,-0.014,,,,8.526622034
1715227746908373244,-0.043,,,,8.534317238
1715227746916068448,-0.082,,,,8.542012442
1715227746923763652,-0.121,,,,8.549707646
1715227746931458856,-0.169,,,,8.55740285
1715227746939154060,-0.215,,,,8.565098054
1715227746946849264,-0.257,,,,8.572793258
1715227746954544468,-0.303,,,,8.580488462
1715227746962239672,-0.349,,,,8.588183666
1715227746969934876,-0.373,,,,8.59587887
1715227746977630080,-0.378,,,,8.603574074
1715227746985325284,-0.366,,,,8.611269278
1715227746993020488,-0.337,,,,8.618964482
1715227747000715692,-0.291,,,,8.626659686
1715227747008410896,-0.227,,,,8.63435489
1715227747016106100,-0.143,,,,8.642050094
1715227747023801304,-0.033,,,,8.649745298
1715227747031496508,0.072,,,,8.657440502
1715227747039191712,0.169,,,,8.665135706
1715227747046886916,0.249,,,,8.67283091
1715227747054582120,0.305,,,,8.680526114
1715227747062277324,0.341,,,,8.688221318
1715227747069972528,0.366,,,,8.695916522
1715227747077667732,0.378,,,,8.703611726
1715227747085362936,0.373,,,,8.71130693
1715227747093058140,0.368,,,,8.719002134
1715227747100753344,0.368,,,,8.726697338
1715227747108448548,0.358,,,,8.734392542
1715227747116143752,0.341,,,,8.742087746
1715227747123838956,0.337,,,,8.74978295
1715227747131534160,0.332,,,,8.757478154
1715227747139229364,0.322,,,,8.765173358
1715227747146924568,0.312,,,,8.772868562
1715227747154619772,0.303,,,,8.780563766
1715227747162314976,0.298,,,,8.78825897
1715227747170010180,0.291,,,,8.795954174
1715227747177705384,0.288,,,,8.803649378
1715227747185400588,0.286,,,,8.811344582
1715227747193095792,0.281,,,,8.819039786
1715227747200790996,0.278,,,,8.82673499
1715227747208486200,0.278,,,,8.834430194
1715227747216181404,0.276,,,,8.842125398
1715227747223876608,0.271,,,,8.849820602
1715227747231571812,0.264,,,,8.857515806
1715227747239267016,0.264,,,,8.86521101
1715227747246962220,0.264,,,,8.872906214
1715227747254657424,0.264,,,,8.880601418
1715227747262352628,0.259,,,,8.888296622
1715227747270047832,0.257,,,,8.895991826
1715227747277743036,0.259,,,,8.90368703
1715227747285438240,0.264,,,,8.911382234
1715227747293133444,0.271,,,,8.919077438
1715227747300828648,0.281,,,,8.926772642
1715227747308523852,0.257,,,,8.934467846
1715227747316219056,0.208,,,,8.94216305
1715227747323914260,0.177,,,,8.949858254
1715227747331609464,0.172,,,,8.957553458
1715227747339304668,0.184,,,,8.965248662
1715227747346999872,0.208,,,,8.972943866
1715227747354695076,0.218,,,,8.98063907
1715227747362390302,0.227,,,,8.988334296
1715227747370085924,0.227,,,,8.996029918
1715227747377781546,0.21,,,,9.00372554
1715227747385477168,0.196,,,,9.011421162
1715227747393172790,0.194,,,,9.019116784
1715227747400868412,0.194,,,,9.026812406
1715227747408564034,0.191,,,,9.034508028
1715227747416259656,0.189,,,,9.04220365
1715227747423955278,0.184,,,,9.049899272
1715227747431650900,0.164,,,,9.057594894
1715227747439346522,0.126,,,,9.065290516
1715227747447042144,-0.007,,,,9.072986138
1715227747454737766,-0.402,,,,9.08068176
1715227747462433388,-0.989,,,,9.088377382
1715227747470129010,-1.105,,,,9.096073004
1715227747477824632,-0.223,,,,9.103768626
1715227747485520254,0.795,,,,9.111464248
1715227747493215876,0.8140000000000001,,,,9.11915987
1715227747500911498,0.375,,,,9.126855492
1715227747508607120,0.286,,,,9.134551114
1715227747516302742,0.249,,,,9.142246736
1715227747523998364,0.121,,,,9.149942358
1715227747531693986,0.109,,,,9.15763798
1715227747539389608,0.123,,,,9.165333602
1715227747547085230,0.075,,,,9.173029224
1715227747554780852,0.046,,,,9.180724846
1715227747562476474,0.036,,,,9.188420468
1715227747570172096,0.014,,,,9.19611609
1715227747577867718,-0.007,,,,9.203811712
1715227747585563340,-0.021,,,,9.211507334
1715227747593258962,-0.048,,,,9.219202956
1715227747600954584,-0.08,,,,9.226898578
1715227747608650206,-0.111,,,,9.2345942
1715227747616345828,-0.155,,,,9.242289822
1715227747624041450,-0.201,,,,9.249985444
1715227747631737072,-0.247,,,,9.257681066
1715227747639432694,-0.293,,,,9.265376688
1715227747647128316,-0.334,,,,9.27307231
1715227747654823938,-0.361,,,,9.280767932
1715227747662519560,-0.363,,,,9.288463554
1715227747670215182,-0.351,,,,9.296159176
1715227747677910804,-0.324,,,,9.303854798
1715227747685606426,-0.281,,,,9.31155042
1715227747693302048,-0.22,,,,9.319246042
1715227747700997670,-0.128,,,,9.326941664
1715227747708693292,-0.021,,,,9.334637286
1715227747716388914,0.077,,,,9.342332908
1715227747724084536,0.167,,,,9.35002853
1715227747731780158,0.249,,,,9.357724152
1715227747739475780,0.305,,,,9.365419774
1715227747747171402,0.329,,,,9.373115396
1715227747754867024,0.346,,,,9.380811018
1715227747762562646,0.358,,,,9.38850664
1715227747770258268,0.356,,,,9.396202262
1715227747777953890,0.346,,,,9.403897884
1715227747785649512,0.341,,,,9.411593506
1715227747793345134,0.334,,,,9.419289128
1715227747801040756,0.324,,,,9.42698475
1715227747808736378,0.312,,,,9.434680372
1715227747816432000,0.305,,,,9.442375994
1715227747824127622,0.3,,,,9.450071616
1715227747831823244,0.288,,,,9.457767238
1715227747839518866,0.276,,,,9.46546286
1715227747847214488,0.274,,,,9.473158482
1715227747854910110,0.269,,,,9.480854104
1715227747862605732,0.261,,,,9.488549726
1715227747870301354,0.249,,,,9.496245348
1715227747877996976,0.235,,,,9.50394097
1715227747885692598,0.232,,,,9.511636592
1715227747893388220,0.232,,,,9.519332214
1715227747901083842,0.23,,,,9.527027836
1715227747908779464,0.23,,,,9.534723458
1715227747916475086,0.23,,,,9.54241908
1715227747924170732,0.23,94.0,700.0,,9.550114726
1715227747931866354,0.227,,,,9.557810348
1715227747939561976,0.225,,,,9.56550597
1715227747947257598,0.223,,,,9.573201592
1715227747954953220,0.223,,,,9.580897214
1715227747962648842,0.225,,,,9.588592836
1715227747970344464,0.235,,,,9.596288458
1715227747978040086,0.244,,,,9.60398408
1715227747985735708,0.223,,,,9.611679702
1715227747993431330,0.169,,,,9.619375324
1715227748001126952,0.138,,,,9.627070946
1715227748008822574,0.126,,,,9.634766568
1715227748016518196,0.126,,,,9.64246219
1715227748024213818,0.155,,,,9.650157812
1715227748031909440,0.179,,,,9.657853434
1715227748039605062,0.184,,,,9.665549056
1715227748047300684,0.191,,,,9.673244678
1715227748054996306,0.194,,,,9.6809403
1715227748062691928,0.191,,,,9.688635922
1715227748070387550,0.189,,,,9.696331544
1715227748078083172,0.186,,,,9.704027166
1715227748085778794,0.184,,,,9.711722788
1715227748093474416,0.184,,,,9.71941841
1715227748101170038,0.184,,,,9.727114032
1715227748108865660,0.172,,,,9.734809654
1715227748116561282,0.14,,,,9.742505276
1715227748124256904,0.043,,,,9.750200898
1715227748131952526,-0.281,,,,9.75789652
1715227748139648148,-0.897,,,,9.765592142
1715227748147343770,-1.253,,,,9.773287764
1715227748155039392,-0.5670000000000001,,,,9.780983386
1715227748162735014,0.603,,,,9.788679008
1715227748170430636,0.86,,,,9.79637463
1715227748178126258,0.409,,,,9.804070252
1715227748185821880,0.259,,,,9.811765874
1715227748193517502,0.269,,,,9.819461496
1715227748201213124,0.145,,,,9.827157118
1715227748208908746,0.101,,,,9.83485274
1715227748216604368,0.118,,,,9.842548362
1715227748224299990,0.08,,,,9.850243984
1715227748231995612,0.043,,,,9.857939606
1715227748239691234,0.038,,,,9.865635228
1715227748247386856,0.021,,,,9.87333085
1715227748255082478,-0.007,,,,9.881026472
1715227748262778100,-0.029,,,,9.888722094
1715227748270473722,-0.05,,,,9.896417716
1715227748278169344,-0.077,,,,9.904113338
1715227748285864966,-0.111,,,,9.91180896
1715227748293560588,-0.147,,,,9.919504582
1715227748301256210,-0.191,,,,9.927200204
1715227748308951832,-0.242,,,,9.934895826
1715227748316647454,-0.288,,,,9.942591448
1715227748324343076,-0.324,,,,9.95028707
1715227748332038698,-0.351,,,,9.957982692
1715227748339734320,-0.363,,,,9.965678314
1715227748347429942,-0.358,,,,9.973373936
1715227748355125564,-0.334,,,,9.981069558
1715227748362821186,-0.298,,,,9.98876518
1715227748370516808,-0.247,,,,9.996460802
1715227748378212430,-0.174,,,,10.004156424
1715227748385908052,-0.082,,,,10.011852046
1715227748393603674,0.019,,,,10.019547668
1715227748401299296,0.113,,,,10.02724329
1715227748408994918,0.194,,,,10.034938912
1715227748416690540,0.257,,,,10.042634534
1715227748424386162,0.303,,,,10.050330156
1715227748432081784,0.32,,,,10.058025778
1715227748439777406,0.324,,,,10.0657214
1715227748447473028,0.324,,,,10.073417022
1715227748455168650,0.315,,,,10.081112644
1715227748462864272,0.303,,,,10.088808266
1715227748470559894,0.298,,,,10.096503888
1715227748478255516,0.293,,,,10.10419951
1715227748485951162,0.281,,,,10.111895156
1715227748493646784,0.266,,,,10.119590778
1715227748501342406,0.261,,,,10.1272864
1715227748509038028,0.261,,,,10.134982022
1715227748516733650,0.252,,,,10.142677644
1715227748524429272,0.242,,,,10.150373266
1715227748532124894,0.235,,,,10.158068888
1715227748539820516,0.235,,,,10.16576451
1715227748547516138,0.227,,,,10.173460132
1715227748555211760,0.21,,,,10.181155754
1715227748562907382,0.203,,,,10.188851376
1715227748570603004,0.21,,,,10.196546998
1715227748578298626,0.215,,,,10.20424262
1715227748585994248,0.208,,,,10.211938242
1715227748593689870,0.203,,,,10.219633864
1715227748601385492,0.208,,,,10.227329486
1715227748609081114,0.208,,,,10.235025108
1715227748616776736,0.206,,,,10.24272073
1715227748624472358,0.201,,,,10.250416352
1715227748632167980,0.198,,,,10.258111974
1715227748639863602,0.198,,,,10.265807596
1715227748647559224,0.198,,,,10.273503218
1715227748655254846,0.203,,,,10.28119884
1715227748662950468,0.22,,,,10.288894462
1715227748670646090,0.232,,,,10.296590084
1715227748678341712,0.206,,,,10.304285706
1715227748686037334,0.152,,,,10.311981328
1715227748693732956,0.118,,,,10.31967695
1715227748701428578,0.111,,,,10.327372572
1715227748709124200,0.123,,,,10.335068194
1715227748716819822,0.147,,,,10.342763816
1715227748724515444,0.162,,,,10.350459438
1715227748732211066,0.169,,,,10.35815506
1715227748739906688,0.179,,,,10.365850682
1715227748747602310,0.177,,,,10.373546304
1715227748755297932,0.174,,,,10.381241926
1715227748762993554,0.177,,,,10.388937548
1715227748770689176,0.174,,,,10.39663317
1715227748778384798,0.177,,,,10.404328792
1715227748786080420,0.174,,,,10.412024414
1715227748793776042,0.157,,,,10.419720036
1715227748801471664,0.135,,,,10.427415658
1715227748809167286,0.099,,,,10.43511128
1715227748816862908,-0.053,,,,10.442806902
1715227748824558530,-0.489,,,,10.450502524
1715227748832254152,-1.045,,,,10.458198146
1715227748839949774,-0.991,,,,10.465893768
1715227748847645396,0.0,,,,10.47358939
1715227748855341018,0.86,,,,10.481285012
1715227748863036640,0.7030000000000001,,,,10.488980634
1715227748870732262,0.307,,,,10.496676256
1715227748878427884,0.276,,,,10.504371878
1715227748886123506,0.206,,,,10.5120675
1715227748893819128,0.067,,,,10.519763122
1715227748901514750,0.072,,,,10.527458744
1715227748909210372,0.077,,,,10.535154366
1715227748916905994,0.019,,,,10.542849988
1715227748924601616,0.002,,,,10.55054561
1715227748932297238,0.004,,,,10.558241232
1715227748939992860,-0.021,,,,10.565936854
1715227748947688482,-0.053,,,,10.573632476
1715227748955384104,-0.07,,,,10.581328098
1715227748963079726,-0.087,,,,10.58902372
1715227748970775348,-0.118,,,,10.596719342
1715227748978470970,-0.155,,,,10.604414964
1715227748986166592,-0.186,,,,10.612110586
1715227748993862214,-0.227,,,,10.619806208
1715227749001557836,-0.281,,,,10.62750183
1715227749009253458,-0.324,,,,10.635197452
1715227749016949080,-0.351,,,,10.642893074
1715227749024644702,-0.368,,,,10.650588696
1715227749032340324,-0.371,,,,10.658284318
1715227749040035946,-0.356,,,,10.66597994
1715227749047731592,-0.324,91.0,712.0,,10.673675586
1715227749055426796,-0.281,,687.0,,10.68137079
1715227749063122000,-0.223,,,,10.689065994
1715227749070817204,-0.14,,,,10.696761198
1715227749078512408,-0.031,,,,10.704456402
1715227749086207612,0.072,,,,10.712151606
1715227749093902816,0.15,,,,10.71984681
1715227749101598020,0.218,,,,10.727542014
1715227749109293224,0.283,,,,10.735237218
1715227749116988428,0.32,,,,10.742932422
1715227749124683632,0.337,,,,10.750627626
1715227749132378836,0.344,,,,10.75832283
1715227749140074040,0.341,,,,10.766018034
1715227749147769244,0.334,,,,10.773713238
1715227749155464448,0.324,,,,10.781408442
1715227749163159652,0.32,,,,10.789103646
1715227749170854856,0.31,,,,10.79679885
1715227749178550060,0.298,,,,10.804494054
1715227749186245264,0.286,,,,10.812189258
1715227749193940468,0.274,,,,10.819884462
1715227749201635672,0.266,,,,10.827579666
1715227749209330876,0.261,,,,10.83527487
1715227749217026080,0.257,,,,10.842970074
1715227749224721284,0.252,,,,10.850665278
1715227749232416488,0.247,,,,10.858360482
1715227749240111692,0.244,,,,10.866055686
1715227749247806896,0.242,,,,10.87375089
1715227749255502100,0.24,,,,10.881446094
1715227749263197304,0.242,,,,10.889141298
1715227749270892508,0.242,,,,10.896836502
1715227749278587712,0.24,,,,10.904531706
1715227749286282916,0.24,,,,10.91222691
1715227749293978120,0.235,,,,10.919922114
1715227749301673324,0.23,,,,10.927617318
1715227749309368528,0.225,,,,10.935312522
1715227749317063732,0.227,,,,10.943007726
1715227749324758936,0.232,,,,10.95070293
1715227749332454140,0.235,,,,10.958398134
1715227749340149344,0.252,,,,10.966093338
1715227749347844548,0.254,,,,10.973788542
1715227749355539752,0.218,,,,10.981483746
1715227749363234956,0.164,,,,10.98917895
1715227749370930160,0.135,,,,10.996874154
1715227749378625364,0.143,,,,11.004569358
1715227749386320568,0.169,,,,11.012264562
1715227749394015772,0.184,,,,11.019959766
1715227749401710976,0.184,,,,11.02765497
1715227749409406180,0.194,,,,11.035350174
1715227749417101384,0.196,,,,11.043045378
1715227749424796588,0.191,,,,11.050740582
1715227749432491792,0.191,,,,11.058435786
1715227749440186996,0.189,,,,11.06613099
1715227749447882200,0.179,,,,11.073826194
1715227749455577404,0.172,,,,11.081521398
1715227749463272608,0.172,,,,11.089216602
1715227749470967812,0.157,,,,11.096911806
1715227749478663016,0.113,,,,11.10460701
1715227749486358220,0.019,,,,11.112302214
1715227749494053424,-0.259,,,,11.119997418
1715227749501748628,-0.783,,,,11.127692622
1715227749509443832,-1.067,,,,11.135387826
1715227749517139036,-0.446,,,,11.14308303
1715227749524834240,0.623,,,,11.150778234
1715227749532529444,0.921,,,,11.158473438
1715227749540224648,0.506,,,,11.166168642
1715227749547919852,0.283,,,,11.173863846
1715227749555615056,0.244,,,,11.18155905
1715227749563310260,0.123,,,,11.189254254
1715227749571005464,0.08,,,,11.196949458
1715227749578700668,0.106,,,,11.204644662
1715227749586395872,0.077,,,,11.212339866
1715227749594091076,0.038,,,,11.22003507
1715227749601786280,0.026,,,,11.227730274
1715227749609481504,0.004,,,,11.235425498
1715227749617177126,-0.021,,,,11.24312112
1715227749624872748,-0.041,,,,11.250816742
1715227749632568370,-0.063,,,,11.258512364
1715227749640263992,-0.094,,,,11.266207986
1715227749647959614,-0.128,,,,11.273903608
1715227749655655236,-0.167,,,,11.28159923
1715227749663350858,-0.215,,,,11.289294852
1715227749671046480,-0.264,,,,11.296990474
1715227749678742102,-0.303,,,,11.304686096
1715227749686437724,-0.349,,,,11.312381718
1715227749694133346,-0.38,,,,11.32007734
1715227749701828968,-0.38,,,,11.327772962
1715227749709524590,-0.358,,,,11.335468584
1715227749717220212,-0.334,,,,11.343164206
1715227749724915834,-0.298,,,,11.350859828
1715227749732611456,-0.244,,,,11.35855545
1715227749740307078,-0.169,,,,11.366251072
1715227749748002700,-0.072,,,,11.373946694
1715227749755698322,0.029,,,,11.381642316
1715227749763393944,0.121,,,,11.389337938
1715227749771089566,0.203,,,,11.39703356
1715227749778785188,0.264,,,,11.404729182
1715227749786480810,0.298,,,,11.412424804
1715227749794176432,0.32,,,,11.420120426
1715227749801872054,0.337,,,,11.427816048
1715227749809567676,0.337,,,,11.43551167
1715227749817263298,0.329,,,,11.443207292
1715227749824958920,0.327,,,,11.450902914
1715227749832654542,0.317,,,,11.458598536
1715227749840350164,0.305,,,,11.466294158
1715227749848045786,0.295,,,,11.47398978
1715227749855741408,0.288,,,,11.481685402
1715227749863437030,0.281,,,,11.489381024
1715227749871132652,0.274,,,,11.497076646
1715227749878828274,0.264,,,,11.504772268
1715227749886523896,0.259,,,,11.51246789
1715227749894219518,0.249,,,,11.520163512
1715227749901915140,0.232,,,,11.527859134
1715227749909610762,0.225,,,,11.535554756
1715227749917306384,0.23,,,,11.543250378
1715227749925002006,0.227,,,,11.550946
1715227749932697628,0.22,,,,11.558641622
1715227749940393250,0.223,,,,11.566337244
1715227749948088872,0.227,,,,11.574032866
1715227749955784494,0.227,,,,11.581728488
1715227749963480116,0.225,,,,11.58942411
1715227749971175738,0.22,,,,11.597119732
1715227749978871360,0.225,,,,11.604815354
1715227749986566982,0.232,,,,11.612510976
1715227749994262604,0.244,,,,11.620206598
1715227750001958226,0.259,,,,11.62790222
1715227750009653848,0.24,,,,11.635597842
1715227750017349470,0.186,,,,11.643293464
1715227750025045092,0.152,,,,11.650989086
1715227750032740714,0.147,,,,11.658684708
1715227750040436336,0.162,,,,11.66638033
1715227750048131958,0.189,,,,11.674075952
1715227750055827580,0.206,,,,11.681771574
1715227750063523202,0.215,,,,11.689467196
1715227750071218824,0.223,,,,11.697162818
1715227750078914446,0.22,,,,11.70485844
1715227750086610068,0.218,,,,11.712554062
1715227750094305690,0.218,,,,11.720249684
1715227750102001312,0.218,,,,11.727945306
1715227750109696934,0.208,,,,11.735640928
1715227750117392556,0.206,,,,11.74333655
1715227750125088178,0.206,,,,11.751032172
1715227750132783800,0.184,,,,11.758727794
1715227750140479422,0.126,,,,11.766423416
1715227750148175044,-0.033,,,,11.774119038
1715227750155870666,-0.446,,,,11.78181466
1715227750163566288,-0.984,,,,11.789510282
1715227750171261934,-0.967,91.0,679.0,,11.797205928
1715227750178957138,-0.012,,,,11.804901132
1715227750186652342,0.89,,,,11.812596336
1715227750194347546,0.802,,,,11.82029154
1715227750202042750,0.395,,,,11.827986744
1715227750209737954,0.303,,,,11.835681948
1715227750217433158,0.227,,,,11.843377152
1715227750225128362,0.116,,,,11.851072356
1715227750232823566,0.118,,,,11.85876756
1715227750240518770,0.123,,,,11.866462764
1715227750248213974,0.08,,,,11.874157968
1715227750255909178,0.06,,,,11.881853172
1715227750263604382,0.048,,,,11.889548376
1715227750271299586,0.016,,,,11.89724358
1715227750278994790,0.0,,,,11.904938784
1715227750286689994,-0.014,,,,11.912633988
1715227750294385198,-0.05,,,,11.920329192
1715227750302080402,-0.082,,,,11.928024396
1715227750309775606,-0.111,,,,11.9357196
1715227750317470810,-0.155,,,,11.943414804
1715227750325166014,-0.203,,,,11.951110008
1715227750332861218,-0.247,,,,11.958805212
1715227750340556422,-0.293,,,,11.966500416
1715227750348251626,-0.329,,,,11.97419562
1715227750355946830,-0.344,,,,11.981890824
1715227750363642034,-0.339,,,,11.989586028
1715227750371337238,-0.324,,,,11.997281232
1715227750379032442,-0.298,,,,12.004976436
1715227750386727646,-0.261,,,,12.01267164
1715227750394422850,-0.203,,,,12.020366844
1715227750402118054,-0.121,,,,12.028062048
1715227750409813258,-0.031,,,,12.035757252
1715227750417508462,0.058,,,,12.043452456
1715227750425203666,0.145,,,,12.05114766
1715227750432898870,0.215,,,,12.058842864
1715227750440594074,0.269,,,,12.066538068
1715227750448289278,0.303,,,,12.074233272
1715227750455984482,0.322,,,,12.081928476
1715227750463679686,0.334,,,,12.08962368
1715227750471374890,0.334,,,,12.097318884
1715227750479070094,0.322,,,,12.105014088
1715227750486765298,0.315,,,,12.112709292
1715227750494460502,0.312,,,,12.120404496
1715227750502155706,0.307,,,,12.1280997
1715227750509850910,0.3,,,,12.135794904
1715227750517546114,0.291,,,,12.143490108
1715227750525241318,0.276,,,,12.151185312
1715227750532936522,0.266,,,,12.158880516
1715227750540631726,0.261,,,,12.16657572
1715227750548326930,0.257,,,,12.174270924
1715227750556022134,0.254,,,,12.181966128
1715227750563717338,0.259,,,,12.189661332
1715227750571412542,0.259,,,,12.197356536
1715227750579107746,0.254,,,,12.20505174
1715227750586802950,0.257,,,,12.212746944
1715227750594498154,0.249,,,,12.220442148
1715227750602193358,0.249,,,,12.228137352
1715227750609888562,0.257,,,,12.235832556
1715227750617583766,0.257,,,,12.24352776
1715227750625278970,0.247,,,,12.251222964
1715227750632974174,0.244,,,,12.258918168
1715227750640669378,0.257,,,,12.266613372
1715227750648364582,0.269,,,,12.274308576
1715227750656059786,0.274,,,,12.28200378
1715227750663754990,0.252,,,,12.289698984
1715227750671450194,0.201,,,,12.297394188
1715227750679145398,0.167,,,,12.305089392
1715227750686840602,0.162,,,,12.312784596
1715227750694535806,0.172,,,,12.3204798
1715227750702231010,0.196,,,,12.328175004
1715227750709926214,0.21,,,,12.335870208
1715227750717621418,0.218,,,,12.343565412
1715227750725316622,0.23,,,,12.351260616
1715227750733011846,0.227,90.0,689.0,,12.35895584
1715227750740707468,0.225,,673.0,,12.366651462
1715227750748403090,0.223,,,,12.374347084
1715227750756098712,0.215,,,,12.382042706
1715227750763794334,0.21,,,,12.389738328
1715227750771489956,0.21,,,,12.39743395
1715227750779185578,0.203,,,,12.405129572
1715227750786881200,0.172,,,,12.412825194
1715227750794576822,0.099,,,,12.420520816
1715227750802272444,-0.087,,,,12.428216438
1715227750809968066,-0.526,,,,12.43591206
1715227750817663688,-0.991,,,,12.443607682
1715227750825359310,-0.785,,,,12.451303304
1715227750833054932,0.218,,,,12.458998926
1715227750840750554,0.933,,,,12.466694548
1715227750848446176,0.725,,,,12.47439017
1715227750856141798,0.383,,,,12.482085792
1715227750863837420,0.332,,,,12.489781414
1715227750871533042,0.215,,,,12.497477036
1715227750879228664,0.111,,,,12.505172658
1715227750886924286,0.14,,,,12.51286828
1715227750894619908,0.126,,,,12.520563902
1715227750902315530,0.07,,,,12.528259524
1715227750910011152,0.055,,,,12.535955146
1715227750917706774,0.036,,,,12.543650768
1715227750925402396,0.004,,,,12.55134639
1715227750933098018,-0.016,,,,12.559042012
1715227750940793640,-0.033,,,,12.566737634
1715227750948489262,-0.063,,,,12.574433256
1715227750956184884,-0.097,,,,12.582128878
1715227750963880506,-0.126,,,,12.5898245
1715227750971576128,-0.162,,,,12.597520122
1715227750979271750,-0.203,,,,12.605215744
1715227750986967372,-0.247,,,,12.612911366
1715227750994662994,-0.295,,,,12.620606988
1715227751002358616,-0.322,,,,12.62830261
1715227751010054238,-0.332,,,,12.635998232
1715227751017749860,-0.329,,,,12.643693854
1715227751025445482,-0.305,,,,12.651389476
1715227751033141104,-0.274,,,,12.659085098
1715227751040836726,-0.232,,,,12.66678072
1715227751048532348,-0.164,,,,12.674476342
1715227751056227970,-0.072,,,,12.682171964
1715227751063923592,0.021,,,,12.689867586
1715227751071619214,0.109,,,,12.697563208
1715227751079314836,0.189,,,,12.70525883
1715227751087010458,0.254,,,,12.712954452
1715227751094706080,0.295,,,,12.720650074
1715227751102401702,0.32,,,,12.728345696
1715227751110097324,0.339,,,,12.736041318
1715227751117792946,0.346,,,,12.74373694
1715227751125488568,0.341,,,,12.751432562
1715227751133184190,0.327,,,,12.759128184
1715227751140879812,0.317,,,,12.766823806
1715227751148575434,0.315,,,,12.774519428
1715227751156271056,0.303,,,,12.78221505
1715227751163966678,0.286,,,,12.789910672
1715227751171662300,0.271,,,,12.797606294
1715227751179357922,0.266,,,,12.805301916
1715227751187053544,0.261,,,,12.812997538
1715227751194749166,0.249,,,,12.82069316
1715227751202444788,0.244,,,,12.828388782
1715227751210140410,0.247,,,,12.836084404
1715227751217836032,0.242,,,,12.843780026
1715227751225531654,0.237,,,,12.851475648
1715227751233227276,0.235,,,,12.85917127
1715227751240922898,0.24,,,,12.866866892
1715227751248618520,0.242,,,,12.874562514
1715227751256314142,0.24,,,,12.882258136
1715227751264009764,0.242,,,,12.889953758
1715227751271705386,0.244,,,,12.89764938
1715227751279401008,0.254,,,,12.905345002
1715227751287096630,0.271,,,,12.913040624
1715227751294792278,0.257,,,,12.920736272
1715227751302487482,0.213,,,,12.928431476
1715227751310182686,0.177,,,,12.93612668
1715227751317877890,0.167,,,,12.943821884
1715227751325573094,0.169,,,,12.951517088
1715227751333268298,0.189,,,,12.959212292
1715227751340963502,0.213,,,,12.966907496
1715227751348658706,0.225,,,,12.9746027
1715227751356353910,0.232,,,,12.982297904
1715227751364049114,0.23,,,,12.989993108
1715227751371744318,0.213,,,,12.997688312
1715227751379439522,0.206,,,,13.005383516
1715227751387134726,0.215,,,,13.01307872
1715227751394829930,0.213,,,,13.020773924
1715227751402525134,0.196,,,,13.028469128
1715227751410220338,0.184,,,,13.036164332
1715227751417915542,0.164,,,,13.043859536
1715227751425610746,0.121,,,,13.05155474
1715227751433305950,-0.016,,,,13.059249944
1715227751441001154,-0.378,,,,13.066945148
1715227751448696358,-0.928,,,,13.074640352
1715227751456391562,-1.101,,,,13.082335556
1715227751464086766,-0.3,,,,13.09003076
1715227751471781970,0.756,,,,13.097725964
1715227751479477174,0.899,,,,13.105421168
1715227751487172378,0.48,,,,13.113116372
1715227751494867582,0.312,,,,13.120811576
1715227751502562786,0.257,,,,13.12850678
1715227751510257990,0.135,,,,13.136201984
1715227751517953194,0.118,,,,13.143897188
1715227751525648398,0.133,,,,13.151592392
1715227751533343602,0.089,,,,13.159287596
1715227751541038806,0.067,,,,13.1669828
1715227751548734010,0.065,,,,13.174678004
1715227751556429214,0.041,,,,13.182373208
1715227751564124418,0.021,,,,13.190068412
1715227751571819622,0.007,,,,13.197763616
1715227751579514826,-0.021,,,,13.20545882
1715227751587210030,-0.055,,,,13.213154024
1715227751594905234,-0.089,,,,13.220849228
1715227751602600438,-0.118,,,,13.228544432
1715227751610295642,-0.162,,,,13.236239636
1715227751617990846,-0.215,,,,13.24393484
1715227751625686050,-0.264,,,,13.251630044
1715227751633381254,-0.303,,,,13.259325248
1715227751641076458,-0.322,,,,13.267020452
1715227751648771662,-0.327,,,,13.274715656
1715227751656466866,-0.317,,,,13.28241086
1715227751664162070,-0.293,,,,13.290106064
1715227751671857274,-0.257,,,,13.297801268
1715227751679552478,-0.206,,,,13.305496472
1715227751687247682,-0.128,,,,13.313191676
1715227751694942886,-0.033,,,,13.32088688
1715227751702638090,0.06,,,,13.328582084
1715227751710333294,0.15,,,,13.336277288
1715227751718028498,0.227,,,,13.343972492
1715227751725723702,0.281,,,,13.351667696
1715227751733418906,0.307,,,,13.3593629
1715227751741114110,0.329,,,,13.367058104
1715227751748809314,0.341,,,,13.374753308
1715227751756504518,0.341,,,,13.382448512
1715227751764199722,0.334,,,,13.390143716
1715227751771894926,0.322,,,,13.39783892
1715227751779590130,0.315,,,,13.405534124
1715227751787285334,0.31,,,,13.413229328
1715227751794980538,0.293,,,,13.420924532
1715227751802675742,0.283,,,,13.428619736
1715227751810370946,0.278,,,,13.43631494
1715227751818066150,0.266,,,,13.444010144
1715227751825761354,0.257,,,,13.451705348
1715227751833456558,0.252,,,,13.459400552
1715227751841151762,0.247,,,,13.467095756
1715227751848846966,0.247,,,,13.47479096
1715227751856542190,0.244,90.0,659.0,,13.482486184
1715227751864237812,0.242,,,,13.490181806
1715227751871933434,0.244,,,,13.497877428
1715227751879629056,0.244,,,,13.50557305
1715227751887324678,0.242,,,,13.513268672
1715227751895020300,0.24,,,,13.520964294
1715227751902715922,0.232,,,,13.528659916
1715227751910411544,0.208,,,,13.536355538
1715227751918107166,0.206,,,,13.54405116
1715227751925802788,0.232,,,,13.551746782
1715227751933498410,0.218,,,,13.559442404
1715227751941194032,0.162,,,,13.567138026
1715227751948889654,0.135,,,,13.574833648
1715227751956585276,0.13,,,,13.58252927
1715227751964280898,0.143,,,,13.590224892
1715227751971976520,0.172,,,,13.597920514
1715227751979672142,0.191,,,,13.605616136
1715227751987367764,0.201,,,,13.613311758
1715227751995063386,0.208,,,,13.62100738
1715227752002759008,0.206,,,,13.628703002
1715227752010454630,0.201,,,,13.636398624
1715227752018150252,0.208,,,,13.644094246
1715227752025845874,0.21,,,,13.651789868
1715227752033541496,0.198,,,,13.65948549
1715227752041237118,0.196,,,,13.667181112
1715227752048932740,0.191,,,,13.674876734
1715227752056628362,0.162,,,,13.682572356
1715227752064323984,0.097,,,,13.690267978
1715227752072019606,-0.084,,,,13.6979636
1715227752079715228,-0.538,,,,13.705659222
1715227752087410850,-1.079,,,,13.713354844
1715227752095106472,-0.948,,,,13.721050466
1715227752102802094,0.106,,,,13.728746088
1715227752110497716,0.933,,,,13.73644171
1715227752118193338,0.756,,,,13.744137332
1715227752125888960,0.378,,,,13.751832954
1715227752133584582,0.312,,,,13.759528576
1715227752141280204,0.23,,,,13.767224198
1715227752148975826,0.126,,,,13.77491982
1715227752156671448,0.138,,,,13.782615442
1715227752164367070,0.143,,,,13.790311064
1715227752172062692,0.099,,,,13.798006686
1715227752179758314,0.08,,,,13.805702308
1715227752187453936,0.07,,,,13.81339793
1715227752195149558,0.043,,,,13.821093552
1715227752202845180,0.031,,,,13.828789174
1715227752210540802,0.016,,,,13.836484796
1715227752218236424,-0.016,,,,13.844180418
1715227752225932046,-0.043,,,,13.85187604
1715227752233627668,-0.072,,,,13.859571662
1715227752241323290,-0.111,,,,13.867267284
1715227752249018912,-0.16,,,,13.874962906
1715227752256714534,-0.201,,,,13.882658528
1715227752264410156,-0.235,,,,13.89035415
1715227752272105778,-0.271,,,,13.898049772
1715227752279801400,-0.291,,,,13.905745394
1715227752287497022,-0.276,,,,13.913441016
1715227752295192644,-0.249,,,,13.921136638
1715227752302888266,-0.223,,,,13.92883226
1715227752310583888,-0.191,,,,13.936527882
1715227752318279510,-0.135,,,,13.944223504
1715227752325975132,-0.048,,,,13.951919126
1715227752333670754,0.038,,,,13.959614748
1715227752341366376,0.126,,,,13.96731037
1715227752349061998,0.21,,,,13.975005992
1715227752356757620,0.274,,,,13.982701614
1715227752364453242,0.31,,,,13.990397236
1715227752372148864,0.324,,,,13.998092858
1715227752379844486,0.339,,,,14.00578848
1715227752387540108,0.341,,,,14.013484102
1715227752395235730,0.327,,,,14.021179724
1715227752402931352,0.31,,,,14.028875346
1715227752410626974,0.293,,,,14.036570968
1715227752418322620,0.274,,,,14.044266614
1715227752426017963,0.264,,,,14.051961957
1715227752433713306,0.259,,,,14.0596573
1715227752441408649,0.252,,,,14.067352643
1715227752449103992,0.242,,,,14.075047986
1715227752456799335,0.232,,,,14.082743329
1715227752464494678,0.227,,,,14.090438672
1715227752472190021,0.225,,,,14.098134015
1715227752479885364,0.22,,,,14.105829358
1715227752487580707,0.213,,,,14.113524701
1715227752495276050,0.21,,,,14.121220044
1715227752502971393,0.215,,,,14.128915387
1715227752510666736,0.213,,,,14.13661073
1715227752518362079,0.21,,,,14.144306073
1715227752526057422,0.22,,,,14.152001416
1715227752533752765,0.223,,,,14.159696759
1715227752541448108,0.227,,,,14.167392102
1715227752549143451,0.242,,,,14.175087445
1715227752556838794,0.244,,,,14.182782788
1715227752564534137,0.206,,,,14.190478131
1715227752572229480,0.162,,,,14.198173474
1715227752579924823,0.155,,,,14.205868817
1715227752587620166,0.16,,,,14.21356416
1715227752595315509,0.167,,,,14.221259503
1715227752603010852,0.194,,,,14.228954846
1715227752610706195,0.21,,,,14.236650189
1715227752618401538,0.22,,,,14.244345532
1715227752626096881,0.227,,,,14.252040875
1715227752633792224,0.223,,,,14.259736218
1715227752641487567,0.215,,,,14.267431561
1715227752649182910,0.208,,,,14.275126904
1715227752656878253,0.206,,,,14.282822247
1715227752664573596,0.203,,,,14.29051759
1715227752672268939,0.198,,,,14.298212933
1715227752679964282,0.196,,,,14.305908276
1715227752687659625,0.167,,,,14.313603619
1715227752695354968,0.065,,,,14.321298962
1715227752703050311,-0.196,,,,14.328994305
1715227752710745654,-0.717,,,,14.336689648
1715227752718440997,-1.173,,,,14.344384991
1715227752726136340,-0.776,,,,14.352080334
1715227752733831683,0.39,,,,14.359775677
1715227752741527026,0.972,,,,14.36747102
1715227752749222369,0.615,,,,14.375166363
1715227752756917712,0.32,,,,14.382861706
1715227752764613055,0.303,,,,14.390557049
1715227752772308398,0.186,,,,14.398252392
1715227752780003741,0.113,,,,14.405947735
1715227752787699084,0.152,,,,14.413643078
1715227752795394427,0.13,,,,14.421338421
1715227752803089770,0.087,,,,14.429033764
1715227752810785113,0.087,,,,14.436729107
1715227752818480456,0.072,,,,14.44442445
1715227752826175799,0.041,,,,14.452119793
1715227752833871142,0.021,,,,14.459815136
1715227752841566485,0.002,,,,14.467510479
1715227752849261828,-0.031,,,,14.475205822
1715227752856957171,-0.065,,,,14.482901165
1715227752864652514,-0.092,,,,14.490596508
1715227752872347857,-0.135,,,,14.498291851
1715227752880043200,-0.189,,,,14.505987194
1715227752887738543,-0.232,,,,14.513682537
1715227752895433886,-0.274,,,,14.52137788
1715227752903129229,-0.31,,,,14.529073223
1715227752910824572,-0.329,,,,14.536768566
1715227752918519915,-0.329,,,,14.544463909
1715227752926215258,-0.307,,,,14.552159252
1715227752933910601,-0.269,,,,14.559854595
1715227752941605944,-0.215,,,,14.567549938
1715227752949301287,-0.14,,,,14.575245281
1715227752956996630,-0.046,,,,14.582940624
1715227752964691973,0.053,,,,14.590635967
1715227752972387316,0.14,,,,14.59833131
1715227752980082706,0.22,90.0,652.0,,14.6060267
1715227752987778188,0.283,,635.0,,14.613722182
1715227752995473670,0.32,,,,14.621417664
1715227753003169152,0.346,,,,14.629113146
1715227753010864634,0.351,,,,14.636808628
1715227753018560116,0.339,,,,14.64450411
1715227753026255598,0.332,,,,14.652199592
1715227753033951080,0.324,,,,14.659895074
1715227753041646562,0.31,,,,14.667590556
1715227753049342044,0.295,,,,14.675286038
1715227753057037526,0.286,,,,14.68298152
1715227753064733008,0.266,,,,14.690677002
1715227753072428490,0.249,,,,14.698372484
1715227753080123972,0.252,,,,14.706067966
1715227753087819454,0.249,,,,14.713763448
1715227753095514936,0.244,,,,14.72145893
1715227753103210418,0.244,,,,14.729154412
1715227753110905900,0.235,,,,14.736849894
1715227753118601382,0.223,,,,14.744545376
1715227753126296864,0.223,,,,14.752240858
1715227753133992346,0.22,,,,14.75993634
1715227753141687828,0.213,,,,14.767631822
1715227753149383310,0.213,,,,14.775327304
1715227753157078792,0.213,,,,14.783022786
1715227753164774274,0.218,,,,14.790718268
1715227753172469756,0.227,,,,14.79841375
1715227753180165238,0.247,,,,14.806109232
1715227753187860720,0.242,,,,14.813804714
1715227753195556202,0.196,,,,14.821500196
1715227753203251684,0.157,,,,14.829195678
1715227753210947166,0.147,,,,14.83689116
1715227753218642648,0.157,,,,14.844586642
1715227753226338130,0.181,,,,14.852282124
1715227753234033612,0.201,,,,14.859977606
1715227753241729094,0.21,,,,14.867673088
1715227753249424576,0.215,,,,14.87536857
1715227753257120058,0.213,,,,14.883064052
1715227753264815540,0.213,,,,14.890759534
1715227753272511022,0.21,,,,14.898455016
1715227753280206504,0.208,,,,14.906150498
1715227753287901986,0.203,,,,14.91384598
1715227753295597468,0.191,,,,14.921541462
1715227753303292950,0.184,,,,14.929236944
1715227753310988432,0.157,,,,14.936932426
1715227753318683914,0.099,,,,14.944627908
1715227753326379396,-0.046,,,,14.95232339
1715227753334074878,-0.446,,,,14.960018872
1715227753341770360,-0.982,,,,14.967714354
1715227753349465842,-0.979,,,,14.975409836
1715227753357161324,-0.043,,,,14.983105318
1715227753364856806,0.875,,,,14.9908008
1715227753372552288,0.807,,,,14.998496282
1715227753380247770,0.4,,,,15.006191764
1715227753387943252,0.324,,,,15.013887246
1715227753395638734,0.252,,,,15.021582728
1715227753403334216,0.123,,,,15.02927821
1715227753411029698,0.128,,,,15.036973692
1715227753418725180,0.133,,,,15.044669174
1715227753426420662,0.077,,,,15.052364656
1715227753434116144,0.058,,,,15.060060138
1715227753441811626,0.06,,,,15.06775562
1715227753449507108,0.036,,,,15.075451102
1715227753457202590,0.014,,,,15.083146584
1715227753464898072,0.0,,,,15.090842066
1715227753472593554,-0.031,,,,15.098537548
1715227753480289036,-0.065,,,,15.10623303
1715227753487984518,-0.092,,,,15.113928512
1715227753495680000,-0.128,,,,15.121623994
1715227753503375482,-0.179,,,,15.129319476
1715227753511070964,-0.23,,,,15.137014958
1715227753518766446,-0.269,,,,15.14471044
1715227753526461928,-0.293,,,,15.152405922
1715227753534157410,-0.305,,,,15.160101404
1715227753541852962,-0.298,,,,15.167796956
1715227753549548166,-0.274,,,,15.17549216
1715227753557243370,-0.237,,,,15.183187364
1715227753564938574,-0.191,,,,15.190882568
1715227753572633778,-0.13,,,,15.198577772
1715227753580328982,-0.033,,,,15.206272976
1715227753588024186,0.07,,,,15.21396818
1715227753595719390,0.152,,,,15.221663384
1715227753603414594,0.235,,,,15.229358588
1715227753611109798,0.305,,,,15.237053792
1715227753618805002,0.344,,,,15.244748996
1715227753626500206,0.366,,,,15.2524442
1715227753634195410,0.375,,,,15.260139404
1715227753641890614,0.38,,,,15.267834608
1715227753649585818,0.378,,,,15.275529812
1715227753657281022,0.363,,,,15.283225016
1715227753664976226,0.354,,,,15.29092022
1715227753672671430,0.344,,,,15.298615424
1715227753680366634,0.329,,,,15.306310628
1715227753688061838,0.32,,,,15.314005832
1715227753695757042,0.305,,,,15.321701036
1715227753703452246,0.286,,,,15.32939624
1715227753711147450,0.266,,,,15.337091444
1715227753718842654,0.254,,,,15.344786648
1715227753726537858,0.249,,,,15.352481852
1715227753734233062,0.24,,,,15.360177056
1715227753741928266,0.23,,,,15.36787226
1715227753749623470,0.227,,,,15.375567464
1715227753757318674,0.227,,,,15.383262668
1715227753765013878,0.223,,,,15.390957872
1715227753772709082,0.227,,,,15.398653076
1715227753780404286,0.261,,,,15.40634828
1715227753788099490,0.278,,,,15.414043484
1715227753795794694,0.237,,,,15.421738688
1715227753803489898,0.186,,,,15.429433892
1715227753811185102,0.169,,,,15.437129096
1715227753818880306,0.172,,,,15.4448243
1715227753826575510,0.177,,,,15.452519504
1715227753834270714,0.196,,,,15.460214708
1715227753841965918,0.218,,,,15.467909912
1715227753849661122,0.23,,,,15.475605116
1715227753857356326,0.235,,,,15.48330032
1715227753865051530,0.237,,,,15.490995524
1715227753872746734,0.227,,,,15.498690728
1715227753880441938,0.223,,,,15.506385932
1715227753888137142,0.22,,,,15.514081136
1715227753895832346,0.21,,,,15.52177634
1715227753903527550,0.206,,,,15.529471544
1715227753911222754,0.203,,,,15.537166748
1715227753918917958,0.172,,,,15.544861952
1715227753926613162,0.084,,,,15.552557156
1715227753934308366,-0.15,,,,15.56025236
1715227753942003570,-0.63,,,,15.567947564
1715227753949698774,-1.113,,,,15.575642768
1715227753957393978,-0.877,,,,15.583337972
1715227753965089182,0.223,,,,15.591033176
1715227753972784386,1.011,,,,15.59872838
1715227753980479590,0.783,,,,15.606423584
1715227753988174794,0.368,,,,15.614118788
1715227753995869998,0.278,,,,15.621813992
1715227754003565202,0.201,,,,15.629509196
1715227754011260406,0.116,,,,15.6372044
1715227754018955610,0.128,,,,15.644899604
1715227754026650814,0.118,,,,15.652594808
1715227754034346018,0.072,,,,15.660290012
1715227754042041222,0.065,,,,15.667985216
1715227754049736426,0.06,,,,15.67568042
1715227754057431630,0.033,,,,15.683375624
1715227754065126834,0.012,,,,15.691070828
1715227754072822038,-0.009,,,,15.698766032
1715227754080517242,-0.038,,,,15.706461236
1715227754088212446,-0.065,,,,15.71415644
1715227754095907650,-0.101,,,,15.721851644
1715227754103602874,-0.145,91.0,636.0,,15.729546868
1715227754111298496,-0.191,,629.0,,15.73724249
1715227754118994118,-0.24,,,,15.744938112
1715227754126689740,-0.288,,,,15.752633734
1715227754134385362,-0.329,,,,15.760329356
1715227754142080984,-0.339,,,,15.768024978
1715227754149776606,-0.322,,,,15.7757206
1715227754157472228,-0.295,,,,15.783416222
1715227754165167850,-0.259,,,,15.791111844
1715227754172863472,-0.208,,,,15.798807466
1715227754180559094,-0.128,,,,15.806503088
1715227754188254716,-0.029,,,,15.81419871
1715227754195950338,0.065,,,,15.821894332
1715227754203645960,0.16,,,,15.829589954
1715227754211341582,0.242,,,,15.837285576
1715227754219037204,0.298,,,,15.844981198
1715227754226732826,0.339,,,,15.85267682
1715227754234428448,0.358,,,,15.860372442
1715227754242124070,0.371,,,,15.868068064
1715227754249819692,0.378,,,,15.875763686
1715227754257515314,0.371,,,,15.883459308
1715227754265210936,0.358,,,,15.89115493
1715227754272906558,0.349,,,,15.898850552
1715227754280602180,0.339,,,,15.906546174
1715227754288297802,0.329,,,,15.914241796
1715227754295993424,0.315,,,,15.921937418
1715227754303689046,0.303,,,,15.92963304
1715227754311384668,0.288,,,,15.937328662
1715227754319080290,0.281,,,,15.945024284
1715227754326775912,0.281,,,,15.952719906
1715227754334471534,0.274,,,,15.960415528
1715227754342167156,0.266,,,,15.96811115
1715227754349862778,0.254,,,,15.975806772
1715227754357558400,0.242,,,,15.983502394
1715227754365254022,0.237,,,,15.991198016
1715227754372949644,0.227,,,,15.998893638
1715227754380645266,0.227,,,,16.00658926
1715227754388340888,0.235,,,,16.014284882
1715227754396036510,0.235,,,,16.021980504
1715227754403732132,0.247,,,,16.029676126
1715227754411427754,0.247,,,,16.037371748
1715227754419123376,0.208,,,,16.04506737
1715227754426818998,0.162,,,,16.052762992
1715227754434514620,0.138,,,,16.060458614
1715227754442210242,0.135,,,,16.068154236
1715227754449905864,0.157,,,,16.075849858
1715227754457601486,0.186,,,,16.08354548
1715227754465297108,0.201,,,,16.091241102
1715227754472992730,0.21,,,,16.098936724
1715227754480688352,0.22,,,,16.106632346
1715227754488383974,0.215,,,,16.114327968
1715227754496079596,0.201,,,,16.12202359
1715227754503775218,0.206,,,,16.129719212
1715227754511470840,0.21,,,,16.137414834
1715227754519166462,0.203,,,,16.145110456
1715227754526862084,0.198,,,,16.152806078
1715227754534557706,0.189,,,,16.1605017
1715227754542253328,0.155,,,,16.168197322
1715227754549948950,0.038,,,,16.175892944
1715227754557644572,-0.266,,,,16.183588566
1715227754565340194,-0.805,,,,16.191284188
1715227754573035816,-1.178,,,,16.19897981
1715227754580731438,-0.652,,,,16.206675432
1715227754588427060,0.523,,,,16.214371054
1715227754596122682,1.037,,,,16.222066676
1715227754603818304,0.654,,,,16.229762298
1715227754611513926,0.329,,,,16.23745792
1715227754619209548,0.266,,,,16.245153542
1715227754626905170,0.169,,,,16.252849164
1715227754634600792,0.111,,,,16.260544786
1715227754642296414,0.126,,,,16.268240408
1715227754649992036,0.104,,,,16.27593603
1715227754657687658,0.072,,,,16.283631652
1715227754665383306,0.07,,,,16.2913273
1715227754673078928,0.05,,,,16.299022922
1715227754680774550,0.021,,,,16.306718544
1715227754688470172,0.007,,,,16.314414166
1715227754696165794,-0.012,,,,16.322109788
1715227754703861416,-0.038,,,,16.32980541
1715227754711557038,-0.072,,,,16.337501032
1715227754719252660,-0.109,,,,16.345196654
1715227754726948282,-0.155,,,,16.352892276
1715227754734643904,-0.213,,,,16.360587898
1715227754742339526,-0.257,,,,16.36828352
1715227754750035148,-0.291,,,,16.375979142
1715227754757730770,-0.317,,,,16.383674764
1715227754765426392,-0.327,,,,16.391370386
1715227754773122014,-0.315,,,,16.399066008
1715227754780817636,-0.281,,,,16.40676163
1715227754788513258,-0.24,,,,16.414457252
1715227754796208880,-0.191,,,,16.422152874
1715227754803904502,-0.109,,,,16.429848496
1715227754811600124,-0.012,,,,16.437544118
1715227754819295746,0.08,,,,16.44523974
1715227754826991368,0.169,,,,16.452935362
1715227754834686990,0.249,,,,16.460630984
1715227754842382612,0.315,,,,16.468326606
1715227754850078234,0.354,,,,16.476022228
1715227754857773856,0.363,,,,16.48371785
1715227754865469478,0.366,,,,16.491413472
1715227754873165100,0.366,,,,16.499109094
1715227754880860722,0.366,,,,16.506804716
1715227754888556344,0.356,,,,16.514500338
1715227754896251966,0.346,,,,16.52219596
1715227754903947588,0.341,,,,16.529891582
1715227754911643210,0.322,,,,16.537587204
1715227754919338832,0.307,,,,16.545282826
1715227754927034454,0.303,,,,16.552978448
1715227754934730076,0.281,,,,16.56067407
1715227754942425698,0.261,,,,16.568369692
1715227754950121320,0.254,,,,16.576065314
1715227754957816942,0.249,,,,16.583760936
1715227754965512564,0.247,,,,16.591456558
1715227754973208186,0.24,,,,16.59915218
1715227754980903808,0.237,,,,16.606847802
1715227754988599430,0.235,,,,16.614543424
1715227754996295052,0.23,,,,16.622239046
1715227755003990674,0.223,,,,16.629934668
1715227755011686296,0.218,,,,16.63763029
1715227755019381918,0.235,,,,16.645325912
1715227755027077540,0.254,,,,16.653021534
1715227755034773162,0.227,,,,16.660717156
1715227755042468784,0.174,,,,16.668412778
1715227755050164406,0.143,,,,16.6761084
1715227755057860028,0.14,,,,16.683804022
1715227755065555650,0.16,,,,16.691499644
1715227755073251272,0.181,,,,16.699195266
1715227755080946894,0.206,,,,16.706890888
1715227755088642516,0.218,,,,16.71458651
1715227755096338138,0.213,,,,16.722282132
1715227755104033760,0.21,,,,16.729977754
1715227755111729382,0.203,,,,16.737673376
1715227755119425004,0.201,,,,16.745368998
1715227755127120626,0.201,,,,16.75306462
1715227755134816248,0.191,,,,16.760760242
1715227755142511870,0.191,,,,16.768455864
1715227755150207492,0.191,,,,16.776151486
1715227755157903114,0.169,,,,16.783847108
1715227755165598736,0.123,,,,16.79154273
1715227755173294358,-0.029,,,,16.799238352
1715227755180989980,-0.426,,,,16.806933974
1715227755188685602,-0.999,,,,16.814629596
1715227755196381224,-1.12,,,,16.822325218
1715227755204076846,-0.237,,,,16.83002084
1715227755211772468,0.8260000000000001,,,,16.837716462
1715227755219468090,0.921,,,,16.845412084
1715227755227163736,0.475,92.0,626.0,,16.85310773
1715227755234859358,0.303,,,,16.860803352
1715227755242554980,0.244,,,,16.868498974
1715227755250250602,0.133,,,,16.876194596
1715227755257946224,0.121,,,,16.883890218
1715227755265641846,0.14,,,,16.89158584
1715227755273337468,0.097,,,,16.899281462
1715227755281033090,0.07,,,,16.906977084
1715227755288728712,0.07,,,,16.914672706
1715227755296424334,0.043,,,,16.922368328
1715227755304119956,0.007,,,,16.93006395
1715227755311815578,-0.019,,,,16.937759572
1715227755319511200,-0.036,,,,16.945455194
1715227755327206822,-0.065,,,,16.953150816
1715227755334902444,-0.106,,,,16.960846438
1715227755342598066,-0.135,,,,16.96854206
1715227755350293688,-0.174,,,,16.976237682
1715227755357989310,-0.232,,,,16.983933304
1715227755365684932,-0.274,,,,16.991628926
1715227755373380554,-0.305,,,,16.999324548
1715227755381076176,-0.322,,,,17.00702017
1715227755388771798,-0.317,,,,17.014715792
1715227755396467420,-0.3,,,,17.022411414
1715227755404163042,-0.264,,,,17.030107036
1715227755411858664,-0.23,,,,17.037802658
1715227755419554286,-0.174,,,,17.04549828
1715227755427249908,-0.08,,,,17.053193902
1715227755434945530,0.019,,,,17.060889524
1715227755442641152,0.104,,,,17.068585146
1715227755450336774,0.181,,,,17.076280768
1715227755458032396,0.249,,,,17.08397639
1715227755465728018,0.3,,,,17.091672012
1715227755473423640,0.322,,,,17.099367634
1715227755481119262,0.339,,,,17.107063256
1715227755488814884,0.354,,,,17.114758878
1715227755496510506,0.351,,,,17.1224545
1715227755504206128,0.349,,,,17.130150122
1715227755511901750,0.334,,,,17.137845744
1715227755519597372,0.322,,,,17.145541366
1715227755527292994,0.315,,,,17.153236988
1715227755534988616,0.303,,,,17.16093261
1715227755542684238,0.295,,,,17.168628232
1715227755550379860,0.286,,,,17.176323854
1715227755558075482,0.276,,,,17.184019476
1715227755565771104,0.271,,,,17.191715098
1715227755573466726,0.257,,,,17.19941072
1715227755581162348,0.252,,,,17.207106342
1715227755588857970,0.257,,,,17.214801964
1715227755596553592,0.247,,,,17.222497586
1715227755604249214,0.232,,,,17.230193208
1715227755611944836,0.232,,,,17.23788883
1715227755619640458,0.235,,,,17.245584452
1715227755627336080,0.23,,,,17.253280074
1715227755635031702,0.223,,,,17.260975696
1715227755642727324,0.223,,,,17.268671318
1715227755650422946,0.223,,,,17.27636694
1715227755658118568,0.223,,,,17.284062562
1715227755665814190,0.237,,,,17.291758184
1715227755673509812,0.254,,,,17.299453806
1715227755681205434,0.232,,,,17.307149428
1715227755688901056,0.172,,,,17.31484505
1715227755696596678,0.133,,,,17.322540672
1715227755704292300,0.135,,,,17.330236294
1715227755711987922,0.155,,,,17.337931916
1715227755719683544,0.179,,,,17.345627538
1715227755727379166,0.203,,,,17.35332316
1715227755735074788,0.213,,,,17.361018782
1715227755742770410,0.218,,,,17.368714404
1715227755750466032,0.215,,,,17.376410026
1715227755758161654,0.213,,,,17.384105648
1715227755765857276,0.215,,,,17.39180127
1715227755773552898,0.215,,,,17.399496892
1715227755781248520,0.21,,,,17.407192514
1715227755788944166,0.203,93.0,606.0,,17.41488816
1715227755796639788,0.198,,621.0,,17.422583782
1715227755804335410,0.196,,,,17.430279404
1715227755812031032,0.157,,,,17.437975026
1715227755819726654,0.046,,,,17.445670648
1715227755827422276,-0.254,,,,17.45336627
1715227755835117898,-0.8140000000000001,,,,17.461061892
1715227755842813520,-1.159,,,,17.468757514
1715227755850509142,-0.552,,,,17.476453136
1715227755858204764,0.615,,,,17.484148758
1715227755865900386,1.013,,,,17.49184438
1715227755873596008,0.5690000000000001,,,,17.499540002
1715227755881291630,0.286,,,,17.507235624
1715227755888987252,0.254,,,,17.514931246
1715227755896682874,0.152,,,,17.522626868
1715227755904378496,0.106,,,,17.53032249
1715227755912074118,0.128,,,,17.538018112
1715227755919769740,0.097,,,,17.545713734
1715227755927465362,0.063,,,,17.553409356
1715227755935160984,0.065,,,,17.561104978
1715227755942856606,0.048,,,,17.5688006
1715227755950552228,0.007,,,,17.576496222
1715227755958247850,-0.016,,,,17.584191844
1715227755965943472,-0.033,,,,17.591887466
1715227755973639094,-0.065,,,,17.599583088
1715227755981334716,-0.092,,,,17.60727871
1715227755989030338,-0.121,,,,17.614974332
1715227755996725960,-0.164,,,,17.622669954
1715227756004421582,-0.208,,,,17.630365576
1715227756012117204,-0.254,,,,17.638061198
1715227756019812826,-0.295,,,,17.64575682
1715227756027508448,-0.315,,,,17.653452442
1715227756035204070,-0.317,,,,17.661148064
1715227756042899692,-0.307,,,,17.668843686
1715227756050595314,-0.281,,,,17.676539308
1715227756058290936,-0.24,,,,17.68423493
1715227756065986558,-0.189,,,,17.691930552
1715227756073682180,-0.111,,,,17.699626174
1715227756081377802,-0.007,,,,17.707321796
1715227756089073424,0.089,,,,17.715017418
1715227756096769046,0.174,,,,17.72271304
1715227756104464668,0.259,,,,17.730408662
1715227756112160290,0.317,,,,17.738104284
1715227756119855912,0.349,,,,17.745799906
1715227756127551534,0.375,,,,17.753495528
1715227756135247156,0.388,,,,17.76119115
1715227756142942778,0.385,,,,17.768886772
1715227756150638400,0.38,,,,17.776582394
1715227756158334022,0.373,,,,17.784278016
1715227756166029644,0.366,,,,17.791973638
1715227756173725266,0.351,,,,17.79966926
1715227756181420888,0.339,,,,17.807364882
1715227756189116510,0.332,,,,17.815060504
1715227756196812132,0.32,,,,17.822756126
1715227756204507754,0.303,,,,17.830451748
1715227756212203376,0.298,,,,17.83814737
1715227756219898998,0.3,,,,17.845842992
1715227756227594620,0.291,,,,17.853538614
1715227756235290242,0.281,,,,17.861234236
1715227756242985864,0.281,,,,17.868929858
1715227756250681486,0.276,,,,17.87662548
1715227756258377108,0.266,,,,17.884321102
1715227756266072730,0.264,,,,17.892016724
1715227756273768352,0.259,,,,17.899712346
1715227756281463974,0.259,,,,17.907407968
1715227756289159596,0.259,,,,17.91510359
1715227756296855218,0.259,,,,17.922799212
1715227756304550840,0.274,,,,17.930494834
1715227756312246462,0.286,,,,17.938190456
1715227756319942084,0.266,,,,17.945886078
1715227756327637706,0.213,,,,17.9535817
1715227756335333328,0.169,,,,17.961277322
1715227756343028950,0.16,,,,17.968972944
1715227756350724596,0.179,,,,17.97666859
1715227756358419869,0.208,,,,17.984363863
1715227756366115142,0.223,,,,17.992059136
1715227756373810415,0.23,,,,17.999754409
1715227756381505688,0.237,,,,18.007449682
1715227756389200961,0.232,,,,18.015144955
1715227756396896234,0.23,,,,18.022840228
1715227756404591507,0.23,,,,18.030535501
1715227756412286780,0.215,,,,18.038230774
1715227756419982053,0.208,,,,18.045926047
1715227756427677326,0.21,,,,18.05362132
1715227756435372599,0.203,,,,18.061316593
1715227756443067872,0.177,,,,18.069011866
1715227756450763145,0.121,,,,18.076707139
1715227756458458418,-0.038,,,,18.084402412
1715227756466153691,-0.451,,,,18.092097685
1715227756473848964,-1.02,,,,18.099792958
1715227756481544237,-1.074,,,,18.107488231
1715227756489239510,-0.13,,,,18.115183504
1715227756496934783,0.843,,,,18.122878777
1715227756504630056,0.793,,,,18.13057405
1715227756512325329,0.361,,,,18.138269323
1715227756520020602,0.271,,,,18.145964596
1715227756527715875,0.215,,,,18.153659869
1715227756535411148,0.106,,,,18.161355142
1715227756543106421,0.113,,,,18.169050415
1715227756550801694,0.121,,,,18.176745688
1715227756558496967,0.075,,,,18.184440961
1715227756566192240,0.06,,,,18.192136234
1715227756573887513,0.05,,,,18.199831507
1715227756581582786,0.024,,,,18.20752678
1715227756589278059,0.0,,,,18.215222053
1715227756596973332,-0.016,,,,18.222917326
1715227756604668605,-0.036,,,,18.230612599
1715227756612363878,-0.07,,,,18.238307872
1715227756620059151,-0.111,,,,18.246003145
1715227756627754424,-0.15,,,,18.253698418
1715227756635449697,-0.189,,,,18.261393691
1715227756643144970,-0.23,,,,18.269088964
1715227756650840243,-0.274,,,,18.276784237
1715227756658535516,-0.307,,,,18.28447951
1715227756666230789,-0.322,,,,18.292174783
1715227756673926062,-0.312,,,,18.299870056
1715227756681621335,-0.288,,,,18.307565329
1715227756689316608,-0.254,,,,18.315260602
1715227756697011881,-0.208,,,,18.322955875
1715227756704707154,-0.145,,,,18.330651148
1715227756712402427,-0.06,,,,18.338346421
1715227756720097700,0.041,,,,18.346041694
1715227756727792973,0.138,,,,18.353736967
1715227756735488246,0.215,,,,18.36143224
1715227756743183519,0.281,,,,18.369127513
1715227756750878792,0.327,,,,18.376822786
1715227756758574065,0.351,,,,18.384518059
1715227756766269338,0.361,,,,18.392213332
1715227756773964611,0.366,,,,18.399908605
1715227756781659884,0.368,,,,18.407603878
1715227756789355157,0.356,,,,18.415299151
1715227756797050430,0.341,,,,18.422994424
1715227756804745703,0.334,,,,18.430689697
1715227756812440976,0.329,,,,18.43838497
1715227756820136249,0.317,,,,18.446080243
1715227756827831522,0.293,,,,18.453775516
1715227756835526795,0.276,,,,18.461470789
1715227756843222068,0.271,,,,18.469166062
1715227756850917341,0.269,,,,18.476861335
1715227756858612614,0.261,,,,18.484556608
1715227756866307887,0.254,,,,18.492251881
1715227756874003160,0.244,,,,18.499947154
1715227756881698433,0.242,,,,18.507642427
1715227756889393706,0.237,,,,18.5153377
1715227756897088979,0.23,,,,18.523032973
1715227756904784252,0.225,,,,18.530728246
1715227756912479596,0.225,94.0,620.0,,18.53842359
1715227756920175148,0.23,,,,18.546119142
1715227756927870700,0.225,,,,18.553814694
1715227756935566252,0.227,,,,18.561510246
1715227756943261804,0.244,,,,18.569205798
1715227756950957356,0.235,,,,18.57690135
1715227756958652908,0.181,,,,18.584596902
1715227756966348460,0.13,,,,18.592292454
1715227756974044012,0.104,,,,18.599988006
1715227756981739564,0.106,,,,18.607683558
1715227756989435116,0.128,,,,18.61537911
1715227756997130668,0.152,,,,18.623074662
1715227757004826220,0.164,,,,18.630770214
1715227757012521772,0.169,,,,18.638465766
1715227757020217324,0.177,,,,18.646161318
1715227757027912876,0.172,,,,18.65385687
1715227757035608428,0.164,,,,18.661552422
1715227757043303980,0.169,,,,18.669247974
1715227757050999532,0.167,,,,18.676943526
1715227757058695084,0.162,,,,18.684639078
1715227757066390636,0.167,,,,18.69233463
1715227757074086188,0.147,,,,18.700030182
1715227757081781740,0.101,,,,18.707725734
1715227757089477292,0.026,,,,18.715421286
1715227757097172844,-0.235,,,,18.723116838
1715227757104868396,-0.795,,,,18.73081239
1715227757112563948,-1.193,,,,18.738507942
1715227757120259500,-0.652,,,,18.746203494
1715227757127955052,0.487,,,,18.753899046
1715227757135650604,0.902,,,,18.761594598
1715227757143346156,0.509,,,,18.76929015
1715227757151041708,0.274,,,,18.776985702
1715227757158737260,0.257,,,,18.784681254
1715227757166432812,0.143,,,,18.792376806
1715227757174128364,0.084,,,,18.800072358
1715227757181823916,0.113,,,,18.80776791
1715227757189519468,0.089,,,,18.815463462
1715227757197215020,0.055,,,,18.823159014
1715227757204910572,0.053,,,,18.830854566
1715227757212606124,0.041,,,,18.838550118
1715227757220301676,0.004,,,,18.84624567
1715227757227997228,-0.016,,,,18.853941222
1715227757235692780,-0.033,,,,18.861636774
1715227757243388332,-0.058,,,,18.869332326
1715227757251083884,-0.089,,,,18.877027878
1715227757258779436,-0.128,,,,18.88472343
1715227757266474988,-0.172,,,,18.892418982
1715227757274170540,-0.208,,,,18.900114534
1715227757281866092,-0.247,,,,18.907810086
1715227757289561644,-0.291,,,,18.915505638
1715227757297257196,-0.317,,,,18.92320119
1715227757304952748,-0.312,,,,18.930896742
1715227757312648300,-0.303,,,,18.938592294
1715227757320343852,-0.288,,,,18.946287846
1715227757328039404,-0.244,,,,18.953983398
1715227757335734956,-0.174,,,,18.96167895
1715227757343430508,-0.101,,,,18.969374502
1715227757351126060,-0.014,,,,18.977070054
1715227757358821612,0.097,,,,18.984765606
1715227757366517164,0.189,,,,18.992461158
1715227757374212716,0.257,,,,19.00015671
1715227757381908268,0.312,,,,19.007852262
1715227757389603820,0.346,,,,19.015547814
1715227757397299372,0.358,,,,19.023243366
1715227757404994924,0.358,,,,19.030938918
1715227757412690476,0.361,,,,19.03863447
1715227757420386028,0.368,,,,19.046330022
1715227757428081580,0.363,,,,19.054025574
1715227757435777132,0.349,,,,19.061721126
1715227757443472684,0.329,,,,19.069416678
1715227757451168236,0.312,,,,19.07711223
1715227757458863788,0.305,,,,19.084807782
1715227757466559340,0.295,,,,19.092503334
1715227757474254938,0.274,,,,19.100198932
1715227757481950560,0.254,,,,19.107894554
1715227757489646182,0.247,,,,19.115590176
1715227757497341804,0.24,,,,19.123285798
1715227757505037426,0.227,,,,19.13098142
1715227757512733048,0.225,,,,19.138677042
1715227757520428670,0.223,,,,19.146372664
1715227757528124292,0.208,,,,19.154068286
1715227757535819914,0.21,,,,19.161763908
1715227757543515536,0.223,,,,19.16945953
1715227757551211158,0.218,,,,19.177155152
1715227757558906780,0.21,,,,19.184850774
1715227757566602402,0.218,,,,19.192546396
1715227757574298024,0.232,,,,19.200242018
1715227757581993646,0.237,,,,19.20793764
1715227757589689268,0.203,,,,19.215633262
1715227757597384890,0.162,,,,19.223328884
1715227757605080512,0.147,,,,19.231024506
1715227757612776134,0.138,,,,19.238720128
1715227757620471756,0.145,,,,19.24641575
1715227757628167378,0.181,,,,19.254111372
1715227757635863000,0.198,,,,19.261806994
1715227757643558622,0.201,,,,19.269502616
1715227757651254244,0.208,,,,19.277198238
1715227757658949866,0.208,,,,19.28489386
1715227757666645488,0.203,,,,19.292589482
1715227757674341110,0.201,,,,19.300285104
1715227757682036732,0.201,,,,19.307980726
1715227757689732354,0.201,,,,19.315676348
1715227757697427976,0.198,,,,19.32337197
1715227757705123598,0.194,,,,19.331067592
1715227757712819220,0.172,,,,19.338763214
1715227757720514842,0.113,,,,19.346458836
1715227757728210464,-0.094,,,,19.354154458
1715227757735906086,-0.611,,,,19.36185008
1715227757743601708,-1.154,,,,19.369545702
1715227757751297330,-0.877,,,,19.377241324
1715227757758992952,0.276,,,,19.384936946
1715227757766688574,0.936,,,,19.392632568
1715227757774384196,0.606,,,,19.40032819
1715227757782079818,0.305,,,,19.408023812
1715227757789775440,0.317,,,,19.415719434
1715227757797471062,0.225,,,,19.423415056
1715227757805166684,0.138,,,,19.431110678
1715227757812862306,0.167,,,,19.4388063
1715227757820557928,0.145,,,,19.446501922
1715227757828253550,0.097,,,,19.454197544
1715227757835949172,0.094,,,,19.461893166
1715227757843644794,0.087,,,,19.469588788
1715227757851340416,0.053,,,,19.47728441
1715227757859036038,0.033,,,,19.484980032
1715227757866731660,0.014,,,,19.492675654
1715227757874427282,-0.014,,,,19.500371276
1715227757882122904,-0.046,,,,19.508066898
1715227757889818526,-0.082,,,,19.51576252
1715227757897514148,-0.118,,,,19.523458142
1715227757905209770,-0.16,,,,19.531153764
1715227757912905392,-0.21,,,,19.538849386
1715227757920601014,-0.249,,,,19.546545008
1715227757928296636,-0.269,,,,19.55424063
1715227757935992258,-0.274,,,,19.561936252
1715227757943687880,-0.264,,,,19.569631874
1715227757951383502,-0.247,,,,19.577327496
1715227757959079124,-0.213,,,,19.585023118
1715227757966774746,-0.162,,,,19.59271874
1715227757974470368,-0.099,,,,19.600414362
1715227757982165990,-0.014,,,,19.608109984
1715227757989861612,0.084,,,,19.615805606
1715227757997557234,0.174,,,,19.623501228
1715227758005252856,0.244,,,,19.63119685
1715227758012948478,0.303,,,,19.638892472
1715227758020644100,0.339,,,,19.646588094
1715227758028339722,0.358,,,,19.654283716
1715227758036035370,0.373,94.0,648.0,,19.661979364
1715227758043730992,0.375,,636.0,,19.669674986
1715227758051426614,0.358,,,,19.677370608
1715227758059122236,0.339,,,,19.68506623
1715227758066817858,0.327,,,,19.692761852
1715227758074513480,0.317,,,,19.700457474
1715227758082209102,0.312,,,,19.708153096
1715227758089904724,0.298,,,,19.715848718
1715227758097600346,0.276,,,,19.72354434
1715227758105295968,0.264,,,,19.731239962
1715227758112991590,0.257,,,,19.738935584
1715227758120687212,0.24,,,,19.746631206
1715227758128382834,0.227,,,,19.754326828
1715227758136078456,0.225,,,,19.76202245
1715227758143774078,0.223,,,,19.769718072
1715227758151469700,0.218,,,,19.777413694
1715227758159165322,0.223,,,,19.785109316
1715227758166860944,0.225,,,,19.792804938
1715227758174556566,0.218,,,,19.80050056
1715227758182252188,0.218,,,,19.808196182
1715227758189947810,0.218,,,,19.815891804
1715227758197643432,0.223,,,,19.823587426
1715227758205339054,0.242,,,,19.831283048
1715227758213034676,0.249,,,,19.83897867
1715227758220730298,0.218,,,,19.846674292
1715227758228425920,0.172,,,,19.854369914
1715227758236121542,0.147,,,,19.862065536
1715227758243817164,0.14,,,,19.869761158
1715227758251512786,0.155,,,,19.87745678
1715227758259208408,0.184,,,,19.885152402
1715227758266904030,0.198,,,,19.892848024
1715227758274599652,0.198,,,,19.900543646
1715227758282295274,0.208,,,,19.908239268
1715227758289990896,0.21,,,,19.91593489
1715227758297686518,0.203,,,,19.923630512
1715227758305382140,0.198,,,,19.931326134
1715227758313077762,0.194,,,,19.939021756
1715227758320773384,0.191,,,,19.946717378
1715227758328469006,0.191,,,,19.954413
1715227758336164628,0.179,,,,19.962108622
1715227758343860250,0.16,,,,19.969804244
1715227758351555872,0.106,,,,19.977499866
1715227758359251494,-0.097,,,,19.985195488
1715227758366947116,-0.596,,,,19.99289111
1715227758374642738,-1.134,,,,20.000586732
1715227758382338360,-0.902,,,,20.008282354
1715227758390033982,0.206,,,,20.015977976
1715227758397729604,0.919,,,,20.023673598
1715227758405425226,0.654,,,,20.03136922
1715227758413120848,0.341,,,,20.039064842
1715227758420816470,0.317,,,,20.046760464
1715227758428512092,0.206,,,,20.054456086
1715227758436207714,0.111,,,,20.062151708
1715227758443903336,0.145,,,,20.06984733
1715227758451598958,0.13,,,,20.077542952
1715227758459294580,0.082,,,,20.085238574
1715227758466990202,0.077,,,,20.092934196
1715227758474685824,0.06,,,,20.100629818
1715227758482381446,0.019,,,,20.10832544
1715227758490077068,-0.002,,,,20.116021062
1715227758497772690,-0.012,,,,20.123716684
1715227758505468312,-0.046,,,,20.131412306
1715227758513163934,-0.082,,,,20.139107928
1715227758520859556,-0.109,,,,20.14680355
1715227758528555178,-0.143,,,,20.154499172
1715227758536250800,-0.189,,,,20.162194794
1715227758543946422,-0.235,,,,20.169890416
1715227758551642044,-0.278,,,,20.177586038
1715227758559337666,-0.307,,,,20.18528166
1715227758567033288,-0.312,,,,20.192977282
1715227758574728910,-0.303,,,,20.200672904
1715227758582424532,-0.281,,,,20.208368526
1715227758590120154,-0.244,,,,20.216064148
1715227758597815800,-0.201,,,,20.223759794
1715227758605511422,-0.138,,,,20.231455416
1715227758613207044,-0.048,,,,20.239151038
1715227758620902666,0.05,,,,20.24684666
1715227758628598288,0.138,,,,20.254542282
1715227758636293910,0.215,,,,20.262237904
1715227758643989532,0.281,,,,20.269933526
1715227758651685154,0.317,,,,20.277629148
1715227758659380776,0.332,,,,20.28532477
1715227758667076398,0.334,,,,20.293020392
1715227758674772020,0.334,,,,20.300716014
1715227758682467642,0.334,,,,20.308411636
1715227758690163264,0.322,,,,20.316107258
1715227758697858886,0.305,,,,20.32380288
1715227758705554508,0.3,,,,20.331498502
1715227758713250130,0.293,,,,20.339194124
1715227758720945752,0.278,,,,20.346889746
1715227758728641374,0.264,,,,20.354585368
1715227758736336996,0.254,,,,20.36228099
1715227758744032618,0.242,,,,20.369976612
1715227758751728240,0.225,,,,20.377672234
1715227758759423862,0.223,,,,20.385367856
1715227758767119484,0.227,,,,20.393063478
1715227758774815106,0.227,,,,20.4007591
1715227758782510728,0.223,,,,20.408454722
1715227758790206350,0.215,,,,20.416150344
1715227758797901972,0.21,,,,20.423845966
1715227758805597594,0.206,,,,20.431541588
1715227758813293216,0.201,,,,20.43923721
1715227758820988838,0.21,,,,20.446932832
1715227758828684460,0.232,,,,20.454628454
1715227758836380082,0.249,,,,20.462324076
1715227758844075704,0.242,,,,20.470019698
1715227758851771326,0.203,,,,20.47771532
1715227758859466948,0.162,,,,20.485410942
1715227758867162570,0.152,,,,20.493106564
1715227758874858192,0.155,,,,20.500802186
1715227758882553814,0.164,,,,20.508497808
1715227758890249436,0.189,,,,20.51619343
1715227758897945058,0.21,,,,20.523889052
1715227758905640680,0.218,,,,20.531584674
1715227758913336302,0.215,,,,20.539280296
1715227758921031924,0.215,,,,20.546975918
1715227758928727546,0.215,,,,20.55467154
1715227758936423168,0.213,,,,20.562367162
1715227758944118790,0.213,,,,20.570062784
1715227758951814412,0.22,,,,20.577758406
1715227758959510034,0.213,,,,20.585454028
1715227758967205656,0.194,,,,20.59314965
1715227758974901278,0.164,,,,20.600845272
1715227758982596900,0.082,,,,20.608540894
1715227758990292522,-0.189,,,,20.616236516
1715227758997988144,-0.734,,,,20.623932138
1715227759005683766,-1.166,,,,20.63162776
1715227759013379388,-0.705,,,,20.639323382
1715227759021075010,0.443,,,,20.647019004
1715227759028770632,0.948,,,,20.654714626
1715227759036466254,0.591,,,,20.662410248
1715227759044161876,0.337,,,,20.67010587
1715227759051857498,0.303,,,,20.677801492
1715227759059553120,0.162,,,,20.685497114
1715227759067248742,0.094,,,,20.693192736
1715227759074944364,0.135,,,,20.700888358
1715227759082639986,0.106,,,,20.70858398
1715227759090335608,0.058,,,,20.716279602
1715227759098031230,0.058,,,,20.723975224
1715227759105726852,0.043,,,,20.731670846
1715227759113422474,0.009,,,,20.739366468
1715227759121118096,-0.002,,,,20.74706209
1715227759128813718,-0.016,,,,20.754757712
1715227759136509340,-0.048,,,,20.762453334
1715227759144204962,-0.08,,,,20.770148956
1715227759151900584,-0.118,,,,20.777844578
1715227759159596230,-0.164,94.0,635.0,,20.785540224
1715227759167291852,-0.206,,,,20.793235846
1715227759174987474,-0.249,,,,20.800931468
1715227759182683096,-0.291,,,,20.80862709
1715227759190378718,-0.317,,,,20.816322712
1715227759198074340,-0.322,,,,20.824018334
1715227759205769962,-0.312,,,,20.831713956
1715227759213465584,-0.288,,,,20.839409578
1715227759221161206,-0.247,,,,20.8471052
1715227759228856828,-0.196,,,,20.854800822
1715227759236552450,-0.126,,,,20.862496444
1715227759244248072,-0.033,,,,20.870192066
1715227759251943694,0.065,,,,20.877887688
1715227759259639316,0.157,,,,20.88558331
1715227759267334938,0.23,,,,20.893278932
1715227759275030560,0.288,,,,20.900974554
1715227759282726182,0.332,,,,20.908670176
1715227759290421804,0.349,,,,20.916365798
1715227759298117426,0.351,,,,20.92406142
1715227759305813048,0.358,,,,20.931757042
1715227759313508670,0.358,,,,20.939452664
1715227759321204292,0.344,,,,20.947148286
1715227759328899914,0.332,,,,20.954843908
1715227759336595536,0.322,,,,20.96253953
1715227759344291158,0.312,,,,20.970235152
1715227759351986780,0.303,,,,20.977930774
1715227759359682402,0.293,,,,20.985626396
1715227759367378024,0.278,,,,20.993322018
1715227759375073646,0.264,,,,21.00101764
1715227759382769268,0.244,,,,21.008713262
1715227759390464890,0.223,,,,21.016408884
1715227759398160512,0.213,,,,21.024104506
1715227759405856134,0.223,,,,21.031800128
1715227759413551756,0.22,,,,21.03949575
1715227759421247378,0.215,,,,21.047191372
1715227759428943000,0.218,,,,21.054886994
1715227759436638622,0.215,,,,21.062582616
1715227759444334244,0.215,,,,21.070278238
1715227759452029866,0.22,,,,21.07797386
1715227759459725488,0.232,,,,21.085669482
1715227759467421110,0.247,,,,21.093365104
1715227759475116732,0.225,,,,21.101060726
1715227759482812354,0.172,,,,21.108756348
1715227759490507976,0.138,,,,21.11645197
1715227759498203598,0.128,,,,21.124147592
1715227759505899220,0.135,,,,21.131843214
1715227759513594842,0.157,,,,21.139538836
1715227759521290464,0.177,,,,21.147234458
1715227759528986086,0.181,,,,21.15493008
1715227759536681708,0.189,,,,21.162625702
1715227759544377330,0.191,,,,21.170321324
1715227759552072952,0.189,,,,21.178016946
1715227759559768574,0.184,,,,21.185712568
1715227759567464196,0.179,,,,21.19340819
1715227759575159818,0.179,,,,21.201103812
1715227759582855440,0.181,,,,21.208799434
1715227759590551062,0.174,,,,21.216495056
1715227759598246684,0.155,,,,21.224190678
1715227759605942306,0.109,,,,21.2318863
1715227759613637928,-0.063,,,,21.239581922
1715227759621333550,-0.518,,,,21.247277544
1715227759629029172,-1.081,,,,21.254973166
1715227759636724794,-1.001,,,,21.262668788
1715227759644420416,0.019,,,,21.27036441
1715227759652116038,0.88,,,,21.278060032
1715227759659811660,0.744,,,,21.285755654
1715227759667507282,0.378,,,,21.293451276
1715227759675202904,0.329,,,,21.301146898
1715227759682898526,0.237,,,,21.30884252
1715227759690594148,0.116,,,,21.316538142
1715227759698289770,0.138,,,,21.324233764
1715227759705985392,0.143,,,,21.331929386
1715227759713681014,0.089,,,,21.339625008
1715227759721376660,0.08,94.0,633.0,,21.347320654
1715227759729071864,0.077,,632.0,,21.355015858
1715227759736767068,0.046,,,,21.362711062
1715227759744462272,0.021,,,,21.370406266
1715227759752157476,0.004,,,,21.37810147
1715227759759852680,-0.021,,,,21.385796674
1715227759767547884,-0.06,,,,21.393491878
1715227759775243088,-0.106,,,,21.401187082
1715227759782938292,-0.155,,,,21.408882286
1715227759790633496,-0.201,,,,21.41657749
1715227759798328700,-0.244,,,,21.424272694
1715227759806023904,-0.281,,,,21.431967898
1715227759813719108,-0.303,,,,21.439663102
1715227759821414312,-0.307,,,,21.447358306
1715227759829109516,-0.307,,,,21.45505351
1715227759836804720,-0.293,,,,21.462748714
1715227759844499924,-0.261,,,,21.470443918
1715227759852195128,-0.21,,,,21.478139122
1715227759859890332,-0.138,,,,21.485834326
1715227759867585536,-0.048,,,,21.49352953
1715227759875280740,0.05,,,,21.501224734
1715227759882975944,0.15,,,,21.508919938
1715227759890671148,0.227,,,,21.516615142
1715227759898366352,0.281,,,,21.524310346
1715227759906061556,0.322,,,,21.53200555
1715227759913756760,0.349,,,,21.539700754
1715227759921451964,0.358,,,,21.547395958
1715227759929147168,0.361,,,,21.555091162
1715227759936842372,0.358,,,,21.562786366
1715227759944537576,0.351,,,,21.57048157
1715227759952232780,0.334,,,,21.578176774
1715227759959927984,0.32,,,,21.585871978
1715227759967623188,0.31,,,,21.593567182
1715227759975318392,0.303,,,,21.601262386
1715227759983013596,0.293,,,,21.60895759
1715227759990708800,0.276,,,,21.616652794
1715227759998404004,0.254,,,,21.624347998
1715227760006099208,0.237,,,,21.632043202
1715227760013794412,0.23,,,,21.639738406
1715227760021489616,0.227,,,,21.64743361
1715227760029184820,0.21,,,,21.655128814
1715227760036880024,0.198,,,,21.662824018
1715227760044575228,0.196,,,,21.670519222
1715227760052270432,0.191,,,,21.678214426
1715227760059965636,0.196,,,,21.68590963
1715227760067660840,0.203,,,,21.693604834
1715227760075356044,0.21,,,,21.701300038
1715227760083051248,0.225,,,,21.708995242
1715227760090746452,0.22,,,,21.716690446
1715227760098441656,0.177,,,,21.72438565
1715227760106136860,0.138,,,,21.732080854
1715227760113832064,0.13,,,,21.739776058
1715227760121527268,0.13,,,,21.747471262
1715227760129222472,0.135,,,,21.755166466
1715227760136917676,0.16,,,,21.76286167
1715227760144612880,0.184,,,,21.770556874
1715227760152308084,0.196,,,,21.778252078
1715227760160003288,0.196,,,,21.785947282
1715227760167698492,0.189,,,,21.793642486
1715227760175393696,0.186,,,,21.80133769
1715227760183088900,0.189,,,,21.809032894
1715227760190784104,0.184,,,,21.816728098
1715227760198479308,0.179,,,,21.824423302
1715227760206174512,0.179,,,,21.832118506
1715227760213869716,0.169,,,,21.83981371
1715227760221564920,0.133,,,,21.847508914
1715227760229260124,0.043,,,,21.855204118
1715227760236955328,-0.223,,,,21.862899322
1715227760244650532,-0.768,,,,21.870594526
1715227760252345736,-1.212,,,,21.87828973
1715227760260040940,-0.751,,,,21.885984934
1715227760267736144,0.426,,,,21.893680138
1715227760275431348,0.948,,,,21.901375342
1715227760283126572,0.56,,,,21.909070566
1715227760290822194,0.286,,,,21.916766188
1715227760298517816,0.286,,,,21.92446181
1715227760306213438,0.167,,,,21.932157432
1715227760313909060,0.087,,,,21.939853054
1715227760321604682,0.121,,,,21.947548676
1715227760329300304,0.101,,,,21.955244298
1715227760336995926,0.053,,,,21.96293992
1715227760344691548,0.038,,,,21.970635542
1715227760352387170,0.019,,,,21.978331164
1715227760360082792,-0.002,,,,21.986026786
1715227760367778414,-0.016,,,,21.993722408
1715227760375474036,-0.041,,,,22.00141803
1715227760383169658,-0.072,,,,22.009113652
1715227760390865280,-0.101,,,,22.016809274
1715227760398560902,-0.135,,,,22.024504896
1715227760406256524,-0.181,,,,22.032200518
1715227760413952146,-0.227,,,,22.03989614
1715227760421647768,-0.271,,,,22.047591762
1715227760429343390,-0.312,,,,22.055287384
1715227760437039012,-0.339,,,,22.062983006
1715227760444734634,-0.346,,,,22.070678628
1715227760452430256,-0.332,,,,22.07837425
1715227760460125878,-0.305,,,,22.086069872
1715227760467821500,-0.269,,,,22.093765494
1715227760475517122,-0.215,,,,22.101461116
1715227760483212744,-0.13,,,,22.109156738
1715227760490908366,-0.031,,,,22.11685236
1715227760498603988,0.067,,,,22.124547982
1715227760506299610,0.152,,,,22.132243604
1715227760513995232,0.225,,,,22.139939226
1715227760521690854,0.283,,,,22.147634848
1715227760529386476,0.315,,,,22.15533047
1715227760537082098,0.332,,,,22.163026092
1715227760544777720,0.344,,,,22.170721714
1715227760552473342,0.346,,,,22.178417336
1715227760560168964,0.337,,,,22.186112958
