HRV_ULF,HRV_VLF,HRV_LF,HRV_HF,HRV_VHF,HRV_TP,HRV_LFHF,HRV_LFn,HRV_HFn,HRV_LnHF,time
,,0.029596184520923823,0.005503744974559488,0.00018496071086026038,0.03528489020634357,5.377462919835354,0.838777854992531,0.15598022106272608,-5.20232651398862,0.0
,,0.029596184520923823,0.005503744974559488,0.00018496071086026038,0.03528489020634357,5.377462919835354,0.838777854992531,0.15598022106272608,-5.20232651398862,0.1
,,0.029596184520923823,0.005503744974559488,0.00018496071086026038,0.03528489020634357,5.377462919835354,0.838777854992531,0.15598022106272608,-5.20232651398862,0.2
,,0.028982907004748967,0.0046674972372896025,0.00011576026817564504,0.03376616451021422,5.585476630682528,0.8583416987138612,0.1382300093893605,-5.367132274452246,0.3
,,0.028982907004748967,0.0046674972372896025,0.00011576026817564504,0.03376616451021422,5.710284857190833,0.8583416987138612,0.1382300093893605,-5.367132274452246,0.4
,,0.028982907004748967,0.0046674972372896025,0.00011576026817564504,0.03376616451021422,5.793490341529702,0.8583416987138612,0.1382300093893605,-5.367132274452246,0.5
,,0.028676679809679573,0.004593813918388414,0.00013742309931948267,0.03340791682738747,5.857628247708762,0.858379765426461,0.13750674554548858,-5.383044680892927,0.6
,,0.028676679809679573,0.004593813918388414,0.00013742309931948267,0.03340791682738747,5.905731677343057,0.858379765426461,0.13750674554548858,-5.383044680892927,0.7
,,0.028676679809679573,0.004593813918388414,0.00013742309931948267,0.03340791682738747,5.943145455947508,0.858379765426461,0.13750674554548858,-5.383044680892927,0.8
,,0.027184618108235244,0.004479715357745916,0.00010488431912248844,0.03176921778510365,5.955668977892698,0.8556905080924564,0.14100804709917727,-5.408195770791184,0.9
,,0.027184618108235244,0.004479715357745916,0.00010488431912248844,0.03176921778510365,5.965915495847852,0.8556905080924564,0.14100804709917727,-5.408195770791184,1.0
,,0.027184618108235244,0.004479715357745916,0.00010488431912248844,0.03176921778510365,5.974454260810482,0.8556905080924564,0.14100804709917727,-5.408195770791184,1.1
,,0.027002101010846366,0.004412097105768907,0.00012515075123615153,0.031539348867851424,5.985651250199147,0.8561400910330793,0.13989182605688572,-5.423405168365972,1.2
,,0.027002101010846366,0.004412097105768907,0.00012515075123615153,0.031539348867851424,5.995248669675147,0.8561400910330793,0.13989182605688572,-5.423405168365972,1.3
,,0.027002101010846366,0.004412097105768907,0.00012515075123615153,0.031539348867851424,6.003566433221012,0.8561400910330793,0.13989182605688572,-5.423405168365972,1.4
,,0.027002101010846366,0.004412097105768907,0.00012515075123615153,0.031539348867851424,6.010844476323644,0.8561400910330793,0.13989182605688572,-5.423405168365972,1.5
,,0.02125202875135008,0.005191625907526464,0.00012779582218130982,0.02657145048105785,5.898060731938702,0.7998068741674506,0.19538360960864554,-5.260708353885276,1.6
,,0.02125202875135008,0.005191625907526464,0.00012779582218130982,0.02657145048105785,5.797808514707642,0.7998068741674506,0.19538360960864554,-5.260708353885276,1.7
,,0.02125202875135008,0.005191625907526464,0.00012779582218130982,0.02657145048105785,5.708109162448272,0.7998068741674506,0.19538360960864554,-5.260708353885276,1.8
,,0.025783841880586935,0.004255277761152093,0.00011424643871646774,0.030153366080455494,5.725666793080917,0.8550900026149733,0.14112115210614035,-5.459595240320716,1.9
,,0.025783841880586935,0.004255277761152093,0.00011424643871646774,0.030153366080455494,5.741552268415214,0.8550900026149733,0.14112115210614035,-5.459595240320716,2.0
,,0.025783841880586935,0.004255277761152093,0.00011424643871646774,0.030153366080455494,5.755993609628212,0.8550900026149733,0.14112115210614035,-5.459595240320716,2.1
,,0.025783841880586935,0.004255277761152093,0.00011424643871646774,0.030153366080455494,5.769179182040078,0.8550900026149733,0.14112115210614035,-5.459595240320716,2.2
,,0.01976213153108668,0.005244660852034574,0.00012525299833822352,0.025132045381459477,5.685798697824559,0.7863320008830513,0.20868420267550877,-5.250544700419054,2.3
,,0.01976213153108668,0.005244660852034574,0.00012525299833822352,0.025132045381459477,5.609088652346282,0.7863320008830513,0.20868420267550877,-5.250544700419054,2.4
,,0.025112722162338744,0.004145660907479642,0.00010540137038080062,0.029363784440199187,5.626338779380999,0.8552277113150063,0.14118278643280763,-5.485693056186094,2.5
,,0.02513625659444873,0.004149596817801867,0.00010550985282801098,0.029391363265078605,5.642308372806792,0.8552259508259834,0.1411842240993366,-5.484744101796023,2.6
,,0.02513625659444873,0.004149596817801867,0.00010550985282801098,0.029391363265078605,5.657137280987887,0.8552259508259834,0.1411842240993366,-5.484744101796023,2.7
,,0.02513625659444873,0.004149596817801867,0.00010550985282801098,0.029391363265078605,5.670943505846147,0.8552259508259834,0.1411842240993366,-5.484744101796023,2.8
,,0.02513625659444873,0.004149596817801867,0.00010550985282801098,0.029391363265078605,5.683829315713855,0.8552259508259834,0.1411842240993366,-5.484744101796023,2.9
,,0.018593299066319235,0.0052874692336197975,0.0001232134152192771,0.024003981715158308,5.613914939134614,0.7745922858530477,0.22027467344223173,-5.242415553327417,3.0
,,0.02491878276110664,0.0040770424229870095,9.81230556700772e-05,0.029093948239763728,5.629479326751153,0.8564936788829939,0.14013369341926482,-5.502383449757163,3.1
,,0.02491878276110664,0.0040770424229870095,9.81230556700772e-05,0.029093948239763728,5.6441004181485095,0.8564936788829939,0.14013369341926482,-5.502383449757163,3.2
,,0.02491878276110664,0.0040770424229870095,9.81230556700772e-05,0.029093948239763728,5.65786144534602,0.8564936788829939,0.14013369341926482,-5.502383449757163,3.3
,,0.02491878276110664,0.0040770424229870095,9.81230556700772e-05,0.029093948239763728,5.670836128132245,0.8564936788829939,0.14013369341926482,-5.502383449757163,3.4
,,0.02491878276110664,0.0040770424229870095,9.81230556700772e-05,0.029093948239763728,5.683089995208124,0.8564936788829939,0.14013369341926482,-5.502383449757163,3.5
,,0.02517226492736948,0.004040594006526331,9.199800506631843e-05,0.029304856938962127,5.697867094348668,0.8589792804585175,0.13788137628319827,-5.511363566498725,3.6
,,0.02517226492736948,0.004040594006526331,9.199800506631843e-05,0.029304856938962127,5.711866451429184,0.8589792804585175,0.13788137628319827,-5.511363566498725,3.7
,,0.02517226492736948,0.004040594006526331,9.199800506631843e-05,0.029304856938962127,5.7251478927619806,0.8589792804585175,0.13788137628319827,-5.511363566498725,3.8
,,0.02517226492736948,0.004040594006526331,9.199800506631843e-05,0.029304856938962127,5.737765262028138,0.8589792804585175,0.13788137628319827,-5.511363566498725,3.9
,,0.02517226492736948,0.004040594006526331,9.199800506631843e-05,0.029304856938962127,5.749767149866678,0.8589792804585175,0.13788137628319827,-5.511363566498725,4.0
,,0.02517226492736948,0.004040594006526331,9.199800506631843e-05,0.029304856938962127,5.761197519236715,0.8589792804585175,0.13788137628319827,-5.511363566498725,4.1
,,0.025320181910925686,0.004014223822752784,8.939074229207097e-05,0.02942379647597054,5.77390492286333,0.8605341575008466,0.13642780006417835,-5.517911269636198,4.2
,,0.02589624421323388,0.004047547735055698,8.756682856336329e-05,0.030031358776852944,5.788089091703014,0.8623067775805651,0.13477737604651432,-5.509644078768454,4.3
,,0.02589624421323388,0.004047547735055698,8.756682856336329e-05,0.030031358776852944,5.801642853038714,0.8623067775805651,0.13477737604651432,-5.509644078768454,4.4
,,0.02589624421323388,0.004047547735055698,8.756682856336329e-05,0.030031358776852944,5.814607320403296,0.8623067775805651,0.13477737604651432,-5.509644078768454,4.5
,,0.02589624421323388,0.004047547735055698,8.756682856336329e-05,0.030031358776852944,5.827020108305555,0.8623067775805651,0.13477737604651432,-5.509644078768454,4.6
,,0.02589624421323388,0.004047547735055698,8.756682856336329e-05,0.030031358776852944,5.8389156967118865,0.8623067775805651,0.13477737604651432,-5.509644078768454,4.7
,,0.026248564175457508,0.0040480211958454845,8.503845779861792e-05,0.03038162382910161,5.852086705802038,0.8639618580990667,0.13323913226678855,-5.509527110882844,4.8
,,0.027130408295963013,0.0041002070339062,8.440537826158007e-05,0.03131502070813079,5.867381744300704,0.8663704408446626,0.1309341951941166,-5.4967178104720755,4.9
,,0.027130408295963013,0.0041002070339062,8.440537826158007e-05,0.03131502070813079,5.882076977368048,0.8663704408446626,0.1309341951941166,-5.4967178104720755,5.0
,,0.027130408295963013,0.0041002070339062,8.440537826158007e-05,0.03131502070813079,5.896207009163571,0.8663704408446626,0.1309341951941166,-5.4967178104720755,5.1
,,0.027130408295963013,0.0041002070339062,8.440537826158007e-05,0.03131502070813079,5.909803832212094,0.8663704408446626,0.1309341951941166,-5.4967178104720755,5.2
,,0.027130408295963013,0.0041002070339062,8.440537826158007e-05,0.03131502070813079,5.922897069221782,0.8663704408446626,0.1309341951941166,-5.4967178104720755,5.3
,,0.02773961051118806,0.0041361638231834485,8.213798627734197e-05,0.031957912320648846,5.9371462759026405,0.8680044626464779,0.12942534486243534,-5.487986533473521,5.4
,,0.02883559127060461,0.004191524675992323,8.180231103066933e-05,0.03310891825762761,5.953974009311604,0.8709312411305219,0.12659805564703652,-5.474690726752952,5.5
,,0.02883559127060461,0.004191524675992323,8.180231103066933e-05,0.03310891825762761,5.970211295934289,0.8709312411305219,0.12659805564703652,-5.474690726752952,5.6
,,0.02883559127060461,0.004191524675992323,8.180231103066933e-05,0.03310891825762761,5.985888676121707,0.8709312411305219,0.12659805564703652,-5.474690726752952,5.7
,,0.02883559127060461,0.004191524675992323,8.180231103066933e-05,0.03310891825762761,6.001034619692605,0.8709312411305219,0.12659805564703652,-5.474690726752952,5.8
,,0.02883559127060461,0.004191524675992323,8.180231103066933e-05,0.03310891825762761,6.015675698477805,0.8709312411305219,0.12659805564703652,-5.474690726752952,5.9
,,0.017863092749314476,0.005364716409848364,0.00013747778449535567,0.023365286943658192,5.9716439105001635,0.7645141612165339,0.2296019913123496,-5.227911763597907,6.0
,,0.03093323307844427,0.004308352119835295,7.932068842809917e-05,0.035320905886707665,5.99113077272077,0.8757768891223537,0.1219773958701512,-5.447199786761904,6.1
,,0.03093323307844427,0.004308352119835295,7.932068842809917e-05,0.035320905886707665,6.00999900439469,0.8757768891223537,0.1219773958701512,-5.447199786761904,6.2
,,0.03093323307844427,0.004308352119835295,7.932068842809917e-05,0.035320905886707665,6.0282776038288,0.8757768891223537,0.1219773958701512,-5.447199786761904,6.3
,,0.03093323307844427,0.004308352119835295,7.932068842809917e-05,0.035320905886707665,6.045993784818784,0.8757768891223537,0.1219773958701512,-5.447199786761904,6.4
,,0.03093323307844427,0.004308352119835295,7.932068842809917e-05,0.035320905886707665,6.063173111839374,0.8757768891223537,0.1219773958701512,-5.447199786761904,6.5
,,0.03093323307844427,0.004308352119835295,7.932068842809917e-05,0.035320905886707665,6.079839623128007,0.8757768891223537,0.1219773958701512,-5.447199786761904,6.6
,,0.033397496842605456,0.004446292878319516,7.737784192938271e-05,0.03792116756285436,6.100890700029559,0.8807085590718979,0.1172509488519778,-5.415684591043973,6.7
,,0.033397496842605456,0.004446292878319516,7.737784192938271e-05,0.03792116756285436,6.121331600789039,0.8807085590718979,0.1172509488519778,-5.415684591043973,6.8
,,0.033397496842605456,0.004446292878319516,7.737784192938271e-05,0.03792116756285436,6.141188475812532,0.8807085590718979,0.1172509488519778,-5.415684591043973,6.9
,,0.033397496842605456,0.004446292878319516,7.737784192938271e-05,0.03792116756285436,6.160486002243816,0.8807085590718979,0.1172509488519778,-5.415684591043973,7.0
,,0.033397496842605456,0.004446292878319516,7.737784192938271e-05,0.03792116756285436,6.17924748627423,0.8807085590718979,0.1172509488519778,-5.415684591043973,7.1
,,0.033397496842605456,0.004446292878319516,7.737784192938271e-05,0.03792116756285436,6.197494957043536,0.8807085590718979,0.1172509488519778,-5.415684591043973,7.2
,,0.03614445781858608,0.004599493708529178,7.646956716903238e-05,0.040820421094284284,6.219939021775249,0.8854503909967519,0.1126762925327393,-5.381809044907726,7.3
,,0.03614445781858608,0.004599493708529178,7.646956716903238e-05,0.040820421094284284,6.241784578114118,0.8854503909967519,0.1126762925327393,-5.381809044907726,7.4
,,0.03614445781858608,0.004599493708529178,7.646956716903238e-05,0.040820421094284284,6.263055251391437,0.8854503909967519,0.1126762925327393,-5.381809044907726,7.5
,,0.03614445781858608,0.004599493708529178,7.646956716903238e-05,0.040820421094284284,6.283773439648566,0.8854503909967519,0.1126762925327393,-5.381809044907726,7.6
,,0.03614445781858608,0.004599493708529178,7.646956716903238e-05,0.040820421094284284,6.3039603923093575,0.8854503909967519,0.1126762925327393,-5.381809044907726,7.7
,,0.03614445781858608,0.004599493708529178,7.646956716903238e-05,0.040820421094284284,6.32363628287747,0.8854503909967519,0.1126762925327393,-5.381809044907726,7.8
,,0.030749846185380705,0.007284239423120427,0.0001605935456492663,0.0381946791541504,6.297358600276825,0.8050819346139026,0.1907134602105668,-4.922042247925997,7.9
,,0.039392293960999164,0.004796139932924418,7.728710067746877e-05,0.04426572099460105,6.321012604123594,0.8899051698673047,0.1083488492937772,-5.3399438652357505,8.0
,,0.039392293960999164,0.004796139932924418,7.728710067746877e-05,0.04426572099460105,6.344089681047273,0.8899051698673047,0.1083488492937772,-5.3399438652357505,8.1
,,0.039392293960999164,0.004796139932924418,7.728710067746877e-05,0.04426572099460105,6.366610683828212,0.8899051698673047,0.1083488492937772,-5.3399438652357505,8.2
,,0.039392293960999164,0.004796139932924418,7.728710067746877e-05,0.04426572099460105,6.388595472257224,0.8899051698673047,0.1083488492937772,-5.3399438652357505,8.3
,,0.039392293960999164,0.004796139932924418,7.728710067746877e-05,0.04426572099460105,6.41006297154673,0.8899051698673047,0.1083488492937772,-5.3399438652357505,8.4
,,0.041590745929152455,0.0048871610039178445,6.321205695847257e-05,0.046541118990028774,6.434483237013078,0.8936344211677224,0.1050073807843962,-5.321143715888361,8.5
,,0.041590745929152455,0.0048871610039178445,6.321205695847257e-05,0.046541118990028774,6.458342117066406,0.8936344211677224,0.1050073807843962,-5.321143715888361,8.6
,,0.04321543179579597,0.005054241390835167,8.101978182430787e-05,0.04835069296845545,6.482114706655307,0.8937913635279274,0.10453296696559473,-5.28752750882289,8.7
,,0.04321543179579597,0.005054241390835167,8.101978182430787e-05,0.04835069296845545,6.5053530807478275,0.8937913635279274,0.10453296696559473,-5.28752750882289,8.8
,,0.04321543179579597,0.005054241390835167,8.101978182430787e-05,0.04835069296845545,6.528075046527181,0.8937913635279274,0.10453296696559473,-5.28752750882289,8.9
,,0.04321543179579597,0.005054241390835167,8.101978182430787e-05,0.04835069296845545,6.563329125205562,0.8937913635279274,0.10453296696559473,-5.28752750882289,9.0
,,0.04321543179579597,0.005054241390835167,8.101978182430787e-05,0.04835069296845545,6.598583203883942,0.8937913635279274,0.10453296696559473,-5.28752750882289,9.1
,,0.039577162303200866,0.007804775923438967,0.0001856210082769972,0.047567559234916824,6.595176841127218,0.8320200350778009,0.16407770440552463,-4.853019434787662,9.2
,,0.0474041962498529,0.005349021958547538,8.792624036643436e-05,0.05284114444876687,6.624651283147413,0.8971076751718452,0.10122835177678226,-5.23084154627272,9.3
,,0.0474041962498529,0.005349021958547538,8.792624036643436e-05,0.05284114444876687,6.654125725167609,0.8971076751718452,0.10122835177678226,-5.23084154627272,9.4
,,0.0474041962498529,0.005349021958547538,8.792624036643436e-05,0.05284114444876687,6.683600167187804,0.8971076751718452,0.10122835177678226,-5.23084154627272,9.5
,,0.0474041962498529,0.005349021958547538,8.792624036643436e-05,0.05284114444876687,6.712708632301787,0.8971076751718452,0.10122835177678226,-5.23084154627272,9.6
,,0.0474041962498529,0.005349021958547538,8.792624036643436e-05,0.05284114444876687,6.741817097415771,0.8971076751718452,0.10122835177678226,-5.23084154627272,9.7
,,0.0474041962498529,0.005349021958547538,8.792624036643436e-05,0.05284114444876687,6.7709255625297535,0.8971076751718452,0.10122835177678226,-5.23084154627272,9.8
,,0.05274400031866356,0.005760279459409423,9.895821721682207e-05,0.058603237995289804,6.805238002263957,0.9000185334964397,0.09829285303096054,-5.156769288192681,9.9
,,0.05274400031866356,0.005760279459409423,9.895821721682207e-05,0.058603237995289804,6.839550441998157,0.9000185334964397,0.09829285303096054,-5.156769288192681,10.0
,,0.05274400031866356,0.005760279459409423,9.895821721682207e-05,0.058603237995289804,6.87386288173236,0.9000185334964397,0.09829285303096054,-5.156769288192681,10.1
,,0.05274400031866356,0.005760279459409423,9.895821721682207e-05,0.058603237995289804,6.907601605383632,0.9000185334964397,0.09829285303096054,-5.156769288192681,10.2
,,0.05274400031866356,0.005760279459409423,9.895821721682207e-05,0.058603237995289804,6.941340329034904,0.9000185334964397,0.09829285303096054,-5.156769288192681,10.3
,,0.05274400031866356,0.005760279459409423,9.895821721682207e-05,0.058603237995289804,6.9750790526861755,0.9000185334964397,0.09829285303096054,-5.156769288192681,10.4
,,0.053791539691421336,0.005935086984194046,9.852431514022614e-05,0.05982515099075561,7.007782341223885,0.8991459077091739,0.09920722114201025,-5.126873594887376,10.5
,,0.05468301029827602,0.005802840956513377,0.00010600238163180239,0.0605918536364212,7.067004214419935,0.9024812250570688,0.09576932554882829,-5.149407661263951,10.6
,,0.05468301029827602,0.005802840956513377,0.00010600238163180239,0.0605918536364212,7.126226087615985,0.9024812250570688,0.09576932554882829,-5.149407661263951,10.7
,,0.05468301029827602,0.005802840956513377,0.00010600238163180239,0.0605918536364212,7.185447960812033,0.9024812250570688,0.09576932554882829,-5.149407661263951,10.8
,,0.05468301029827602,0.005802840956513377,0.00010600238163180239,0.0605918536364212,7.222828267860066,0.9024812250570688,0.09576932554882829,-5.149407661263951,10.9
,,0.05468301029827602,0.005802840956513377,0.00010600238163180239,0.0605918536364212,7.2602085749080985,0.9024812250570688,0.09576932554882829,-5.149407661263951,11.0
,,0.05468301029827602,0.005802840956513377,0.00010600238163180239,0.0605918536364212,7.2975888819561305,0.9024812250570688,0.09576932554882829,-5.149407661263951,11.1
,,0.054055748443637336,0.005826333604642331,0.00010364393139158006,0.05998572597967125,7.333350781131928,0.9011435230767476,0.09712866702016469,-5.1453673607313055,11.2
,,0.05479248126458483,0.0056793362249723065,0.00011171494967648217,0.06058353243923362,7.39868015322749,0.9044121241946842,0.09374389370030188,-5.170920914878599,11.3
,,0.05479248126458483,0.0056793362249723065,0.00011171494967648217,0.06058353243923362,7.46400952532305,0.9044121241946842,0.09374389370030188,-5.170920914878599,11.4
,,0.05479248126458483,0.0056793362249723065,0.00011171494967648217,0.06058353243923362,7.503899515258817,0.9044121241946842,0.09374389370030188,-5.170920914878599,11.5
,,0.05479248126458483,0.0056793362249723065,0.00011171494967648217,0.06058353243923362,7.5437903291209345,0.9044121241946842,0.09374389370030188,-5.170920914878599,11.6
,,0.05479248126458483,0.0056793362249723065,0.00011171494967648217,0.06058353243923362,7.583681142983053,0.9044121241946842,0.09374389370030188,-5.170920914878599,11.7
,,0.05479248126458483,0.0056793362249723065,0.00011171494967648217,0.06058353243923362,7.62357195684517,0.9044121241946842,0.09374389370030188,-5.170920914878599,11.8
,,0.05410117735628363,0.00573740482388145,0.00010993722913474867,0.05994851940929983,7.661039042657818,0.902460609358951,0.09570553001833444,-5.160748292163311,11.9
,,0.054661382671117906,0.005577275684622266,9.031907324017589e-05,0.06032897742898035,7.730864021220602,0.906055182776231,0.09244770792257949,-5.189054850373607,12.0
,,0.054661382671117906,0.005577275684622266,9.031907324017589e-05,0.06032897742898035,7.771850203104422,0.906055182776231,0.09244770792257949,-5.189054850373607,12.1
,,0.054661382671117906,0.005577275684622266,9.031907324017589e-05,0.06032897742898035,7.812836384988241,0.906055182776231,0.09244770792257949,-5.189054850373607,12.2
,,0.054661382671117906,0.005577275684622266,9.031907324017589e-05,0.06032897742898035,7.853822566872062,0.906055182776231,0.09244770792257949,-5.189054850373607,12.3
,,0.054661382671117906,0.005577275684622266,9.031907324017589e-05,0.06032897742898035,7.8948087487558825,0.906055182776231,0.09244770792257949,-5.189054850373607,12.4
,,0.0539288399498565,0.005677621601127786,0.00011600018580221696,0.059722461736786504,7.932436704944502,0.9029909079691975,0.09506677112793246,-5.171222866137696,12.5
,,0.0539288399498565,0.005677621601127786,0.00011600018580221696,0.059722461736786504,7.9687550242381855,0.9029909079691975,0.09506677112793246,-5.171222866137696,12.6
,,0.0539288399498565,0.005677621601127786,0.00011600018580221696,0.059722461736786504,8.005073343531869,0.9029909079691975,0.09506677112793246,-5.171222866137696,12.7
,,0.0518407627232758,0.007097814475478183,0.00023051230323106698,0.05916908950198505,8.017005804202716,0.8761460275899058,0.11995814935161474,-4.947968362676463,12.8
,,0.0518407627232758,0.007097814475478183,0.00023051230323106698,0.05916908950198505,8.028938264873563,0.8761460275899058,0.11995814935161474,-4.947968362676463,12.9
,,0.0518407627232758,0.007097814475478183,0.00023051230323106698,0.05916908950198505,8.040870725544409,0.8761460275899058,0.11995814935161474,-4.947968362676463,13.0
,,0.0518407627232758,0.007097814475478183,0.00023051230323106698,0.05916908950198505,8.052803186215256,0.8761460275899058,0.11995814935161474,-4.947968362676463,13.1
,,0.052002191287315425,0.007085904180166461,0.0002817328830718434,0.05936982835055373,8.06426103486911,0.8759026719812035,0.11935193981574603,-4.949647795045405,13.2
,,0.052002191287315425,0.007085904180166461,0.0002817328830718434,0.05936982835055373,8.074714522671538,0.8759026719812035,0.11935193981574603,-4.949647795045405,13.3
,,0.052002191287315425,0.007085904180166461,0.0002817328830718434,0.05936982835055373,8.085168010473966,0.8759026719812035,0.11935193981574603,-4.949647795045405,13.4
,,0.051868980240006315,0.006823122488050991,0.000231831450039398,0.0589239341780967,8.098545049099158,0.8802701476658552,0.11579543326873264,-4.987438069082086,13.5
,,0.051868980240006315,0.006823122488050991,0.000231831450039398,0.0589239341780967,8.11192208772435,0.8802701476658552,0.11579543326873264,-4.987438069082086,13.6
,,0.051868980240006315,0.006823122488050991,0.000231831450039398,0.0589239341780967,8.125299126349544,0.8802701476658552,0.11579543326873264,-4.987438069082086,13.7
,,0.051868980240006315,0.006823122488050991,0.000231831450039398,0.0589239341780967,8.13771742286007,0.8802701476658552,0.11579543326873264,-4.987438069082086,13.8
,,0.05322311269980778,0.0057202713167600365,0.000127435255823142,0.059070819272390954,8.167578089759521,0.9010051554284718,0.09683751448210619,-5.163739041715333,13.9
,,0.05322311269980778,0.0057202713167600365,0.000127435255823142,0.059070819272390954,8.197438756658972,0.9010051554284718,0.09683751448210619,-5.163739041715333,14.0
,,0.05322311269980778,0.0057202713167600365,0.000127435255823142,0.059070819272390954,8.227299423558422,0.9010051554284718,0.09683751448210619,-5.163739041715333,14.1
,,0.05356498153253745,0.005549505818211991,0.00010264753441286361,0.0592171348851623,8.261025744033107,0.9045520631218333,0.09371452754298146,-5.194046396951852,14.2
,,0.05356498153253745,0.005549505818211991,0.00010264753441286361,0.0592171348851623,8.29475206450779,0.9045520631218333,0.09371452754298146,-5.194046396951852,14.3
,,0.05356498153253745,0.005549505818211991,0.00010264753441286361,0.0592171348851623,8.327480998249875,0.9045520631218333,0.09371452754298146,-5.194046396951852,14.4
,,0.05356498153253745,0.005549505818211991,0.00010264753441286361,0.0592171348851623,8.358288866323788,0.9045520631218333,0.09371452754298146,-5.194046396951852,14.5
,,0.052911915193394325,0.005847239735155585,0.0001338155850711633,0.05889297051362107,8.382394890570312,0.8984419487068763,0.09928586865563531,-5.1417855692343055,14.6
,,0.052911915193394325,0.005847239735155585,0.0001338155850711633,0.05889297051362107,8.406500914816839,0.8984419487068763,0.09928586865563531,-5.1417855692343055,14.7
,,0.052911915193394325,0.005847239735155585,0.0001338155850711633,0.05889297051362107,8.430606939063363,0.8984419487068763,0.09928586865563531,-5.1417855692343055,14.8
,,0.05330556697513106,0.005671787981022787,0.00010688364695380769,0.05908423860310765,8.45859440049777,0.902196054910782,0.09599494070021693,-5.172250870383471,14.9
,,0.05330556697513106,0.005671787981022787,0.00010688364695380769,0.05908423860310765,8.526023669876208,0.902196054910782,0.09599494070021693,-5.172250870383471,15.0
,,0.05330556697513106,0.005671787981022787,0.00010688364695380769,0.05908423860310765,8.550674131073135,0.902196054910782,0.09599494070021693,-5.172250870383471,15.1
,,0.052778248986377174,0.0060388627476694315,0.00014034242164310003,0.058957454155689704,8.568006763380255,0.8951921303624301,0.10242746797924024,-5.109539571573297,15.2
,,0.052778248986377174,0.0060388627476694315,0.00014034242164310003,0.058957454155689704,8.585339395687374,0.8951921303624301,0.10242746797924024,-5.109539571573297,15.3
,,0.052778248986377174,0.0060388627476694315,0.00014034242164310003,0.058957454155689704,8.60267202799449,0.8951921303624301,0.10242746797924024,-5.109539571573297,15.4
,,0.052778248986377174,0.0060388627476694315,0.00014034242164310003,0.058957454155689704,8.620004660301609,0.8951921303624301,0.10242746797924024,-5.109539571573297,15.5
,,0.0532473178491627,0.005866034334767125,0.000110814942128882,0.059224167126058706,8.641086842199174,0.8990809062088746,0.09904798360914496,-5.13857645526175,15.6
,,0.0532473178491627,0.005866034334767125,0.000110814942128882,0.059224167126058706,8.658485874271673,0.8990809062088746,0.09904798360914496,-5.13857645526175,15.7
,,0.0532473178491627,0.005866034334767125,0.000110814942128882,0.059224167126058706,8.675884906344171,0.8990809062088746,0.09904798360914496,-5.13857645526175,15.8
,,0.052304657309152305,0.00624197431329567,0.00027805261441688997,0.05882468423686487,8.68553148992874,0.8891617182089943,0.10611148014261475,-5.076458750282089,15.9
,,0.052304657309152305,0.00624197431329567,0.00027805261441688997,0.05882468423686487,8.695178073513308,0.8891617182089943,0.10611148014261475,-5.076458750282089,16.0
,,0.052304657309152305,0.00624197431329567,0.00027805261441688997,0.05882468423686487,8.704824657097877,0.8891617182089943,0.10611148014261475,-5.076458750282089,16.1
,,0.052304657309152305,0.00624197431329567,0.00027805261441688997,0.05882468423686487,8.714471240682444,0.8891617182089943,0.10611148014261475,-5.076458750282089,16.2
,,0.0533906212445895,0.0061786798805059575,0.00011439965755071483,0.059683700782646176,8.723168453947522,0.8945594952133653,0.10352373930375461,-5.086650641899354,16.3
,,0.0533906212445895,0.0061786798805059575,0.00011439965755071483,0.059683700782646176,8.731865667212599,0.8945594952133653,0.10352373930375461,-5.086650641899354,16.4
,,0.051507350233493766,0.006002601811854587,0.0002653722556430265,0.05777532430099138,8.739893241334515,0.891511226577571,0.10389559703002112,-5.115562268437603,16.5
,,0.051507350233493766,0.006002601811854587,0.0002653722556430265,0.05777532430099138,8.747920815456432,0.891511226577571,0.10389559703002112,-5.115562268437603,16.6
,,0.051507350233493766,0.006002601811854587,0.0002653722556430265,0.05777532430099138,8.755948389578348,0.891511226577571,0.10389559703002112,-5.115562268437603,16.7
,,0.051507350233493766,0.006002601811854587,0.0002653722556430265,0.05777532430099138,8.763975963700263,0.891511226577571,0.10389559703002112,-5.115562268437603,16.8
,,0.0537705191729942,0.006603267260102216,0.00011767334163815632,0.060491459774734566,8.807549247814386,0.8888943889473221,0.10916032254292199,-5.020190713031915,16.9
,,0.0537705191729942,0.006603267260102216,0.00011767334163815632,0.060491459774734566,8.806767962628069,0.8888943889473221,0.10916032254292199,-5.020190713031915,17.0
,,0.0537705191729942,0.006603267260102216,0.00011767334163815632,0.060491459774734566,8.80598667744175,0.8888943889473221,0.10916032254292199,-5.020190713031915,17.1
,,0.053626969110800865,0.007290979292988027,0.00015826141919509965,0.06107620982298399,8.796452413212826,0.8780336773717112,0.11937511044184523,-4.921117408240326,17.2
,,0.053626969110800865,0.007290979292988027,0.00015826141919509965,0.06107620982298399,8.786918148983904,0.8780336773717112,0.11937511044184523,-4.921117408240326,17.3
,,0.053626969110800865,0.007290979292988027,0.00015826141919509965,0.06107620982298399,8.777383884754983,0.8780336773717112,0.11937511044184523,-4.921117408240326,17.4
,,0.053626969110800865,0.007290979292988027,0.00015826141919509965,0.06107620982298399,8.764551032861755,0.8780336773717112,0.11937511044184523,-4.921117408240326,17.5
,,0.05181888725075126,0.00582191387671855,0.00020050015652484972,0.05784130128399466,8.768889434380405,0.8958803847846717,0.10065323129805759,-5.146126226499389,17.6
,,0.05181888725075126,0.00582191387671855,0.00020050015652484972,0.05784130128399466,8.77278201146309,0.8958803847846717,0.10065323129805759,-5.146126226499389,17.7
,,0.05181888725075126,0.00582191387671855,0.00020050015652484972,0.05784130128399466,8.776674588545774,0.8958803847846717,0.10065323129805759,-5.146126226499389,17.8
,,0.05440263356232761,0.007950680586833578,0.00016271483546126885,0.06251602898462245,8.757698841699018,0.8702189573766663,0.12717827277208008,-4.834497745573348,17.9
,,0.05440263356232761,0.007950680586833578,0.00016271483546126885,0.06251602898462245,8.73872309485226,0.8702189573766663,0.12717827277208008,-4.834497745573348,18.0
,,0.05440263356232761,0.007950680586833578,0.00016271483546126885,0.06251602898462245,8.719747348005503,0.8702189573766663,0.12717827277208008,-4.834497745573348,18.1
,,0.05440263356232761,0.007950680586833578,0.00016271483546126885,0.06251602898462245,8.739432042593851,0.8702189573766663,0.12717827277208008,-4.834497745573348,18.2
,,0.05536091975315136,0.00784270431600138,0.00012224578371307566,0.06332586985286581,8.719395257850502,0.8742228078631912,0.12384676806214386,-4.848171565831865,18.3
,,0.05536091975315136,0.00784270431600138,0.00012224578371307566,0.06332586985286581,8.699358473107157,0.8742228078631912,0.12384676806214386,-4.848171565831865,18.4
,,0.051469064473154774,0.005719168185089957,0.00022170931476745602,0.057409941973012184,8.700882688235449,0.8965183155445419,0.09961982173363769,-5.163931906352333,18.5
,,0.051469064473154774,0.005719168185089957,0.00022170931476745602,0.057409941973012184,8.702406903363741,0.8965183155445419,0.09961982173363769,-5.163931906352333,18.6
,,0.051469064473154774,0.005719168185089957,0.00022170931476745602,0.057409941973012184,8.703931118492033,0.8965183155445419,0.09961982173363769,-5.163931906352333,18.7
,,0.051469064473154774,0.005719168185089957,0.00022170931476745602,0.057409941973012184,8.705455333620327,0.8965183155445419,0.09961982173363769,-5.163931906352333,18.8
,,0.056472540189557,0.00863430101190894,0.00012335379175349353,0.06523019499321943,8.676388528294597,0.8657423175789559,0.13236662887189685,-4.752012518904459,18.9
,,0.056472540189557,0.00863430101190894,0.00012335379175349353,0.06523019499321943,8.64732172296887,0.8657423175789559,0.13236662887189685,-4.752012518904459,19.0
,,0.056472540189557,0.00863430101190894,0.00012335379175349353,0.06523019499321943,8.618254917643142,0.8657423175789559,0.13236662887189685,-4.752012518904459,19.1
,,0.05647495167743428,0.009552700570238971,0.0001677848799349786,0.06619543712760823,8.582204200572958,0.8531547509621352,0.14431055953031563,-4.650931382240879,19.2
,,0.05647495167743428,0.009552700570238971,0.0001677848799349786,0.06619543712760823,8.546153483502772,0.8531547509621352,0.14431055953031563,-4.650931382240879,19.3
,,0.05647495167743428,0.009552700570238971,0.0001677848799349786,0.06619543712760823,8.510102766432587,0.8531547509621352,0.14431055953031563,-4.650931382240879,19.4
,,0.05647495167743428,0.009552700570238971,0.0001677848799349786,0.06619543712760823,8.475087484475965,0.8531547509621352,0.14431055953031563,-4.650931382240879,19.5
,,0.05301203227586367,0.00573759096184913,0.0001581048833931754,0.05890772812110598,8.473042306754841,0.8999164280598025,0.09739963065717713,-5.1607158498040855,19.6
,,0.05301203227586367,0.00573759096184913,0.0001581048833931754,0.05890772812110598,8.470997129033716,0.8999164280598025,0.09739963065717713,-5.1607158498040855,19.7
,,0.05756605881212461,0.010433821896753051,0.00016722298192166314,0.06816710369079933,8.427594527448376,0.8444844462402241,0.1530624206080407,-4.562702644035667,19.8
,,0.05756605881212461,0.010433821896753051,0.00016722298192166314,0.06816710369079933,8.384191925863037,0.8444844462402241,0.1530624206080407,-4.562702644035667,19.9
,,0.05756605881212461,0.010433821896753051,0.00016722298192166314,0.06816710369079933,8.340789324277697,0.8444844462402241,0.1530624206080407,-4.562702644035667,20.0
,,0.05756605881212461,0.010433821896753051,0.00016722298192166314,0.06816710369079933,8.297386722692359,0.8444844462402241,0.1530624206080407,-4.562702644035667,20.1
,,0.05756605881212461,0.010433821896753051,0.00016722298192166314,0.06816710369079933,8.255602528979253,0.8444844462402241,0.1530624206080407,-4.562702644035667,20.2
,,0.05874277739744363,0.010354685869079413,0.00012048604391127585,0.06921794931043432,8.211439986637352,0.8486639373551681,0.14959538634465855,-4.570316120753175,20.3
,,0.05874277739744363,0.010354685869079413,0.00012048604391127585,0.06921794931043432,8.167277444295452,0.8486639373551681,0.14959538634465855,-4.570316120753175,20.4
,,0.04410553183202769,0.011240147532945182,0.00016359941587246632,0.05550927878084534,8.10368007925722,0.7945614283002943,0.20249132721255664,-4.488263308895867,20.5
,,0.04410553183202769,0.011240147532945182,0.00016359941587246632,0.05550927878084534,8.040082714218986,0.7945614283002943,0.20249132721255664,-4.488263308895867,20.6
,,0.04410553183202769,0.011240147532945182,0.00016359941587246632,0.05550927878084534,7.976485349180753,0.7945614283002943,0.20249132721255664,-4.488263308895867,20.7
,,0.04410553183202769,0.011240147532945182,0.00016359941587246632,0.05550927878084534,7.912887984142521,0.7945614283002943,0.20249132721255664,-4.488263308895867,20.8
,,0.05411097539687439,0.005685419789513754,0.00012658100369906467,0.059922976190087206,7.913865130416364,0.9030088095962385,0.09487879526341463,-5.169850312902672,20.9
,,0.05411097539687439,0.005685419789513754,0.00012658100369906467,0.059922976190087206,7.910718096830298,0.9030088095962385,0.09487879526341463,-5.169850312902672,21.0
,,0.05914050922220491,0.01190914790226438,0.00015730875241759244,0.07120696587688688,7.856998557714654,0.8305438729752332,0.1672469505701826,-4.430448442904486,21.1
,,0.05914050922220491,0.01190914790226438,0.00015730875241759244,0.07120696587688688,7.80327901859901,0.8305438729752332,0.1672469505701826,-4.430448442904486,21.2
,,0.05914050922220491,0.01190914790226438,0.00015730875241759244,0.07120696587688688,7.749559479483366,0.8305438729752332,0.1672469505701826,-4.430448442904486,21.3
,,0.05914050922220491,0.01190914790226438,0.00015730875241759244,0.07120696587688688,7.695839940367723,0.8305438729752332,0.1672469505701826,-4.430448442904486,21.4
,,0.05914050922220491,0.01190914790226438,0.00015730875241759244,0.07120696587688688,7.645478626947279,0.8305438729752332,0.1672469505701826,-4.430448442904486,21.5
,,0.06017658264561872,0.01171936668866346,0.00010978612206807563,0.07200573545635025,7.596993146633844,0.8357192974176016,0.16275601678657556,-4.4465125330967705,21.6
,,0.06017658264561872,0.01171936668866346,0.00010978612206807563,0.07200573545635025,7.54850766632041,0.8357192974176016,0.16275601678657556,-4.4465125330967705,21.7
,,0.05393434577268891,0.005588471282804544,0.0001304069191089683,0.05965322397460242,7.574588083678718,0.9041312804091134,0.09368263625087316,-5.187049502774958,21.8
,,0.05393434577268891,0.005588471282804544,0.0001304069191089683,0.05965322397460242,7.600668501037025,0.9041312804091134,0.09368263625087316,-5.187049502774958,21.9
,,0.05393434577268891,0.005588471282804544,0.0001304069191089683,0.05965322397460242,7.626748918395331,0.9041312804091134,0.09368263625087316,-5.187049502774958,22.0
,,0.05393434577268891,0.005588471282804544,0.0001304069191089683,0.05965322397460242,7.6528293357536405,0.9041312804091134,0.09368263625087316,-5.187049502774958,22.1
,,0.05393434577268891,0.005588471282804544,0.0001304069191089683,0.05965322397460242,7.678520218331463,0.9041312804091134,0.09368263625087316,-5.187049502774958,22.2
,,0.06020967894235878,0.012064253023580601,0.00010169798451251081,0.0723756299504519,7.652430534139892,0.8319054215290163,0.16668943720199392,-4.41750849449644,22.3
,,0.05946911894370783,0.012506480829385005,0.0001412956259095177,0.07211689539900236,7.623722111036539,0.8246211739243908,0.1734195677752098,-4.381508302680322,22.4
,,0.05946911894370783,0.012506480829385005,0.0001412956259095177,0.07211689539900236,7.59209013711042,0.8246211739243908,0.1734195677752098,-4.381508302680322,22.5
,,0.05946911894370783,0.012506480829385005,0.0001412956259095177,0.07211689539900236,7.560458163184302,0.8246211739243908,0.1734195677752098,-4.381508302680322,22.6
,,0.05946911894370783,0.012506480829385005,0.0001412956259095177,0.07211689539900236,7.528826189258182,0.8246211739243908,0.1734195677752098,-4.381508302680322,22.7
,,0.05946911894370783,0.012506480829385005,0.0001412956259095177,0.07211689539900236,7.4971942153320645,0.8246211739243908,0.1734195677752098,-4.381508302680322,22.8
,,0.05946911894370783,0.012506480829385005,0.0001412956259095177,0.07211689539900236,7.446647165588067,0.8246211739243908,0.1734195677752098,-4.381508302680322,22.9
,,0.05919324886021013,0.012428818313409569,0.00013374413800290802,0.0717558113116226,7.396183631573027,0.8249262014911165,0.17320991967373126,-4.387737445282838,23.0
,,0.05919324886021013,0.012428818313409569,0.00013374413800290802,0.0717558113116226,7.345720097557987,0.8249262014911165,0.17320991967373126,-4.387737445282838,23.1
,,0.05919324886021013,0.012428818313409569,0.00013374413800290802,0.0717558113116226,7.291390909967715,0.8249262014911165,0.17320991967373126,-4.387737445282838,23.2
,,0.05919324886021013,0.012428818313409569,0.00013374413800290802,0.0717558113116226,7.237061722377441,0.8249262014911165,0.17320991967373126,-4.387737445282838,23.3
,,0.05919324886021013,0.012428818313409569,0.00013374413800290802,0.0717558113116226,7.182732534787169,0.8249262014911165,0.17320991967373126,-4.387737445282838,23.4
,,0.05919324886021013,0.012428818313409569,0.00013374413800290802,0.0717558113116226,7.1284033471968975,0.8249262014911165,0.17320991967373126,-4.387737445282838,23.5
,,0.05919324886021013,0.012428818313409569,0.00013374413800290802,0.0717558113116226,7.080776003434012,0.8249262014911165,0.17320991967373126,-4.387737445282838,23.6
,,0.05871469137875843,0.012143739699782477,0.00012824918429170604,0.07098668026283261,7.033953054374591,0.8271226540157057,0.17107068051104127,-4.410941493029724,23.7
,,0.05871469137875843,0.012143739699782477,0.00012824918429170604,0.07098668026283261,6.9871301053151695,0.8271226540157057,0.17107068051104127,-4.410941493029724,23.8
,,0.05871469137875843,0.012143739699782477,0.00012824918429170604,0.07098668026283261,6.936425719067867,0.8271226540157057,0.17107068051104127,-4.410941493029724,23.9
,,0.05871469137875843,0.012143739699782477,0.00012824918429170604,0.07098668026283261,6.885721332820565,0.8271226540157057,0.17107068051104127,-4.410941493029724,24.0
,,0.05871469137875843,0.012143739699782477,0.00012824918429170604,0.07098668026283261,6.835016946573263,0.8271226540157057,0.17107068051104127,-4.410941493029724,24.1
,,0.05871469137875843,0.012143739699782477,0.00012824918429170604,0.07098668026283261,6.7916303892157694,0.8271226540157057,0.17107068051104127,-4.410941493029724,24.2
,,0.05767555594726183,0.012167222119094146,0.00011701283183293078,0.0699597908981889,6.747191211085043,0.824410067651516,0.1739173597131081,-4.4090096544797195,24.3
,,0.042577776320588984,0.011692335447824423,0.00012464980727881512,0.05439476157569222,6.690543938008052,0.782755086835715,0.21495333574638667,-4.448821741773126,24.4
,,0.042577776320588984,0.011692335447824423,0.00012464980727881512,0.05439476157569222,6.6338966649310604,0.782755086835715,0.21495333574638667,-4.448821741773126,24.5
,,0.042577776320588984,0.011692335447824423,0.00012464980727881512,0.05439476157569222,6.5734998422636215,0.782755086835715,0.21495333574638667,-4.448821741773126,24.6
,,0.042577776320588984,0.011692335447824423,0.00012464980727881512,0.05439476157569222,6.513103019596185,0.782755086835715,0.21495333574638667,-4.448821741773126,24.7
,,0.042577776320588984,0.011692335447824423,0.00012464980727881512,0.05439476157569222,6.452706196928748,0.782755086835715,0.21495333574638667,-4.448821741773126,24.8
,,0.042577776320588984,0.011692335447824423,0.00012464980727881512,0.05439476157569222,6.400061822749241,0.782755086835715,0.21495333574638667,-4.448821741773126,24.9
,,0.057052627169862424,0.011626123578718325,0.0001157964684194205,0.06879454721700017,6.361481524991719,0.8293190300373671,0.16899774835417966,-4.454500680246455,25.0
,,0.054404411570376184,0.005123881551947989,7.6807235985408e-05,0.059605100358309585,6.386351599776626,0.9127475877622884,0.08596381049853674,-5.2738430115403645,25.1
,,0.054404411570376184,0.005123881551947989,7.6807235985408e-05,0.059605100358309585,6.411221674561531,0.9127475877622884,0.08596381049853674,-5.2738430115403645,25.2
,,0.054404411570376184,0.005123881551947989,7.6807235985408e-05,0.059605100358309585,6.433185087501966,0.9127475877622884,0.08596381049853674,-5.2738430115403645,25.3
,,0.054404411570376184,0.005123881551947989,7.6807235985408e-05,0.059605100358309585,6.455148500442401,0.9127475877622884,0.08596381049853674,-5.2738430115403645,25.4
,,0.054404411570376184,0.005123881551947989,7.6807235985408e-05,0.059605100358309585,6.477781552525995,0.9127475877622884,0.08596381049853674,-5.2738430115403645,25.5
,,0.056358188476604516,0.010999490817204778,0.00011688769846066078,0.06747456699226996,6.439369012911054,0.8352508358158273,0.16301684186376336,-4.509906296600171,25.6
,,0.056358188476604516,0.010999490817204778,0.00011688769846066078,0.06747456699226996,6.400956473296114,0.8352508358158273,0.16301684186376336,-4.509906296600171,25.7
,,0.054189914640407184,0.005037144298936021,7.274416482415277e-05,0.05929980310416736,6.425147866294828,0.9138295880209917,0.08494369349064551,-5.290915964835432,25.8
,,0.054189914640407184,0.005037144298936021,7.274416482415277e-05,0.05929980310416736,6.454203927883166,0.9138295880209917,0.08494369349064551,-5.290915964835432,25.9
,,0.054189914640407184,0.005037144298936021,7.274416482415277e-05,0.05929980310416736,6.483259989471504,0.9138295880209917,0.08494369349064551,-5.290915964835432,26.0
,,0.054189914640407184,0.005037144298936021,7.274416482415277e-05,0.05929980310416736,6.512316051059845,0.9138295880209917,0.08494369349064551,-5.290915964835432,26.1
,,0.054189914640407184,0.005037144298936021,7.274416482415277e-05,0.05929980310416736,6.550125091690787,0.9138295880209917,0.08494369349064551,-5.290915964835432,26.2
,,0.053616087537275675,0.005151168515614086,7.18391965898251e-05,0.058839095249479584,6.584050424986299,0.9112323585184613,0.08754669822458984,-5.268531693807805,26.3
,,0.05389014639302904,0.004964801659379536,6.956726926654047e-05,0.058924515321675114,6.622930333977825,0.9145624041001793,0.08425697915843962,-5.305381930041336,26.4
,,0.05389014639302904,0.004964801659379536,6.956726926654047e-05,0.058924515321675114,6.6618102429693495,0.9145624041001793,0.08425697915843962,-5.305381930041336,26.5
,,0.05389014639302904,0.004964801659379536,6.956726926654047e-05,0.058924515321675114,6.683518898548997,0.9145624041001793,0.08425697915843962,-5.305381930041336,26.6
,,0.05389014639302904,0.004964801659379536,6.956726926654047e-05,0.058924515321675114,6.705227554128645,0.9145624041001793,0.08425697915843962,-5.305381930041336,26.7
,,0.05389014639302904,0.004964801659379536,6.956726926654047e-05,0.058924515321675114,6.726936209708291,0.9145624041001793,0.08425697915843962,-5.305381930041336,26.8
,,0.05500022771284773,0.009777124216743368,0.00012590260251826667,0.06490325453210936,6.713412726531488,0.8474186403955699,0.15064150923134934,-4.6277098855435685,26.9
,,0.05500022771284773,0.009777124216743368,0.00012590260251826667,0.06490325453210936,6.6998892433546855,0.8474186403955699,0.15064150923134934,-4.6277098855435685,27.0
,,0.055036395108311494,0.009282963975209186,0.00013326201629538435,0.06445262109981607,6.689736350384476,0.853904684854912,0.14402771860639935,-4.679574389299095,27.1
,,0.055036395108311494,0.009282963975209186,0.00013326201629538435,0.06445262109981607,6.679583457414267,0.853904684854912,0.14402771860639935,-4.679574389299095,27.2
,,0.055036395108311494,0.009282963975209186,0.00013326201629538435,0.06445262109981607,6.667026185183404,0.853904684854912,0.14402771860639935,-4.679574389299095,27.3
,,0.055036395108311494,0.009282963975209186,0.00013326201629538435,0.06445262109981607,6.654468912952538,0.853904684854912,0.14402771860639935,-4.679574389299095,27.4
,,0.05297909324872818,0.005082004666241683,6.720886330919687e-05,0.05812830677827906,6.670307186433273,0.911416419728314,0.08742736453043713,-5.282049475894566,27.5
,,0.05297909324872818,0.005082004666241683,6.720886330919687e-05,0.05812830677827906,6.686145459914007,0.911416419728314,0.08742736453043713,-5.282049475894566,27.6
,,0.05429135795112826,0.008737007629449223,0.00013994009705982054,0.0631683056776373,6.655196087219627,0.8594714923681792,0.13831315460693572,-4.740187524432129,27.7
,,0.05429135795112826,0.008737007629449223,0.00013994009705982054,0.0631683056776373,6.6242467145252455,0.8594714923681792,0.13831315460693572,-4.740187524432129,27.8
,,0.05429135795112826,0.008737007629449223,0.00013994009705982054,0.0631683056776373,6.620618554435598,0.8594714923681792,0.13831315460693572,-4.740187524432129,27.9
,,0.05429135795112826,0.008737007629449223,0.00013994009705982054,0.0631683056776373,6.616990394345948,0.8594714923681792,0.13831315460693572,-4.740187524432129,28.0
,,0.05254479440949566,0.005096863496013059,6.54848529287639e-05,0.05770714275843748,6.658865430832099,0.9105422985409024,0.08832292247336809,-5.279129929224163,28.1
,,0.05254479440949566,0.005096863496013059,6.54848529287639e-05,0.05770714275843748,6.707724379062707,0.9105422985409024,0.08832292247336809,-5.279129929224163,28.2
,,0.05254479440949566,0.005096863496013059,6.54848529287639e-05,0.05770714275843748,6.756583327293314,0.9105422985409024,0.08832292247336809,-5.279129929224163,28.3
,,0.053613708460072435,0.008275298413429423,0.0001480255826400926,0.06203703245614195,6.7628814233884125,0.864221036007412,0.1333928797977204,-4.794480296323378,28.4
,,0.053613708460072435,0.008275298413429423,0.0001480255826400926,0.06203703245614195,6.769179519483508,0.864221036007412,0.1333928797977204,-4.794480296323378,28.5
,,0.053613708460072435,0.008275298413429423,0.0001480255826400926,0.06203703245614195,6.73850553003014,0.864221036007412,0.1333928797977204,-4.794480296323378,28.6
,,0.053613708460072435,0.008275298413429423,0.0001480255826400926,0.06203703245614195,6.707831540576771,0.864221036007412,0.1333928797977204,-4.794480296323378,28.7
,,0.042158073200826186,0.00834194804482826,0.00015199319079707766,0.05065201443645152,6.702681419814111,0.8323079283197727,0.16469133829404048,-4.786458511370118,28.8
,,0.042158073200826186,0.00834194804482826,0.00015199319079707766,0.05065201443645152,6.69753129905145,0.8323079283197727,0.16469133829404048,-4.786458511370118,28.9
,,0.05218699408279444,0.004963822916826883,6.239058840367141e-05,0.05721320758802499,6.753044775407835,0.9121494193889146,0.08676008785541044,-5.305579085759796,29.0
,,0.05218699408279444,0.004963822916826883,6.239058840367141e-05,0.05721320758802499,6.808558251764219,0.9121494193889146,0.08676008785541044,-5.305579085759796,29.1
,,0.05218699408279444,0.004963822916826883,6.239058840367141e-05,0.05721320758802499,6.864071728120603,0.9121494193889146,0.08676008785541044,-5.305579085759796,29.2
,,0.05218699408279444,0.004963822916826883,6.239058840367141e-05,0.05721320758802499,6.917854015899724,0.9121494193889146,0.08676008785541044,-5.305579085759796,29.3
,,0.05248716524088273,0.008083906106102599,0.00016462522896919436,0.060735696575954526,6.926962185311619,0.8641897302559725,0.13309975124749035,-4.817880094290179,29.4
,,0.05248716524088273,0.008083906106102599,0.00016462522896919436,0.060735696575954526,6.955505177419845,0.8641897302559725,0.13309975124749035,-4.817880094290179,29.5
,,0.042069806234628075,0.007724107493242375,0.00017019214700371248,0.04996410587487417,6.972423296097906,0.8420005821776156,0.15459312956757335,-4.8634089977283494,29.6
,,0.042069806234628075,0.007724107493242375,0.00017019214700371248,0.04996410587487417,6.989341414775969,0.8420005821776156,0.15459312956757335,-4.8634089977283494,29.7
,,0.042069806234628075,0.007724107493242375,0.00017019214700371248,0.04996410587487417,7.006259533454029,0.8420005821776156,0.15459312956757335,-4.8634089977283494,29.8
,,0.042069806234628075,0.007724107493242375,0.00017019214700371248,0.04996410587487417,6.961026868869485,0.8420005821776156,0.15459312956757335,-4.8634089977283494,29.9
,,0.042069806234628075,0.007724107493242375,0.00017019214700371248,0.04996410587487417,6.915794204284939,0.8420005821776156,0.15459312956757335,-4.8634089977283494,30.0
,,0.05212725933752637,0.00796318946840161,0.00017836400236901574,0.060268812808297,6.9333503661784395,0.8649126622641917,0.13212786343960214,-4.832925672394311,30.1
,,0.05212725933752637,0.00796318946840161,0.00017836400236901574,0.060268812808297,6.950906528071941,0.8649126622641917,0.13212786343960214,-4.832925672394311,30.2
,,0.04208071403205058,0.007643243323714782,0.0001842645442721312,0.04990822190003749,6.95690248847174,0.8431619566879214,0.153145975407091,-4.873933247075489,30.3
,,0.04208071403205058,0.007643243323714782,0.0001842645442721312,0.04990822190003749,6.962898448871538,0.8431619566879214,0.153145975407091,-4.873933247075489,30.4
,,0.04208071403205058,0.007643243323714782,0.0001842645442721312,0.04990822190003749,6.968894409271337,0.8431619566879214,0.153145975407091,-4.873933247075489,30.5
,,0.04208071403205058,0.007643243323714782,0.0001842645442721312,0.04990822190003749,6.973014536564126,0.8431619566879214,0.153145975407091,-4.873933247075489,30.6
,,0.04208071403205058,0.007643243323714782,0.0001842645442721312,0.04990822190003749,6.977134663856915,0.8431619566879214,0.153145975407091,-4.873933247075489,30.7
,,0.05193794014714182,0.00799284856213097,0.00019453895850544845,0.06012532766777824,6.942101882008535,0.8638279766910256,0.13293646574860027,-4.82920806682939,30.8
,,0.05229460626287498,0.007723935370214892,0.00020034817659702833,0.060218889809686905,6.9100958788055715,0.8684086742240603,0.12826432693504103,-4.863431281849259,30.9
,,0.05229460626287498,0.007723935370214892,0.00020034817659702833,0.060218889809686905,6.878089875602609,0.8684086742240603,0.12826432693504103,-4.863431281849259,31.0
,,0.05229460626287498,0.007723935370214892,0.00020034817659702833,0.060218889809686905,6.846083872399645,0.8684086742240603,0.12826432693504103,-4.863431281849259,31.1
,,0.05229460626287498,0.007723935370214892,0.00020034817659702833,0.060218889809686905,6.814077869196682,0.8684086742240603,0.12826432693504103,-4.863431281849259,31.2
,,0.05229460626287498,0.007723935370214892,0.00020034817659702833,0.060218889809686905,6.833852432763114,0.8684086742240603,0.12826432693504103,-4.863431281849259,31.3
,,0.051941810632873925,0.008191510524637843,0.00021207667867545167,0.060345397836187226,6.8514731855890005,0.8607418708859031,0.1357437487921515,-4.804656962880531,31.4
,,0.051941810632873925,0.008191510524637843,0.00021207667867545167,0.060345397836187226,6.869093938414887,0.8607418708859031,0.1357437487921515,-4.804656962880531,31.5
,,0.05250396173871613,0.007980340333912393,0.00021918688016261728,0.060703488952791144,6.889361705766651,0.8649249432688828,0.1314642777801235,-4.830774220069886,31.6
,,0.05250396173871613,0.007980340333912393,0.00021918688016261728,0.060703488952791144,6.909629473118415,0.8649249432688828,0.1314642777801235,-4.830774220069886,31.7
,,0.05250396173871613,0.007980340333912393,0.00021918688016261728,0.060703488952791144,6.929897240470179,0.8649249432688828,0.1314642777801235,-4.830774220069886,31.8
,,0.05250396173871613,0.007980340333912393,0.00021918688016261728,0.060703488952791144,6.950165007821944,0.8649249432688828,0.1314642777801235,-4.830774220069886,31.9
,,0.05250396173871613,0.007980340333912393,0.00021918688016261728,0.060703488952791144,6.970349259444752,0.8649249432688828,0.1314642777801235,-4.830774220069886,32.0
,,0.0521994844072387,0.008557983034914212,0.00023131115713185223,0.06098877859928476,6.9852040063921805,0.8558866992599662,0.1403206168653224,-4.7608907433551915,32.1
,,0.052931411234473084,0.008439894111097563,0.0002392326409463416,0.06161053798651699,7.001970587674488,0.8591291841349726,0.1369878333629317,-4.774785516531462,32.2
,,0.052931411234473084,0.008439894111097563,0.0002392326409463416,0.06161053798651699,7.018737168956795,0.8591291841349726,0.1369878333629317,-4.774785516531462,32.3
,,0.052931411234473084,0.008439894111097563,0.0002392326409463416,0.06161053798651699,7.035503750239101,0.8591291841349726,0.1369878333629317,-4.774785516531462,32.4
,,0.052931411234473084,0.008439894111097563,0.0002392326409463416,0.06161053798651699,7.05227033152141,0.8591291841349726,0.1369878333629317,-4.774785516531462,32.5
,,0.052931411234473084,0.008439894111097563,0.0002392326409463416,0.06161053798651699,7.069036912803717,0.8591291841349726,0.1369878333629317,-4.774785516531462,32.6
,,0.052931411234473084,0.008439894111097563,0.0002392326409463416,0.06161053798651699,7.084999099382562,0.8591291841349726,0.1369878333629317,-4.774785516531462,32.7
,,0.052651364983785504,0.009095147288096246,0.00025039431664232827,0.06199690658852408,7.095598824001182,0.8492579369037667,0.14670324357408826,-4.7000142727400736,32.8
,,0.052831016502147374,0.007136098154196392,6.061531258370294e-05,0.06002772996892747,7.124136287076561,0.8801101845679427,0.11888002691240025,-4.9425891290069295,32.9
,,0.052831016502147374,0.007136098154196392,6.061531258370294e-05,0.06002772996892747,7.152673750151938,0.8801101845679427,0.11888002691240025,-4.9425891290069295,33.0
,,0.052831016502147374,0.007136098154196392,6.061531258370294e-05,0.06002772996892747,7.181211213227316,0.8801101845679427,0.11888002691240025,-4.9425891290069295,33.1
,,0.052831016502147374,0.007136098154196392,6.061531258370294e-05,0.06002772996892747,7.209748676302695,0.8801101845679427,0.11888002691240025,-4.9425891290069295,33.2
,,0.052831016502147374,0.007136098154196392,6.061531258370294e-05,0.06002772996892747,7.239338760151306,0.8801101845679427,0.11888002691240025,-4.9425891290069295,33.3
,,0.05325029421590692,0.00982180657825503,0.00026951117109841604,0.06334161196526036,7.259117957613222,0.8406842289569767,0.15506088767746845,-4.623150204263628,33.4
,,0.05325029421590692,0.00982180657825503,0.00026951117109841604,0.06334161196526036,7.27889715507514,0.8406842289569767,0.15506088767746845,-4.623150204263628,33.5
,,0.05353804209880163,0.007856897492094754,5.9923275042610475e-05,0.06145486286593899,7.314148640918482,0.8711766588039167,0.1278482633544268,-4.846363471571442,33.6
,,0.05353804209880163,0.007856897492094754,5.9923275042610475e-05,0.06145486286593899,7.349400126761825,0.8711766588039167,0.1278482633544268,-4.846363471571442,33.7
,,0.05353804209880163,0.007856897492094754,5.9923275042610475e-05,0.06145486286593899,7.384651612605167,0.8711766588039167,0.1278482633544268,-4.846363471571442,33.8
,,0.05353804209880163,0.007856897492094754,5.9923275042610475e-05,0.06145486286593899,7.419903098448511,0.8711766588039167,0.1278482633544268,-4.846363471571442,33.9
,,0.05353804209880163,0.007856897492094754,5.9923275042610475e-05,0.06145486286593899,7.441090507869869,0.8711766588039167,0.1278482633544268,-4.846363471571442,34.0
,,0.05393961297417867,0.010664318541528363,0.00028697180109577675,0.0648909033168028,7.379314286222091,0.8312353537573823,0.16434227289862602,-4.540851825815883,34.1
,,0.05503950416827806,0.010773655624061884,0.0002984311921955331,0.06611159098453548,7.318102063235801,0.8325242721983903,0.16296167530716374,-4.530651418845011,34.2
,,0.05503950416827806,0.010773655624061884,0.0002984311921955331,0.06611159098453548,7.256889840249512,0.8325242721983903,0.16296167530716374,-4.530651418845011,34.3
,,0.05503950416827806,0.010773655624061884,0.0002984311921955331,0.06611159098453548,7.19567761726322,0.8325242721983903,0.16296167530716374,-4.530651418845011,34.4
,,0.05503950416827806,0.010773655624061884,0.0002984311921955331,0.06611159098453548,7.134465394276931,0.8325242721983903,0.16296167530716374,-4.530651418845011,34.5
,,0.05503950416827806,0.010773655624061884,0.0002984311921955331,0.06611159098453548,7.134298762989176,0.8325242721983903,0.16296167530716374,-4.530651418845011,34.6
,,0.05503950416827806,0.010773655624061884,0.0002984311921955331,0.06611159098453548,7.134132131701419,0.8325242721983903,0.16296167530716374,-4.530651418845011,34.7
,,0.05460480648052392,0.011565116321879561,0.00030156627699236326,0.06647148907939585,7.067059317291948,0.8214771060010714,0.1739861176882285,-4.459761925253376,34.8
,,0.05566777876571206,0.011713259876363602,0.00031347943536860046,0.06769451807744425,7.000331326792841,0.8223380614369202,0.17303114357005,-4.447033756137744,34.9
,,0.05566777876571206,0.011713259876363602,0.00031347943536860046,0.06769451807744425,6.933603336293734,0.8223380614369202,0.17303114357005,-4.447033756137744,35.0
,,0.05566777876571206,0.011713259876363602,0.00031347943536860046,0.06769451807744425,6.866875345794627,0.8223380614369202,0.17303114357005,-4.447033756137744,35.1
,,0.05566777876571206,0.011713259876363602,0.00031347943536860046,0.06769451807744425,6.800147355295522,0.8223380614369202,0.17303114357005,-4.447033756137744,35.2
,,0.05566777876571206,0.011713259876363602,0.00031347943536860046,0.06769451807744425,6.737303072131845,0.8223380614369202,0.17303114357005,-4.447033756137744,35.3
,,0.04232458205567162,0.012460500060119931,0.0003117947373909751,0.05509687685318252,6.654439285242937,0.768184776942159,0.22615619562835865,-4.385191633192197,35.4
,,0.04232458205567162,0.012460500060119931,0.0003117947373909751,0.05509687685318252,6.571575498354028,0.768184776942159,0.22615619562835865,-4.385191633192197,35.5
,,0.05609212623003641,0.012584765226343251,0.0003234177836684527,0.06900030924004812,6.500494434842911,0.8129257223311148,0.1823870844196013,-4.375268305607145,35.6
,,0.05609212623003641,0.012584765226343251,0.0003234177836684527,0.06900030924004812,6.429413371331795,0.8129257223311148,0.1823870844196013,-4.375268305607145,35.7
,,0.05609212623003641,0.012584765226343251,0.0003234177836684527,0.06900030924004812,6.358332307820678,0.8129257223311148,0.1823870844196013,-4.375268305607145,35.8
,,0.05609212623003641,0.012584765226343251,0.0003234177836684527,0.06900030924004812,6.345351706995452,0.8129257223311148,0.1823870844196013,-4.375268305607145,35.9
,,0.05609212623003641,0.012584765226343251,0.0003234177836684527,0.06900030924004812,6.3323711061702275,0.8129257223311148,0.1823870844196013,-4.375268305607145,36.0
,,0.042095928790905256,0.0132417591013283,0.0003162926592778417,0.0556539805515114,6.301818617543063,0.756386665854794,0.23793013491770254,-4.324379874660645,36.1
,,0.042095928790905256,0.0132417591013283,0.0003162926592778417,0.0556539805515114,6.271266128915898,0.756386665854794,0.23793013491770254,-4.324379874660645,36.2
,,0.055465926240697044,0.0106060479407072,5.482931648729826e-05,0.06612680349789155,6.263498332269341,0.8387813005730056,0.16038954523252244,-4.546330880127764,36.3
,,0.055465926240697044,0.0106060479407072,5.482931648729826e-05,0.06612680349789155,6.255730535622784,0.8387813005730056,0.16038954523252244,-4.546330880127764,36.4
,,0.055465926240697044,0.0106060479407072,5.482931648729826e-05,0.06612680349789155,6.19800619339299,0.8387813005730056,0.16038954523252244,-4.546330880127764,36.5
,,0.055465926240697044,0.0106060479407072,5.482931648729826e-05,0.06612680349789155,6.140281851163194,0.8387813005730056,0.16038954523252244,-4.546330880127764,36.6
,,0.055554853201311274,0.013847858227753307,0.00031569011181835555,0.06971840154088293,6.115813492938502,0.7968463414746229,0.19862558408819672,-4.279624698902309,36.7
,,0.055554853201311274,0.013847858227753307,0.00031569011181835555,0.06971840154088293,6.0913451347138095,0.7968463414746229,0.19862558408819672,-4.279624698902309,36.8
,,0.05627540901171468,0.013845778773204854,0.00032664305808609545,0.07044783084300563,6.0674617106175255,0.7988238720525765,0.1965394620035987,-4.2797748745222375,36.9
,,0.05627540901171468,0.013845778773204854,0.00032664305808609545,0.07044783084300563,6.043578286521243,0.7988238720525765,0.1965394620035987,-4.2797748745222375,37.0
,,0.05627540901171468,0.013845778773204854,0.00032664305808609545,0.07044783084300563,5.974191665849161,0.7988238720525765,0.1965394620035987,-4.2797748745222375,37.1
,,0.05627540901171468,0.013845778773204854,0.00032664305808609545,0.07044783084300563,5.904805045177078,0.7988238720525765,0.1965394620035987,-4.2797748745222375,37.2
,,0.05627540901171468,0.013845778773204854,0.00032664305808609545,0.07044783084300563,5.835418424504995,0.7988238720525765,0.1965394620035987,-4.2797748745222375,37.3
,,0.05544999803132529,0.014240658378721243,0.00030954722416152465,0.07000020363420806,5.806696381675504,0.7921405246345269,0.2034373850272922,-4.251654139606326,37.4
,,0.05544999803132529,0.014240658378721243,0.00030954722416152465,0.07000020363420806,5.777974338846013,0.7921405246345269,0.2034373850272922,-4.251654139606326,37.5
,,0.056052586780503406,0.014153743649825967,0.0003199628943243763,0.07052629332465374,5.749991021363119,0.7947757373619012,0.20068747388540653,-4.257776120992774,37.6
,,0.056052586780503406,0.014153743649825967,0.0003199628943243763,0.07052629332465374,5.722007703880225,0.7947757373619012,0.20068747388540653,-4.257776120992774,37.7
,,0.056052586780503406,0.014153743649825967,0.0003199628943243763,0.07052629332465374,5.709857941570836,0.7947757373619012,0.20068747388540653,-4.257776120992774,37.8
,,0.056052586780503406,0.014153743649825967,0.0003199628943243763,0.07052629332465374,5.697708179261448,0.7947757373619012,0.20068747388540653,-4.257776120992774,37.9
,,0.054204308750000624,0.011371718242026997,4.666004723915472e-05,0.06562268703926678,5.6338539682361795,0.8259995314968782,0.1732894331989557,-4.476625861966471,38.0
,,0.054204308750000624,0.011371718242026997,4.666004723915472e-05,0.06562268703926678,5.569999757210909,0.8259995314968782,0.1732894331989557,-4.476625861966471,38.1
,,0.05570586882456126,0.014217901450108728,0.0003096815582196644,0.07023345183288966,5.496716880221044,0.7931529402414296,0.2024377426861799,-4.253253442845842,38.2
,,0.05570586882456126,0.014217901450108728,0.0003096815582196644,0.07023345183288966,5.423434003231177,0.7931529402414296,0.2024377426861799,-4.253253442845842,38.3
,,0.05570586882456126,0.014217901450108728,0.0003096815582196644,0.07023345183288966,5.3948252446085405,0.7931529402414296,0.2024377426861799,-4.253253442845842,38.4
,,0.05570586882456126,0.014217901450108728,0.0003096815582196644,0.07023345183288966,5.3662164859859045,0.7931529402414296,0.2024377426861799,-4.253253442845842,38.5
,,0.05570586882456126,0.014217901450108728,0.0003096815582196644,0.07023345183288966,5.349232600793432,0.7931529402414296,0.2024377426861799,-4.253253442845842,38.6
,,0.05379635290813312,0.011266440328582396,4.938333832752693e-05,0.06511217657504305,5.341769948235528,0.8262103302004009,0.1730312350347804,-4.485926854542141,38.7
,,0.05379635290813312,0.011266440328582396,4.938333832752693e-05,0.06511217657504305,5.334307295677624,0.8262103302004009,0.1730312350347804,-4.485926854542141,38.8
,,0.05529536008189901,0.014074082425659232,0.00029858890151734105,0.06966803140907558,5.3174441805605905,0.7936977543863216,0.20201636447884208,-4.263420298864108,38.9
,,0.05529536008189901,0.014074082425659232,0.00029858890151734105,0.06966803140907558,5.300581065443557,0.7936977543863216,0.20201636447884208,-4.263420298864108,39.0
,,0.05529536008189901,0.014074082425659232,0.00029858890151734105,0.06966803140907558,5.271501629378054,0.7936977543863216,0.20201636447884208,-4.263420298864108,39.1
,,0.05529536008189901,0.014074082425659232,0.00029858890151734105,0.06966803140907558,5.242422193312552,0.7936977543863216,0.20201636447884208,-4.263420298864108,39.2
,,0.053360742008386225,0.011024182480553622,5.53846828642563e-05,0.0644403091718041,5.235030258747978,0.8280646491952937,0.17107587816132422,-4.507664011822288,39.3
,,0.053360742008386225,0.011024182480553622,5.53846828642563e-05,0.0644403091718041,5.2276383241834035,0.8280646491952937,0.17107587816132422,-4.507664011822288,39.4
,,0.053360742008386225,0.011024182480553622,5.53846828642563e-05,0.0644403091718041,5.220246389618828,0.8280646491952937,0.17107587816132422,-4.507664011822288,39.5
,,0.05488518971982731,0.013769734874354057,0.00028780001106236674,0.06894272460524373,5.203361052666194,0.7960983560497809,0.19972716415252817,-4.2852822202864775,39.6
,,0.05488518971982731,0.013769734874354057,0.00028780001106236674,0.06894272460524373,5.186475715713561,0.7960983560497809,0.19972716415252817,-4.2852822202864775,39.7
,,0.05488518971982731,0.013769734874354057,0.00028780001106236674,0.06894272460524373,5.158563248853189,0.7960983560497809,0.19972716415252817,-4.2852822202864775,39.8
,,0.05488518971982731,0.013769734874354057,0.00028780001106236674,0.06894272460524373,5.127624003347402,0.7960983560497809,0.19972716415252817,-4.2852822202864775,39.9
,,0.040866126162178676,0.01369573500882251,0.00026404501421099525,0.054825906185212187,5.085550630387238,0.745379857911062,0.24980407916206163,-4.290670807840714,40.0
,,0.040866126162178676,0.01369573500882251,0.00026404501421099525,0.054825906185212187,5.0434772574270745,0.745379857911062,0.24980407916206163,-4.290670807840714,40.1
,,0.05449697898568777,0.013353481442007759,0.0002765042754187258,0.06812696470311426,5.013595535571189,0.7999325850370165,0.19600875365870127,-4.315978145960773,40.2
,,0.05449697898568777,0.013353481442007759,0.0002765042754187258,0.06812696470311426,4.983713813715303,0.7999325850370165,0.19600875365870127,-4.315978145960773,40.3
,,0.05449697898568777,0.013353481442007759,0.0002765042754187258,0.06812696470311426,4.958604641511744,0.7999325850370165,0.19600875365870127,-4.315978145960773,40.4
,,0.05449697898568777,0.013353481442007759,0.0002765042754187258,0.06812696470311426,4.933495469308186,0.7999325850370165,0.19600875365870127,-4.315978145960773,40.5
,,0.05449697898568777,0.013353481442007759,0.0002765042754187258,0.06812696470311426,4.90573928257875,0.7999325850370165,0.19600875365870127,-4.315978145960773,40.6
,,0.04099055511926791,0.01324933015208508,0.00025497591135620795,0.05449486118270921,4.867012837800048,0.7521912016958012,0.24312990004072144,-4.323808282387447,40.7
,,0.04099055511926791,0.01324933015208508,0.00025497591135620795,0.05449486118270921,4.828286393021346,0.7521912016958012,0.24312990004072144,-4.323808282387447,40.8
,,0.05419348684056982,0.0128965065556873,0.0002684150351712694,0.06735840843142839,4.80187550687595,0.8045541470258964,0.19146097504391138,-4.350798813926705,40.9
,,0.05419348684056982,0.0128965065556873,0.0002684150351712694,0.06735840843142839,4.775464620730554,0.8045541470258964,0.19146097504391138,-4.350798813926705,41.0
,,0.05419348684056982,0.0128965065556873,0.0002684150351712694,0.06735840843142839,4.7543832392605365,0.8045541470258964,0.19146097504391138,-4.350798813926705,41.1
,,0.05419348684056982,0.0128965065556873,0.0002684150351712694,0.06735840843142839,4.73139002345564,0.8045541470258964,0.19146097504391138,-4.350798813926705,41.2
,,0.05241937818982771,0.009957605921518904,8.613120869544862e-05,0.06246311532004206,4.720197603875784,0.839205312146964,0.15941577474160792,-4.609418605604378,41.3
,,0.05241937818982771,0.009957605921518904,8.613120869544862e-05,0.06246311532004206,4.709005184295927,0.839205312146964,0.15941577474160792,-4.609418605604378,41.4
,,0.041449881732677114,0.012430637917675028,0.00026346561468611586,0.05414398526503826,4.676370969029966,0.7655491469602265,0.2295848348958109,-4.387591053965844,41.5
,,0.041449881732677114,0.012430637917675028,0.00026346561468611586,0.05414398526503826,4.643736753764005,0.7655491469602265,0.2295848348958109,-4.387591053965844,41.6
,,0.041449881732677114,0.012430637917675028,0.00026346561468611586,0.05414398526503826,4.611102538498044,0.7655491469602265,0.2295848348958109,-4.387591053965844,41.7
,,0.041449881732677114,0.012430637917675028,0.00026346561468611586,0.05414398526503826,4.583830785192304,0.7655491469602265,0.2295848348958109,-4.387591053965844,41.8
,,0.041449881732677114,0.012430637917675028,0.00026346561468611586,0.05414398526503826,4.5386212934298085,0.7655491469602265,0.2295848348958109,-4.387591053965844,41.9
,,0.053318970100163454,0.01233350347820727,0.0002470471530755517,0.06589952073144628,4.504396319073859,0.8090949601507561,0.1871561938738335,-4.395435859570861,42.0
,,0.053318970100163454,0.01233350347820727,0.0002470471530755517,0.06589952073144628,4.47017134471791,0.8090949601507561,0.1871561938738335,-4.395435859570861,42.1
,,0.0537559160899026,0.011993140755142866,0.0002629414149109892,0.06601199825995645,4.437714388478195,0.8143355375822866,0.18168122570557038,-4.423420396359928,42.2
,,0.0537559160899026,0.011993140755142866,0.0002629414149109892,0.06601199825995645,4.405257432238481,0.8143355375822866,0.18168122570557038,-4.423420396359928,42.3
,,0.0537559160899026,0.011993140755142866,0.0002629414149109892,0.06601199825995645,4.394819457331727,0.8143355375822866,0.18168122570557038,-4.423420396359928,42.4
,,0.0537559160899026,0.011993140755142866,0.0002629414149109892,0.06601199825995645,4.384381482424972,0.8143355375822866,0.18168122570557038,-4.423420396359928,42.5
,,0.053184983261051685,0.011939898877462772,0.0002487300619725816,0.06537361220048704,4.358161993618368,0.8135542992170081,0.18264095367478894,-4.427869640277769,42.6
,,0.053184983261051685,0.011939898877462772,0.0002487300619725816,0.06537361220048704,4.331942504811763,0.8135542992170081,0.18264095367478894,-4.427869640277769,42.7
,,0.05364881992735122,0.011620538189396349,0.0002665502963794974,0.06553590841312706,4.307526713474298,0.8186171707449038,0.17731558882410664,-4.454981212848097,42.8
,,0.05364881992735122,0.011620538189396349,0.0002665502963794974,0.06553590841312706,4.283110922136832,0.8186171707449038,0.17731558882410664,-4.454981212848097,42.9
,,0.05364881992735122,0.011620538189396349,0.0002665502963794974,0.06553590841312706,4.258695130799366,0.8186171707449038,0.17731558882410664,-4.454981212848097,43.0
,,0.05364881992735122,0.011620538189396349,0.0002665502963794974,0.06553590841312706,4.253792597988609,0.8186171707449038,0.17731558882410664,-4.454981212848097,43.1
,,0.05316112659004302,0.011626171248957538,0.00025563457800967785,0.06504293241701023,4.247835124706688,0.8173236447768175,0.17874611148246794,-4.454496579985421,43.2
,,0.05316112659004302,0.011626171248957538,0.00025563457800967785,0.06504293241701023,4.241877651424768,0.8173236447768175,0.17874611148246794,-4.454496579985421,43.3
,,0.05367203719463483,0.011379462560312054,0.00027592135189244806,0.06532742110683933,4.2375205230188415,0.8215851213054504,0.17419121048267897,-4.475945078085278,43.4
,,0.05367203719463483,0.011379462560312054,0.00027592135189244806,0.06532742110683933,4.233163394612915,0.8215851213054504,0.17419121048267897,-4.475945078085278,43.5
,,0.05367203719463483,0.011379462560312054,0.00027592135189244806,0.06532742110683933,4.2288062662069885,0.8215851213054504,0.17419121048267897,-4.475945078085278,43.6
,,0.05367203719463483,0.011379462560312054,0.00027592135189244806,0.06532742110683933,4.224449137801062,0.8215851213054504,0.17419121048267897,-4.475945078085278,43.7
,,0.05367203719463483,0.011379462560312054,0.00027592135189244806,0.06532742110683933,4.224394259903198,0.8215851213054504,0.17419121048267897,-4.475945078085278,43.8
,,0.05327247219206579,0.011463378358778718,0.00026885118528835374,0.06500470173613286,4.223223639556179,0.8195172159747682,0.1763469111097667,-4.46859781543431,43.9
,,0.05391358082683635,0.011285161909668457,0.00029331561501192636,0.06549205835151674,4.223499671958156,0.8232079153393682,0.17231344064798512,-4.484266521481182,44.0
,,0.05391358082683635,0.011285161909668457,0.00029331561501192636,0.06549205835151674,4.2237757043601345,0.8232079153393682,0.17231344064798512,-4.484266521481182,44.1
,,0.05391358082683635,0.011285161909668457,0.00029331561501192636,0.06549205835151674,4.224051736762112,0.8232079153393682,0.17231344064798512,-4.484266521481182,44.2
,,0.05391358082683635,0.011285161909668457,0.00029331561501192636,0.06549205835151674,4.2243277691640895,0.8232079153393682,0.17231344064798512,-4.484266521481182,44.3
,,0.05391358082683635,0.011285161909668457,0.00029331561501192636,0.06549205835151674,4.239668729595287,0.8232079153393682,0.17231344064798512,-4.484266521481182,44.4
,,0.05282258935274551,0.00941258020601338,0.0001914549276316731,0.06242662448639057,4.264282215632557,0.8461548223588671,0.1507782982574268,-4.66570816466923,44.5
,,0.05441580308359479,0.01141473317592671,0.0003191605739525156,0.066149696833474,4.267726769424031,0.8226160615759396,0.1725591154962099,-4.472850374137638,44.6
,,0.05441580308359479,0.01141473317592671,0.0003191605739525156,0.066149696833474,4.271171323215506,0.8226160615759396,0.1725591154962099,-4.472850374137638,44.7
,,0.05441580308359479,0.01141473317592671,0.0003191605739525156,0.066149696833474,4.2746158770069815,0.8226160615759396,0.1725591154962099,-4.472850374137638,44.8
,,0.05441580308359479,0.01141473317592671,0.0003191605739525156,0.066149696833474,4.278060430798456,0.8226160615759396,0.1725591154962099,-4.472850374137638,44.9
,,0.05441580308359479,0.01141473317592671,0.0003191605739525156,0.066149696833474,4.281504984589931,0.8226160615759396,0.1725591154962099,-4.472850374137638,45.0
,,0.05346382449159036,0.00980595290625589,0.00022552969753582094,0.06349530709538208,4.306762228866156,0.8420122200728549,0.15443586864656747,-4.6247656383083875,45.1
,,0.05523836869518062,0.011794092707085618,0.0003550432858025616,0.0673875046880688,4.323479272432167,0.81971233318216,0.17501898551785677,-4.440156490905159,45.2
,,0.05523836869518062,0.011794092707085618,0.0003550432858025616,0.0673875046880688,4.317411624017573,0.81971233318216,0.17501898551785677,-4.440156490905159,45.3
,,0.05523836869518062,0.011794092707085618,0.0003550432858025616,0.0673875046880688,4.311343975602977,0.81971233318216,0.17501898551785677,-4.440156490905159,45.4
,,0.05523836869518062,0.011794092707085618,0.0003550432858025616,0.0673875046880688,4.305276327188381,0.81971233318216,0.17501898551785677,-4.440156490905159,45.5
,,0.05523836869518062,0.011794092707085618,0.0003550432858025616,0.0673875046880688,4.299208678773787,0.81971233318216,0.17501898551785677,-4.440156490905159,45.6
,,0.055074166521020665,0.012248059101491078,0.0003577085366928051,0.06767993415920455,4.3045949192504915,0.8137443867996216,0.1809703164409082,-4.4023877952390595,45.7
,,0.056447866061818744,0.01248696775112886,0.00040503242005603075,0.06933986623300363,4.310247599113481,0.8140752085118864,0.18008352812750958,-4.3830697584480545,45.8
,,0.056447866061818744,0.01248696775112886,0.00040503242005603075,0.06933986623300363,4.315315344848061,0.8140752085118864,0.18008352812750958,-4.3830697584480545,45.9
,,0.056447866061818744,0.01248696775112886,0.00040503242005603075,0.06933986623300363,4.320383090582641,0.8140752085118864,0.18008352812750958,-4.3830697584480545,46.0
,,0.056447866061818744,0.01248696775112886,0.00040503242005603075,0.06933986623300363,4.325450836317221,0.8140752085118864,0.18008352812750958,-4.3830697584480545,46.1
,,0.056447866061818744,0.01248696775112886,0.00040503242005603075,0.06933986623300363,4.330518582051801,0.8140752085118864,0.18008352812750958,-4.3830697584480545,46.2
,,0.05634913725412855,0.013130699686546366,0.0004125973274862583,0.06989243426816118,4.333040346628688,0.8062265657814963,0.18787011532846165,-4.3328023029367255,46.3
,,0.046342204483749316,0.0120872451370019,0.0003770455287691437,0.05880649514952036,4.332375849070575,0.7880456804290146,0.2055426888861355,-4.415604503264566,46.4
,,0.046342204483749316,0.0120872451370019,0.0003770455287691437,0.05880649514952036,4.331711351512463,0.7880456804290146,0.2055426888861355,-4.415604503264566,46.5
,,0.046342204483749316,0.0120872451370019,0.0003770455287691437,0.05880649514952036,4.330308128607755,0.7880456804290146,0.2055426888861355,-4.415604503264566,46.6
,,0.046342204483749316,0.0120872451370019,0.0003770455287691437,0.05880649514952036,4.328904905703047,0.7880456804290146,0.2055426888861355,-4.415604503264566,46.7
,,0.046342204483749316,0.0120872451370019,0.0003770455287691437,0.05880649514952036,4.3275016827983395,0.7880456804290146,0.2055426888861355,-4.415604503264566,46.8
,,0.046342204483749316,0.0120872451370019,0.0003770455287691437,0.05880649514952036,4.326098459893631,0.7880456804290146,0.2055426888861355,-4.415604503264566,46.9
,,0.060265370459514224,0.015474048284555265,0.0005704016219435287,0.07630982036601301,4.3164097935690595,0.7897459353259768,0.20277925187525564,-4.168590962492981,47.0
,,0.060265370459514224,0.015474048284555265,0.0005704016219435287,0.07630982036601301,4.306721127244489,0.7897459353259768,0.20277925187525564,-4.168590962492981,47.1
,,0.060265370459514224,0.015474048284555265,0.0005704016219435287,0.07630982036601301,4.306461126884514,0.7897459353259768,0.20277925187525564,-4.168590962492981,47.2
,,0.060265370459514224,0.015474048284555265,0.0005704016219435287,0.07630982036601301,4.306201126524541,0.7897459353259768,0.20277925187525564,-4.168590962492981,47.3
,,0.060265370459514224,0.015474048284555265,0.0005704016219435287,0.07630982036601301,4.305941126164566,0.7897459353259768,0.20277925187525564,-4.168590962492981,47.4
,,0.060265370459514224,0.015474048284555265,0.0005704016219435287,0.07630982036601301,4.3056811258045915,0.7897459353259768,0.20277925187525564,-4.168590962492981,47.5
,,0.0603068879265551,0.01674202563618262,0.0005883125372104673,0.07763722609994818,4.302171313750072,0.7767779833982934,0.21564430463588904,-4.089833215495736,47.6
,,0.061720676890238635,0.017810883733939447,0.0006842012642318882,0.08021576188840997,4.287620366492562,0.769433281405464,0.2220372070855175,-4.027945562813936,47.7
,,0.06220357522134426,0.016907546997883063,0.0005657286471524756,0.0796768508663798,4.275443942441067,0.7806982146628927,0.21220149659576118,-4.079995188812814,47.8
,,0.06220357522134426,0.016907546997883063,0.0005657286471524756,0.0796768508663798,4.272667980948701,0.7806982146628927,0.21220149659576118,-4.079995188812814,47.9
,,0.06220357522134426,0.016907546997883063,0.0005657286471524756,0.0796768508663798,4.269892019456335,0.7806982146628927,0.21220149659576118,-4.079995188812814,48.0
,,0.06220357522134426,0.016907546997883063,0.0005657286471524756,0.0796768508663798,4.267116057963968,0.7806982146628927,0.21220149659576118,-4.079995188812814,48.1
,,0.06220357522134426,0.016907546997883063,0.0005657286471524756,0.0796768508663798,4.264340096471602,0.7806982146628927,0.21220149659576118,-4.079995188812814,48.2
,,0.060537281512479585,0.019091668574895238,0.0006927478544080571,0.08032169794178287,4.245790527557352,0.7536852813589296,0.23769005217908704,-3.9585032393598287,48.3
,,0.06176164039715909,0.02060406361394332,0.0008098110751571319,0.08317551508625955,4.225315094909771,0.7425459323348634,0.24771789621711732,-3.8822669598275694,48.4
,,0.06176164039715909,0.02060406361394332,0.0008098110751571319,0.08317551508625955,4.20483966226219,0.7425459323348634,0.24771789621711732,-3.8822669598275694,48.5
,,0.06176164039715909,0.02060406361394332,0.0008098110751571319,0.08317551508625955,4.193857632002669,0.7425459323348634,0.24771789621711732,-3.8822669598275694,48.6
,,0.06176164039715909,0.02060406361394332,0.0008098110751571319,0.08317551508625955,4.182875601743147,0.7425459323348634,0.24771789621711732,-3.8822669598275694,48.7
,,0.06176164039715909,0.02060406361394332,0.0008098110751571319,0.08317551508625955,4.171893571483626,0.7425459323348634,0.24771789621711732,-3.8822669598275694,48.8
,,0.06176164039715909,0.02060406361394332,0.0008098110751571319,0.08317551508625955,4.160911541224103,0.7425459323348634,0.24771789621711732,-3.8822669598275694,48.9
,,0.06190479761995113,0.024332110799814802,0.0009597705791049804,0.08719667899887092,4.156026016435074,0.7099444420440911,0.27904859541875293,-3.7159583688674833,49.0
,,0.06190479761995113,0.024332110799814802,0.0009597705791049804,0.08719667899887092,4.151140491646046,0.7099444420440911,0.27904859541875293,-3.7159583688674833,49.1
,,0.06190479761995113,0.024332110799814802,0.0009597705791049804,0.08719667899887092,4.134063315752741,0.7099444420440911,0.27904859541875293,-3.7159583688674833,49.2
,,0.06190479761995113,0.024332110799814802,0.0009597705791049804,0.08719667899887092,4.116986139859435,0.7099444420440911,0.27904859541875293,-3.7159583688674833,49.3
,,0.06190479761995113,0.024332110799814802,0.0009597705791049804,0.08719667899887092,4.099908963966128,0.7099444420440911,0.27904859541875293,-3.7159583688674833,49.4
,,0.06190479761995113,0.024332110799814802,0.0009597705791049804,0.08719667899887092,4.082831788072822,0.7099444420440911,0.27904859541875293,-3.7159583688674833,49.5
,,0.06190479761995113,0.024332110799814802,0.0009597705791049804,0.08719667899887092,4.065754612179516,0.7099444420440911,0.27904859541875293,-3.7159583688674833,49.6
,,0.06014454148862333,0.028150636954619213,0.0011077692647973414,0.08940294770803989,4.055118410625034,0.672735553250831,0.31487370021120303,-3.5701852974901116,49.7
,,0.06014454148862333,0.028150636954619213,0.0011077692647973414,0.08940294770803989,4.0444822090705514,0.672735553250831,0.31487370021120303,-3.5701852974901116,49.8
,,0.06014454148862333,0.028150636954619213,0.0011077692647973414,0.08940294770803989,4.021530448882763,0.672735553250831,0.31487370021120303,-3.5701852974901116,49.9
,,0.06014454148862333,0.028150636954619213,0.0011077692647973414,0.08940294770803989,3.9985786886949755,0.672735553250831,0.31487370021120303,-3.5701852974901116,50.0
,,0.06014454148862333,0.028150636954619213,0.0011077692647973414,0.08940294770803989,3.9756269285071872,0.672735553250831,0.31487370021120303,-3.5701852974901116,50.1
,,0.06014454148862333,0.028150636954619213,0.0011077692647973414,0.08940294770803989,3.9526751683193995,0.672735553250831,0.31487370021120303,-3.5701852974901116,50.2
,,0.050537198712033236,0.028338378946149757,0.0010994084592856163,0.07997498611746862,3.9139984251402677,0.631912566234189,0.35434052973170715,-3.5635382465620276,50.3
,,0.050537198712033236,0.028338378946149757,0.0010994084592856163,0.07997498611746862,3.8753216819611356,0.631912566234189,0.35434052973170715,-3.5635382465620276,50.4
,,0.050537198712033236,0.028338378946149757,0.0010994084592856163,0.07997498611746862,3.858086734468108,0.631912566234189,0.35434052973170715,-3.5635382465620276,50.5
,,0.050537198712033236,0.028338378946149757,0.0010994084592856163,0.07997498611746862,3.8408517869750813,0.631912566234189,0.35434052973170715,-3.5635382465620276,50.6
,,0.050537198712033236,0.028338378946149757,0.0010994084592856163,0.07997498611746862,3.823616839482054,0.631912566234189,0.35434052973170715,-3.5635382465620276,50.7
,,0.050537198712033236,0.028338378946149757,0.0010994084592856163,0.07997498611746862,3.8063818919890267,0.631912566234189,0.35434052973170715,-3.5635382465620276,50.8
,,0.050537198712033236,0.028338378946149757,0.0010994084592856163,0.07997498611746862,3.7891469444959993,0.631912566234189,0.35434052973170715,-3.5635382465620276,50.9
,,0.0411094178090658,0.027623278057020313,0.0010463974222302461,0.06977909328831636,3.757648237694552,0.5891366005460702,0.39586754076733593,-3.5890964538645336,51.0
,,0.0411094178090658,0.027623278057020313,0.0010463974222302461,0.06977909328831636,3.726149530893104,0.5891366005460702,0.39586754076733593,-3.5890964538645336,51.1
,,0.0411094178090658,0.027623278057020313,0.0010463974222302461,0.06977909328831636,3.6928828059754215,0.5891366005460702,0.39586754076733593,-3.5890964538645336,51.2
,,0.0411094178090658,0.027623278057020313,0.0010463974222302461,0.06977909328831636,3.6596160810577394,0.5891366005460702,0.39586754076733593,-3.5890964538645336,51.3
,,0.0411094178090658,0.027623278057020313,0.0010463974222302461,0.06977909328831636,3.626349356140057,0.5891366005460702,0.39586754076733593,-3.5890964538645336,51.4
,,0.0411094178090658,0.027623278057020313,0.0010463974222302461,0.06977909328831636,3.593082631222375,0.5891366005460702,0.39586754076733593,-3.5890964538645336,51.5
,,0.03559518673183984,0.02637201220794826,0.000824697311949482,0.06279189625173758,3.5585864312984237,0.5668754864343637,0.4199906959684864,-3.63545197481794,51.6
,,0.03440608630915047,0.027330575013722092,0.001001799565118628,0.06273846088799119,3.5230808186588143,0.5484050106134523,0.43562711974264345,-3.599749239610286,51.7
,,0.03440608630915047,0.027330575013722092,0.001001799565118628,0.06273846088799119,3.485771508550065,0.5484050106134523,0.43562711974264345,-3.599749239610286,51.8
,,0.03440608630915047,0.027330575013722092,0.001001799565118628,0.06273846088799119,3.4484621984413155,0.5484050106134523,0.43562711974264345,-3.599749239610286,51.9
,,0.03440608630915047,0.027330575013722092,0.001001799565118628,0.06273846088799119,3.411152888332566,0.5484050106134523,0.43562711974264345,-3.599749239610286,52.0
,,0.03440608630915047,0.027330575013722092,0.001001799565118628,0.06273846088799119,3.3738435782238168,0.5484050106134523,0.43562711974264345,-3.599749239610286,52.1
,,0.0317889785458286,0.02941559260784705,0.0006919750038551203,0.06189654615753078,3.335045191327685,0.5135824293802042,0.47523802916211894,-3.5262303844179645,52.2
,,0.0317889785458286,0.02941559260784705,0.0006919750038551203,0.06189654615753078,3.296246804431553,0.5135824293802042,0.47523802916211894,-3.5262303844179645,52.3
,,0.029732481261008793,0.0273159032364392,0.0009665100067724057,0.0580148945042204,3.25593455249243,0.5124973770114475,0.4708429355922048,-3.6002862102662267,52.4
,,0.029732481261008793,0.0273159032364392,0.0009665100067724057,0.0580148945042204,3.2156223005533073,0.5124973770114475,0.4708429355922048,-3.6002862102662267,52.5
,,0.029732481261008793,0.0273159032364392,0.0009665100067724057,0.0580148945042204,3.1753100486141843,0.5124973770114475,0.4708429355922048,-3.6002862102662267,52.6
,,0.029732481261008793,0.0273159032364392,0.0009665100067724057,0.0580148945042204,3.1349977966750617,0.5124973770114475,0.4708429355922048,-3.6002862102662267,52.7
,,0.026752437862860627,0.026690306566711414,0.00099741060290947,0.054440155032481514,3.093728434225947,0.4914100234817275,0.4902687464939573,-3.6234548294304183,52.8
,,0.026752437862860627,0.026690306566711414,0.00099741060290947,0.054440155032481514,3.0532299903156215,0.4914100234817275,0.4902687464939573,-3.6234548294304183,52.9
,,0.026724247170809918,0.027512159165038567,0.0009399738783156775,0.05517638021416417,3.0109408209610113,0.48434215994382346,0.4986220382390362,-3.5931272205738147,53.0
,,0.026724247170809918,0.027512159165038567,0.0009399738783156775,0.05517638021416417,2.9686516516064003,0.48434215994382346,0.4986220382390362,-3.5931272205738147,53.1
,,0.026724247170809918,0.027512159165038567,0.0009399738783156775,0.05517638021416417,2.92636248225179,0.48434215994382346,0.4986220382390362,-3.5931272205738147,53.2
,,0.026724247170809918,0.027512159165038567,0.0009399738783156775,0.05517638021416417,2.884073312897179,0.48434215994382346,0.4986220382390362,-3.5931272205738147,53.3
,,0.024491527791613222,0.027127544138711178,0.0009843233431706968,0.0526033952734951,2.841022670991919,0.465588345852527,0.5156994904543689,-3.6072056783876048,53.4
,,0.024491527791613222,0.027127544138711178,0.0009843233431706968,0.0526033952734951,2.788699503480586,0.465588345852527,0.5156994904543689,-3.6072056783876048,53.5
,,0.024491527791613222,0.027127544138711178,0.0009843233431706968,0.0526033952734951,2.7457625448372567,0.465588345852527,0.5156994904543689,-3.6072056783876048,53.6
,,0.022188720572839493,0.029916694363700903,0.0007614235514546969,0.052866838487995095,2.7010350837344146,0.419709617738501,0.5658877137223617,-3.5093386144761287,53.7
,,0.022188720572839493,0.029916694363700903,0.0007614235514546969,0.052866838487995095,2.656307622631572,0.419709617738501,0.5658877137223617,-3.5093386144761287,53.8
,,0.023377352857911864,0.027670399749687283,0.0009806533459379883,0.05202840595353714,2.6127264615105696,0.4493190292777471,0.5318325488272261,-3.58739203824439,53.9
,,0.023377352857911864,0.027670399749687283,0.0009806533459379883,0.05202840595353714,2.5691453003895663,0.4493190292777471,0.5318325488272261,-3.58739203824439,54.0
,,0.023377352857911864,0.027670399749687283,0.0009806533459379883,0.05202840595353714,2.5179527463791587,0.4493190292777471,0.5318325488272261,-3.58739203824439,54.1
,,0.023377352857911864,0.027670399749687283,0.0009806533459379883,0.05202840595353714,2.4753003930789648,0.4493190292777471,0.5318325488272261,-3.58739203824439,54.2
,,0.02416959116952931,0.02827917674531935,0.0009225206952918872,0.05337128861014055,2.432757233874915,0.4528575531702093,0.5298574848340144,-3.5656295492219297,54.3
,,0.02416959116952931,0.02827917674531935,0.0009225206952918872,0.05337128861014055,2.390214074670865,0.4528575531702093,0.5298574848340144,-3.5656295492219297,54.4
,,0.023253180090736306,0.028242398377690166,0.0009806622643365192,0.05247624073276299,2.3473227480673224,0.44311825248980585,0.5381940090090584,-3.5669309415748454,54.5
,,0.023253180090736306,0.028242398377690166,0.0009806622643365192,0.05247624073276299,2.30443142146378,0.44311825248980585,0.5381940090090584,-3.5669309415748454,54.6
,,0.023253180090736306,0.028242398377690166,0.0009806622643365192,0.05247624073276299,2.263617868138951,0.44311825248980585,0.5381940090090584,-3.5669309415748454,54.7
,,0.023253180090736306,0.028242398377690166,0.0009806622643365192,0.05247624073276299,2.222537875427836,0.44311825248980585,0.5381940090090584,-3.5669309415748454,54.8
,,0.023253180090736306,0.028242398377690166,0.0009806622643365192,0.05247624073276299,2.181457882716721,0.44311825248980585,0.5381940090090584,-3.5669309415748454,54.9
,,0.017772034959312514,0.03021741560607564,0.000742041932791131,0.048731492498179284,2.137764510515433,0.3646930157120986,0.6200798304547029,-3.499336845116977,55.0
,,0.023923684368741045,0.028766653440004085,0.0009878263927392905,0.05367816420148442,2.0967767783949234,0.44568745456610565,0.535909785066915,-3.5485384293522535,55.1
,,0.023923684368741045,0.028766653440004085,0.0009878263927392905,0.05367816420148442,2.0557890462744144,0.44568745456610565,0.535909785066915,-3.5485384293522535,55.2
,,0.023923684368741045,0.028766653440004085,0.0009878263927392905,0.05367816420148442,2.0173472953115987,0.44568745456610565,0.535909785066915,-3.5485384293522535,55.3
,,0.023923684368741045,0.028766653440004085,0.0009878263927392905,0.05367816420148442,1.9839880807767003,0.44568745456610565,0.535909785066915,-3.5485384293522535,55.4
,,0.023923684368741045,0.028766653440004085,0.0009878263927392905,0.05367816420148442,1.950628866241802,0.44568745456610565,0.535909785066915,-3.5485384293522535,55.5
,,0.02531812894179473,0.029172909905874775,0.001009114666355304,0.05550015351402481,1.9176720733145365,0.4561812416500231,0.5256365624016305,-3.534514743277242,55.6
,,0.02531812894179473,0.029172909905874775,0.001009114666355304,0.05550015351402481,1.884715280387271,0.4561812416500231,0.5256365624016305,-3.534514743277242,55.7
,,0.02531812894179473,0.029172909905874775,0.001009114666355304,0.05550015351402481,1.8517584874600055,0.4561812416500231,0.5256365624016305,-3.534514743277242,55.8
,,0.02531812894179473,0.029172909905874775,0.001009114666355304,0.05550015351402481,1.81880169453274,0.4561812416500231,0.5256365624016305,-3.534514743277242,55.9
,,0.02531812894179473,0.029172909905874775,0.001009114666355304,0.05550015351402481,1.7851711966221744,0.4561812416500231,0.5256365624016305,-3.534514743277242,56.0
,,0.02531812894179473,0.029172909905874775,0.001009114666355304,0.05550015351402481,1.751540698711609,0.4561812416500231,0.5256365624016305,-3.534514743277242,56.1
,,0.01543417539379494,0.031122084171843777,0.0006852453323314123,0.04724150489797013,1.7137775254058565,0.3267079536760929,0.6587868917186215,-3.4698376098115284,56.2
,,0.027352360132566866,0.0294041594298433,0.0010471101806999218,0.05780362974311009,1.680839876551328,0.473194507924948,0.5086905365721974,-3.5266191374389027,56.3
,,0.027352360132566866,0.0294041594298433,0.0010471101806999218,0.05780362974311009,1.6479022276967998,0.473194507924948,0.5086905365721974,-3.5266191374389027,56.4
,,0.027352360132566866,0.0294041594298433,0.0010471101806999218,0.05780362974311009,1.6149645788422715,0.473194507924948,0.5086905365721974,-3.5266191374389027,56.5
,,0.027352360132566866,0.0294041594298433,0.0010471101806999218,0.05780362974311009,1.585276741682289,0.473194507924948,0.5086905365721974,-3.5266191374389027,56.6
,,0.027352360132566866,0.0294041594298433,0.0010471101806999218,0.05780362974311009,1.5571088070907273,0.473194507924948,0.5086905365721974,-3.5266191374389027,56.7
,,0.028512422635394084,0.02937492676143433,0.0009116774174348218,0.05879902681426324,1.5270154304462693,0.48491317255063227,0.4995818528463923,-3.5276137997486896,56.8
,,0.030088119738783357,0.02935846457360108,0.0010919427941757087,0.060538527106560144,1.4975244452540315,0.49700779283615765,0.4849550522087232,-3.528174373142807,56.9
,,0.030088119738783357,0.02935846457360108,0.0010919427941757087,0.060538527106560144,1.4680334600617932,0.49700779283615765,0.4849550522087232,-3.528174373142807,57.0
,,0.030088119738783357,0.02935846457360108,0.0010919427941757087,0.060538527106560144,1.438542474869555,0.49700779283615765,0.4849550522087232,-3.528174373142807,57.1
,,0.030088119738783357,0.02935846457360108,0.0010919427941757087,0.060538527106560144,1.409051489677317,0.49700779283615765,0.4849550522087232,-3.528174373142807,57.2
,,0.030088119738783357,0.02935846457360108,0.0010919427941757087,0.060538527106560144,1.3852068118997367,0.49700779283615765,0.4849550522087232,-3.528174373142807,57.3
,,0.030088119738783357,0.02935846457360108,0.0010919427941757087,0.060538527106560144,1.3632879978554877,0.49700779283615765,0.4849550522087232,-3.528174373142807,57.4
,,0.031605599340715794,0.029099964395528855,0.0009533038192169952,0.06165886755546165,1.3420497514122876,0.5125880606270755,0.4719510031440924,-3.5370183283267838,57.5
,,0.03301508074299209,0.028997266057479414,0.0011447302938133873,0.06315707709428489,1.3213943271626563,0.5227455458982859,0.4591293231349268,-3.540553727319745,57.6
,,0.03301508074299209,0.028997266057479414,0.0011447302938133873,0.06315707709428489,1.3007389029130252,0.5227455458982859,0.4591293231349268,-3.540553727319745,57.7
,,0.03301508074299209,0.028997266057479414,0.0011447302938133873,0.06315707709428489,1.2800834786633941,0.5227455458982859,0.4591293231349268,-3.540553727319745,57.8
,,0.03301508074299209,0.028997266057479414,0.0011447302938133873,0.06315707709428489,1.2594280544137628,0.5227455458982859,0.4591293231349268,-3.540553727319745,57.9
,,0.03301508074299209,0.028997266057479414,0.0011447302938133873,0.06315707709428489,1.243810252148015,0.5227455458982859,0.4591293231349268,-3.540553727319745,58.0
,,0.03301508074299209,0.028997266057479414,0.0011447302938133873,0.06315707709428489,1.2281924498822672,0.5227455458982859,0.4591293231349268,-3.540553727319745,58.1
,,0.01726652960555965,0.029238677998541043,0.0011107668046672473,0.04761597440876794,1.2064855241879473,0.36262052430833414,0.614051867290089,-3.5322628572108563,58.2
,,0.01726652960555965,0.029238677998541043,0.0011107668046672473,0.04761597440876794,1.1847785984936277,0.36262052430833414,0.614051867290089,-3.5322628572108563,58.3
,,0.01726652960555965,0.029238677998541043,0.0011107668046672473,0.04761597440876794,1.1630716727993082,0.36262052430833414,0.614051867290089,-3.5322628572108563,58.4
,,0.01726652960555965,0.029238677998541043,0.0011107668046672473,0.04761597440876794,1.1413647471049884,0.36262052430833414,0.614051867290089,-3.5322628572108563,58.5
,,0.01726652960555965,0.029238677998541043,0.0011107668046672473,0.04761597440876794,1.1196578214106685,0.36262052430833414,0.614051867290089,-3.5322628572108563,58.6
,,0.01726652960555965,0.029238677998541043,0.0011107668046672473,0.04761597440876794,1.1024801794267913,0.36262052430833414,0.614051867290089,-3.5322628572108563,58.7
,,0.03770362878154768,0.027732414699510103,0.0010670726978673183,0.0665031161789251,1.0938471329001576,0.5669452944145795,0.41700925148976,-3.585153344187431,58.8
,,0.038537121966817536,0.027495501161777798,0.0012827093561121258,0.06731533248470747,1.085681067493632,0.572486542728914,0.4084582241055432,-3.5937328818097596,58.9
,,0.038537121966817536,0.027495501161777798,0.0012827093561121258,0.06731533248470747,1.077515002087106,0.572486542728914,0.4084582241055432,-3.5937328818097596,59.0
,,0.038537121966817536,0.027495501161777798,0.0012827093561121258,0.06731533248470747,1.0693489366805804,0.572486542728914,0.4084582241055432,-3.5937328818097596,59.1
,,0.038537121966817536,0.027495501161777798,0.0012827093561121258,0.06731533248470747,1.0611828712740548,0.572486542728914,0.4084582241055432,-3.5937328818097596,59.2
,,0.038537121966817536,0.027495501161777798,0.0012827093561121258,0.06731533248470747,1.0569409926338336,0.572486542728914,0.4084582241055432,-3.5937328818097596,59.3
,,0.038537121966817536,0.027495501161777798,0.0012827093561121258,0.06731533248470747,1.0526991139936124,0.572486542728914,0.4084582241055432,-3.5937328818097596,59.4
,,0.04048550907943338,0.02645626186375201,0.0013660318775705431,0.06830780282075594,1.0498872531495167,0.5926923046503187,0.38730951328027546,-3.632262405266055,59.5
,,0.04048550907943338,0.02645626186375201,0.0013660318775705431,0.06830780282075594,1.0470753923054208,0.5926923046503187,0.38730951328027546,-3.632262405266055,59.6
,,0.04048550907943338,0.02645626186375201,0.0013660318775705431,0.06830780282075594,1.044263531461325,0.5926923046503187,0.38730951328027546,-3.632262405266055,59.7
,,0.04048550907943338,0.02645626186375201,0.0013660318775705431,0.06830780282075594,1.0414516706172288,0.5926923046503187,0.38730951328027546,-3.632262405266055,59.8
,,0.04048550907943338,0.02645626186375201,0.0013660318775705431,0.06830780282075594,1.038639809773133,0.5926923046503187,0.38730951328027546,-3.632262405266055,59.9
,,0.04048550907943338,0.02645626186375201,0.0013660318775705431,0.06830780282075594,1.0391071908309106,0.5926923046503187,0.38730951328027546,-3.632262405266055,60.0
,,0.04048550907943338,0.02645626186375201,0.0013660318775705431,0.06830780282075594,1.039574571888688,0.5926923046503187,0.38730951328027546,-3.632262405266055,60.1
,,0.0415630485941134,0.025268371449859224,0.0014546013483148993,0.06828602139228754,1.041315106000577,0.6086611541671643,0.3700372482487773,-3.6782018056477166,60.2
,,0.0415630485941134,0.025268371449859224,0.0014546013483148993,0.06828602139228754,1.043055640112466,0.6086611541671643,0.3700372482487773,-3.6782018056477166,60.3
,,0.0415630485941134,0.025268371449859224,0.0014546013483148993,0.06828602139228754,1.0447961742243552,0.6086611541671643,0.3700372482487773,-3.6782018056477166,60.4
,,0.0415630485941134,0.025268371449859224,0.0014546013483148993,0.06828602139228754,1.0465367083362442,0.6086611541671643,0.3700372482487773,-3.6782018056477166,60.5
,,0.0415630485941134,0.025268371449859224,0.0014546013483148993,0.06828602139228754,1.0498159429728255,0.6086611541671643,0.3700372482487773,-3.6782018056477166,60.6
,,0.0415630485941134,0.025268371449859224,0.0014546013483148993,0.06828602139228754,1.054104590325066,0.6086611541671643,0.3700372482487773,-3.6782018056477166,60.7
,,0.04111913074806288,0.024840489085650327,0.001450923182452084,0.0674105430161653,1.0585094863676427,0.6099807078872271,0.368495608760984,-3.6952803326722745,60.8
,,0.011487619585026308,0.023600152929110378,0.001647506851589422,0.03673527936572611,1.0499303096218375,0.3127135490289538,0.6424383681461597,-3.7465020869245182,60.9
,,0.011487619585026308,0.023600152929110378,0.001647506851589422,0.03673527936572611,1.0413511328760319,0.3127135490289538,0.6424383681461597,-3.7465020869245182,61.0
,,0.011487619585026308,0.023600152929110378,0.001647506851589422,0.03673527936572611,1.0327719561302262,0.3127135490289538,0.6424383681461597,-3.7465020869245182,61.1
,,0.011487619585026308,0.023600152929110378,0.001647506851589422,0.03673527936572611,1.0261727979814783,0.3127135490289538,0.6424383681461597,-3.7465020869245182,61.2
,,0.011487619585026308,0.023600152929110378,0.001647506851589422,0.03673527936572611,1.0195736398327298,0.3127135490289538,0.6424383681461597,-3.7465020869245182,61.3
,,0.04085058608292923,0.023632908025132734,0.0015395235521219626,0.06602301766018392,1.0266856279706726,0.618732489526372,0.35794952825043136,-3.7451151303897783,61.4
,,0.04118207282619113,0.023015075832616385,0.0016450148563639591,0.06584216351517147,1.0344732305404671,0.6254665798869425,0.34954920379117266,-3.771605806796945,61.5
,,0.04118207282619113,0.023015075832616385,0.0016450148563639591,0.06584216351517147,1.0422608331102616,0.6254665798869425,0.34954920379117266,-3.771605806796945,61.6
,,0.04118207282619113,0.023015075832616385,0.0016450148563639591,0.06584216351517147,1.0500484356800561,0.6254665798869425,0.34954920379117266,-3.771605806796945,61.7
,,0.04118207282619113,0.023015075832616385,0.0016450148563639591,0.06584216351517147,1.0587931487598428,0.6254665798869425,0.34954920379117266,-3.771605806796945,61.8
,,0.04118207282619113,0.023015075832616385,0.0016450148563639591,0.06584216351517147,1.0675378618396298,0.6254665798869425,0.34954920379117266,-3.771605806796945,61.9
,,0.03983938248728653,0.022485756083163385,0.0016290727535743397,0.06395421132402425,1.0764311900669448,0.6229360297391543,0.35159148424548964,-3.794873233211252,62.0
,,0.019088404294732023,0.022106128314481728,0.001993929320866994,0.043188461930080746,1.075232611608769,0.4419792565346477,0.5118526413436553,-3.811900409600958,62.1
,,0.019088404294732023,0.022106128314481728,0.001993929320866994,0.043188461930080746,1.0740340331505926,0.4419792565346477,0.5118526413436553,-3.811900409600958,62.2
,,0.019088404294732023,0.022106128314481728,0.001993929320866994,0.043188461930080746,1.0728354546924168,0.4419792565346477,0.5118526413436553,-3.811900409600958,62.3
,,0.019088404294732023,0.022106128314481728,0.001993929320866994,0.043188461930080746,1.0723983487848905,0.4419792565346477,0.5118526413436553,-3.811900409600958,62.4
,,0.019088404294732023,0.022106128314481728,0.001993929320866994,0.043188461930080746,1.0719612428773642,0.4419792565346477,0.5118526413436553,-3.811900409600958,62.5
,,0.019088404294732023,0.022106128314481728,0.001993929320866994,0.043188461930080746,1.071524136969838,0.4419792565346477,0.5118526413436553,-3.811900409600958,62.6
,,0.0382811709396995,0.021238012945777308,0.0018502670948537807,0.06136945098033059,1.083310804484216,0.6237821966497457,0.3460681594264916,-3.8519626394433986,62.7
,,0.0382811709396995,0.021238012945777308,0.0018502670948537807,0.06136945098033059,1.0950974719985938,0.6237821966497457,0.3460681594264916,-3.8519626394433986,62.8
,,0.0382811709396995,0.021238012945777308,0.0018502670948537807,0.06136945098033059,1.1057378395311326,0.6237821966497457,0.3460681594264916,-3.8519626394433986,62.9
,,0.0382811709396995,0.021238012945777308,0.0018502670948537807,0.06136945098033059,1.1163782070636712,0.6237821966497457,0.3460681594264916,-3.8519626394433986,63.0
,,0.0382811709396995,0.021238012945777308,0.0018502670948537807,0.06136945098033059,1.1270185745962098,0.6237821966497457,0.3460681594264916,-3.8519626394433986,63.1
,,0.0382811709396995,0.021238012945777308,0.0018502670948537807,0.06136945098033059,1.1376589421287484,0.6237821966497457,0.3460681594264916,-3.8519626394433986,63.2
,,0.036194589733508684,0.02056135567009042,0.0019561078264010534,0.05871205323000015,1.147721643679819,0.6164763066915585,0.35020672142980286,-3.8843419033077313,63.3
,,0.036194589733508684,0.02056135567009042,0.0019561078264010534,0.05871205323000015,1.1577843452308891,0.6164763066915585,0.35020672142980286,-3.8843419033077313,63.4
,,0.036194589733508684,0.02056135567009042,0.0019561078264010534,0.05871205323000015,1.1681952141814518,0.6164763066915585,0.35020672142980286,-3.8843419033077313,63.5
,,0.036194589733508684,0.02056135567009042,0.0019561078264010534,0.05871205323000015,1.1786060831320142,0.6164763066915585,0.35020672142980286,-3.8843419033077313,63.6
,,0.036194589733508684,0.02056135567009042,0.0019561078264010534,0.05871205323000015,1.1890169520825766,0.6164763066915585,0.35020672142980286,-3.8843419033077313,63.7
,,0.03563735669906309,0.02039409062785553,0.0016709128356817587,0.05770236016260037,1.199284646204336,0.6176065692744634,0.3534359872002932,-3.8925100952010245,63.8
,,0.03563735669906309,0.02039409062785553,0.0016709128356817587,0.05770236016260037,1.2095523403260953,0.6176065692744634,0.3534359872002932,-3.8925100952010245,63.9
,,0.0167669968299644,0.022293337627419044,0.0024393104327264654,0.041499644890109905,1.2113742198049653,0.4040274772076488,0.5371934551838042,-3.8034674062563383,64.0
,,0.0167669968299644,0.022293337627419044,0.0024393104327264654,0.041499644890109905,1.2104904592030565,0.4040274772076488,0.5371934551838042,-3.8034674062563383,64.1
,,0.0167669968299644,0.022293337627419044,0.0024393104327264654,0.041499644890109905,1.209606698601148,0.4040274772076488,0.5371934551838042,-3.8034674062563383,64.2
,,0.0167669968299644,0.022293337627419044,0.0024393104327264654,0.041499644890109905,1.2087229379992392,0.4040274772076488,0.5371934551838042,-3.8034674062563383,64.3
,,0.03328263670067052,0.02000978314538568,0.0017420466312410108,0.055034466477297206,1.2179637356675166,0.6047598683345147,0.3635863927860572,-3.911533967757279,64.4
,,0.03328263670067052,0.02000978314538568,0.0017420466312410108,0.055034466477297206,1.2272045333357942,0.6047598683345147,0.3635863927860572,-3.911533967757279,64.5
,,0.03328263670067052,0.02000978314538568,0.0017420466312410108,0.055034466477297206,1.2360429093964387,0.6047598683345147,0.3635863927860572,-3.911533967757279,64.6
,,0.031717469732574305,0.019759593009435528,0.0021606200750372206,0.053637682817047054,1.2442351738818946,0.5913281123787455,0.36839013118507724,-3.9241161835630156,64.7
,,0.031717469732574305,0.019759593009435528,0.0021606200750372206,0.053637682817047054,1.2524274383673502,0.5913281123787455,0.36839013118507724,-3.9241161835630156,64.8
,,0.031717469732574305,0.019759593009435528,0.0021606200750372206,0.053637682817047054,1.260619702852806,0.5913281123787455,0.36839013118507724,-3.9241161835630156,64.9
,,0.030978604395214222,0.019783707415162558,0.0018065418248220688,0.05256885363519885,1.268375259497179,0.589295795000401,0.3763389544777111,-3.9228965378350487,65.0
,,0.030978604395214222,0.019783707415162558,0.0018065418248220688,0.05256885363519885,1.2761308161415525,0.589295795000401,0.3763389544777111,-3.9228965378350487,65.1
,,0.030978604395214222,0.019783707415162558,0.0018065418248220688,0.05256885363519885,1.288019048181113,0.589295795000401,0.3763389544777111,-3.9228965378350487,65.2
,,0.016412662545101743,0.02351931409555008,0.0025478999520067006,0.042479876592658526,1.285437013241321,0.38636323505558906,0.5536577782717652,-3.7499333189811113,65.3
,,0.016412662545101743,0.02351931409555008,0.0025478999520067006,0.042479876592658526,1.2828549783015288,0.38636323505558906,0.5536577782717652,-3.7499333189811113,65.4
,,0.016412662545101743,0.02351931409555008,0.0025478999520067006,0.042479876592658526,1.2802729433617366,0.38636323505558906,0.5536577782717652,-3.7499333189811113,65.5
,,0.016412662545101743,0.02351931409555008,0.0025478999520067006,0.042479876592658526,1.2776909084219445,0.38636323505558906,0.5536577782717652,-3.7499333189811113,65.6
,,0.028740146931074684,0.019624143375747506,0.001855395149626974,0.05021968545644916,1.283627677660253,0.5722884695484269,0.39076595556867216,-3.9309946659097776,65.7
,,0.028740146931074684,0.019624143375747506,0.001855395149626974,0.05021968545644916,1.2891153657454446,0.5722884695484269,0.39076595556867216,-3.9309946659097776,65.8
,,0.028740146931074684,0.019624143375747506,0.001855395149626974,0.05021968545644916,1.294000662378416,0.5722884695484269,0.39076595556867216,-3.9309946659097776,65.9
,,0.017283533651207977,0.024472239844655228,0.00253662501701307,0.04429239851287628,1.2904606320210095,0.3902144438211777,0.5525155707596391,-3.710215871402908,66.0
,,0.017283533651207977,0.024472239844655228,0.00253662501701307,0.04429239851287628,1.286920601663603,0.3902144438211777,0.5525155707596391,-3.710215871402908,66.1
,,0.017283533651207977,0.024472239844655228,0.00253662501701307,0.04429239851287628,1.2833805713061963,0.3902144438211777,0.5525155707596391,-3.710215871402908,66.2
,,0.027028869171968027,0.019672548756159158,0.0018944453261888524,0.04859586325431604,1.287259293914766,0.5561969139331517,0.404819411339749,-3.928531079166586,66.3
,,0.027028869171968027,0.019672548756159158,0.0018944453261888524,0.04859586325431604,1.2911380165233357,0.5561969139331517,0.404819411339749,-3.928531079166586,66.4
,,0.027028869171968027,0.019672548756159158,0.0018944453261888524,0.04859586325431604,1.2943361715308568,0.5561969139331517,0.404819411339749,-3.928531079166586,66.5
,,0.02615798285198699,0.019584993866867004,0.002357757786849291,0.048100734505703284,1.29652567304822,0.543816703025303,0.4071662120782131,-3.9329916250189996,66.6
,,0.02615798285198699,0.019584993866867004,0.002357757786849291,0.048100734505703284,1.2987151745655834,0.543816703025303,0.4071662120782131,-3.9329916250189996,66.7
,,0.02615798285198699,0.019584993866867004,0.002357757786849291,0.048100734505703284,1.3009046760829466,0.543816703025303,0.4071662120782131,-3.9329916250189996,66.8
,,0.02615798285198699,0.019584993866867004,0.002357757786849291,0.048100734505703284,1.3030941776003098,0.543816703025303,0.4071662120782131,-3.9329916250189996,66.9
,,0.02588781566043259,0.01987099029140589,0.0019213994872086652,0.04768020543904715,1.3049190225242115,0.5429468145544537,0.4167555510390644,-3.9184943851396303,67.0
,,0.02588781566043259,0.01987099029140589,0.0019213994872086652,0.04768020543904715,1.3067438674481133,0.5429468145544537,0.4167555510390644,-3.9184943851396303,67.1
,,0.02588781566043259,0.01987099029140589,0.0019213994872086652,0.04768020543904715,1.314657835800587,0.5429468145544537,0.4167555510390644,-3.9184943851396303,67.2
,,0.025449458536613317,0.019871884217648097,0.0023855613260765143,0.04770690408033793,1.3223260511746628,0.5334544135112329,0.41654105628367855,-3.91844939965464,67.3
,,0.025449458536613317,0.019871884217648097,0.0023855613260765143,0.04770690408033793,1.3299942665487388,0.5334544135112329,0.41654105628367855,-3.91844939965464,67.4
,,0.025449458536613317,0.019871884217648097,0.0023855613260765143,0.04770690408033793,1.337662481922815,0.5334544135112329,0.41654105628367855,-3.91844939965464,67.5
,,0.025501435968491772,0.020216268937373955,0.00252586133086695,0.04824356623673268,1.3451168606939132,0.5285976547288281,0.41904590631157107,-3.9012676057905304,67.6
,,0.025501435968491772,0.020216268937373955,0.00252586133086695,0.04824356623673268,1.3525712394650111,0.5285976547288281,0.41904590631157107,-3.9012676057905304,67.7
,,0.025501435968491772,0.020216268937373955,0.00252586133086695,0.04824356623673268,1.3514810227788656,0.5285976547288281,0.41904590631157107,-3.9012676057905304,67.8
,,0.025501435968491772,0.020216268937373955,0.00252586133086695,0.04824356623673268,1.3499238249726122,0.5285976547288281,0.41904590631157107,-3.9012676057905304,67.9
,,0.024682570813224263,0.027669850827927053,0.002283338431987811,0.054635760073139125,1.3442622612955766,0.45176585408865005,0.5064421322387813,-3.587411876309976,68.0
,,0.024682570813224263,0.027669850827927053,0.002283338431987811,0.054635760073139125,1.3386006976185407,0.45176585408865005,0.5064421322387813,-3.587411876309976,68.1
,,0.024682570813224263,0.027669850827927053,0.002283338431987811,0.054635760073139125,1.3329391339415049,0.45176585408865005,0.5064421322387813,-3.587411876309976,68.2
,,0.025831674439832183,0.020631212181718418,0.002514533558278935,0.048977420179829534,1.3312778953066966,0.5274200712284657,0.42123925894763664,-3.8809501954226313,68.3
,,0.025831674439832183,0.020631212181718418,0.002514533558278935,0.048977420179829534,1.3296166566718883,0.5274200712284657,0.42123925894763664,-3.8809501954226313,68.4
,,0.025831674439832183,0.020631212181718418,0.002514533558278935,0.048977420179829534,1.3265254002409548,0.5274200712284657,0.42123925894763664,-3.8809501954226313,68.5
,,0.0262284968790191,0.020755869126802235,0.0023769544302327163,0.049361320436054054,1.3235630195419685,0.5313572782761605,0.42048853117069207,-3.8749262228153585,68.6
,,0.0262284968790191,0.020755869126802235,0.0023769544302327163,0.049361320436054054,1.3206006388429825,0.5313572782761605,0.42048853117069207,-3.8749262228153585,68.7
,,0.0262284968790191,0.020755869126802235,0.0023769544302327163,0.049361320436054054,1.3176382581439965,0.5313572782761605,0.42048853117069207,-3.8749262228153585,68.8
,,0.02677185053851291,0.021026947360113988,0.0024803657558405056,0.050279163654467406,1.314781985293039,0.5324641181881349,0.418204000062871,-3.8619504562415,68.9
,,0.02677185053851291,0.021026947360113988,0.0024803657558405056,0.050279163654467406,1.3119257124420813,0.5324641181881349,0.418204000062871,-3.8619504562415,69.0
,,0.02677185053851291,0.021026947360113988,0.0024803657558405056,0.050279163654467406,1.3090694395911235,0.5324641181881349,0.418204000062871,-3.8619504562415,69.1
,,0.02677185053851291,0.021026947360113988,0.0024803657558405056,0.050279163654467406,1.3049400136860545,0.5324641181881349,0.418204000062871,-3.8619504562415,69.2
,,0.027597005003924695,0.02124160868845315,0.0023446862540236232,0.051183299946401466,1.3010992477446603,0.539179869856456,0.41501053489511436,-3.851793346848686,69.3
,,0.027597005003924695,0.02124160868845315,0.0023446862540236232,0.051183299946401466,1.2972584818032662,0.539179869856456,0.41501053489511436,-3.851793346848686,69.4
,,0.028367424038941644,0.021425805977296514,0.0024238092434578805,0.052217039259696035,1.2936931421525395,0.5432599098133312,0.410322114793554,-3.8431591966622585,69.5
,,0.028367424038941644,0.021425805977296514,0.0024238092434578805,0.052217039259696035,1.2901278025018126,0.5432599098133312,0.410322114793554,-3.8431591966622585,69.6
,,0.028367424038941644,0.021425805977296514,0.0024238092434578805,0.052217039259696035,1.2865624628510859,0.5432599098133312,0.410322114793554,-3.8431591966622585,69.7
,,0.028367424038941644,0.021425805977296514,0.0024238092434578805,0.052217039259696035,1.2828808745100233,0.5432599098133312,0.410322114793554,-3.8431591966622585,69.8
,,0.02960656201251182,0.021743691449848092,0.0022959088690517777,0.05364616233141169,1.2926014943864703,0.551885926706376,0.40531681121049,-3.828431611802429,69.9
,,0.02960656201251182,0.021743691449848092,0.0022959088690517777,0.05364616233141169,1.3023221142629173,0.551885926706376,0.40531681121049,-3.828431611802429,70.0
,,0.02960656201251182,0.021743691449848092,0.0022959088690517777,0.05364616233141169,1.3120427341393643,0.551885926706376,0.40531681121049,-3.828431611802429,70.1
,,0.0305977898392457,0.021844578830343842,0.0023595733626915094,0.05480194203228105,1.3221976636214063,0.5583340426370673,0.39860957514017126,-3.823802496675614,70.2
,,0.0305977898392457,0.021844578830343842,0.0023595733626915094,0.05480194203228105,1.3323525931034483,0.5583340426370673,0.39860957514017126,-3.823802496675614,70.3
,,0.0305977898392457,0.021844578830343842,0.0023595733626915094,0.05480194203228105,1.3287098964657966,0.5583340426370673,0.39860957514017126,-3.823802496675614,70.4
,,0.03222839213306777,0.02226316146929314,0.002238394857670315,0.056729948460031224,1.3249127711833755,0.5681019110351229,0.3924410663792252,-3.804821918543046,70.5
,,0.03222839213306777,0.02226316146929314,0.002238394857670315,0.056729948460031224,1.3211156459009545,0.5681019110351229,0.3924410663792252,-3.804821918543046,70.6
,,0.03222839213306777,0.02226316146929314,0.002238394857670315,0.056729948460031224,1.3173185206185334,0.5681019110351229,0.3924410663792252,-3.804821918543046,70.7
,,0.04279025175868197,0.029583190636782206,0.0016648497926774392,0.0740382921881416,1.3135083648982677,0.5779475794761174,0.3995660861761533,-3.5205489628517452,70.8
,,0.04279025175868197,0.029583190636782206,0.0016648497926774392,0.0740382921881416,1.3096982091780018,0.5779475794761174,0.3995660861761533,-3.5205489628517452,70.9
,,0.04279025175868197,0.029583190636782206,0.0016648497926774392,0.0740382921881416,1.3060835110054958,0.5779475794761174,0.3995660861761533,-3.5205489628517452,71.0
,,0.04279025175868197,0.029583190636782206,0.0016648497926774392,0.0740382921881416,1.312560719518481,0.5779475794761174,0.3995660861761533,-3.5205489628517452,71.1
,,0.035515544292163984,0.02288498929102082,0.0021865101160612036,0.06058704369924601,1.3202098877191377,0.5861904150409301,0.3777208441564152,-3.777274072824169,71.2
,,0.035515544292163984,0.02288498929102082,0.0021865101160612036,0.06058704369924601,1.3278590559197945,0.5861904150409301,0.3777208441564152,-3.777274072824169,71.3
,,0.035515544292163984,0.02288498929102082,0.0021865101160612036,0.06058704369924601,1.3355082241204514,0.5861904150409301,0.3777208441564152,-3.777274072824169,71.4
,,0.03675971423572162,0.02272431824488036,0.0017779943677146844,0.061262026848316664,1.3438876514385787,0.6000407777355752,0.37093644160917555,-3.784319639593897,71.5
,,0.03675971423572162,0.02272431824488036,0.0017779943677146844,0.061262026848316664,1.3522670787567062,0.6000407777355752,0.37093644160917555,-3.784319639593897,71.6
,,0.03675971423572162,0.02272431824488036,0.0017779943677146844,0.061262026848316664,1.350213235112442,0.6000407777355752,0.37093644160917555,-3.784319639593897,71.7
,,0.037609312577037,0.02250927099870806,0.0020411479903861838,0.06215973156613124,1.3487504895772655,0.6050430339620234,0.3621198231005973,-3.7938280102517146,71.8
,,0.037609312577037,0.02250927099870806,0.0020411479903861838,0.06215973156613124,1.3472877440420887,0.6050430339620234,0.3621198231005973,-3.7938280102517146,71.9
,,0.037609312577037,0.02250927099870806,0.0020411479903861838,0.06215973156613124,1.3458249985069122,0.6050430339620234,0.3621198231005973,-3.7938280102517146,72.0
