HRV_ULF,HRV_VLF,HRV_LF,HRV_HF,HRV_VHF,HRV_TP,HRV_LFHF,HRV_LFn,HRV_HFn,HRV_LnHF,time
,,0.04923096758577355,0.011690568709495537,0.0005112859578456609,0.06143282225311475,4.211169602534925,0.8013789010528074,0.1902984150936156,-4.448972855451766,0.0
,,0.04923096758577355,0.011690568709495537,0.0005112859578456609,0.06143282225311475,4.211169602534925,0.8013789010528074,0.1902984150936156,-4.448972855451766,0.1
,,0.04923096758577355,0.011690568709495537,0.0005112859578456609,0.06143282225311475,4.211169602534925,0.8013789010528074,0.1902984150936156,-4.448972855451766,0.2
,,0.04923096758577355,0.011690568709495537,0.0005112859578456609,0.06143282225311475,4.211169602534925,0.8013789010528074,0.1902984150936156,-4.448972855451766,0.3
,,0.04923096758577355,0.011690568709495537,0.0005112859578456609,0.06143282225311475,4.211169602534925,0.8013789010528074,0.1902984150936156,-4.448972855451766,0.4
,,0.048362658935453336,0.011336327798815476,0.0005225425552042145,0.060221529289473025,4.22033570869932,0.8030792227640644,0.18824377149779745,-4.479742860390851,0.5
,,0.048362658935453336,0.011336327798815476,0.0005225425552042145,0.060221529289473025,4.226882927388173,0.8030792227640644,0.18824377149779745,-4.479742860390851,0.6
,,0.048362658935453336,0.011336327798815476,0.0005225425552042145,0.060221529289473025,4.2317933414048134,0.8030792227640644,0.18824377149779745,-4.479742860390851,0.7
,,0.048362658935453336,0.011336327798815476,0.0005225425552042145,0.060221529289473025,4.235612552306645,0.8030792227640644,0.18824377149779745,-4.479742860390851,0.8
,,0.048362658935453336,0.011336327798815476,0.0005225425552042145,0.060221529289473025,4.238667921028109,0.8030792227640644,0.18824377149779745,-4.479742860390851,0.9
,,0.048362658935453336,0.011336327798815476,0.0005225425552042145,0.060221529289473025,4.241167768163854,0.8030792227640644,0.18824377149779745,-4.479742860390851,1.0
,,0.0481155049535029,0.011411285809195395,0.0004422604683398208,0.05996905123103811,4.239110794199132,0.8023389392660563,0.19028624890582344,-4.473152430029187,1.1
,,0.04774212437231349,0.011081979035543133,0.0005375624129011221,0.05936166582075775,4.244416618388687,0.8042585010412375,0.18668578252175594,-4.502435000296291,1.2
,,0.04774212437231349,0.011081979035543133,0.0005375624129011221,0.05936166582075775,4.24896446769402,0.8042585010412375,0.18668578252175594,-4.502435000296291,1.3
,,0.04774212437231349,0.011081979035543133,0.0005375624129011221,0.05936166582075775,4.252905937091977,0.8042585010412375,0.18668578252175594,-4.502435000296291,1.4
,,0.04774212437231349,0.011081979035543133,0.0005375624129011221,0.05936166582075775,4.256354722815187,0.8042585010412375,0.18668578252175594,-4.502435000296291,1.5
,,0.04774212437231349,0.011081979035543133,0.0005375624129011221,0.05936166582075775,4.259397769041549,0.8042585010412375,0.18668578252175594,-4.502435000296291,1.6
,,0.046724008046674814,0.011004380360741098,0.0004456284516402292,0.05817401685905614,4.25865046505543,0.803176582423002,0.18916315143584606,-4.5094618708373355,1.7
,,0.02822970632104957,0.010366978292555524,0.0005258954052610598,0.03912258001886615,4.177828911137279,0.7215706711427597,0.26498708131100346,-4.569129688541731,1.8
,,0.02822970632104957,0.010366978292555524,0.0005258954052610598,0.03912258001886615,4.105089512610943,0.7215706711427597,0.26498708131100346,-4.569129688541731,1.9
,,0.02822970632104957,0.010366978292555524,0.0005258954052610598,0.03912258001886615,4.03927767584902,0.7215706711427597,0.26498708131100346,-4.569129688541731,2.0
,,0.02822970632104957,0.010366978292555524,0.0005258954052610598,0.03912258001886615,3.9794487333381796,0.7215706711427597,0.26498708131100346,-4.569129688541731,2.1
,,0.02822970632104957,0.010366978292555524,0.0005258954052610598,0.03912258001886615,3.9248223075674136,0.7215706711427597,0.26498708131100346,-4.569129688541731,2.2
,,0.04353021273487192,0.010232542416814245,0.0004298414985223817,0.05419259665020855,3.9385420242687306,0.8032501748503023,0.1888180867741252,-4.582182204303181,2.3
,,0.04353021273487192,0.010232542416814245,0.0004298414985223817,0.05419259665020855,3.951164163633942,0.8032501748503023,0.1888180867741252,-4.582182204303181,2.4
,,0.04181995646192312,0.009680019639671784,0.0005090102256462041,0.052008986327241116,3.9653591831426658,0.8040909737942497,0.1861220593449946,-4.637691348803997,2.5
,,0.04181995646192312,0.009680019639671784,0.0005090102256462041,0.052008986327241116,3.9785027197248173,0.8040909737942497,0.1861220593449946,-4.637691348803997,2.6
,,0.04181995646192312,0.009680019639671784,0.0005090102256462041,0.052008986327241116,3.990707432265386,0.8040909737942497,0.1861220593449946,-4.637691348803997,2.7
,,0.04181995646192312,0.009680019639671784,0.0005090102256462041,0.052008986327241116,4.002070440492814,0.8040909737942497,0.1861220593449946,-4.637691348803997,2.8
,,0.04181995646192312,0.009680019639671784,0.0005090102256462041,0.052008986327241116,4.012675914838412,0.8040909737942497,0.1861220593449946,-4.637691348803997,2.9
,,0.04075949006759126,0.00960824927454202,0.000414485356535025,0.050782224698668305,4.020077819237892,0.8026330140014548,0.18920496948598597,-4.645133250063278,3.0
,,0.023655562502322598,0.009148913359983236,0.0004926444914853037,0.03329712035379114,3.9752508386655405,0.7104386881200441,0.2747659035608333,-4.6941201652188305,3.1
,,0.023655562502322598,0.009148913359983236,0.0004926444914853037,0.03329712035379114,3.933140644794543,0.7104386881200441,0.2747659035608333,-4.6941201652188305,3.2
,,0.023655562502322598,0.009148913359983236,0.0004926444914853037,0.03329712035379114,3.8935075211512515,0.7104386881200441,0.2747659035608333,-4.6941201652188305,3.3
,,0.023655562502322598,0.009148913359983236,0.0004926444914853037,0.03329712035379114,3.8561391474304334,0.7104386881200441,0.2747659035608333,-4.6941201652188305,3.4
,,0.023655562502322598,0.009148913359983236,0.0004926444914853037,0.03329712035379114,3.8208467944718834,0.7104386881200441,0.2747659035608333,-4.6941201652188305,3.5
,,0.038316108822102735,0.009100412792097416,0.0003992635407299662,0.04781578515493012,3.8313744600043225,0.8013276096576257,0.19032235406384632,-4.6994355047192,3.6
,,0.034461866521033224,0.023007018668594184,0.0016136180031113404,0.05908250319273875,3.769966840762934,0.5832837923033125,0.3894049409778858,-3.7719559501005837,3.7
,,0.034461866521033224,0.023007018668594184,0.0016136180031113404,0.05908250319273875,3.7117083302005907,0.5832837923033125,0.3894049409778858,-3.7719559501005837,3.8
,,0.034461866521033224,0.023007018668594184,0.0016136180031113404,0.05908250319273875,3.6563627451663643,0.5832837923033125,0.3894049409778858,-3.7719559501005837,3.9
,,0.034461866521033224,0.023007018668594184,0.0016136180031113404,0.05908250319273875,3.603716944767954,0.5832837923033125,0.3894049409778858,-3.7719559501005837,4.0
,,0.034461866521033224,0.023007018668594184,0.0016136180031113404,0.05908250319273875,3.553578087245659,0.5832837923033125,0.3894049409778858,-3.7719559501005837,4.1
,,0.04100682235373189,0.027775178814627464,0.0015009611866468534,0.07028296235500621,3.505271241940968,0.5834532435699333,0.39519078143479897,-3.5836125055067813,4.2
,,0.04014998120232556,0.02662302281401191,0.0016519799524264945,0.06842498396876397,3.4598808161321926,0.5867737027260984,0.3890833620971739,-3.6259789182165907,4.3
,,0.04014998120232556,0.02662302281401191,0.0016519799524264945,0.06842498396876397,3.4165077425815853,0.5867737027260984,0.3890833620971739,-3.6259789182165907,4.4
,,0.04014998120232556,0.02662302281401191,0.0016519799524264945,0.06842498396876397,3.3750204548375256,0.5867737027260984,0.3890833620971739,-3.6259789182165907,4.5
,,0.04014998120232556,0.02662302281401191,0.0016519799524264945,0.06842498396876397,3.335298583593213,0.5867737027260984,0.3890833620971739,-3.6259789182165907,4.6
,,0.04014998120232556,0.02662302281401191,0.0016519799524264945,0.06842498396876397,3.2972317903174138,0.5867737027260984,0.3890833620971739,-3.6259789182165907,4.7
,,0.03491520476795651,0.008570108827337846,0.000379294060668587,0.04386460765596294,3.3130855872716185,0.7959766799193096,0.19537639307194005,-4.7594748478138875,4.8
,,0.03491520476795651,0.008570108827337846,0.000379294060668587,0.04386460765596294,3.328305232347654,0.7959766799193096,0.19537639307194005,-4.7594748478138875,4.9
,,0.03411536306167654,0.008485471268582635,0.0004596894933438075,0.04306052382360299,3.341876583073167,0.7922653983827459,0.19705917427626482,-4.769399840461455,5.0
,,0.03411536306167654,0.008485471268582635,0.0004596894933438075,0.04306052382360299,3.3549259587707763,0.7922653983827459,0.19705917427626482,-4.769399840461455,5.1
,,0.03411536306167654,0.008485471268582635,0.0004596894933438075,0.04306052382360299,3.3674829051967774,0.7922653983827459,0.19705917427626482,-4.769399840461455,5.2
,,0.03411536306167654,0.008485471268582635,0.0004596894933438075,0.04306052382360299,3.379574779532927,0.7922653983827459,0.19705917427626482,-4.769399840461455,5.3
,,0.03390944294737087,0.008550409256389202,0.00046255683261278415,0.04292240903637286,3.390233908809633,0.7900172359532682,0.1992061826991934,-4.76177613093467,5.4
,,0.03390944294737087,0.008550409256389202,0.00046255683261278415,0.04292240903637286,3.4005123548978857,0.7900172359532682,0.1992061826991934,-4.76177613093467,5.5
,,0.03390944294737087,0.008550409256389202,0.00046255683261278415,0.04292240903637286,3.4104301537549717,0.7900172359532682,0.1992061826991934,-4.76177613093467,5.6
,,0.032541932655090075,0.008395331262693062,0.00044350414652850564,0.041380768064311645,3.418460564869663,0.7864023356095095,0.20288002507941647,-4.7800795297084395,5.7
,,0.03253860960490632,0.008394603060827925,0.0004434696542527562,0.04137668231998701,3.42621774832713,0.7863996768341319,0.2028824591567824,-4.780166272378371,5.8
,,0.03253860960490632,0.008394603060827925,0.0004434696542527562,0.04137668231998701,3.4337163590026814,0.7863996768341319,0.2028824591567824,-4.780166272378371,5.9
,,0.04377656994592212,0.024801760027275948,0.0011982696454056127,0.06977659961860369,3.406361320458696,0.6273818183345595,0.3554452375558776,-3.6968406594875978,6.0
,,0.04377656994592212,0.024801760027275948,0.0011982696454056127,0.06977659961860369,3.3798887025129027,0.6273818183345595,0.3554452375558776,-3.6968406594875978,6.1
,,0.031648559881473894,0.008265028320057521,0.0004356846566146409,0.04034927285814606,3.3870208457285123,0.7843650613665125,0.20483710695641213,-4.795722121210782,6.2
,,0.03061541441818111,0.008254416590596773,0.00041899523597404436,0.039288826244751926,3.3920513597859996,0.7792397316086941,0.2100957798834566,-4.797006877566433,6.3
,,0.03061541441818111,0.008254416590596773,0.00041899523597404436,0.039288826244751926,3.396927088795564,0.7792397316086941,0.2100957798834566,-4.797006877566433,6.4
,,0.03061541441818111,0.008254416590596773,0.00041899523597404436,0.039288826244751926,3.4016550684412024,0.7792397316086941,0.2100957798834566,-4.797006877566433,6.5
,,0.02999428522859983,0.008155011164892692,0.0004134181556771144,0.03856271454916964,3.405779901811034,0.7778053381163149,0.211473991398987,-4.809122673824543,6.6
,,0.02999428522859983,0.008155011164892692,0.0004134181556771144,0.03856271454916964,3.409783416552341,0.7778053381163149,0.211473991398987,-4.809122673824543,6.7
,,0.02999428522859983,0.008155011164892692,0.0004134181556771144,0.03856271454916964,3.413670887388103,0.7778053381163149,0.211473991398987,-4.809122673824543,6.8
,,0.02999428522859983,0.008155011164892692,0.0004134181556771144,0.03856271454916964,3.4174472876285575,0.7778053381163149,0.211473991398987,-4.809122673824543,6.9
,,0.029306414980643597,0.008282246941175098,0.0003997675111126218,0.03798842943293131,3.419151718334504,0.771456346527412,0.21802025155573831,-4.79364097769193,7.0
,,0.02931635606212109,0.008283960776168038,0.0003998966826427103,0.03800021352093184,3.420815303488328,0.7714787193491064,0.21799774287070636,-4.793434070350395,7.1
,,0.04956823809268169,0.023558066235958724,0.0009479921265353132,0.07407429645517573,3.4027779394580975,0.6691692053083044,0.3180329394044845,-3.74828700183736,7.2
,,0.04956823809268169,0.023558066235958724,0.0009479921265353132,0.07407429645517573,3.3852280717530085,0.6691692053083044,0.3180329394044845,-3.74828700183736,7.3
,,0.04956823809268169,0.023558066235958724,0.0009479921265353132,0.07407429645517573,3.368146200520055,0.6691692053083044,0.3180329394044845,-3.74828700183736,7.4
,,0.04956823809268169,0.023558066235958724,0.0009479921265353132,0.07407429645517573,3.3515138522142847,0.6691692053083044,0.3180329394044845,-3.74828700183736,7.5
,,0.028645496454007095,0.008496495360201415,0.0003865073772740241,0.03752849919148254,3.3517727436164897,0.7632998140386192,0.2264011496129794,-4.768101511073778,7.6
,,0.028645496454007095,0.008496495360201415,0.0003865073772740241,0.03752849919148254,3.3520249967776126,0.7632998140386192,0.2264011496129794,-4.768101511073778,7.7
,,0.05314142748417724,0.023121714473444365,0.0008726181613076,0.0771357601189292,3.3386871387806467,0.6889337371180747,0.2997535052198218,-3.7669830825015436,7.8
,,0.05314142748417724,0.023121714473444365,0.0008726181613076,0.0771357601189292,3.325682727233604,0.6889337371180747,0.2997535052198218,-3.7669830825015436,7.9
,,0.05314142748417724,0.023121714473444365,0.0008726181613076,0.0771357601189292,3.3129994122679705,0.6889337371180747,0.2997535052198218,-3.7669830825015436,8.0
,,0.05314142748417724,0.023121714473444365,0.0008726181613076,0.0771357601189292,3.30062544644784,0.6889337371180747,0.2997535052198218,-3.7669830825015436,8.1
,,0.05314142748417724,0.023121714473444365,0.0008726181613076,0.0771357601189292,3.2885496484787966,0.6889337371180747,0.2997535052198218,-3.7669830825015436,8.2
,,0.028730485320100134,0.008900486714629058,0.00038022651272663535,0.03801119854745583,3.287828437068209,0.7558426573745365,0.234154329638332,-4.721649316702352,8.3
,,0.028730485320100134,0.008900486714629058,0.00038022651272663535,0.03801119854745583,3.287124195337871,0.7558426573745365,0.234154329638332,-4.721649316702352,8.4
,,0.02921447454607031,0.008985177879600407,0.00038250108680803834,0.03858215351247876,3.2867088846674983,0.7572017600474626,0.23288430171981714,-4.712178961546876,8.5
,,0.02921447454607031,0.008985177879600407,0.00038250108680803834,0.03858215351247876,3.2863031213688587,0.7572017600474626,0.23288430171981714,-4.712178961546876,8.6
,,0.02921447454607031,0.008985177879600407,0.00038250108680803834,0.03858215351247876,3.28590657996337,0.7572017600474626,0.23288430171981714,-4.712178961546876,8.7
,,0.02921447454607031,0.008985177879600407,0.00038250108680803834,0.03858215351247876,3.2855189496007013,0.7572017600474626,0.23288430171981714,-4.712178961546876,8.8
,,0.02959391682252359,0.0095089455047691,0.0003811599206798953,0.03948402224797258,3.2835933898758096,0.74951626348157,0.24083021342278174,-4.655522291352063,8.9
,,0.02959391682252359,0.0095089455047691,0.0003811599206798953,0.03948402224797258,3.271382822896093,0.74951626348157,0.24083021342278174,-4.655522291352063,9.0
,,0.02959391682252359,0.0095089455047691,0.0003811599206798953,0.03948402224797258,3.2591722559163765,0.74951626348157,0.24083021342278174,-4.655522291352063,9.1
,,0.05758907601583864,0.02134484043798332,0.0007475526496041104,0.07968146910342606,3.2423596229048774,0.7227411424993729,0.26787709461377834,-3.846945234181585,9.2
,,0.05758907601583864,0.02134484043798332,0.0007475526496041104,0.07968146910342606,3.2255469898933775,0.7227411424993729,0.26787709461377834,-3.846945234181585,9.3
,,0.05758907601583864,0.02134484043798332,0.0007475526496041104,0.07968146910342606,3.208734356881877,0.7227411424993729,0.26787709461377834,-3.846945234181585,9.4
,,0.05758907601583864,0.02134484043798332,0.0007475526496041104,0.07968146910342606,3.191310650126085,0.7227411424993729,0.26787709461377834,-3.846945234181585,9.5
,,0.05735394392456321,0.02104949659794141,0.0007117443668294881,0.0791151848893341,3.1741834483373963,0.7249422978002213,0.2660613967771842,-3.8608786337268115,9.6
,,0.05735394392456321,0.02104949659794141,0.0007117443668294881,0.0791151848893341,3.1570562465487075,0.7249422978002213,0.2660613967771842,-3.8608786337268115,9.7
,,0.05735394392456321,0.02104949659794141,0.0007117443668294881,0.0791151848893341,3.1399290447600197,0.7249422978002213,0.2660613967771842,-3.8608786337268115,9.8
,,0.032022823770923206,0.01040938117609233,0.0003317201444708555,0.04276392509148639,3.1267087831866567,0.7488279829883632,0.24341500818325656,-4.565047843262218,9.9
,,0.032022823770923206,0.01040938117609233,0.0003317201444708555,0.04276392509148639,3.1134885216132937,0.7488279829883632,0.24341500818325656,-4.565047843262218,10.0
,,0.032022823770923206,0.01040938117609233,0.0003317201444708555,0.04276392509148639,3.1008202840280874,0.7488279829883632,0.24341500818325656,-4.565047843262218,10.1
,,0.033085385451436626,0.011114226010165618,0.000397703513161484,0.04459731497476373,3.086028769017745,0.7418694481979161,0.2492128958089702,-4.499529368703532,10.2
,,0.033085385451436626,0.011114226010165618,0.000397703513161484,0.04459731497476373,3.0712372540074027,0.7418694481979161,0.2492128958089702,-4.499529368703532,10.3
,,0.033085385451436626,0.011114226010165618,0.000397703513161484,0.04459731497476373,3.0564457389970605,0.7418694481979161,0.2492128958089702,-4.499529368703532,10.4
,,0.03439439961611167,0.011363587020548366,0.00034334629534875014,0.04610133293200878,3.0422083367765533,0.7460608496252648,0.246491506814079,-4.477341156679378,10.5
,,0.03439439961611167,0.011363587020548366,0.00034334629534875014,0.04610133293200878,3.0279709345560466,0.7460608496252648,0.246491506814079,-4.477341156679378,10.6
,,0.03439439961611167,0.011363587020548366,0.00034334629534875014,0.04610133293200878,3.0144239791285625,0.7460608496252648,0.246491506814079,-4.477341156679378,10.7
,,0.03569961601401961,0.012119006236200143,0.00041165360339541436,0.04823027585361517,3.0168985731860527,0.7401909979194883,0.2512738320838724,-4.412980295415497,10.8
,,0.03569961601401961,0.012119006236200143,0.00041165360339541436,0.04823027585361517,3.0193731672435447,0.7401909979194883,0.2512738320838724,-4.412980295415497,10.9
,,0.03569961601401961,0.012119006236200143,0.00041165360339541436,0.04823027585361517,3.021847761301036,0.7401909979194883,0.2512738320838724,-4.412980295415497,11.0
,,0.03569961601401961,0.012119006236200143,0.00041165360339541436,0.04823027585361517,3.0243223553585272,0.7401909979194883,0.2512738320838724,-4.412980295415497,11.1
,,0.05774162612329251,0.017580192042986584,0.0005518134288620254,0.07587363159514113,3.030560464085484,0.7610236245366464,0.23170357966775382,-4.040982462837867,11.2
,,0.05774162612329251,0.017580192042986584,0.0005518134288620254,0.07587363159514113,3.019786855392569,0.7610236245366464,0.23170357966775382,-4.040982462837867,11.3
,,0.05774162612329251,0.017580192042986584,0.0005518134288620254,0.07587363159514113,3.009013246699655,0.7610236245366464,0.23170357966775382,-4.040982462837867,11.4
,,0.03849258735166507,0.013110017535088024,0.0004274699280694295,0.05203007481482252,2.993634197061172,0.7398141841744797,0.2519699920045703,-4.334378643672105,11.5
,,0.03849258735166507,0.013110017535088024,0.0004274699280694295,0.05203007481482252,2.978255147422689,0.7398141841744797,0.2519699920045703,-4.334378643672105,11.6
,,0.03849258735166507,0.013110017535088024,0.0004274699280694295,0.05203007481482252,2.962876097784206,0.7398141841744797,0.2519699920045703,-4.334378643672105,11.7
,,0.03849258735166507,0.013110017535088024,0.0004274699280694295,0.05203007481482252,2.9474970481457246,0.7398141841744797,0.2519699920045703,-4.334378643672105,11.8
,,0.025528582056959834,0.01324120310978472,0.00037031900600037584,0.039140104172744924,2.920916278978781,0.6522359251853135,0.3383027048508774,-4.324421863282554,11.9
,,0.025528582056959834,0.01324120310978472,0.00037031900600037584,0.039140104172744924,2.8952032844744875,0.6522359251853135,0.3383027048508774,-4.324421863282554,12.0
,,0.04104610866808902,0.013943914261148048,0.00044326629292907525,0.05543328922216614,2.8991815413828226,0.7404595549721752,0.2515440533442545,-4.272712119582228,12.1
,,0.04104610866808902,0.013943914261148048,0.00044326629292907525,0.05543328922216614,2.9031597982911572,0.7404595549721752,0.2515440533442545,-4.272712119582228,12.2
,,0.04104610866808902,0.013943914261148048,0.00044326629292907525,0.05543328922216614,2.9071380551994923,0.7404595549721752,0.2515440533442545,-4.272712119582228,12.3
,,0.04104610866808902,0.013943914261148048,0.00044326629292907525,0.05543328922216614,2.9111163121078265,0.7404595549721752,0.2515440533442545,-4.272712119582228,12.4
,,0.04104610866808902,0.013943914261148048,0.00044326629292907525,0.05543328922216614,2.915094569016162,0.7404595549721752,0.2515440533442545,-4.272712119582228,12.5
,,0.04186462112839732,0.013993960610540979,0.00038342332416922546,0.056242005063107524,2.9015529045892006,0.744365729518751,0.2488168868595414,-4.269129427401498,12.6
,,0.04186462112839732,0.013993960610540979,0.00038342332416922546,0.056242005063107524,2.918149967832692,0.744365729518751,0.2488168868595414,-4.269129427401498,12.7
,,0.04329382931941905,0.014603552610267061,0.00045672360364877335,0.058354105533334893,2.934446906384207,0.7419157388109971,0.25025750076701553,-4.226490450397313,12.8
,,0.04329382931941905,0.014603552610267061,0.00045672360364877335,0.058354105533334893,2.950743844935723,0.7419157388109971,0.25025750076701553,-4.226490450397313,12.9
,,0.04329382931941905,0.014603552610267061,0.00045672360364877335,0.058354105533334893,2.9670407834872385,0.7419157388109971,0.25025750076701553,-4.226490450397313,13.0
,,0.04329382931941905,0.014603552610267061,0.00045672360364877335,0.058354105533334893,2.9833377220387547,0.7419157388109971,0.25025750076701553,-4.226490450397313,13.1
,,0.04329382931941905,0.014603552610267061,0.00045672360364877335,0.058354105533334893,2.999873562697909,0.7419157388109971,0.25025750076701553,-4.226490450397313,13.2
,,0.051583210093473705,0.013404853336590548,0.0004644577193614593,0.06545252114942571,3.0258736409615654,0.7881011943865558,0.20480270432956676,-4.312138448302179,13.3
,,0.04482563814379767,0.014947327174465631,0.0004640999645114993,0.0602370652827748,3.0424382420228313,0.7441537520689253,0.24814168990964972,-4.203222779445943,13.4
,,0.04482563814379767,0.014947327174465631,0.0004640999645114993,0.0602370652827748,3.059002843084097,0.7441537520689253,0.24814168990964972,-4.203222779445943,13.5
,,0.04482563814379767,0.014947327174465631,0.0004640999645114993,0.0602370652827748,3.075567444145363,0.7441537520689253,0.24814168990964972,-4.203222779445943,13.6
,,0.04482563814379767,0.014947327174465631,0.0004640999645114993,0.0602370652827748,3.0921320452066294,0.7441537520689253,0.24814168990964972,-4.203222779445943,13.7
,,0.04482563814379767,0.014947327174465631,0.0004640999645114993,0.0602370652827748,3.0801858092154664,0.7441537520689253,0.24814168990964972,-4.203222779445943,13.8
,,0.04482563814379767,0.014947327174465631,0.0004640999645114993,0.0602370652827748,3.0682395732243037,0.7441537520689253,0.24814168990964972,-4.203222779445943,13.9
,,0.02804755149050195,0.014625992785526828,0.0003909566634079211,0.0430645009394367,3.0448752065984688,0.651291687553661,0.3396299148130368,-4.224955005397082,14.0
,,0.044256546773321345,0.014536539691717804,0.00045280132825053566,0.05924588779328968,3.0340314225535785,0.7469977819850299,0.24535947106466086,-4.231089820638733,14.1
,,0.044256546773321345,0.014536539691717804,0.00045280132825053566,0.05924588779328968,3.023187638508689,0.7469977819850299,0.24535947106466086,-4.231089820638733,14.2
,,0.044256546773321345,0.014536539691717804,0.00045280132825053566,0.05924588779328968,3.012343854463799,0.7469977819850299,0.24535947106466086,-4.231089820638733,14.3
,,0.044256546773321345,0.014536539691717804,0.00045280132825053566,0.05924588779328968,3.002106928525543,0.7469977819850299,0.24535947106466086,-4.231089820638733,14.4
,,0.044256546773321345,0.014536539691717804,0.00045280132825053566,0.05924588779328968,2.9918700025872864,0.7469977819850299,0.24535947106466086,-4.231089820638733,14.5
,,0.043345693173700024,0.014074706836519815,0.0003749595991556325,0.05779535960937547,2.982024004996786,0.7499856989672326,0.2435265898793134,-4.263375933839746,14.6
,,0.04294052761390315,0.013855418296141024,0.0004371637875920179,0.05723310969763619,2.9733905901751427,0.7502742353291465,0.242087462473025,-4.2790789101347695,14.7
,,0.04294052761390315,0.013855418296141024,0.0004371637875920179,0.05723310969763619,2.964757837681797,0.7502742353291465,0.242087462473025,-4.2790789101347695,14.8
,,0.04294052761390315,0.013855418296141024,0.0004371637875920179,0.05723310969763619,2.9561250851884515,0.7502742353291465,0.242087462473025,-4.2790789101347695,14.9
,,0.04294052761390315,0.013855418296141024,0.0004371637875920179,0.05723310969763619,2.9709487258177805,0.7502742353291465,0.242087462473025,-4.2790789101347695,15.0
,,0.04294052761390315,0.013855418296141024,0.0004371637875920179,0.05723310969763619,2.9857723664471085,0.7502742353291465,0.242087462473025,-4.2790789101347695,15.1
,,0.04294052761390315,0.013855418296141024,0.0004371637875920179,0.05723310969763619,2.9776609546622503,0.7502742353291465,0.242087462473025,-4.2790789101347695,15.2
,,0.04133670319391179,0.013084157937126964,0.0004215136273352326,0.05484237475837399,2.9715534032331616,0.7537365654940026,0.23857752321582534,-4.3363530983663985,15.3
,,0.04133670319391179,0.013084157937126964,0.0004215136273352326,0.05484237475837399,2.965445851804072,0.7537365654940026,0.23857752321582534,-4.3363530983663985,15.4
,,0.04133670319391179,0.013084157937126964,0.0004215136273352326,0.05484237475837399,2.9593383003749834,0.7537365654940026,0.23857752321582534,-4.3363530983663985,15.5
,,0.04133670319391179,0.013084157937126964,0.0004215136273352326,0.05484237475837399,2.9535746916257577,0.7537365654940026,0.23857752321582534,-4.3363530983663985,15.6
,,0.04133670319391179,0.013084157937126964,0.0004215136273352326,0.05484237475837399,2.947811082876532,0.7537365654940026,0.23857752321582534,-4.3363530983663985,15.7
,,0.04133670319391179,0.013084157937126964,0.0004215136273352326,0.05484237475837399,2.9420474741273073,0.7537365654940026,0.23857752321582534,-4.3363530983663985,15.8
,,0.024136509350424582,0.012619701393855471,0.0003432124059426762,0.03709942315022273,2.9224317688049797,0.6505898825620872,0.34015896534983475,-4.372496083491677,15.9
,,0.044430181995024756,0.009286144995160847,0.0004600585944859799,0.05417638558467158,2.936277380301431,0.8201023659207644,0.17140576830559598,-4.679231775123277,16.0
,,0.044430181995024756,0.009286144995160847,0.0004600585944859799,0.05417638558467158,2.9501177920016692,0.8201023659207644,0.17140576830559598,-4.679231775123277,16.1
,,0.044430181995024756,0.009286144995160847,0.0004600585944859799,0.05417638558467158,2.979900893925556,0.8201023659207644,0.17140576830559598,-4.679231775123277,16.2
,,0.044430181995024756,0.009286144995160847,0.0004600585944859799,0.05417638558467158,3.0096839958494432,0.8201023659207644,0.17140576830559598,-4.679231775123277,16.3
,,0.044430181995024756,0.009286144995160847,0.0004600585944859799,0.05417638558467158,3.0394670977733296,0.8201023659207644,0.17140576830559598,-4.679231775123277,16.4
,,0.044430181995024756,0.009286144995160847,0.0004600585944859799,0.05417638558467158,3.0692501996972164,0.8201023659207644,0.17140576830559598,-4.679231775123277,16.5
,,0.03770602062043717,0.01148987217212772,0.0003910400717331957,0.049586932864298085,3.0682527110188413,0.7604023568794872,0.23171169315052093,-4.466289312324548,16.6
,,0.03770602062043717,0.01148987217212772,0.0003910400717331957,0.049586932864298085,3.0672552223404663,0.7604023568794872,0.23171169315052093,-4.466289312324548,16.7
,,0.03770602062043717,0.01148987217212772,0.0003910400717331957,0.049586932864298085,3.0781812256083887,0.7604023568794872,0.23171169315052093,-4.466289312324548,16.8
,,0.03770602062043717,0.01148987217212772,0.0003910400717331957,0.049586932864298085,3.0891072288763115,0.7604023568794872,0.23171169315052093,-4.466289312324548,16.9
,,0.03770602062043717,0.01148987217212772,0.0003910400717331957,0.049586932864298085,3.1000332321442334,0.7604023568794872,0.23171169315052093,-4.466289312324548,17.0
,,0.03770602062043717,0.01148987217212772,0.0003910400717331957,0.049586932864298085,3.110959235412156,0.7604023568794872,0.23171169315052093,-4.466289312324548,17.1
,,0.03654839241955853,0.011120717178831294,0.0003107428072302675,0.04797985240562009,3.121939010522383,0.761744577923659,0.23177889512491864,-4.498945497740165,17.2
,,0.03588586720390551,0.010755698792073692,0.00037721610741122465,0.04701878210339043,3.123144383797054,0.7632240904282771,0.22875324095853433,-4.532319544679633,17.3
,,0.03588586720390551,0.010755698792073692,0.00037721610741122465,0.04701878210339043,3.124349757071724,0.7632240904282771,0.22875324095853433,-4.532319544679633,17.4
,,0.03588586720390551,0.010755698792073692,0.00037721610741122465,0.04701878210339043,3.1252946904831016,0.7632240904282771,0.22875324095853433,-4.532319544679633,17.5
,,0.03588586720390551,0.010755698792073692,0.00037721610741122465,0.04701878210339043,3.1262396238944783,0.7632240904282771,0.22875324095853433,-4.532319544679633,17.6
,,0.03588586720390551,0.010755698792073692,0.00037721610741122465,0.04701878210339043,3.1271845573058554,0.7632240904282771,0.22875324095853433,-4.532319544679633,17.7
,,0.03588586720390551,0.010755698792073692,0.00037721610741122465,0.04701878210339043,3.128129490717232,0.7632240904282771,0.22875324095853433,-4.532319544679633,17.8
,,0.03423311449067572,0.010124412840965732,0.0003653393614338416,0.04472286669307529,3.1311186668527475,0.765449914595395,0.22638112423444795,-4.5928056586868085,17.9
,,0.03423311449067572,0.010124412840965732,0.0003653393614338416,0.04472286669307529,3.1341078429882634,0.765449914595395,0.22638112423444795,-4.5928056586868085,18.0
,,0.03423311449067572,0.010124412840965732,0.0003653393614338416,0.04472286669307529,3.1370970191237784,0.765449914595395,0.22638112423444795,-4.5928056586868085,18.1
,,0.03423311449067572,0.010124412840965732,0.0003653393614338416,0.04472286669307529,3.1446882612910763,0.765449914595395,0.22638112423444795,-4.5928056586868085,18.2
,,0.03423311449067572,0.010124412840965732,0.0003653393614338416,0.04472286669307529,3.1522795034583755,0.765449914595395,0.22638112423444795,-4.5928056586868085,18.3
,,0.03423311449067572,0.010124412840965732,0.0003653393614338416,0.04472286669307529,3.1598707456256743,0.765449914595395,0.22638112423444795,-4.5928056586868085,18.4
,,0.033048556001312714,0.00980921733902825,0.00028000938076448137,0.043137782721105446,3.167327414302828,0.766116242343246,0.22739271052587098,-4.624432790541921,18.5
,,0.034551900436311546,0.006551932475878502,0.00036335317534272066,0.04146718608753277,3.1956476959422067,0.8332347500835046,0.15800282329377444,-5.0279952383638244,18.6
,,0.034551900436311546,0.006551932475878502,0.00036335317534272066,0.04146718608753277,3.2239679775815855,0.8332347500835046,0.15800282329377444,-5.0279952383638244,18.7
,,0.034551900436311546,0.006551932475878502,0.00036335317534272066,0.04146718608753277,3.252288259220964,0.8332347500835046,0.15800282329377444,-5.0279952383638244,18.8
,,0.034551900436311546,0.006551932475878502,0.00036335317534272066,0.04146718608753277,3.2767016006450174,0.8332347500835046,0.15800282329377444,-5.0279952383638244,18.9
,,0.034551900436311546,0.006551932475878502,0.00036335317534272066,0.04146718608753277,3.3011149420690704,0.8332347500835046,0.15800282329377444,-5.0279952383638244,19.0
,,0.034551900436311546,0.006551932475878502,0.00036335317534272066,0.04146718608753277,3.325528283493124,0.8332347500835046,0.15800282329377444,-5.0279952383638244,19.1
,,0.03083271571867191,0.009000364590065476,0.0003365220814998879,0.04016960239023728,3.3305157098093425,0.7675633783760184,0.22405909081771003,-4.710490192459151,19.2
,,0.033258810716090714,0.006367434694325532,0.000345775721265149,0.0399720211316814,3.355475895554132,0.8320522649211284,0.1592972913065627,-5.0565586072566155,19.3
,,0.03083271571867191,0.009000364590065476,0.0003365220814998879,0.04016960239023728,3.3604633218703506,0.7675633783760184,0.22405909081771003,-4.710490192459151,19.4
,,0.03083271571867191,0.009000364590065476,0.0003365220814998879,0.04016960239023728,3.3648966353967342,0.7675633783760184,0.22405909081771003,-4.710490192459151,19.5
,,0.03083271571867191,0.009000364590065476,0.0003365220814998879,0.04016960239023728,3.369329948923117,0.7675633783760184,0.22405909081771003,-4.710490192459151,19.6
,,0.03083271571867191,0.009000364590065476,0.0003365220814998879,0.04016960239023728,3.3737632624495,0.7675633783760184,0.22405909081771003,-4.710490192459151,19.7
,,0.029556105703606183,0.00868520596191999,0.0002459655390120442,0.03848727720453822,3.3788442165755876,0.7679448339910385,0.22566433878299594,-4.746134164898986,19.8
,,0.029364466157673977,0.008599796183561749,0.0003192041313459808,0.038283466472581705,3.384053097983992,0.7670273583690379,0.22463473075827264,-4.756016775589358,19.9
,,0.029364466157673977,0.008599796183561749,0.0003192041313459808,0.038283466472581705,3.389261979392396,0.7670273583690379,0.22463473075827264,-4.756016775589358,20.0
,,0.029364466157673977,0.008599796183561749,0.0003192041313459808,0.038283466472581705,3.3944708608008,0.7670273583690379,0.22463473075827264,-4.756016775589358,20.1
,,0.029364466157673977,0.008599796183561749,0.0003192041313459808,0.038283466472581705,3.395916227539739,0.7670273583690379,0.22463473075827264,-4.756016775589358,20.2
,,0.029364466157673977,0.008599796183561749,0.0003192041313459808,0.038283466472581705,3.3973615942786783,0.7670273583690379,0.22463473075827264,-4.756016775589358,20.3
,,0.029364466157673977,0.008599796183561749,0.0003192041313459808,0.038283466472581705,3.3988069610176166,0.7670273583690379,0.22463473075827264,-4.756016775589358,20.4
,,0.029954726392149147,0.006138156052155638,0.000291722210259514,0.0363846046545643,3.42040657550629,0.8232802493400584,0.16870201312976563,-5.0932308991658335,20.5
,,0.029954726392149147,0.006138156052155638,0.000291722210259514,0.0363846046545643,3.4420061899949643,0.8232802493400584,0.16870201312976563,-5.0932308991658335,20.6
,,0.029954726392149147,0.006138156052155638,0.000291722210259514,0.0363846046545643,3.4636058044836386,0.8232802493400584,0.16870201312976563,-5.0932308991658335,20.7
,,0.029954726392149147,0.006138156052155638,0.000291722210259514,0.0363846046545643,3.4852054189723116,0.8232802493400584,0.16870201312976563,-5.0932308991658335,20.8
,,0.029954726392149147,0.006138156052155638,0.000291722210259514,0.0363846046545643,3.5180067529894465,0.8232802493400584,0.16870201312976563,-5.0932308991658335,20.9
,,0.029954726392149147,0.006138156052155638,0.000291722210259514,0.0363846046545643,3.5508080870065806,0.8232802493400584,0.16870201312976563,-5.0932308991658335,21.0
,,0.027738509391376558,0.008262886391091823,0.00021890614884460913,0.03622030193131299,3.5554007804540952,0.7658276688024018,0.2281285895065506,-4.795981310469092,21.1
,,0.02787327973191809,0.008387654629232844,0.0002927850452833074,0.036553719406434246,3.559617158095053,0.7625292359992178,0.2294610443323706,-4.780994341178225,21.2
,,0.02787327973191809,0.008387654629232844,0.0002927850452833074,0.036553719406434246,3.563833535736011,0.7625292359992178,0.2294610443323706,-4.780994341178225,21.3
,,0.02787327973191809,0.008387654629232844,0.0002927850452833074,0.036553719406434246,3.568049913376969,0.7625292359992178,0.2294610443323706,-4.780994341178225,21.4
,,0.02787327973191809,0.008387654629232844,0.0002927850452833074,0.036553719406434246,3.572266291017926,0.7625292359992178,0.2294610443323706,-4.780994341178225,21.5
,,0.02787327973191809,0.008387654629232844,0.0002927850452833074,0.036553719406434246,3.575949745791408,0.7625292359992178,0.2294610443323706,-4.780994341178225,21.6
,,0.02787327973191809,0.008387654629232844,0.0002927850452833074,0.036553719406434246,3.5796332005648877,0.7625292359992178,0.2294610443323706,-4.780994341178225,21.7
,,0.027980338245981277,0.00861347787903356,0.0002852612974119295,0.03687907742242677,3.5827868380084857,0.7587049406221311,0.23356001508312038,-4.754427107255112,21.8
,,0.027980338245981277,0.00861347787903356,0.0002852612974119295,0.03687907742242677,3.5859404754520825,0.7587049406221311,0.23356001508312038,-4.754427107255112,21.9
,,0.027980338245981277,0.00861347787903356,0.0002852612974119295,0.03687907742242677,3.58909411289568,0.7587049406221311,0.23356001508312038,-4.754427107255112,22.0
,,0.027980338245981277,0.00861347787903356,0.0002852612974119295,0.03687907742242677,3.592247750339277,0.7587049406221311,0.23356001508312038,-4.754427107255112,22.1
,,0.027980338245981277,0.00861347787903356,0.0002852612974119295,0.03687907742242677,3.595401387782875,0.7587049406221311,0.23356001508312038,-4.754427107255112,22.2
,,0.027980338245981277,0.00861347787903356,0.0002852612974119295,0.03687907742242677,3.5887384679862953,0.7587049406221311,0.23356001508312038,-4.754427107255112,22.3
,,0.02828047183013177,0.00889182091946543,0.0002892801348208197,0.037461572884418017,3.590756216640101,0.7549194989059019,0.23735845120277763,-4.7226234225943,22.4
,,0.028537821578701113,0.009018022202176637,0.0002815424715866104,0.03783738625246436,3.5925965009893597,0.7542228574745284,0.23833628840018753,-4.708530237001729,22.5
,,0.028537821578701113,0.009018022202176637,0.0002815424715866104,0.03783738625246436,3.5944367853386194,0.7542228574745284,0.23833628840018753,-4.708530237001729,22.6
,,0.028537821578701113,0.009018022202176637,0.0002815424715866104,0.03783738625246436,3.5962770696878783,0.7542228574745284,0.23833628840018753,-4.708530237001729,22.7
,,0.028537821578701113,0.009018022202176637,0.0002815424715866104,0.03783738625246436,3.5981173540371376,0.7542228574745284,0.23833628840018753,-4.708530237001729,22.8
,,0.028537821578701113,0.009018022202176637,0.0002815424715866104,0.03783738625246436,3.5999576383863965,0.7542228574745284,0.23833628840018753,-4.708530237001729,22.9
,,0.028537821578701113,0.009018022202176637,0.0002815424715866104,0.03783738625246436,3.6138118725006008,0.7542228574745284,0.23833628840018753,-4.708530237001729,23.0
,,0.029684619142542824,0.009640922923669321,0.00028257300719648873,0.03960811507340863,3.6141954169526196,0.749458011004213,0.24340776898373198,-4.641738435972519,23.1
,,0.029684619142542824,0.009640922923669321,0.00028257300719648873,0.03960811507340863,3.614578961404639,0.749458011004213,0.24340776898373198,-4.641738435972519,23.2
,,0.029684619142542824,0.009640922923669321,0.00028257300719648873,0.03960811507340863,3.6149625058566572,0.749458011004213,0.24340776898373198,-4.641738435972519,23.3
,,0.029684619142542824,0.009640922923669321,0.00028257300719648873,0.03960811507340863,3.6153460503086756,0.749458011004213,0.24340776898373198,-4.641738435972519,23.4
,,0.029684619142542824,0.009640922923669321,0.00028257300719648873,0.03960811507340863,3.615729594760694,0.749458011004213,0.24340776898373198,-4.641738435972519,23.5
,,0.029684619142542824,0.009640922923669321,0.00028257300719648873,0.03960811507340863,3.6157222108649574,0.749458011004213,0.24340776898373198,-4.641738435972519,23.6
,,0.031277722830532866,0.010413862407194878,0.0002892296404076434,0.04198081487813539,3.6146586918443133,0.745048015893161,0.2480624170213205,-4.564617436620352,23.7
,,0.031277722830532866,0.010413862407194878,0.0002892296404076434,0.04198081487813539,3.6135951728236693,0.745048015893161,0.2480624170213205,-4.564617436620352,23.8
,,0.031277722830532866,0.010413862407194878,0.0002892296404076434,0.04198081487813539,3.6125316538030257,0.745048015893161,0.2480624170213205,-4.564617436620352,23.9
,,0.031277722830532866,0.010413862407194878,0.0002892296404076434,0.04198081487813539,3.611468134782382,0.745048015893161,0.2480624170213205,-4.564617436620352,24.0
,,0.031277722830532866,0.010413862407194878,0.0002892296404076434,0.04198081487813539,3.6104046157617384,0.745048015893161,0.2480624170213205,-4.564617436620352,24.1
,,0.031277722830532866,0.010413862407194878,0.0002892296404076434,0.04198081487813539,3.6093410967410953,0.745048015893161,0.2480624170213205,-4.564617436620352,24.2
,,0.03208880139902412,0.011005985427242756,0.00030405562768787186,0.04339884245395475,3.6066331322344998,0.7393930248962206,0.25360089820183274,-4.509316024419338,24.3
,,0.033353454975490165,0.01138152447519787,0.00030159821333043874,0.04503657766401847,3.604090875317478,0.7405859127288346,0.2527173481099348,-4.475763898342217,24.4
,,0.033353454975490165,0.01138152447519787,0.00030159821333043874,0.04503657766401847,3.601548618400455,0.7405859127288346,0.2527173481099348,-4.475763898342217,24.5
,,0.033353454975490165,0.01138152447519787,0.00030159821333043874,0.04503657766401847,3.599006361483433,0.7405859127288346,0.2527173481099348,-4.475763898342217,24.6
,,0.033353454975490165,0.01138152447519787,0.00030159821333043874,0.04503657766401847,3.5964641045664107,0.7405859127288346,0.2527173481099348,-4.475763898342217,24.7
,,0.033353454975490165,0.01138152447519787,0.00030159821333043874,0.04503657766401847,3.5939218476493875,0.7405859127288346,0.2527173481099348,-4.475763898342217,24.8
,,0.034216756853263613,0.012023615358564534,0.000320753585783136,0.046561125797611284,3.6042906321466925,0.7348782115362646,0.25823291753786115,-4.4208826165171455,24.9
,,0.035599775505457065,0.012405686865540968,0.00031796865389547955,0.04832343102489352,3.583013595135076,0.7366980106838453,0.25672197942961156,-4.389600293315537,25.0
,,0.035599775505457065,0.012405686865540968,0.00031796865389547955,0.04832343102489352,3.56173655812346,0.7366980106838453,0.25672197942961156,-4.389600293315537,25.1
,,0.035599775505457065,0.012405686865540968,0.00031796865389547955,0.04832343102489352,3.5404595211118437,0.7366980106838453,0.25672197942961156,-4.389600293315537,25.2
,,0.035599775505457065,0.012405686865540968,0.00031796865389547955,0.04832343102489352,3.5191824841002277,0.7366980106838453,0.25672197942961156,-4.389600293315537,25.3
,,0.035599775505457065,0.012405686865540968,0.00031796865389547955,0.04832343102489352,3.497905447088612,0.7366980106838453,0.25672197942961156,-4.389600293315537,25.4
,,0.035599775505457065,0.012405686865540968,0.00031796865389547955,0.04832343102489352,3.4766284100769957,0.7366980106838453,0.25672197942961156,-4.389600293315537,25.5
,,0.036551801846012574,0.013093071221052313,0.0003422309626244648,0.04998710402968935,3.471184142716861,0.7312246339436466,0.2619289809882927,-4.335672103123093,25.6
,,0.03760365044316724,0.01123042276121795,0.00014452198362231358,0.048978595188007505,3.4719252430860674,0.7677568190517347,0.22929246374072687,-4.489128865239748,25.7
,,0.03760365044316724,0.01123042276121795,0.00014452198362231358,0.048978595188007505,3.472666343455274,0.7677568190517347,0.22929246374072687,-4.489128865239748,25.8
,,0.03760365044316724,0.01123042276121795,0.00014452198362231358,0.048978595188007505,3.4734074438244806,0.7677568190517347,0.22929246374072687,-4.489128865239748,25.9
,,0.03760365044316724,0.01123042276121795,0.00014452198362231358,0.048978595188007505,3.474148544193688,0.7677568190517347,0.22929246374072687,-4.489128865239748,26.0
,,0.03760365044316724,0.01123042276121795,0.00014452198362231358,0.048978595188007505,3.4748896445628934,0.7677568190517347,0.22929246374072687,-4.489128865239748,26.1
,,0.03853641133236709,0.011768978123947418,0.0001453602503737298,0.05045074970668824,3.4747551103273793,0.7638421937515496,0.23327657551909894,-4.442288181874352,26.2
,,0.04049979689447842,0.01452334875704827,0.0003663048975421128,0.055389450549068804,3.4686678613188766,0.7311824994292039,0.2622042394910963,-4.23199766552594,26.3
,,0.04049979689447842,0.01452334875704827,0.0003663048975421128,0.055389450549068804,3.462580612310374,0.7311824994292039,0.2622042394910963,-4.23199766552594,26.4
,,0.04049979689447842,0.01452334875704827,0.0003663048975421128,0.055389450549068804,3.4564933633018713,0.7311824994292039,0.2622042394910963,-4.23199766552594,26.5
,,0.04049979689447842,0.01452334875704827,0.0003663048975421128,0.055389450549068804,3.450406114293369,0.7311824994292039,0.2622042394910963,-4.23199766552594,26.6
,,0.04049979689447842,0.01452334875704827,0.0003663048975421128,0.055389450549068804,3.4443188652848655,0.7311824994292039,0.2622042394910963,-4.23199766552594,26.7
,,0.04049979689447842,0.01452334875704827,0.0003663048975421128,0.055389450549068804,3.4382316162763638,0.7311824994292039,0.2622042394910963,-4.23199766552594,26.8
,,0.04157914686840088,0.015226408026041801,0.00040176805911311246,0.057207322953555795,3.4310036327265614,0.7268151125015452,0.266161869493587,-4.184723988477286,26.9
,,0.042121963146895,0.012801895115865313,0.00012557933381745294,0.055049437596577766,3.429993041584085,0.7651660940767464,0.232552695809215,-4.358162063088785,27.0
,,0.042121963146895,0.012801895115865313,0.00012557933381745294,0.055049437596577766,3.4289824504416098,0.7651660940767464,0.232552695809215,-4.358162063088785,27.1
,,0.042121963146895,0.012801895115865313,0.00012557933381745294,0.055049437596577766,3.4279718592991344,0.7651660940767464,0.232552695809215,-4.358162063088785,27.2
,,0.042121963146895,0.012801895115865313,0.00012557933381745294,0.055049437596577766,3.426961268156658,0.7651660940767464,0.232552695809215,-4.358162063088785,27.3
,,0.042121963146895,0.012801895115865313,0.00012557933381745294,0.055049437596577766,3.4259506770141828,0.7651660940767464,0.232552695809215,-4.358162063088785,27.4
,,0.04384797893134198,0.016126353294835426,0.000437830608671562,0.060412162834848966,3.418727271457883,0.7258137579217429,0.2669388503590023,-4.127300494560717,27.5
,,0.027640895659344633,0.01596695690895908,0.0004260767779198843,0.0440339293462236,3.379367134488795,0.6277181271290555,0.36260577118649584,-4.137233885384457,27.6
,,0.027640895659344633,0.01596695690895908,0.0004260767779198843,0.0440339293462236,3.340006997519707,0.6277181271290555,0.36260577118649584,-4.137233885384457,27.7
,,0.027640895659344633,0.01596695690895908,0.0004260767779198843,0.0440339293462236,3.300646860550619,0.6277181271290555,0.36260577118649584,-4.137233885384457,27.8
,,0.027640895659344633,0.01596695690895908,0.0004260767779198843,0.0440339293462236,3.261286723581531,0.6277181271290555,0.36260577118649584,-4.137233885384457,27.9
,,0.027640895659344633,0.01596695690895908,0.0004260767779198843,0.0440339293462236,3.221926586612444,0.6277181271290555,0.36260577118649584,-4.137233885384457,28.0
,,0.027640895659344633,0.01596695690895908,0.0004260767779198843,0.0440339293462236,3.1825664496433554,0.6277181271290555,0.36260577118649584,-4.137233885384457,28.1
,,0.0436195718313932,0.01331267531603215,0.00012710560547126806,0.057059352752896614,3.180908959415454,0.7644596324163326,0.2333127642313877,-4.3190386663197975,28.2
,,0.04336801806529854,0.01576311633177356,0.00044079179965081665,0.05957192619672291,3.1534419249835532,0.727994222011311,0.26460645707038927,-4.1500824773120835,28.3
,,0.04336801806529854,0.01576311633177356,0.00044079179965081665,0.05957192619672291,3.1459476499802235,0.727994222011311,0.26460645707038927,-4.1500824773120835,28.4
,,0.04336801806529854,0.01576311633177356,0.00044079179965081665,0.05957192619672291,3.138453374976893,0.727994222011311,0.26460645707038927,-4.1500824773120835,28.5
,,0.04336801806529854,0.01576311633177356,0.00044079179965081665,0.05957192619672291,3.1309590999735626,0.727994222011311,0.26460645707038927,-4.1500824773120835,28.6
,,0.04336801806529854,0.01576311633177356,0.00044079179965081665,0.05957192619672291,3.1234648249702324,0.727994222011311,0.26460645707038927,-4.1500824773120835,28.7
,,0.04356213558715966,0.015957609026034613,0.00047379292385520345,0.059993537537049474,3.11598511166116,0.726113801178294,0.2659887994799418,-4.137819508582007,28.8
,,0.04356742609858288,0.015961222837808802,0.0004732577822688832,0.06000190671866056,3.1083742864691892,0.7261006938140089,0.26601192713172345,-4.137593070985227,28.9
,,0.041470760808093476,0.012329333532942598,0.00011063461896309691,0.05391072895999917,3.1078079667471292,0.7692487489617154,0.22869906919809507,-4.395774015745069,29.0
,,0.041470760808093476,0.012329333532942598,0.00011063461896309691,0.05391072895999917,3.107241647025069,0.7692487489617154,0.22869906919809507,-4.395774015745069,29.1
,,0.041470760808093476,0.012329333532942598,0.00011063461896309691,0.05391072895999917,3.1066753273030088,0.7692487489617154,0.22869906919809507,-4.395774015745069,29.2
,,0.041470760808093476,0.012329333532942598,0.00011063461896309691,0.05391072895999917,3.1061090075809488,0.7692487489617154,0.22869906919809507,-4.395774015745069,29.3
,,0.041470760808093476,0.012329333532942598,0.00011063461896309691,0.05391072895999917,3.1055426878588888,0.7692487489617154,0.22869906919809507,-4.395774015745069,29.4
,,0.04232107821603365,0.015385013980427367,0.0004831660493950379,0.05818925824585605,3.0818839468251844,0.7273005274826225,0.26439611784401823,-4.174361361503483,29.5
,,0.03974428335069384,0.011618023179594884,0.00011270788988636801,0.051475014420175096,3.0656709541801748,0.7721082509326405,0.22570218406857445,-4.455197664268763,29.6
,,0.03974428335069384,0.011618023179594884,0.00011270788988636801,0.051475014420175096,3.0494579615351656,0.7721082509326405,0.22570218406857445,-4.455197664268763,29.7
,,0.03974428335069384,0.011618023179594884,0.00011270788988636801,0.051475014420175096,3.0332449688901573,0.7721082509326405,0.22570218406857445,-4.455197664268763,29.8
,,0.03974428335069384,0.011618023179594884,0.00011270788988636801,0.051475014420175096,3.0170319762451476,0.7721082509326405,0.22570218406857445,-4.455197664268763,29.9
,,0.03974428335069384,0.011618023179594884,0.00011270788988636801,0.051475014420175096,3.000818983600138,0.7721082509326405,0.22570218406857445,-4.455197664268763,30.0
,,0.03974428335069384,0.011618023179594884,0.00011270788988636801,0.051475014420175096,3.0015291635598946,0.7721082509326405,0.22570218406857445,-4.455197664268763,30.1
,,0.04067051790133631,0.014624288705879151,0.000489628189033862,0.055784434796249324,2.9955057615498903,0.7290656981626494,0.26215715475640916,-4.225071522542404,30.2
,,0.038753084518293804,0.013858762376883917,0.0004725489013921876,0.05308439579656991,2.9896519391837,0.7300277969971332,0.2610703610528692,-4.2788375838045,30.3
,,0.038753084518293804,0.013858762376883917,0.0004725489013921876,0.05308439579656991,2.9837981168175096,0.7300277969971332,0.2610703610528692,-4.2788375838045,30.4
,,0.038753084518293804,0.013858762376883917,0.0004725489013921876,0.05308439579656991,2.9779442944513197,0.7300277969971332,0.2610703610528692,-4.2788375838045,30.5
,,0.038753084518293804,0.013858762376883917,0.0004725489013921876,0.05308439579656991,2.9720904720851284,0.7300277969971332,0.2610703610528692,-4.2788375838045,30.6
,,0.038753084518293804,0.013858762376883917,0.0004725489013921876,0.05308439579656991,2.9662366497189385,0.7300277969971332,0.2610703610528692,-4.2788375838045,30.7
,,0.038753084518293804,0.013858762376883917,0.0004725489013921876,0.05308439579656991,2.961212769374606,0.7300277969971332,0.2610703610528692,-4.2788375838045,30.8
,,0.03686767275169195,0.013047048157694315,0.00047845441472424356,0.05039317532411051,2.956516229644713,0.7316005096835541,0.25890506152431286,-4.339193365612036,30.9
,,0.03687377428111601,0.013045591631589802,0.000478474086246092,0.05039783999895191,2.9518283921353947,0.7316538621870075,0.25885219747237387,-4.3393050082911815,31.0
,,0.03687377428111601,0.013045591631589802,0.000478474086246092,0.05039783999895191,2.9471405546260763,0.7316538621870075,0.25885219747237387,-4.3393050082911815,31.1
,,0.03687377428111601,0.013045591631589802,0.000478474086246092,0.05039783999895191,2.942452717116758,0.7316538621870075,0.25885219747237387,-4.3393050082911815,31.2
,,0.03687377428111601,0.013045591631589802,0.000478474086246092,0.05039783999895191,2.9377648796074394,0.7316538621870075,0.25885219747237387,-4.3393050082911815,31.3
,,0.03687377428111601,0.013045591631589802,0.000478474086246092,0.05039783999895191,2.9338318508501255,0.7316538621870075,0.25885219747237387,-4.3393050082911815,31.4
,,0.03687348695345609,0.012873540522036608,0.0004948738237366507,0.05024190129922935,2.9304957691459586,0.7339190197808395,0.2562311574429623,-4.352581196369505,31.5
,,0.034945003369754396,0.012204121328039844,0.0004826513886997192,0.04763177608649396,2.9271496031118223,0.7336489679977122,0.25621806136051967,-4.405981570515395,31.6
,,0.034945003369754396,0.012204121328039844,0.0004826513886997192,0.04763177608649396,2.9238034370776864,0.7336489679977122,0.25621806136051967,-4.405981570515395,31.7
,,0.034945003369754396,0.012204121328039844,0.0004826513886997192,0.04763177608649396,2.92045727104355,0.7336489679977122,0.25621806136051967,-4.405981570515395,31.8
,,0.034945003369754396,0.012204121328039844,0.0004826513886997192,0.04763177608649396,2.917111105009415,0.7336489679977122,0.25621806136051967,-4.405981570515395,31.9
,,0.034945003369754396,0.012204121328039844,0.0004826513886997192,0.04763177608649396,2.9137649389752793,0.7336489679977122,0.25621806136051967,-4.405981570515395,32.0
,,0.034945003369754396,0.012204121328039844,0.0004826513886997192,0.04763177608649396,2.911368880022384,0.7336489679977122,0.25621806136051967,-4.405981570515395,32.1
,,0.033027421969710674,0.011399213364051272,0.0004847971279670552,0.044911432461729,2.9093502094424157,0.7353900813084683,0.253815403767516,-4.474210929115912,32.2
,,0.033027421969710674,0.011399213364051272,0.0004847971279670552,0.044911432461729,2.907331538862449,0.7353900813084683,0.253815403767516,-4.474210929115912,32.3
,,0.033027421969710674,0.011399213364051272,0.0004847971279670552,0.044911432461729,2.905312868282481,0.7353900813084683,0.253815403767516,-4.474210929115912,32.4
,,0.033027421969710674,0.011399213364051272,0.0004847971279670552,0.044911432461729,2.9032941977025137,0.7353900813084683,0.253815403767516,-4.474210929115912,32.5
,,0.033027421969710674,0.011399213364051272,0.0004847971279670552,0.044911432461729,2.9012755271225457,0.7353900813084683,0.253815403767516,-4.474210929115912,32.6
,,0.033027421969710674,0.011399213364051272,0.0004847971279670552,0.044911432461729,2.9000963299135702,0.7353900813084683,0.253815403767516,-4.474210929115912,32.7
,,0.032997703277957195,0.011159838875710471,0.0004917251108744209,0.04464926726454209,2.8995780653013026,0.7390424367425643,0.24994450210324012,-4.495433759793548,32.8
,,0.031207303613916066,0.010649263531178734,0.00048611951608313383,0.042342686661177936,2.898766909135918,0.7370175601665023,0.2515018382369807,-4.54226454121981,32.9
,,0.031207303613916066,0.010649263531178734,0.00048611951608313383,0.042342686661177936,2.8979557529705335,0.7370175601665023,0.2515018382369807,-4.54226454121981,33.0
,,0.031207303613916066,0.010649263531178734,0.00048611951608313383,0.042342686661177936,2.8971445968051492,0.7370175601665023,0.2515018382369807,-4.54226454121981,33.1
,,0.031207303613916066,0.010649263531178734,0.00048611951608313383,0.042342686661177936,2.896333440639764,0.7370175601665023,0.2515018382369807,-4.54226454121981,33.2
,,0.031207303613916066,0.010649263531178734,0.00048611951608313383,0.042342686661177936,2.8964988693788807,0.7370175601665023,0.2515018382369807,-4.54226454121981,33.3
,,0.031207303613916066,0.010649263531178734,0.00048611951608313383,0.042342686661177936,2.896498590528424,0.7370175601665023,0.2515018382369807,-4.54226454121981,33.4
,,0.029556447444572864,0.009998111937323447,0.0004865502400555744,0.040041109621951884,2.896784278304363,0.7381525568004995,0.24969617554859533,-4.6053590100818935,33.5
,,0.029556447444572864,0.009998111937323447,0.0004865502400555744,0.040041109621951884,2.897069966080302,0.7381525568004995,0.24969617554859533,-4.6053590100818935,33.6
,,0.029556447444572864,0.009998111937323447,0.0004865502400555744,0.040041109621951884,2.8973556538562417,0.7381525568004995,0.24969617554859533,-4.6053590100818935,33.7
,,0.029556447444572864,0.009998111937323447,0.0004865502400555744,0.040041109621951884,2.897641341632181,0.7381525568004995,0.24969617554859533,-4.6053590100818935,33.8
,,0.029556447444572864,0.009998111937323447,0.0004865502400555744,0.040041109621951884,2.8988680845668946,0.7381525568004995,0.24969617554859533,-4.6053590100818935,33.9
,,0.029556447444572864,0.009998111937323447,0.0004865502400555744,0.040041109621951884,2.899829965930298,0.7381525568004995,0.24969617554859533,-4.6053590100818935,34.0
,,0.029556447444572864,0.009998111937323447,0.0004865502400555744,0.040041109621951884,2.900791847293701,0.7381525568004995,0.24969617554859533,-4.6053590100818935,34.1
,,0.027775576766778363,0.00933697868029236,0.00048101351385186717,0.037593568960922585,2.9019602829469098,0.7388385177169601,0.24836638122860524,-4.673772560840312,34.2
,,0.027775576766778363,0.00933697868029236,0.00048101351385186717,0.037593568960922585,2.9031287186001187,0.7388385177169601,0.24836638122860524,-4.673772560840312,34.3
,,0.027775576766778363,0.00933697868029236,0.00048101351385186717,0.037593568960922585,2.9042971542533276,0.7388385177169601,0.24836638122860524,-4.673772560840312,34.4
,,0.027775576766778363,0.00933697868029236,0.00048101351385186717,0.037593568960922585,2.905465589906536,0.7388385177169601,0.24836638122860524,-4.673772560840312,34.5
,,0.027775576766778363,0.00933697868029236,0.00048101351385186717,0.037593568960922585,2.9075000602782746,0.7388385177169601,0.24836638122860524,-4.673772560840312,34.6
,,0.027775576766778363,0.00933697868029236,0.00048101351385186717,0.037593568960922585,2.903349162920672,0.7388385177169601,0.24836638122860524,-4.673772560840312,34.7
,,0.02528889715144908,0.008748358889685327,0.0003950383696285282,0.03443229441076293,2.8982639217986623,0.7344528613098816,0.25407423581249183,-4.738889151667874,34.8
,,0.0257195447906277,0.008641015010661312,0.0004669357039594033,0.03482749550524842,2.8941314324168124,0.7384839023739684,0.24810899794270685,-4.751235224980383,34.9
,,0.0257195447906277,0.008641015010661312,0.0004669357039594033,0.03482749550524842,2.8899989430349624,0.7384839023739684,0.24810899794270685,-4.751235224980383,35.0
,,0.0257195447906277,0.008641015010661312,0.0004669357039594033,0.03482749550524842,2.885866453653113,0.7384839023739684,0.24810899794270685,-4.751235224980383,35.1
,,0.0257195447906277,0.008641015010661312,0.0004669357039594033,0.03482749550524842,2.8825558270336797,0.7384839023739684,0.24810899794270685,-4.751235224980383,35.2
,,0.0257195447906277,0.008641015010661312,0.0004669357039594033,0.03482749550524842,2.8846430539675447,0.7384839023739684,0.24810899794270685,-4.751235224980383,35.3
,,0.023394315571281285,0.008172619051499186,0.0003805990399201965,0.031947533662700665,2.8854644384911623,0.7322729766333913,0.2558137707212394,-4.806965852142652,35.4
,,0.023746227819489308,0.00806257682541095,0.00045087287477000177,0.03225967751967026,2.8872048988067514,0.7360962553023075,0.2499273844412987,-4.820522068172504,35.5
,,0.023746227819489308,0.00806257682541095,0.00045087287477000177,0.03225967751967026,2.888945359122341,0.7360962553023075,0.2499273844412987,-4.820522068172504,35.6
,,0.023746227819489308,0.00806257682541095,0.00045087287477000177,0.03225967751967026,2.8906858194379303,0.7360962553023075,0.2499273844412987,-4.820522068172504,35.7
,,0.023746227819489308,0.00806257682541095,0.00045087287477000177,0.03225967751967026,2.8924262797535194,0.7360962553023075,0.2499273844412987,-4.820522068172504,35.8
,,0.023746227819489308,0.00806257682541095,0.00045087287477000177,0.03225967751967026,2.8948097752565523,0.7360962553023075,0.2499273844412987,-4.820522068172504,35.9
,,0.023746227819489308,0.00806257682541095,0.00045087287477000177,0.03225967751967026,2.8909758783522586,0.7360962553023075,0.2499273844412987,-4.820522068172504,36.0
,,0.02168663606340212,0.007737451720653319,0.0003655868623830987,0.02978967464643854,2.885559461964216,0.7279917058776885,0.25973602640800775,-4.861682880647972,36.1
,,0.021973699529122544,0.007639864945889777,0.00043583139834261087,0.03004939587335493,2.880958331977322,0.7312526222401303,0.25424354546389116,-4.87437535319951,36.2
,,0.021973699529122544,0.007639864945889777,0.00043583139834261087,0.03004939587335493,2.876357201990429,0.7312526222401303,0.25424354546389116,-4.87437535319951,36.3
,,0.021973699529122544,0.007639864945889777,0.00043583139834261087,0.03004939587335493,2.871756072003535,0.7312526222401303,0.25424354546389116,-4.87437535319951,36.4
,,0.021973699529122544,0.007639864945889777,0.00043583139834261087,0.03004939587335493,2.8735023299206097,0.7312526222401303,0.25424354546389116,-4.87437535319951,36.5
,,0.021973699529122544,0.007639864945889777,0.00043583139834261087,0.03004939587335493,2.886225201321144,0.7312526222401303,0.25424354546389116,-4.87437535319951,36.6
,,0.020239478231257407,0.007476558053152216,0.00035275352975619646,0.028068789814165822,2.8970688364405537,0.721067005925667,0.26636552921062984,-4.895982746220676,36.7
,,0.020451337204280377,0.007395573879371885,0.00042432716712810883,0.02827123825078037,2.9085601379984527,0.7233972924307926,0.2615935606983095,-4.906873582128981,36.8
,,0.020451337204280377,0.007395573879371885,0.00042432716712810883,0.02827123825078037,2.9200514395563517,0.7233972924307926,0.2615935606983095,-4.906873582128981,36.9
,,0.020451337204280377,0.007395573879371885,0.00042432716712810883,0.02827123825078037,2.93154274111425,0.7233972924307926,0.2615935606983095,-4.906873582128981,37.0
,,0.020451337204280377,0.007395573879371885,0.00042432716712810883,0.02827123825078037,2.943034042672149,0.7233972924307926,0.2615935606983095,-4.906873582128981,37.1
,,0.020451337204280377,0.007395573879371885,0.00042432716712810883,0.02827123825078037,2.93735408526543,0.7233972924307926,0.2615935606983095,-4.906873582128981,37.2
,,0.020451337204280377,0.007395573879371885,0.00042432716712810883,0.02827123825078037,2.93751091263414,0.7233972924307926,0.2615935606983095,-4.906873582128981,37.3
,,0.0189758876054691,0.007366673546912335,0.00034265698749529104,0.026685218139876725,2.935562869999903,0.7111010862269369,0.27605820976610407,-4.9107890251569755,37.4
,,0.01912041797033119,0.007317929329754257,0.0004166431754332084,0.026854990475518654,2.9340249176857376,0.7119875163523742,0.2724979305587679,-4.9174278694754445,37.5
,,0.01912041797033119,0.007317929329754257,0.0004166431754332084,0.026854990475518654,2.932486965371573,0.7119875163523742,0.2724979305587679,-4.9174278694754445,37.6
,,0.01912041797033119,0.007317929329754257,0.0004166431754332084,0.026854990475518654,2.930949013057407,0.7119875163523742,0.2724979305587679,-4.9174278694754445,37.7
,,0.01912041797033119,0.007317929329754257,0.0004166431754332084,0.026854990475518654,2.929648479594092,0.7119875163523742,0.2724979305587679,-4.9174278694754445,37.8
,,0.01912041797033119,0.007317929329754257,0.0004166431754332084,0.026854990475518654,2.928351130731357,0.7119875163523742,0.2724979305587679,-4.9174278694754445,37.9
,,0.01912041797033119,0.007317929329754257,0.0004166431754332084,0.026854990475518654,2.9200092763987118,0.7119875163523742,0.2724979305587679,-4.9174278694754445,38.0
,,0.017879256256829887,0.007430973733736921,0.00033716205428982763,0.025647392044856634,2.9093699421309154,0.6971179067859814,0.2897360371276868,-4.9020983745005875,38.1
,,0.01793099750670796,0.007397305672738231,0.0004136838441509867,0.025741987023597177,2.8989300019568254,0.6965661776719476,0.2873634294802987,-4.906639443350502,38.2
,,0.01793099750670796,0.007397305672738231,0.0004136838441509867,0.025741987023597177,2.8884900617827345,0.6965661776719476,0.2873634294802987,-4.906639443350502,38.3
,,0.01793099750670796,0.007397305672738231,0.0004136838441509867,0.025741987023597177,2.8780501216086445,0.6965661776719476,0.2873634294802987,-4.906639443350502,38.4
,,0.01793099750670796,0.007397305672738231,0.0004136838441509867,0.025741987023597177,2.8744189163591227,0.6965661776719476,0.2873634294802987,-4.906639443350502,38.5
,,0.01793099750670796,0.007397305672738231,0.0004136838441509867,0.025741987023597177,2.8633419627209062,0.6965661776719476,0.2873634294802987,-4.906639443350502,38.6
,,0.012882207681071386,0.0054880791708656895,0.0002280774975971072,0.018598364349534182,2.85141297402934,0.6926527214418206,0.29508396909124673,-5.205176962484459,38.7
,,0.01694498753569008,0.007653605722464173,0.00041810557970731036,0.025016698837861565,2.8380026556790265,0.6773470650749754,0.30593987528365696,-4.872578405917914,38.8
,,0.01694498753569008,0.007653605722464173,0.00041810557970731036,0.025016698837861565,2.8245923373287125,0.6773470650749754,0.30593987528365696,-4.872578405917914,38.9
,,0.01694498753569008,0.007653605722464173,0.00041810557970731036,0.025016698837861565,2.8111820189783994,0.6773470650749754,0.30593987528365696,-4.872578405917914,39.0
,,0.01694498753569008,0.007653605722464173,0.00041810557970731036,0.025016698837861565,2.7977717006280853,0.6773470650749754,0.30593987528365696,-4.872578405917914,39.1
,,0.01694498753569008,0.007653605722464173,0.00041810557970731036,0.025016698837861565,2.7914712800540897,0.6773470650749754,0.30593987528365696,-4.872578405917914,39.2
,,0.01694498753569008,0.007653605722464173,0.00041810557970731036,0.025016698837861565,2.7850012798362793,0.6773470650749754,0.30593987528365696,-4.872578405917914,39.3
,,0.016098451376001268,0.008056272931871875,0.0004290712155048869,0.02458379552337803,2.776134201590174,0.6548399477490121,0.3277066360322896,-4.821304244811084,39.4
,,0.016098451376001268,0.008056272931871875,0.0004290712155048869,0.02458379552337803,2.767267123344069,0.6548399477490121,0.3277066360322896,-4.821304244811084,39.5
,,0.016098451376001268,0.008056272931871875,0.0004290712155048869,0.02458379552337803,2.7584000450979644,0.6548399477490121,0.3277066360322896,-4.821304244811084,39.6
,,0.016098451376001268,0.008056272931871875,0.0004290712155048869,0.02458379552337803,2.7495329668518593,0.6548399477490121,0.3277066360322896,-4.821304244811084,39.7
,,0.016098451376001268,0.008056272931871875,0.0004290712155048869,0.02458379552337803,2.740665888605754,0.6548399477490121,0.3277066360322896,-4.821304244811084,39.8
,,0.016098451376001268,0.008056272931871875,0.0004290712155048869,0.02458379552337803,2.7314714697452103,0.6548399477490121,0.3277066360322896,-4.821304244811084,39.9
,,0.015413905320735324,0.008519794271103762,0.00035518703085027305,0.02428888662268936,2.7201676487466857,0.6346073231012775,0.3507692387655609,-4.765363085016512,40.0
,,0.015319288795626893,0.0085732802145306,0.0004468876576660546,0.02433945666782355,2.708615792741286,0.6294014284993796,0.35223794563435623,-4.759104864116826,40.1
,,0.015319288795626893,0.0085732802145306,0.0004468876576660546,0.02433945666782355,2.6970639367358866,0.6294014284993796,0.35223794563435623,-4.759104864116826,40.2
,,0.015319288795626893,0.0085732802145306,0.0004468876576660546,0.02433945666782355,2.685512080730487,0.6294014284993796,0.35223794563435623,-4.759104864116826,40.3
,,0.015319288795626893,0.0085732802145306,0.0004468876576660546,0.02433945666782355,2.6739602247250875,0.6294014284993796,0.35223794563435623,-4.759104864116826,40.4
,,0.015319288795626893,0.0085732802145306,0.0004468876576660546,0.02433945666782355,2.661988885971088,0.6294014284993796,0.35223794563435623,-4.759104864116826,40.5
,,0.014424870575444886,0.00891075561937018,0.0003669032042393266,0.02370252939905439,2.648160423653394,0.6085793770187398,0.3759411271830623,-4.720496235329772,40.6
,,0.014242040498264,0.008958945212634337,0.0004610247387916436,0.02366201044968998,2.634008460771825,0.6018947768003627,0.37862147139537405,-4.715102780729257,40.7
,,0.014242040498264,0.008958945212634337,0.0004610247387916436,0.02366201044968998,2.619856497890256,0.6018947768003627,0.37862147139537405,-4.715102780729257,40.8
,,0.014242040498264,0.008958945212634337,0.0004610247387916436,0.02366201044968998,2.6057045350086874,0.6018947768003627,0.37862147139537405,-4.715102780729257,40.9
,,0.014242040498264,0.008958945212634337,0.0004610247387916436,0.02366201044968998,2.5915525721271186,0.6018947768003627,0.37862147139537405,-4.715102780729257,41.0
,,0.014242040498264,0.008958945212634337,0.0004610247387916436,0.02366201044968998,2.5774006092455495,0.6018947768003627,0.37862147139537405,-4.715102780729257,41.1
,,0.009209170663057518,0.007703534795929104,0.0003219726122418964,0.017234678071228516,2.5584906670106813,0.5343395812209142,0.4469787462284744,-4.8660759910539495,41.2
,,0.009209170663057518,0.007703534795929104,0.0003219726122418964,0.017234678071228516,2.5395807247758135,0.5343395812209142,0.4469787462284744,-4.8660759910539495,41.3
,,0.012871239022419973,0.009145415992264858,0.00046774564097115917,0.022484400655655993,2.523025787775754,0.5724519510010684,0.40674493095568953,-4.694502509681275,41.4
,,0.012871239022419973,0.009145415992264858,0.00046774564097115917,0.022484400655655993,2.5064708507756945,0.5724519510010684,0.40674493095568953,-4.694502509681275,41.5
,,0.012871239022419973,0.009145415992264858,0.00046774564097115917,0.022484400655655993,2.489915913775635,0.5724519510010684,0.40674493095568953,-4.694502509681275,41.6
,,0.012871239022419973,0.009145415992264858,0.00046774564097115917,0.022484400655655993,2.473360976775575,0.5724519510010684,0.40674493095568953,-4.694502509681275,41.7
,,0.011975631095607692,0.009430725826706975,0.0004568413161890902,0.02186319823850376,2.4546168256339773,0.5477529392070893,0.43135161305441194,-4.663782215340484,41.8
,,0.011975631095607692,0.009430725826706975,0.0004568413161890902,0.02186319823850376,2.4361655660454975,0.5477529392070893,0.43135161305441194,-4.663782215340484,41.9
,,0.011975631095607692,0.009430725826706975,0.0004568413161890902,0.02186319823850376,2.4177143064570172,0.5477529392070893,0.43135161305441194,-4.663782215340484,42.0
,,0.01177783806141569,0.009504154971556145,0.0004840056379222565,0.021765998670894092,2.398922801270954,0.5411117697606607,0.4366514541905804,-4.656026210565059,42.1
,,0.01177783806141569,0.009504154971556145,0.0004840056379222565,0.021765998670894092,2.380131296084891,0.5411117697606607,0.4366514541905804,-4.656026210565059,42.2
,,0.01177783806141569,0.009504154971556145,0.0004840056379222565,0.021765998670894092,2.361339790898828,0.5411117697606607,0.4366514541905804,-4.656026210565059,42.3
,,0.011199982820503518,0.010035438289616363,0.0004821172948840913,0.021717538405003973,2.3411795388773085,0.5157114315461697,0.4620891236598012,-4.601632621592306,42.4
,,0.011199982820503518,0.010035438289616363,0.0004821172948840913,0.021717538405003973,2.3207333202293934,0.5157114315461697,0.4620891236598012,-4.601632621592306,42.5
,,0.011199982820503518,0.010035438289616363,0.0004821172948840913,0.021717538405003973,2.3002871015814788,0.5157114315461697,0.4620891236598012,-4.601632621592306,42.6
,,0.011069391236716597,0.010168205472065752,0.0005140393817707022,0.021751636090553052,2.279536267294154,0.508899247423698,0.46746853568784663,-4.588489537582227,42.7
,,0.011069391236716597,0.010168205472065752,0.0005140393817707022,0.021751636090553052,2.258785433006829,0.508899247423698,0.46746853568784663,-4.588489537582227,42.8
,,0.011069391236716597,0.010168205472065752,0.0005140393817707022,0.021751636090553052,2.2380345987195036,0.508899247423698,0.46746853568784663,-4.588489537582227,42.9
,,0.010706654832177373,0.010901884508742766,0.0005212354228573066,0.022129774763777445,2.216100034525205,0.4838121917852633,0.4926342280983011,-4.51881961398057,43.0
,,0.010706654832177373,0.010901884508742766,0.0005212354228573066,0.022129774763777445,2.194165470330906,0.4838121917852633,0.4926342280983011,-4.51881961398057,43.1
,,0.010706654832177373,0.010901884508742766,0.0005212354228573066,0.022129774763777445,2.172024351846802,0.4838121917852633,0.4926342280983011,-4.51881961398057,43.2
,,0.010706654832177373,0.010901884508742766,0.0005212354228573066,0.022129774763777445,2.149883233362698,0.4838121917852633,0.4926342280983011,-4.51881961398057,43.3
,,0.010534856835569498,0.010979431385815513,0.000551057827694672,0.02206534604907968,2.1274911848900686,0.47743900377256465,0.49758709251122085,-4.511731630597312,43.4
,,0.010534856835569498,0.010979431385815513,0.000551057827694672,0.02206534604907968,2.10509913641744,0.47743900377256465,0.49758709251122085,-4.511731630597312,43.5
,,0.010241838681989114,0.011781550488567768,0.0005614178245916738,0.022584806995148556,2.0817049012484254,0.4534835601734017,0.5216582320627563,-4.441220488998192,43.6
,,0.010241838681989114,0.011781550488567768,0.0005614178245916738,0.022584806995148556,2.0583106660794113,0.4534835601734017,0.5216582320627563,-4.441220488998192,43.7
,,0.010241838681989114,0.011781550488567768,0.0005614178245916738,0.022584806995148556,2.035850774674804,0.4534835601734017,0.5216582320627563,-4.441220488998192,43.8
,,0.010241838681989114,0.011781550488567768,0.0005614178245916738,0.022584806995148556,2.0124381315300366,0.4534835601734017,0.5216582320627563,-4.441220488998192,43.9
,,0.010241838681989114,0.011781550488567768,0.0005614178245916738,0.022584806995148556,1.9890254883852694,0.4534835601734017,0.5216582320627563,-4.441220488998192,44.0
,,0.01008964168295017,0.011832380881865466,0.0005891597100409827,0.02251118227485662,1.9654284318523723,0.4482057654617091,0.5256223656933998,-4.436915363264718,44.1
,,0.01008964168295017,0.011832380881865466,0.0005891597100409827,0.02251118227485662,1.9418313753194756,0.4482057654617091,0.5256223656933998,-4.436915363264718,44.2
,,0.009983075270056927,0.012702733300681788,0.0006060503014558286,0.023291858872194544,1.9174919339766556,0.4286079236885024,0.5453722423093552,-4.365938088148082,44.3
,,0.009983075270056927,0.012702733300681788,0.0006060503014558286,0.023291858872194544,1.8944183350440833,0.4286079236885024,0.5453722423093552,-4.365938088148082,44.4
,,0.009983075270056927,0.012702733300681788,0.0006060503014558286,0.023291858872194544,1.870425660319539,0.4286079236885024,0.5453722423093552,-4.365938088148082,44.5
,,0.009983075270056927,0.012702733300681788,0.0006060503014558286,0.023291858872194544,1.8464329855949946,0.4286079236885024,0.5453722423093552,-4.365938088148082,44.6
,,0.007870647677271395,0.012675966948853862,0.00063011702246746,0.02117673164859272,1.8206071025538448,0.37166489181981166,0.598579948936371,-4.3680474445366455,44.7
,,0.007870647677271395,0.012675966948853862,0.00063011702246746,0.02117673164859272,1.7947812195126953,0.37166489181981166,0.598579948936371,-4.3680474445366455,44.8
,,0.007870647677271395,0.012675966948853862,0.00063011702246746,0.02117673164859272,1.7689553364715453,0.37166489181981166,0.598579948936371,-4.3680474445366455,44.9
,,0.008320535145390051,0.014372699581000814,0.0006952631148528449,0.023388497841243708,1.742662802879591,0.3557532938570115,0.6145199951942074,-4.2424247342525225,45.0
,,0.008320535145390051,0.014372699581000814,0.0006952631148528449,0.023388497841243708,1.717952788771386,0.3557532938570115,0.6145199951942074,-4.2424247342525225,45.1
,,0.008320535145390051,0.014372699581000814,0.0006952631148528449,0.023388497841243708,1.6924274882620318,0.3557532938570115,0.6145199951942074,-4.2424247342525225,45.2
,,0.008320535145390051,0.014372699581000814,0.0006952631148528449,0.023388497841243708,1.6669021877526777,0.3557532938570115,0.6145199951942074,-4.2424247342525225,45.3
,,0.010004339488520177,0.01383751325274968,0.0006794085745593187,0.024521261315829174,1.6429777130811656,0.407986333152532,0.5643067489280076,-4.28037202320622,45.4
,,0.010004339488520177,0.01383751325274968,0.0006794085745593187,0.024521261315829174,1.6190532384096532,0.407986333152532,0.5643067489280076,-4.28037202320622,45.5
,,0.010004339488520177,0.01383751325274968,0.0006794085745593187,0.024521261315829174,1.595128763738141,0.407986333152532,0.5643067489280076,-4.28037202320622,45.6
,,0.010346006770281527,0.015053648173355885,0.0006325901041051107,0.026032245047742524,1.5726867354340979,0.3974304464062625,0.578269302004028,-4.196134913617003,45.7
,,0.010346006770281527,0.015053648173355885,0.0006325901041051107,0.026032245047742524,1.5495970406915658,0.3974304464062625,0.578269302004028,-4.196134913617003,45.8
,,0.010346006770281527,0.015053648173355885,0.0006325901041051107,0.026032245047742524,1.5265073459490335,0.3974304464062625,0.578269302004028,-4.196134913617003,45.9
,,0.010346006770281527,0.015053648173355885,0.0006325901041051107,0.026032245047742524,1.5034176512065016,0.3974304464062625,0.578269302004028,-4.196134913617003,46.0
,,0.01048513081004695,0.01518395760913352,0.0007370777405154891,0.026406166159695956,1.480364226856676,0.3970713032189629,0.575015604965365,-4.187515828930006,46.1
,,0.01048513081004695,0.01518395760913352,0.0007370777405154891,0.026406166159695956,1.45731080250685,0.3970713032189629,0.575015604965365,-4.187515828930006,46.2
,,0.01048513081004695,0.01518395760913352,0.0007370777405154891,0.026406166159695956,1.4342573781570243,0.3970713032189629,0.575015604965365,-4.187515828930006,46.3
,,0.010979161121769951,0.016429841846580792,0.0006884697388692518,0.028097472707219993,1.4130611020444572,0.3907526216387682,0.5847444721374866,-4.10865597287212,46.4
,,0.010979161121769951,0.016429841846580792,0.0006884697388692518,0.028097472707219993,1.3914547356118188,0.3907526216387682,0.5847444721374866,-4.10865597287212,46.5
,,0.010979161121769951,0.016429841846580792,0.0006884697388692518,0.028097472707219993,1.3698483691791798,0.3907526216387682,0.5847444721374866,-4.10865597287212,46.6
,,0.011242614687950863,0.016556062814388862,0.0007941215708770265,0.028592799073216754,1.3483622051201791,0.3931974151660432,0.5790291035163865,-4.101002911046986,46.7
,,0.011242614687950863,0.016556062814388862,0.0007941215708770265,0.028592799073216754,1.3268760410611784,0.3931974151660432,0.5790291035163865,-4.101002911046986,46.8
,,0.011242614687950863,0.016556062814388862,0.0007941215708770265,0.028592799073216754,1.3053898770021777,0.3931974151660432,0.5790291035163865,-4.101002911046986,46.9
,,0.011242614687950863,0.016556062814388862,0.0007941215708770265,0.028592799073216754,1.2839037129431767,0.3931974151660432,0.5790291035163865,-4.101002911046986,47.0
,,0.011837137399270581,0.0177098997638135,0.0007362476949177892,0.030283284858001868,1.2645964475484606,0.3908802316120871,0.5848077527538742,-4.033631487067133,47.1
,,0.011837137399270581,0.0177098997638135,0.0007362476949177892,0.030283284858001868,1.2450897880600387,0.3908802316120871,0.5848077527538742,-4.033631487067133,47.2
,,0.011837137399270581,0.0177098997638135,0.0007362476949177892,0.030283284858001868,1.2255831285716172,0.3908802316120871,0.5848077527538742,-4.033631487067133,47.3
,,0.012269274570598733,0.01788447315202366,0.0008443758168335208,0.030998123539455916,1.2062724515543433,0.3958070092527312,0.5769534123334734,-4.023822364237962,47.4
,,0.012269274570598733,0.01788447315202366,0.0008443758168335208,0.030998123539455916,1.1869617745370695,0.3958070092527312,0.5769534123334734,-4.023822364237962,47.5
,,0.012269274570598733,0.01788447315202366,0.0008443758168335208,0.030998123539455916,1.1676510975197956,0.3958070092527312,0.5769534123334734,-4.023822364237962,47.6
,,0.012269274570598733,0.01788447315202366,0.0008443758168335208,0.030998123539455916,1.1491924555558704,0.3958070092527312,0.5769534123334734,-4.023822364237962,47.7
,,0.02123100143320902,0.0340464154705469,0.0014943573319442563,0.05677177423570017,1.131521371114227,0.37397107487012776,0.5997067368230543,-3.380030524452477,47.8
,,0.02123100143320902,0.0340464154705469,0.0014943573319442563,0.05677177423570017,1.1138502866725837,0.37397107487012776,0.5997067368230543,-3.380030524452477,47.9
,,0.013579729328237828,0.019071563379802096,0.0008840278254978993,0.033535320533537825,1.0971619886907413,0.4049381103919101,0.5687007929663027,-3.9595568816182736,48.0
,,0.013579729328237828,0.019071563379802096,0.0008840278254978993,0.033535320533537825,1.0804736907088994,0.4049381103919101,0.5687007929663027,-3.9595568816182736,48.1
,,0.013579729328237828,0.019071563379802096,0.0008840278254978993,0.033535320533537825,1.0637853927270575,0.4049381103919101,0.5687007929663027,-3.9595568816182736,48.2
,,0.013579729328237828,0.019071563379802096,0.0008840278254978993,0.033535320533537825,1.0470970947452156,0.4049381103919101,0.5687007929663027,-3.9595568816182736,48.3
,,0.013579729328237828,0.019071563379802096,0.0008840278254978993,0.033535320533537825,1.0328058747916686,0.4049381103919101,0.5687007929663027,-3.9595568816182736,48.4
,,0.014493541692663033,0.019985749255996377,0.0008025649465094511,0.035281855895168864,1.0186608005355497,0.4107930641666622,0.5664596929191874,-3.91273579660361,48.5
,,0.014493541692663033,0.019985749255996377,0.0008025649465094511,0.035281855895168864,1.004515726279431,0.4107930641666622,0.5664596929191874,-3.91273579660361,48.6
,,0.015224085990833957,0.020178190563805754,0.0009152682193239819,0.03631754477396369,0.990696078764882,0.4191937006090845,0.5556044795812201,-3.903152932903081,48.7
,,0.015224085990833957,0.020178190563805754,0.0009152682193239819,0.03631754477396369,0.9768764312503329,0.4191937006090845,0.5556044795812201,-3.903152932903081,48.8
,,0.015224085990833957,0.020178190563805754,0.0009152682193239819,0.03631754477396369,0.9630567837357839,0.4191937006090845,0.5556044795812201,-3.903152932903081,48.9
,,0.015224085990833957,0.020178190563805754,0.0009152682193239819,0.03631754477396369,0.9513378361386405,0.4191937006090845,0.5556044795812201,-3.903152932903081,49.0
,,0.03519289539244176,0.04818835451655464,0.0021191671655047617,0.08550041707450116,0.939598448989391,0.4116108037435218,0.5636037362784501,-3.0326378946577464,49.1
,,0.03519289539244176,0.04818835451655464,0.0021191671655047617,0.08550041707450116,0.9278590618401414,0.4116108037435218,0.5636037362784501,-3.0326378946577464,49.2
,,0.03519289539244176,0.04818835451655464,0.0021191671655047617,0.08550041707450116,0.9161196746908918,0.4116108037435218,0.5636037362784501,-3.0326378946577464,49.3
,,0.01724787454213298,0.021257739567629854,0.0009429962133940707,0.0394486103231569,0.9052808393518753,0.43722388192742573,0.538871696454951,-3.8510342349745876,49.4
,,0.01724787454213298,0.021257739567629854,0.0009429962133940707,0.0394486103231569,0.894442004012859,0.43722388192742573,0.538871696454951,-3.8510342349745876,49.5
,,0.01724787454213298,0.021257739567629854,0.0009429962133940707,0.0394486103231569,0.8854703765675059,0.43722388192742573,0.538871696454951,-3.8510342349745876,49.6
,,0.01724787454213298,0.021257739567629854,0.0009429962133940707,0.0394486103231569,0.8768222496860275,0.43722388192742573,0.538871696454951,-3.8510342349745876,49.7
,,0.04220663691453317,0.05265696534376525,0.002315189941708403,0.09717879220000683,0.868064904071632,0.434319422571813,0.5418565527691499,-2.9439567539241844,49.8
,,0.04220663691453317,0.05265696534376525,0.002315189941708403,0.09717879220000683,0.8593075584572363,0.434319422571813,0.5418565527691499,-2.9439567539241844,49.9
,,0.04220663691453317,0.05265696534376525,0.002315189941708403,0.09717879220000683,0.8505502128428407,0.434319422571813,0.5418565527691499,-2.9439567539241844,50.0
,,0.04244945576289933,0.05069092098464563,0.002589246611375091,0.09572962335892006,0.842191509956505,0.4434307194936216,0.5295217844385498,-2.9820084577016854,50.1
,,0.04244945576289933,0.05069092098464563,0.002589246611375091,0.09572962335892006,0.8382133980505412,0.4434307194936216,0.5295217844385498,-2.9820084577016854,50.2
,,0.04244945576289933,0.05069092098464563,0.002589246611375091,0.09572962335892006,0.8342352861445773,0.4434307194936216,0.5295217844385498,-2.9820084577016854,50.3
,,0.04244945576289933,0.05069092098464563,0.002589246611375091,0.09572962335892006,0.8279021690038053,0.4434307194936216,0.5295217844385498,-2.9820084577016854,50.4
,,0.04370940764165683,0.04958170797357194,0.0021798091787632633,0.09547092479399202,0.8220595611809051,0.45782951967809427,0.5193383020072317,-3.0041333041267313,50.5
,,0.04370940764165683,0.04958170797357194,0.0021798091787632633,0.09547092479399202,0.8162169533580047,0.45782951967809427,0.5193383020072317,-3.0041333041267313,50.6
,,0.02284853158319921,0.023958560522426765,0.0010202526623551821,0.04782734476798116,0.8111755191677268,0.4777294598736653,0.5009385454838429,-3.731429585902488,50.7
,,0.02284853158319921,0.023958560522426765,0.0010202526623551821,0.04782734476798116,0.8076623665222779,0.4777294598736653,0.5009385454838429,-3.731429585902488,50.8
,,0.02284853158319921,0.023958560522426765,0.0010202526623551821,0.04782734476798116,0.8041492138768291,0.4777294598736653,0.5009385454838429,-3.731429585902488,50.9
,,0.02284853158319921,0.023958560522426765,0.0010202526623551821,0.04782734476798116,0.8006360612313802,0.4777294598736653,0.5009385454838429,-3.731429585902488,51.0
,,0.02478418238837223,0.02483891455940647,0.0010503275136401356,0.05067342446141883,0.7979534621671007,0.48909626005722456,0.49017635621445016,-3.6953437201579873,51.1
,,0.02478418238837223,0.02483891455940647,0.0010503275136401356,0.05067342446141883,0.7952708631028212,0.48909626005722456,0.49017635621445016,-3.6953437201579873,51.2
,,0.02478418238837223,0.02483891455940647,0.0010503275136401356,0.05067342446141883,0.792588264038542,0.48909626005722456,0.49017635621445016,-3.6953437201579873,51.3
,,0.025767407778892786,0.025043886143451915,0.001056886964375058,0.05186818088671976,0.7916198966446144,0.49678641776870625,0.4828371790818696,-3.687125547369912,51.4
,,0.025767407778892786,0.025043886143451915,0.001056886964375058,0.05186818088671976,0.7906515292506872,0.49678641776870625,0.4828371790818696,-3.687125547369912,51.5
,,0.025767407778892786,0.025043886143451915,0.001056886964375058,0.05186818088671976,0.7896831618567598,0.49678641776870625,0.4828371790818696,-3.687125547369912,51.6
,,0.028105867523147227,0.026159335076208778,0.0011058673813154319,0.05537106998067144,0.7895251931432704,0.5075911939747279,0.4724368715529662,-3.6435491702922884,51.7
,,0.028105867523147227,0.026159335076208778,0.0011058673813154319,0.05537106998067144,0.7893672244297808,0.5075911939747279,0.4724368715529662,-3.6435491702922884,51.8
,,0.028105867523147227,0.026159335076208778,0.0011058673813154319,0.05537106998067144,0.7892092557162914,0.5075911939747279,0.4724368715529662,-3.6435491702922884,51.9
,,0.028796823827872197,0.026169007705925548,0.0011076734151995137,0.056073504948997266,0.7905239778636569,0.5135549107205784,0.46669113567500503,-3.6431794803952777,52.0
,,0.028796823827872197,0.026169007705925548,0.0011076734151995137,0.056073504948997266,0.7918387000110223,0.5135549107205784,0.46669113567500503,-3.6431794803952777,52.1
,,0.028796823827872197,0.026169007705925548,0.0011076734151995137,0.056073504948997266,0.7931534221583879,0.5135549107205784,0.46669113567500503,-3.6431794803952777,52.2
,,0.041715667161726984,0.03723708625571572,0.002017207286386,0.08096996070382871,0.7946887548131334,0.5151993010631958,0.45988766614227766,-3.290450071962081,52.3
,,0.041715667161726984,0.03723708625571572,0.002017207286386,0.08096996070382871,0.7964750174564036,0.5151993010631958,0.45988766614227766,-3.290450071962081,52.4
,,0.041715667161726984,0.03723708625571572,0.002017207286386,0.08096996070382871,0.7982612800996737,0.5151993010631958,0.45988766614227766,-3.290450071962081,52.5
,,0.041715667161726984,0.03723708625571572,0.002017207286386,0.08096996070382871,0.8010497294393294,0.5151993010631958,0.45988766614227766,-3.290450071962081,52.6
,,0.02022554233353173,0.027707357027548948,0.0011921959108806334,0.049125095271961315,0.7995014904456954,0.41171507600262464,0.564016352012313,-3.586057304390977,52.7
,,0.02022554233353173,0.027707357027548948,0.0011921959108806334,0.049125095271961315,0.7979532514520615,0.41171507600262464,0.564016352012313,-3.586057304390977,52.8
,,0.021935500417154023,0.02912432662313137,0.0012803335428602906,0.05234016058314568,0.7966627628672318,0.419095015620139,0.55644320343392,-3.5361814875993822,52.9
,,0.021935500417154023,0.02912432662313137,0.0012803335428602906,0.05234016058314568,0.7953722742824021,0.419095015620139,0.55644320343392,-3.5361814875993822,53.0
,,0.021935500417154023,0.02912432662313137,0.0012803335428602906,0.05234016058314568,0.7942661990857017,0.419095015620139,0.55644320343392,-3.5361814875993822,53.1
,,0.021935500417154023,0.02912432662313137,0.0012803335428602906,0.05234016058314568,0.7931601238890015,0.419095015620139,0.55644320343392,-3.5361814875993822,53.2
,,0.021935500417154023,0.02912432662313137,0.0012803335428602906,0.05234016058314568,0.7927964335022246,0.419095015620139,0.55644320343392,-3.5361814875993822,53.3
,,0.03564602340744335,0.029350878617172886,0.001305273773817471,0.0663021757984337,0.7975584239948948,0.5376297682267833,0.44268349060523987,-3.5284327973069387,53.4
,,0.03813536651578917,0.030512798115652957,0.0014001067435160713,0.0700482713749582,0.802713042585199,0.5444155261399115,0.4355967323208076,-3.4896090730312967,53.5
,,0.03813536651578917,0.030512798115652957,0.0014001067435160713,0.0700482713749582,0.8078676611755029,0.5444155261399115,0.4355967323208076,-3.4896090730312967,53.6
,,0.03813536651578917,0.030512798115652957,0.0014001067435160713,0.0700482713749582,0.8148554880824125,0.5444155261399115,0.4355967323208076,-3.4896090730312967,53.7
,,0.03813536651578917,0.030512798115652957,0.0014001067435160713,0.0700482713749582,0.8218433149893222,0.5444155261399115,0.4355967323208076,-3.4896090730312967,53.8
,,0.03813536651578917,0.030512798115652957,0.0014001067435160713,0.0700482713749582,0.8288311418962319,0.5444155261399115,0.4355967323208076,-3.4896090730312967,53.9
,,0.037607464949875165,0.030570572038866626,0.0018583470680602438,0.07003638405680204,0.8360675053429341,0.5369703969778644,0.4364955794130203,-3.4877174308283445,54.0
,,0.020896928435340568,0.029615674983087363,0.0018700970670555588,0.05238270048548349,0.8374751850462001,0.3989280476506096,0.5653712906858359,-3.5194514975802256,54.1
,,0.020896928435340568,0.029615674983087363,0.0018700970670555588,0.05238270048548349,0.838882864749466,0.3989280476506096,0.5653712906858359,-3.5194514975802256,54.2
,,0.020896928435340568,0.029615674983087363,0.0018700970670555588,0.05238270048548349,0.8402905444527322,0.3989280476506096,0.5653712906858359,-3.5194514975802256,54.3
,,0.020896928435340568,0.029615674983087363,0.0018700970670555588,0.05238270048548349,0.8400973983181564,0.3989280476506096,0.5653712906858359,-3.5194514975802256,54.4
,,0.020896928435340568,0.029615674983087363,0.0018700970670555588,0.05238270048548349,0.8399042521835807,0.3989280476506096,0.5653712906858359,-3.5194514975802256,54.5
,,0.020896928435340568,0.029615674983087363,0.0018700970670555588,0.05238270048548349,0.8397111060490049,0.3989280476506096,0.5653712906858359,-3.5194514975802256,54.6
,,0.04138950509734591,0.032795912817989256,0.0016948848673269208,0.0758803027826621,0.8460972916492027,0.5454578273876235,0.432205877089394,-3.417451380564056,54.7
,,0.04138950509734591,0.032795912817989256,0.0016948848673269208,0.0758803027826621,0.8524834772494004,0.5454578273876235,0.432205877089394,-3.417451380564056,54.8
,,0.04138950509734591,0.032795912817989256,0.0016948848673269208,0.0758803027826621,0.8588696628495983,0.5454578273876235,0.432205877089394,-3.417451380564056,54.9
,,0.04138950509734591,0.032795912817989256,0.0016948848673269208,0.0758803027826621,0.8652558484497959,0.5454578273876235,0.432205877089394,-3.417451380564056,55.0
,,0.04138950509734591,0.032795912817989256,0.0016948848673269208,0.0758803027826621,0.8716057636572876,0.5454578273876235,0.432205877089394,-3.417451380564056,55.1
,,0.04138950509734591,0.032795912817989256,0.0016948848673269208,0.0758803027826621,0.8779556788647791,0.5454578273876235,0.432205877089394,-3.417451380564056,55.2
,,0.04082226359218508,0.033226845276047516,0.0018354909875157755,0.07588459985574837,0.8839340430209642,0.5379518857552853,0.4378601895405598,-3.4043971371425807,55.3
,,0.04082226359218508,0.033226845276047516,0.0018354909875157755,0.07588459985574837,0.8901601289428369,0.5379518857552853,0.4378601895405598,-3.4043971371425807,55.4
,,0.04082226359218508,0.033226845276047516,0.0018354909875157755,0.07588459985574837,0.8963862148647095,0.5379518857552853,0.4378601895405598,-3.4043971371425807,55.5
,,0.04082226359218508,0.033226845276047516,0.0018354909875157755,0.07588459985574837,0.9026123007865822,0.5379518857552853,0.4378601895405598,-3.4043971371425807,55.6
,,0.04082226359218508,0.033226845276047516,0.0018354909875157755,0.07588459985574837,0.908718184334817,0.5379518857552853,0.4378601895405598,-3.4043971371425807,55.7
,,0.04082226359218508,0.033226845276047516,0.0018354909875157755,0.07588459985574837,0.9148240678830518,0.5379518857552853,0.4378601895405598,-3.4043971371425807,55.8
,,0.040101803607870176,0.032981427595145954,0.0016221023867393205,0.07470533358975545,0.9207888142271081,0.53679973946826,0.441486919478381,-3.411810676094198,55.9
,,0.023754375520761296,0.03336587925639089,0.001964290225950207,0.059084545003102396,0.9211540680575897,0.4020404239300482,0.564714160947485,-3.4002214803170894,56.0
,,0.023754375520761296,0.03336587925639089,0.001964290225950207,0.059084545003102396,0.9216379031589371,0.4020404239300482,0.564714160947485,-3.4002214803170894,56.1
,,0.023754375520761296,0.03336587925639089,0.001964290225950207,0.059084545003102396,0.9221217382602844,0.4020404239300482,0.564714160947485,-3.4002214803170894,56.2
,,0.023754375520761296,0.03336587925639089,0.001964290225950207,0.059084545003102396,0.9226055733616318,0.4020404239300482,0.564714160947485,-3.4002214803170894,56.3
,,0.023754375520761296,0.03336587925639089,0.001964290225950207,0.059084545003102396,0.9228934259918312,0.4020404239300482,0.564714160947485,-3.4002214803170894,56.4
,,0.038101142474244766,0.0331128110203594,0.00173186966629867,0.07294582316090283,0.9280558388940027,0.5223210983609278,0.4539370396481735,-3.4078350315897254,56.5
,,0.038101142474244766,0.0331128110203594,0.00173186966629867,0.07294582316090283,0.9332182517961742,0.5223210983609278,0.4539370396481735,-3.4078350315897254,56.6
,,0.025939625308405375,0.024582742783760176,0.0019742781445225453,0.052496646236688094,0.9373201088735033,0.49411966607263125,0.4682726335112079,-3.705710595074377,56.7
,,0.025939625308405375,0.024582742783760176,0.0019742781445225453,0.052496646236688094,0.9421157380872985,0.49411966607263125,0.4682726335112079,-3.705710595074377,56.8
,,0.025939625308405375,0.024582742783760176,0.0019742781445225453,0.052496646236688094,0.9469113673010936,0.49411966607263125,0.4682726335112079,-3.705710595074377,56.9
,,0.025939625308405375,0.024582742783760176,0.0019742781445225453,0.052496646236688094,0.9507242100550874,0.49411966607263125,0.4682726335112079,-3.705710595074377,57.0
,,0.03432487994692685,0.032046255941393126,0.0017665619490987998,0.06813769783741877,0.9547138047186566,0.5037575532538299,0.4703160945921257,-3.4405749217406707,57.1
,,0.03432487994692685,0.032046255941393126,0.0017665619490987998,0.06813769783741877,0.9587033993822257,0.5037575532538299,0.4703160945921257,-3.4405749217406707,57.2
,,0.032694940768004076,0.0320966999877009,0.002084942581314481,0.06687658333701946,0.9621100438392836,0.4888847356815525,0.47993929094660864,-3.43900205825234,57.3
,,0.032694940768004076,0.0320966999877009,0.002084942581314481,0.06687658333701946,0.9655166882963415,0.4888847356815525,0.47993929094660864,-3.43900205825234,57.4
,,0.032694940768004076,0.0320966999877009,0.002084942581314481,0.06687658333701946,0.9687771870559713,0.4888847356815525,0.47993929094660864,-3.43900205825234,57.5
,,0.032694940768004076,0.0320966999877009,0.002084942581314481,0.06687658333701946,0.9720376858156009,0.4888847356815525,0.47993929094660864,-3.43900205825234,57.6
,,0.0317317842910148,0.03204784349166907,0.0021105799254410667,0.06589020770812494,0.9746560822151544,0.4815857377711976,0.4863824930349589,-3.4405253836306007,57.7
,,0.0317317842910148,0.03204784349166907,0.0021105799254410667,0.06589020770812494,0.9772744786147081,0.4815857377711976,0.4863824930349589,-3.4405253836306007,57.8
,,0.023655711689929332,0.025717172136866244,0.0022011708844121127,0.05157405471120769,0.9791117994214422,0.4586746538039532,0.49864553564522396,-3.660596333679753,57.9
,,0.023655711689929332,0.025717172136866244,0.0022011708844121127,0.05157405471120769,0.9809491202281764,0.4586746538039532,0.49864553564522396,-3.660596333679753,58.0
,,0.023655711689929332,0.025717172136866244,0.0022011708844121127,0.05157405471120769,0.9830549155938919,0.4586746538039532,0.49864553564522396,-3.660596333679753,58.1
,,0.023655711689929332,0.025717172136866244,0.0022011708844121127,0.05157405471120769,0.9851607109596072,0.4586746538039532,0.49864553564522396,-3.660596333679753,58.2
,,0.02996935137961198,0.032906489506644127,0.002220595168979626,0.06509643605523574,0.9871654152059739,0.4603839041845906,0.5055037034396516,-3.4140853912198534,58.3
,,0.02996935137961198,0.032906489506644127,0.002220595168979626,0.06509643605523574,0.9882695676421075,0.4603839041845906,0.5055037034396516,-3.4140853912198534,58.4
,,0.02996935137961198,0.032906489506644127,0.002220595168979626,0.06509643605523574,0.9893737200782408,0.4603839041845906,0.5055037034396516,-3.4140853912198534,58.5
,,0.027891199294726804,0.032396885676868964,0.00221260281144704,0.06250068778304281,0.9899243096963347,0.44625427789762695,0.518344466693351,-3.429692981888072,58.6
,,0.027891199294726804,0.032396885676868964,0.00221260281144704,0.06250068778304281,0.9904748993144288,0.44625427789762695,0.518344466693351,-3.429692981888072,58.7
,,0.027891199294726804,0.032396885676868964,0.00221260281144704,0.06250068778304281,0.9911347076654399,0.44625427789762695,0.518344466693351,-3.429692981888072,58.8
,,0.026999387204442588,0.032285986126750155,0.0022010085051463583,0.0614863818363391,0.9915204596508859,0.4391116601446479,0.5250916570873714,-3.433122008945518,58.9
,,0.026999387204442588,0.032285986126750155,0.0022010085051463583,0.0614863818363391,0.9919062116363317,0.4391116601446479,0.5250916570873714,-3.433122008945518,59.0
,,0.026999387204442588,0.032285986126750155,0.0022010085051463583,0.0614863818363391,0.9918933208937177,0.4391116601446479,0.5250916570873714,-3.433122008945518,59.1
,,0.024897764436223938,0.031457878305796945,0.0021592153269945616,0.05851485806901545,0.9913827234659045,0.42549474198259574,0.5376049663949265,-3.459105824637157,59.2
,,0.024897764436223938,0.031457878305796945,0.0021592153269945616,0.05851485806901545,0.9908721260380912,0.42549474198259574,0.5376049663949265,-3.459105824637157,59.3
,,0.024897764436223938,0.031457878305796945,0.0021592153269945616,0.05851485806901545,0.9903615286102779,0.42549474198259574,0.5376049663949265,-3.459105824637157,59.4
,,0.023776024487494784,0.030778774143806285,0.002088114750769078,0.05664291338207015,0.9891495067613744,0.41975285287887204,0.5433826105694107,-3.480929977751556,59.5
,,0.023776024487494784,0.030778774143806285,0.002088114750769078,0.05664291338207015,0.9879374849124708,0.41975285287887204,0.5433826105694107,-3.480929977751556,59.6
,,0.023776024487494784,0.030778774143806285,0.002088114750769078,0.05664291338207015,0.9859242894309451,0.41975285287887204,0.5433826105694107,-3.480929977751556,59.7
,,0.02204152427751949,0.030007100724421004,0.002040311273798649,0.05408893627573914,0.9834895652034773,0.4075052274120229,0.5547733564485032,-3.5063212345127996,59.8
,,0.02204152427751949,0.030007100724421004,0.002040311273798649,0.05408893627573914,0.9810548409760096,0.4075052274120229,0.5547733564485032,-3.5063212345127996,59.9
,,0.02204152427751949,0.030007100724421004,0.002040311273798649,0.05408893627573914,0.9786201167485418,0.4075052274120229,0.5547733564485032,-3.5063212345127996,60.0
,,0.02204152427751949,0.030007100724421004,0.002040311273798649,0.05408893627573914,0.9756950845374875,0.4075052274120229,0.5547733564485032,-3.5063212345127996,60.1
,,0.021342907732737813,0.02942457961613269,0.001958941751680599,0.0527264291005511,0.9726678213243543,0.4047857610845627,0.558061300908867,-3.52592491256036,60.2
,,0.021342907732737813,0.02942457961613269,0.001958941751680599,0.0527264291005511,0.9696405581112209,0.4047857610845627,0.558061300908867,-3.52592491256036,60.3
,,0.021342907732737813,0.02942457961613269,0.001958941751680599,0.0527264291005511,0.9662678100631917,0.4047857610845627,0.558061300908867,-3.52592491256036,60.4
,,0.020089842075135703,0.028861874338055437,0.0019180401559614822,0.05086975656915262,0.9625697919177406,0.394927033861966,0.5673680450744923,-3.5452337818667377,60.5
,,0.020089842075135703,0.028861874338055437,0.0019180401559614822,0.05086975656915262,0.9588717737722896,0.394927033861966,0.5673680450744923,-3.5452337818667377,60.6
,,0.020089842075135703,0.028861874338055437,0.0019180401559614822,0.05086975656915262,0.9546679725858113,0.394927033861966,0.5673680450744923,-3.5452337818667377,60.7
,,0.01984117141863098,0.028500009102677172,0.0018387878713393058,0.050179968392647455,0.9504654237737182,0.39540023746882585,0.5679558998457459,-3.557850872315402,60.8
,,0.01984117141863098,0.028500009102677172,0.0018387878713393058,0.050179968392647455,0.9462628749616251,0.39540023746882585,0.5679558998457459,-3.557850872315402,60.9
,,0.01984117141863098,0.028500009102677172,0.0018387878713393058,0.050179968392647455,0.9417713651956505,0.39540023746882585,0.5679558998457459,-3.557850872315402,61.0
,,0.01888361981139601,0.027939972615888695,0.0017956287432422651,0.04861922117052697,0.9370541076873441,0.3883982375028928,0.5746692757148882,-3.577696905258,61.1
,,0.01888361981139601,0.027939972615888695,0.0017956287432422651,0.04861922117052697,0.9323368501790378,0.3883982375028928,0.5746692757148882,-3.577696905258,61.2
,,0.01888361981139601,0.027939972615888695,0.0017956287432422651,0.04861922117052697,0.9273989821633513,0.3883982375028928,0.5746692757148882,-3.577696905258,61.3
,,0.01888361981139601,0.027939972615888695,0.0017956287432422651,0.04861922117052697,0.9224611141476647,0.3883982375028928,0.5746692757148882,-3.577696905258,61.4
,,0.019069755753681628,0.027839931181308102,0.0017245330902883724,0.048634220025278105,0.9176245196660987,0.3921057178211132,0.5724350296321814,-3.581283915454746,61.5
,,0.019069755753681628,0.027839931181308102,0.0017245330902883724,0.048634220025278105,0.9127879251845329,0.3921057178211132,0.5724350296321814,-3.581283915454746,61.6
,,0.019069755753681628,0.027839931181308102,0.0017245330902883724,0.048634220025278105,0.9122880190362567,0.3921057178211132,0.5724350296321814,-3.581283915454746,61.7
,,0.01874503288348907,0.027835008823132334,0.0017150672786147064,0.04829510898523611,0.9116598367134783,0.38813522274521534,0.5763525418617761,-3.5814607403669307,61.8
,,0.01874503288348907,0.027835008823132334,0.0017150672786147064,0.04829510898523611,0.9107739039818957,0.38813522274521534,0.5763525418617761,-3.5814607403669307,61.9
,,0.01874503288348907,0.027835008823132334,0.0017150672786147064,0.04829510898523611,0.909887971250313,0.38813522274521534,0.5763525418617761,-3.5814607403669307,62.0
,,0.01914534563009825,0.027708771862079883,0.0016321280700822547,0.04848624556226039,0.9091966519679539,0.394861375800154,0.5714769527060928,-3.5860062421980885,62.1
,,0.01914534563009825,0.027708771862079883,0.0016321280700822547,0.04848624556226039,0.9085053326855945,0.394861375800154,0.5714769527060928,-3.5860062421980885,62.2
,,0.01914534563009825,0.027708771862079883,0.0016321280700822547,0.04848624556226039,0.9078140134032351,0.394861375800154,0.5714769527060928,-3.5860062421980885,62.3
,,0.019228546986177465,0.027907408527800135,0.0016366265897153755,0.04877258210369298,0.9019754950879565,0.3942491079372546,0.5721946086116083,-3.57886308677313,62.4
,,0.019228546986177465,0.027907408527800135,0.0016366265897153755,0.04877258210369298,0.8957443486750442,0.3942491079372546,0.5721946086116083,-3.57886308677313,62.5
,,0.019228546986177465,0.027907408527800135,0.0016366265897153755,0.04877258210369298,0.8895132022621319,0.3942491079372546,0.5721946086116083,-3.57886308677313,62.6
,,0.028957436287276907,0.031430171170010755,0.002222217324368945,0.06260982478165661,0.885863320331218,0.4625062662012247,0.5020006249757011,-3.4599869821165155,62.7
,,0.028957436287276907,0.031430171170010755,0.002222217324368945,0.06260982478165661,0.8822134384003038,0.4625062662012247,0.5020006249757011,-3.4599869821165155,62.8
,,0.028957436287276907,0.031430171170010755,0.002222217324368945,0.06260982478165661,0.8785635564693897,0.4625062662012247,0.5020006249757011,-3.4599869821165155,62.9
,,0.028957436287276907,0.031430171170010755,0.002222217324368945,0.06260982478165661,0.8751317885494874,0.4625062662012247,0.5020006249757011,-3.4599869821165155,63.0
,,0.020305669562002117,0.028191072819561937,0.0015636782096492999,0.05006042059121335,0.8752949393372336,0.40562323133110445,0.5631409502082781,-3.5687499178380793,63.1
,,0.020305669562002117,0.028191072819561937,0.0015636782096492999,0.05006042059121335,0.8754580901249799,0.40562323133110445,0.5631409502082781,-3.5687499178380793,63.2
,,0.02097428108481044,0.027824968984325803,0.0014499196599747828,0.050249169729111025,0.8759935330069406,0.41740552526302416,0.5537398753915305,-3.581821496490483,63.3
,,0.02097428108481044,0.027824968984325803,0.0014499196599747828,0.050249169729111025,0.8765289758889013,0.41740552526302416,0.5537398753915305,-3.581821496490483,63.4
,,0.02097428108481044,0.027824968984325803,0.0014499196599747828,0.050249169729111025,0.877064418770862,0.41740552526302416,0.5537398753915305,-3.581821496490483,63.5
,,0.02097428108481044,0.027824968984325803,0.0014499196599747828,0.050249169729111025,0.8775998616528227,0.41740552526302416,0.5537398753915305,-3.581821496490483,63.6
,,0.0215608616862106,0.028119808727922472,0.001467863169936692,0.05114853358406976,0.8720967230399951,0.42153430754319304,0.5497676425405947,-3.571281014057029,63.7
,,0.0215608616862106,0.028119808727922472,0.001467863169936692,0.05114853358406976,0.8665935844271678,0.42153430754319304,0.5497676425405947,-3.571281014057029,63.8
,,0.0215608616862106,0.028119808727922472,0.001467863169936692,0.05114853358406976,0.8610904458143402,0.42153430754319304,0.5497676425405947,-3.571281014057029,63.9
,,0.02243127455317053,0.027787710978542594,0.0013533051534858139,0.05157229068519894,0.8560371658529023,0.4349481912698562,0.5388108732295959,-3.5831614071505116,64.0
,,0.02243127455317053,0.027787710978542594,0.0013533051534858139,0.05157229068519894,0.8509838858914642,0.4349481912698562,0.5388108732295959,-3.5831614071505116,64.1
,,0.02243127455317053,0.027787710978542594,0.0013533051534858139,0.05157229068519894,0.8459306059300262,0.4349481912698562,0.5388108732295959,-3.5831614071505116,64.2
,,0.02243127455317053,0.027787710978542594,0.0013533051534858139,0.05157229068519894,0.8412488770198945,0.4349481912698562,0.5388108732295959,-3.5831614071505116,64.3
,,0.023507383887392756,0.028474184611072977,0.0013956140604510976,0.05337718255891683,0.8367708266639045,0.4404013617887325,0.5334523713319573,-3.5587574053153244,64.4
,,0.023507383887392756,0.028474184611072977,0.0013956140604510976,0.05337718255891683,0.8322927763079147,0.4404013617887325,0.5334523713319573,-3.5587574053153244,64.5
,,0.024624157655738037,0.02824155644568557,0.0012829552400022873,0.05414866934142589,0.8283296583068105,0.4547509284203144,0.5215558718093863,-3.5669607529436593,64.6
,,0.024624157655738037,0.02824155644568557,0.0012829552400022873,0.05414866934142589,0.8243665403057063,0.4547509284203144,0.5215558718093863,-3.5669607529436593,64.7
,,0.024624157655738037,0.02824155644568557,0.0012829552400022873,0.05414866934142589,0.8204034223046021,0.4547509284203144,0.5215558718093863,-3.5669607529436593,64.8
,,0.024578473136480712,0.02818887416952543,0.001280554389225755,0.054047901695231895,0.8165815399705312,0.45475351245040146,0.5215535346492879,-3.56882791188224,64.9
,,0.026105071871359478,0.029153074730302625,0.00134264808686045,0.056600794688522554,0.8186205641453862,0.4612138754414527,0.5150647599690725,-3.5351948921494993,65.0
,,0.026058083141704425,0.029100218707645873,0.0013402116197389125,0.05649851346908921,0.8206597185625546,0.46121714611059655,0.5150616701369822,-3.5370095891062707,65.1
,,0.026105071871359478,0.029153074730302625,0.00134264808686045,0.056600794688522554,0.82269874273741,0.4612138754414527,0.5150647599690725,-3.5351948921494993,65.2
,,0.027629984238587302,0.029229754988537998,0.0012439477943389805,0.058103687021464276,0.8252913311215104,0.47552893206898245,0.5030619653747642,-3.5325680820857657,65.3
,,0.027629984238587302,0.029229754988537998,0.0012439477943389805,0.058103687021464276,0.8278839195056109,0.47552893206898245,0.5030619653747642,-3.5325680820857657,65.4
,,0.027629984238587302,0.029229754988537998,0.0012439477943389805,0.058103687021464276,0.8256019476177395,0.47552893206898245,0.5030619653747642,-3.5325680820857657,65.5
,,0.027629984238587302,0.029229754988537998,0.0012439477943389805,0.058103687021464276,0.8233199757298679,0.47552893206898245,0.5030619653747642,-3.5325680820857657,65.6
,,0.0295887088423746,0.030468877251870127,0.0013233090163589545,0.061380895110603684,0.8223857090052792,0.4820507877745674,0.4963902399430236,-3.4910495343211028,65.7
,,0.0295887088423746,0.030468877251870127,0.0013233090163589545,0.061380895110603684,0.8214514422806903,0.4820507877745674,0.4963902399430236,-3.4910495343211028,65.8
,,0.031445809841578645,0.030690991559568708,0.0012285823029337317,0.06336538370408108,0.8211114154384522,0.4962616495535142,0.4843494944005529,-3.4837861019910603,65.9
,,0.031445809841578645,0.030690991559568708,0.0012285823029337317,0.06336538370408108,0.8207713885962142,0.4962616495535142,0.4843494944005529,-3.4837861019910603,66.0
,,0.031445809841578645,0.030690991559568708,0.0012285823029337317,0.06336538370408108,0.8202546098444008,0.4962616495535142,0.4843494944005529,-3.4837861019910603,66.1
,,0.031445809841578645,0.030690991559568708,0.0012285823029337317,0.06336538370408108,0.8197378310925874,0.4962616495535142,0.4843494944005529,-3.4837861019910603,66.2
,,0.03329698487371579,0.031653917038666865,0.0013021414142951023,0.06625304332667775,0.8201074816593237,0.5025729113987474,0.47777302670594385,-3.452893376954405,66.3
,,0.03329698487371579,0.031653917038666865,0.0013021414142951023,0.06625304332667775,0.8204771322260602,0.5025729113987474,0.47777302670594385,-3.452893376954405,66.4
,,0.03329698487371579,0.031653917038666865,0.0013021414142951023,0.06625304332667775,0.8208467827927967,0.5025729113987474,0.47777302670594385,-3.452893376954405,66.5
,,0.03534987523526977,0.03199105694321065,0.0012113126526011383,0.06855224483108155,0.8218062684966133,0.5156632772912807,0.46666680313736314,-3.442298885766242,66.6
,,0.03534987523526977,0.03199105694321065,0.0012113126526011383,0.06855224483108155,0.8230824298189363,0.5156632772912807,0.46666680313736314,-3.442298885766242,66.7
,,0.03534987523526977,0.03199105694321065,0.0012113126526011383,0.06855224483108155,0.8243585911412594,0.5156632772912807,0.46666680313736314,-3.442298885766242,66.8
,,0.047149620887690945,0.0317977357729932,0.0014622116036877356,0.08040956826437187,0.8306136685583952,0.5863682880707886,0.39544716455196094,-3.4483601938381283,66.9
,,0.047149620887690945,0.0317977357729932,0.0014622116036877356,0.08040956826437187,0.8368687459755311,0.5863682880707886,0.39544716455196094,-3.4483601938381283,67.0
,,0.047149620887690945,0.0317977357729932,0.0014622116036877356,0.08040956826437187,0.843123823392667,0.5863682880707886,0.39544716455196094,-3.4483601938381283,67.1
,,0.039406149287916595,0.03320852352464768,0.0012038667393016046,0.07381853955186589,0.8460881175021788,0.5338245585342326,0.44986698092712785,-3.404948703339776,67.2
,,0.039406149287916595,0.03320852352464768,0.0012038667393016046,0.07381853955186589,0.8491535027310396,0.5338245585342326,0.44986698092712785,-3.404948703339776,67.3
,,0.039406149287916595,0.03320852352464768,0.0012038667393016046,0.07381853955186589,0.8522188879599004,0.5338245585342326,0.44986698092712785,-3.404948703339776,67.4
,,0.039406149287916595,0.03320852352464768,0.0012038667393016046,0.07381853955186589,0.8552842731887613,0.5338245585342326,0.44986698092712785,-3.404948703339776,67.5
,,0.04233249071605117,0.03485367081494575,0.0013187117370657305,0.07850487326806264,0.859213778133852,0.5392339220968194,0.4439682450786775,-3.3565968154733814,67.6
,,0.04233249071605117,0.03485367081494575,0.0013187117370657305,0.07850487326806264,0.863143283078943,0.5392339220968194,0.4439682450786775,-3.3565968154733814,67.7
,,0.04233249071605117,0.03485367081494575,0.0013187117370657305,0.07850487326806264,0.8670727880240339,0.5392339220968194,0.4439682450786775,-3.3565968154733814,67.8
,,0.04513639639854794,0.03575481336541126,0.001258550565584403,0.0821497603295436,0.8718075592587022,0.5494403905438479,0.4352394118008488,-3.331070379313293,67.9
,,0.04513639639854794,0.03575481336541126,0.001258550565584403,0.0821497603295436,0.8765423304933708,0.5494403905438479,0.4352394118008488,-3.331070379313293,68.0
,,0.04513639639854794,0.03575481336541126,0.001258550565584403,0.0821497603295436,0.8812771017280394,0.5494403905438479,0.4352394118008488,-3.331070379313293,68.1
,,0.04513639639854794,0.03575481336541126,0.001258550565584403,0.0821497603295436,0.8865095796479069,0.5494403905438479,0.4352394118008488,-3.331070379313293,68.2
,,0.046086118494319456,0.03582355671258486,0.0013207297385477053,0.08323040494545202,0.8920097093267909,0.5537173407305134,0.43041430275466147,-3.329149593236887,68.3
,,0.046086118494319456,0.03582355671258486,0.0013207297385477053,0.08323040494545202,0.8975098390056752,0.5537173407305134,0.43041430275466147,-3.329149593236887,68.4
,,0.046086118494319456,0.03582355671258486,0.0013207297385477053,0.08323040494545202,0.9032208837877777,0.5537173407305134,0.43041430275466147,-3.329149593236887,68.5
,,0.04383466122624784,0.033019394948381325,0.0011408889178256571,0.07799494509245482,0.9093882352664701,0.5620192587389663,0.4233530122912491,-3.410660164450245,68.6
,,0.04383466122624784,0.033019394948381325,0.0011408889178256571,0.07799494509245482,0.9155555867451624,0.5620192587389663,0.4233530122912491,-3.410660164450245,68.7
,,0.04383466122624784,0.033019394948381325,0.0011408889178256571,0.07799494509245482,0.9221444669697966,0.5620192587389663,0.4233530122912491,-3.410660164450245,68.8
,,0.04383466122624784,0.033019394948381325,0.0011408889178256571,0.07799494509245482,0.9287333471944307,0.5620192587389663,0.4233530122912491,-3.410660164450245,68.9
,,0.04405353953203832,0.026145775335086056,0.0010190895951134311,0.0712184044622378,0.9392930846879571,0.6185695939789955,0.3671210487304494,-3.644067656586261,69.0
,,0.04405353953203832,0.026145775335086056,0.0010190895951134311,0.0712184044622378,0.9498528221814837,0.6185695939789955,0.3671210487304494,-3.644067656586261,69.1
,,0.04221112701405817,0.024494188856768493,0.0009077668200966029,0.06761308269092327,0.9609413673920146,0.6243041336691606,0.3622699614028502,-3.709319379084992,69.2
,,0.04221112701405817,0.024494188856768493,0.0009077668200966029,0.06761308269092327,0.9720299126025453,0.6243041336691606,0.3622699614028502,-3.709319379084992,69.3
,,0.04221112701405817,0.024494188856768493,0.0009077668200966029,0.06761308269092327,0.9831184578130763,0.6243041336691606,0.3622699614028502,-3.709319379084992,69.4
,,0.04221112701405817,0.024494188856768493,0.0009077668200966029,0.06761308269092327,0.9945322731210291,0.6243041336691606,0.3622699614028502,-3.709319379084992,69.5
,,0.02504498956842515,0.028562432412655332,0.001033864084671242,0.05464128606575173,0.9965409643182632,0.45835285681760235,0.5227262106950628,-3.5556629766270444,69.6
,,0.02504498956842515,0.028562432412655332,0.001033864084671242,0.05464128606575173,0.9985496555154975,0.45835285681760235,0.5227262106950628,-3.5556629766270444,69.7
,,0.03736797949603874,0.026619063510628937,0.000924272173978145,0.06491131518064581,1.0064121439441263,0.5756774360840636,0.4100835645765158,-3.6261276465502674,69.8
,,0.03736797949603874,0.026619063510628937,0.000924272173978145,0.06491131518064581,1.014274632372755,0.5756774360840636,0.4100835645765158,-3.6261276465502674,69.9
,,0.03736797949603874,0.026619063510628937,0.000924272173978145,0.06491131518064581,1.022137120801384,0.5756774360840636,0.4100835645765158,-3.6261276465502674,70.0
,,0.03736797949603874,0.026619063510628937,0.000924272173978145,0.06491131518064581,1.0302253569723447,0.5756774360840636,0.4100835645765158,-3.6261276465502674,70.1
,,0.03736797949603874,0.026619063510628937,0.000924272173978145,0.06491131518064581,1.0383135931433054,0.5756774360840636,0.4100835645765158,-3.6261276465502674,70.2
,,0.03927021343706869,0.02323668607500806,0.0008710333244575339,0.06337793283653428,1.0495818739674871,0.6196196638087781,0.36663685663179674,-3.762022952905922,70.3
,,0.03927021343706869,0.02323668607500806,0.0008710333244575339,0.06337793283653428,1.0608501547916687,0.6196196638087781,0.36663685663179674,-3.762022952905922,70.4
,,0.0345788173442932,0.024620202887098323,0.0008709239111057513,0.06006994414249727,1.0688447212852752,0.5756425752996491,0.4098589275977108,-3.7041879175165544,70.5
,,0.0345788173442932,0.024620202887098323,0.0008709239111057513,0.06006994414249727,1.0768392877788817,0.5756425752996491,0.4098589275977108,-3.7041879175165544,70.6
,,0.0345788173442932,0.024620202887098323,0.0008709239111057513,0.06006994414249727,1.0848338542724882,0.5756425752996491,0.4098589275977108,-3.7041879175165544,70.7
,,0.0345788173442932,0.024620202887098323,0.0008709239111057513,0.06006994414249727,1.092956696940597,0.5756425752996491,0.4098589275977108,-3.7041879175165544,70.8
,,0.03553561528873861,0.021646260056232828,0.0008107121390610761,0.05799258748403251,1.103714672534185,0.6127613343433395,0.37325908353706133,-3.832922585126429,70.9
,,0.03553561528873861,0.021646260056232828,0.0008107121390610761,0.05799258748403251,1.1144726481277734,0.6127613343433395,0.37325908353706133,-3.832922585126429,71.0
,,0.03304183956871258,0.020543462779916342,0.0007502532792934616,0.05433555562792238,1.124666405311731,0.6081071443342853,0.3780850778557109,-3.8852125015479833,71.1
,,0.03304183956871258,0.020543462779916342,0.0007502532792934616,0.05433555562792238,1.134860162495689,0.6081071443342853,0.3780850778557109,-3.8852125015479833,71.2
,,0.03304183956871258,0.020543462779916342,0.0007502532792934616,0.05433555562792238,1.145053919679647,0.6081071443342853,0.3780850778557109,-3.8852125015479833,71.3
,,0.03304183956871258,0.020543462779916342,0.0007502532792934616,0.05433555562792238,1.1552691950170768,0.6081071443342853,0.3780850778557109,-3.8852125015479833,71.4
,,0.03304183956871258,0.020543462779916342,0.0007502532792934616,0.05433555562792238,1.1654844703545069,0.6081071443342853,0.3780850778557109,-3.8852125015479833,71.5
,,0.031225545465620893,0.023183712781778134,0.0008797092413207433,0.05528896748871977,1.1727940477320107,0.5647699149381227,0.4193189678665667,-3.7643052821202097,71.6
,,0.031225545465620893,0.023183712781778134,0.0008797092413207433,0.05528896748871977,1.1775223606275165,0.5647699149381227,0.4193189678665667,-3.7643052821202097,71.7
,,0.029724900666925114,0.0225378812717975,0.0008407648097393662,0.05310354674846198,1.1819396953728472,0.5597535849672042,0.4244138603124519,-3.7925577733779368,71.8
,,0.029724900666925114,0.0225378812717975,0.0008407648097393662,0.05310354674846198,1.1863570301181778,0.5597535849672042,0.4244138603124519,-3.7925577733779368,71.9
