time,ecg,hr,rr,marker,norm_time
1715066129012056510,0.041,,,,0.0
1715066129019750878,0.068,,,,0.007694368
1715066129027445246,0.058,,,,0.015388736
1715066129035139614,0.058,,,,0.023083104
1715066129042833982,0.039,,,,0.030777472
1715066129050528350,0.029,,,,0.03847184
1715066129058222718,0.066,,,,0.046166208
1715066129065917086,0.046,,,,0.053860576
1715066129073611454,0.039,,,,0.061554944
1715066129081305822,0.039,,,,0.069249312
1715066129089000190,0.012,,,,0.07694368
1715066129096694558,0.036,,,,0.084638048
1715066129104388926,0.029,,,,0.092332416
1715066129112083294,0.031,,,,0.100026784
1715066129119777662,0.061,,,,0.107721152
1715066129127472030,0.036,,,,0.11541552
1715066129135166398,0.031,,,,0.123109888
1715066129142860766,0.014,,,,0.130804256
1715066129150555134,-0.009,,,,0.138498624
1715066129158249502,0.004,,,,0.146192992
1715066129165943870,0.002,,,,0.15388736
1715066129173638238,0.063,,,,0.161581728
1715066129181332606,0.1,,,,0.169276096
1715066129189026974,0.053,,,,0.176970464
1715066129196721342,0.053,,,,0.184664832
1715066129204415710,0.051,,,,0.1923592
1715066129212110078,0.053,,,,0.200053568
1715066129219804446,0.063,,,,0.207747936
1715066129227498814,0.046,,,,0.215442304
1715066129235193182,0.085,,,,0.223136672
1715066129242887550,0.088,,,,0.23083104
1715066129250581918,0.051,,,,0.238525408
1715066129258276286,0.029,,,,0.246219776
1715066129265970654,-0.097,,,,0.253914144
1715066129273665022,-0.11,,,,0.261608512
1715066129281359390,0.349,,,,0.26930288
1715066129289053758,1.286,,,,0.276997248
1715066129296748126,1.934,,,,0.284691616
1715066129304442494,1.315,,,,0.292385984
1715066129312136862,0.144,,,,0.300080352
1715066129319831230,-0.171,,,,0.30777472
1715066129327525598,0.053,,,,0.315469088
1715066129335219966,0.002,,,,0.323163456
1715066129342914334,-0.144,,,,0.330857824
1715066129350608702,-0.075,,,,0.338552192
1715066129358303070,-0.004,,,,0.34624656
1715066129365997438,-0.068,,,,0.353940928
1715066129373691806,-0.048,,,,0.361635296
1715066129381386174,0.0,,,,0.369329664
1715066129389080542,-0.014,,,,0.377024032
1715066129396774910,0.009,,,,0.3847184
1715066129404469278,0.007,,,,0.392412768
1715066129412163646,0.007,,,,0.400107136
1715066129419858014,0.048,,,,0.407801504
1715066129427552382,0.046,,,,0.415495872
1715066129435246750,0.07,,,,0.42319024
1715066129442941118,0.088,,,,0.430884608
1715066129450635486,0.09,,,,0.438578976
1715066129458329854,0.122,,,,0.446273344
1715066129466024222,0.11,,,,0.453967712
1715066129473718590,0.129,,,,0.46166208
1715066129481412958,0.154,,,,0.469356448
1715066129489107326,0.136,,,,0.477050816
1715066129496801694,0.163,,,,0.484745184
1715066129504496062,0.158,,,,0.492439552
1715066129512190430,0.163,,,,0.50013392
1715066129519884798,0.183,,,,0.507828288
1715066129527579166,0.134,,,,0.515522656
1715066129535273534,0.117,,,,0.523217024
1715066129542967902,0.085,,,,0.530911392
1715066129550662270,0.041,,,,0.53860576
1715066129558356638,0.058,,,,0.546300128
1715066129566051006,0.044,,,,0.553994496
1715066129573745386,0.039,93.0,601.0,,0.561688876
1715066129581439754,0.029,,581.0,,0.569383244
1715066129589134122,0.004,,,,0.577077612
1715066129596828490,0.044,,,,0.58477198
1715066129604522858,0.046,,,,0.592466348
1715066129612217226,0.036,,,,0.600160716
1715066129619911594,0.056,,,,0.607855084
1715066129627605962,0.039,,,,0.615549452
1715066129635300330,0.048,,,,0.62324382
1715066129642994698,0.036,,,,0.630938188
1715066129650689066,0.026,,,,0.638632556
1715066129658383434,0.061,,,,0.646326924
1715066129666077802,0.036,,,,0.654021292
1715066129673772170,0.024,,,,0.66171566
1715066129681466538,0.031,,,,0.669410028
1715066129689160906,0.019,,,,0.677104396
1715066129696855274,0.051,,,,0.684798764
1715066129704549642,0.044,,,,0.692493132
1715066129712244010,0.039,,,,0.7001875
1715066129719938378,0.058,,,,0.707881868
1715066129727632746,0.026,,,,0.715576236
1715066129735327114,0.044,,,,0.723270604
1715066129743021482,0.053,,,,0.730964972
1715066129750715850,0.029,,,,0.73865934
1715066129758410218,0.039,,,,0.746353708
1715066129766104586,0.009,,,,0.754048076
1715066129773798954,0.019,,,,0.761742444
1715066129781493322,0.058,,,,0.769436812
1715066129789187690,0.066,,,,0.77713118
1715066129796882058,0.092,,,,0.784825548
1715066129804576426,0.068,,,,0.792519916
1715066129812270794,0.048,,,,0.800214284
1715066129819965162,0.066,,,,0.807908652
1715066129827659530,0.036,,,,0.81560302
1715066129835353898,0.048,,,,0.823297388
1715066129843048266,0.056,,,,0.830991756
1715066129850742634,0.044,,,,0.838686124
1715066129858437002,0.063,,,,0.846380492
1715066129866131370,0.041,,,,0.85407486
1715066129873825738,-0.009,,,,0.861769228
1715066129881520106,-0.124,,,,0.869463596
1715066129889214474,-0.078,,,,0.877157964
1715066129896908842,0.584,,,,0.884852332
1715066129904603210,1.587,,,,0.8925467
1715066129912297578,1.917,,,,0.900241068
1715066129919991946,0.99,,,,0.907935436
1715066129927686314,-0.097,,,,0.915629804
1715066129935380682,-0.134,,,,0.923324172
1715066129943075050,0.1,,,,0.93101854
1715066129950769418,-0.07,,,,0.938712908
1715066129958463786,-0.132,,,,0.946407276
1715066129966158154,-0.048,,,,0.954101644
1715066129973852522,-0.036,,,,0.961796012
1715066129981546890,-0.051,,,,0.96949038
1715066129989241258,-0.034,,,,0.977184748
1715066129996935626,0.0,,,,0.984879116
1715066130004629994,-0.019,,,,0.992573484
1715066130012324362,-0.007,,,,1.000267852
1715066130020018730,0.036,,,,1.00796222
1715066130027713098,0.019,,,,1.015656588
1715066130035407466,0.044,,,,1.023350956
1715066130043101834,0.061,,,,1.031045324
1715066130050796202,0.053,,,,1.038739692
1715066130058490570,0.085,,,,1.04643406
1715066130066184938,0.073,,,,1.054128428
1715066130073879306,0.078,,,,1.061822796
1715066130081573674,0.085,,,,1.069517164
1715066130089268042,0.068,,,,1.077211532
1715066130096962410,0.1,,,,1.0849059
1715066130104656778,0.097,,,,1.092600268
1715066130112351146,0.097,,,,1.100294636
1715066130120045514,0.124,,,,1.107989004
1715066130127739882,0.107,,,,1.115683372
1715066130135434262,0.122,94.0,588.0,,1.123377752
1715066130143128421,0.1,,,,1.131071911
1715066130150822580,0.051,,,,1.13876607
1715066130158516739,0.046,,,,1.146460229
1715066130166210898,0.019,,,,1.154154388
1715066130173905057,0.029,,,,1.161848547
1715066130181599216,0.029,,,,1.169542706
1715066130189293375,-0.009,,,,1.177236865
1715066130196987534,0.024,,,,1.184931024
1715066130204681693,0.034,,,,1.192625183
1715066130212375852,0.022,,,,1.200319342
1715066130220070011,0.046,,,,1.208013501
1715066130227764170,0.041,,,,1.21570766
1715066130235458329,0.051,,,,1.223401819
1715066130243152488,0.031,,,,1.231095978
1715066130250846647,0.022,,,,1.238790137
1715066130258540806,0.066,,,,1.246484296
1715066130266234965,0.046,,,,1.254178455
1715066130273929124,0.044,,,,1.261872614
1715066130281623283,0.058,,,,1.269566773
1715066130289317442,0.041,,,,1.277260932
1715066130297011601,0.066,,,,1.284955091
1715066130304705760,0.058,,,,1.29264925
1715066130312399919,0.053,,,,1.300343409
1715066130320094078,0.061,,,,1.308037568
1715066130327788237,0.029,,,,1.315731727
1715066130335482396,0.056,,,,1.323425886
1715066130343176555,0.063,,,,1.331120045
1715066130350870714,0.044,,,,1.338814204
1715066130358564873,0.073,,,,1.346508363
1715066130366259032,0.058,,,,1.354202522
1715066130373953191,0.061,,,,1.361896681
1715066130381647350,0.078,,,,1.36959084
1715066130389341509,0.058,,,,1.377284999
1715066130397035668,0.068,,,,1.384979158
1715066130404729827,0.053,,,,1.392673317
1715066130412423986,0.041,,,,1.400367476
1715066130420118145,0.041,,,,1.408061635
1715066130427812304,0.014,,,,1.415755794
1715066130435506463,0.053,,,,1.423449953
1715066130443200622,0.097,,,,1.431144112
1715066130450894781,0.097,,,,1.438838271
1715066130458588940,0.092,,,,1.44653243
1715066130466283099,0.046,,,,1.454226589
1715066130473977258,0.058,,,,1.461920748
1715066130481671417,0.08,,,,1.469614907
1715066130489365576,0.056,,,,1.477309066
1715066130497059735,0.088,,,,1.485003225
1715066130504753894,0.08,,,,1.492697384
1715066130512448053,0.061,,,,1.500391543
1715066130520142212,0.078,,,,1.508085702
1715066130527836371,0.022,,,,1.515779861
1715066130535530530,-0.095,,,,1.52347402
1715066130543224689,-0.105,,,,1.531168179
1715066130550918848,0.44,,,,1.538862338
1715066130558613007,1.55,,,,1.546556497
1715066130566307166,2.154,,,,1.554250656
1715066130574001325,1.489,,,,1.561944815
1715066130581695484,0.256,,,,1.569638974
1715066130589389643,-0.239,,,,1.577333133
1715066130597083802,-0.022,,,,1.585027292
1715066130604777961,-0.053,,,,1.592721451
1715066130612472120,-0.202,,,,1.60041561
1715066130620166279,-0.117,,,,1.608109769
1715066130627860438,-0.088,,,,1.615803928
1715066130635554597,-0.107,,,,1.623498087
1715066130643248756,-0.088,,,,1.631192246
1715066130650942915,-0.073,,,,1.638886405
1715066130658637074,-0.048,,,,1.646580564
1715066130666331233,-0.053,,,,1.654274723
1715066130674025392,-0.036,,,,1.661968882
1715066130681719551,-0.014,,,,1.669663041
1715066130689413710,-0.026,,,,1.6773572
1715066130697107880,0.004,,,,1.68505137
1715066130704802178,0.007,,,,1.692745668
1715066130712496476,0.012,,,,1.700439966
1715066130720190774,0.041,,,,1.708134264
1715066130727885072,0.031,,,,1.715828562
1715066130735579370,0.053,,,,1.72352286
1715066130743273668,0.053,,,,1.731217158
1715066130750967966,0.041,,,,1.738911456
1715066130758662264,0.068,,,,1.746605754
1715066130766356562,0.051,,,,1.754300052
1715066130774050860,0.058,,,,1.76199435
1715066130781745158,0.083,,,,1.769688648
1715066130789439456,0.073,,,,1.777382946
1715066130797133754,0.097,,,,1.785077244
1715066130804828052,0.07,,,,1.792771542
1715066130812522350,0.029,,,,1.80046584
1715066130820216648,0.036,,,,1.808160138
1715066130827910946,0.017,,,,1.815854436
1715066130835605244,0.019,,,,1.823548734
1715066130843299542,0.019,,,,1.831243032
1715066130850993840,0.019,,,,1.83893733
1715066130858688138,0.051,,,,1.846631628
1715066130866382436,0.026,,,,1.854325926
1715066130874076734,0.022,,,,1.862020224
1715066130881771032,0.031,,,,1.869714522
1715066130889465330,0.019,,,,1.87740882
1715066130897159628,0.051,,,,1.885103118
1715066130904853926,0.036,,,,1.892797416
1715066130912548224,0.034,,,,1.900491714
1715066130920242522,0.066,,,,1.908186012
1715066130927936820,0.044,,,,1.91588031
1715066130935631118,0.056,,,,1.923574608
1715066130943325416,0.066,,,,1.931268906
1715066130951019714,0.056,,,,1.938963204
1715066130958714012,0.08,,,,1.946657502
1715066130966408310,0.063,,,,1.9543518
1715066130974102608,0.063,,,,1.962046098
1715066130981796906,0.078,,,,1.969740396
1715066130989491204,0.063,,,,1.977434694
1715066130997185502,0.085,,,,1.985128992
1715066131004879800,0.08,,,,1.99282329
1715066131012574098,0.083,,,,2.000517588
1715066131020268396,0.1,,,,2.008211886
1715066131027962694,0.07,,,,2.015906184
1715066131035656992,0.083,,,,2.023600482
1715066131043351290,0.08,,,,2.03129478
1715066131051045588,0.056,,,,2.038989078
1715066131058739886,0.063,,,,2.046683376
1715066131066434184,0.041,,,,2.054377674
1715066131074128482,0.061,,,,2.062071972
1715066131081822780,0.073,,,,2.06976627
1715066131089517078,0.029,,,,2.077460568
1715066131097211376,0.036,,,,2.085154866
1715066131104905674,0.036,,,,2.092849164
1715066131112599972,0.029,,,,2.100543462
1715066131120294270,0.041,,,,2.10823776
1715066131127988568,0.034,,,,2.115932058
1715066131135682866,0.058,,,,2.123626356
1715066131143377164,0.041,,,,2.131320654
1715066131151071462,0.004,,,,2.139014952
1715066131158765760,0.031,,,,2.14670925
1715066131166460058,0.041,,,,2.154403548
1715066131174154356,0.08,,,,2.162097846
1715066131181848654,0.119,,,,2.169792144
1715066131189542952,0.105,,,,2.177486442
1715066131197237250,0.105,,,,2.18518074
1715066131204931548,0.07,,,,2.192875038
1715066131212625846,0.066,,,,2.200569336
1715066131220320144,0.092,,,,2.208263634
1715066131228014442,0.068,,,,2.215957932
1715066131235708740,0.083,,,,2.22365223
1715066131243403038,0.085,,,,2.231346528
1715066131251097336,0.061,,,,2.239040826
1715066131258791670,0.031,96.0,644.0,,2.24673516
1715066131266485968,-0.107,,613.0,,2.254429458
1715066131274180266,-0.051,,,,2.262123756
1715066131281874564,0.591,,,,2.269818054
1715066131289568862,1.621,,,,2.277512352
1715066131297263160,2.09,,,,2.28520665
1715066131304957458,1.274,,,,2.292900948
1715066131312651756,0.122,,,,2.300595246
1715066131320346054,-0.158,,,,2.308289544
1715066131328040352,0.002,,,,2.315983842
1715066131335734650,-0.061,,,,2.32367814
1715066131343428948,-0.168,,,,2.331372438
1715066131351123246,-0.11,,,,2.339066736
1715066131358817544,-0.048,,,,2.346761034
1715066131366511842,-0.088,,,,2.354455332
1715066131374206140,-0.063,,,,2.36214963
1715066131381900438,-0.031,,,,2.369843928
1715066131389594736,-0.053,,,,2.377538226
1715066131397289034,-0.019,,,,2.385232524
1715066131404983332,-0.004,,,,2.392926822
1715066131412677630,0.0,,,,2.40062112
1715066131420371928,0.034,,,,2.408315418
1715066131428066226,0.026,,,,2.416009716
1715066131435760524,0.048,,,,2.423704014
1715066131443454822,0.058,,,,2.431398312
1715066131451149120,0.048,,,,2.43909261
1715066131458843418,0.073,,,,2.446786908
1715066131466537716,0.066,,,,2.454481206
1715066131474232014,0.083,,,,2.462175504
1715066131481926312,0.097,,,,2.469869802
1715066131489620610,0.078,,,,2.4775641
1715066131497314908,0.11,,,,2.485258398
1715066131505009206,0.097,,,,2.492952696
1715066131512703504,0.092,,,,2.500646994
1715066131520397802,0.119,,,,2.508341292
1715066131528092100,0.097,,,,2.51603559
1715066131535786398,0.095,,,,2.523729888
1715066131543480696,0.075,,,,2.531424186
1715066131551174994,0.036,,,,2.539118484
1715066131558869292,0.044,,,,2.546812782
1715066131566563590,0.022,,,,2.55450708
1715066131574257888,0.022,,,,2.562201378
1715066131581952186,0.034,,,,2.569895676
1715066131589646484,0.017,,,,2.577589974
1715066131597340782,0.036,,,,2.585284272
1715066131605035080,0.017,,,,2.59297857
1715066131612729378,0.009,,,,2.600672868
1715066131620423676,0.034,,,,2.608367166
1715066131628117974,0.004,,,,2.616061464
1715066131635812272,0.014,,,,2.623755762
1715066131643506570,0.022,,,,2.63145006
1715066131651200868,0.014,,,,2.639144358
1715066131658895166,0.041,,,,2.646838656
1715066131666589464,0.026,,,,2.654532954
1715066131674283762,0.031,,,,2.662227252
1715066131681978060,0.044,,,,2.66992155
1715066131689672358,0.024,,,,2.677615848
1715066131697366656,0.048,,,,2.685310146
1715066131705060954,0.041,,,,2.693004444
1715066131712755252,0.034,,,,2.700698742
1715066131720449550,0.056,,,,2.70839304
1715066131728143848,0.046,,,,2.716087338
1715066131735838146,0.061,,,,2.723781636
1715066131743532444,0.056,,,,2.731475934
1715066131751226742,0.051,,,,2.739170232
1715066131758921040,0.08,,,,2.74686453
1715066131766615338,0.056,,,,2.754558828
1715066131774309636,0.061,,,,2.762253126
1715066131782003934,0.078,,,,2.769947424
1715066131789698232,0.058,,,,2.777641722
1715066131797392530,0.073,,,,2.78533602
1715066131805086828,0.051,,,,2.793030318
1715066131812781126,0.053,,,,2.800724616
1715066131820475460,0.088,,,,2.80841895
1715066131828169758,0.063,,,,2.816113248
1715066131835864056,0.07,,,,2.823807546
1715066131843558354,0.075,,,,2.831501844
1715066131851252652,0.063,,,,2.839196142
1715066131858946950,0.078,,,,2.84689044
1715066131866641248,0.056,,,,2.854584738
1715066131874335546,0.073,,,,2.862279036
1715066131882029844,0.09,,,,2.869973334
1715066131889724142,0.061,,,,2.877667632
1715066131897418440,0.083,,,,2.88536193
1715066131905112738,0.08,,,,2.893056228
1715066131912807036,0.075,,,,2.900750526
1715066131920501334,0.09,,,,2.908444824
1715066131928195632,0.056,,,,2.916139122
1715066131935889930,0.053,,,,2.92383342
1715066131943584228,0.053,,,,2.931527718
1715066131951278526,0.07,,,,2.939222016
1715066131958972824,0.144,,,,2.946916314
1715066131966667122,0.151,,,,2.954610612
1715066131974361420,0.149,,,,2.96230491
1715066131982055718,0.136,,,,2.969999208
1715066131989750016,0.095,,,,2.977693506
1715066131997444314,0.112,,,,2.985387804
1715066132005138612,0.107,,,,2.993082102
1715066132012832910,0.102,,,,3.0007764
1715066132020527208,0.124,,,,3.008470698
1715066132028221506,0.097,,,,3.016164996
1715066132035915804,0.088,,,,3.023859294
1715066132043610102,-0.007,,,,3.031553592
1715066132051304400,-0.139,,,,3.03924789
1715066132058998698,0.085,,,,3.046942188
1715066132066692996,0.885,,,,3.054636486
1715066132074387294,1.834,,,,3.062330784
1715066132082081592,1.851,,,,3.070025082
1715066132089775890,0.76,,,,3.07771938
1715066132097470188,-0.088,,,,3.085413678
1715066132105164486,-0.083,,,,3.093107976
1715066132112858784,0.039,,,,3.100802274
1715066132120553082,-0.092,,,,3.108496572
1715066132128247380,-0.151,,,,3.11619087
1715066132135941678,-0.063,,,,3.123885168
1715066132143635976,-0.068,,,,3.131579466
1715066132151330274,-0.088,,,,3.139273764
1715066132159024572,-0.036,,,,3.146968062
1715066132166718870,-0.046,,,,3.15466236
1715066132174413168,-0.031,,,,3.162356658
1715066132182107466,-0.004,,,,3.170050956
1715066132189801764,-0.019,,,,3.177745254
1715066132197496062,0.004,,,,3.185439552
1715066132205190360,0.002,,,,3.19313385
1715066132212884658,0.007,,,,3.200828148
1715066132220578956,0.031,,,,3.208522446
1715066132228273254,0.012,,,,3.216216744
1715066132235967552,0.031,,,,3.223911042
1715066132243661850,0.044,,,,3.23160534
1715066132251356148,0.046,,,,3.239299638
1715066132259050446,0.083,,,,3.246993936
1715066132266744744,0.066,,,,3.254688234
1715066132274439042,0.068,,,,3.262382532
1715066132282133340,0.085,,,,3.27007683
1715066132289827638,0.066,,,,3.277771128
1715066132297521936,0.088,,,,3.285465426
1715066132305216234,0.085,,,,3.293159724
1715066132312910532,0.078,,,,3.300854022
1715066132320604830,0.078,,,,3.30854832
1715066132328299128,0.039,,,,3.316242618
1715066132335993426,0.041,,,,3.323936916
1715066132343687724,0.026,,,,3.331631214
1715066132351382022,0.004,,,,3.339325512
1715066132359076320,0.029,,,,3.34701981
1715066132366770618,0.012,,,,3.354714108
1715066132374464916,0.024,,,,3.362408406
1715066132382159248,0.046,96.0,656.0,,3.370102738
1715066132389853616,0.031,,,,3.377797106
1715066132397547984,0.046,,,,3.385491474
1715066132405242352,0.039,,,,3.393185842
1715066132412936720,0.046,,,,3.40088021
1715066132420631088,0.066,,,,3.408574578
1715066132428325456,0.034,,,,3.416268946
1715066132436019824,0.051,,,,3.423963314
1715066132443714192,0.058,,,,3.431657682
1715066132451408560,0.044,,,,3.43935205
1715066132459102928,0.068,,,,3.447046418
1715066132466797296,0.053,,,,3.454740786
1715066132474491664,0.063,,,,3.462435154
1715066132482186032,0.09,,,,3.470129522
1715066132489880400,0.07,,,,3.47782389
1715066132497574768,0.075,,,,3.485518258
1715066132505269136,0.066,,,,3.493212626
1715066132512963504,0.08,,,,3.500906994
1715066132520657872,0.092,,,,3.508601362
1715066132528352240,0.058,,,,3.51629573
1715066132536046608,0.078,,,,3.523990098
1715066132543740976,0.073,,,,3.531684466
1715066132551435344,0.048,,,,3.539378834
1715066132559129712,0.083,,,,3.547073202
1715066132566824080,0.078,,,,3.55476757
1715066132574518448,0.08,,,,3.562461938
1715066132582212816,0.09,,,,3.570156306
1715066132589907184,0.073,,,,3.577850674
1715066132597601552,0.092,,,,3.585545042
1715066132605295920,0.07,,,,3.59323941
1715066132612990288,0.061,,,,3.600933778
1715066132620684656,0.088,,,,3.608628146
1715066132628379024,0.063,,,,3.616322514
1715066132636073392,0.068,,,,3.624016882
1715066132643767760,0.075,,,,3.63171125
1715066132651462128,0.075,,,,3.639405618
1715066132659156496,0.105,,,,3.647099986
1715066132666850864,0.073,,,,3.654794354
1715066132674545232,0.053,,,,3.662488722
1715066132682239600,0.056,,,,3.67018309
1715066132689933968,0.046,,,,3.677877458
1715066132697628336,0.097,,,,3.685571826
1715066132705322704,0.122,,,,3.693266194
1715066132713017072,0.129,,,,3.700960562
1715066132720711440,0.127,,,,3.70865493
1715066132728405808,0.07,,,,3.716349298
1715066132736100176,0.075,,,,3.724043666
1715066132743794544,0.092,,,,3.731738034
1715066132751488912,0.09,,,,3.739432402
1715066132759183280,0.11,,,,3.74712677
1715066132766877648,0.088,,,,3.754821138
1715066132774572016,0.09,,,,3.762515506
1715066132782266384,0.068,,,,3.770209874
1715066132789960752,-0.051,,,,3.777904242
1715066132797655120,-0.112,,,,3.78559861
1715066132805349488,0.095,,,,3.793292978
1715066132813043856,0.811,,,,3.800987346
1715066132820738224,1.66,,,,3.808681714
1715066132828432592,1.592,,,,3.816376082
1715066132836126960,0.547,,,,3.82407045
1715066132843821328,-0.198,,,,3.831764818
1715066132851515696,-0.056,,,,3.839459186
1715066132859210064,0.088,,,,3.847153554
1715066132866904432,-0.114,,,,3.854847922
1715066132874598800,-0.11,,,,3.86254229
1715066132882293168,-0.009,,,,3.870236658
1715066132889987536,-0.061,,,,3.877931026
1715066132897681904,-0.041,,,,3.885625394
1715066132905376272,-0.012,,,,3.893319762
1715066132913070640,-0.026,,,,3.90101413
1715066132920765008,-0.009,,,,3.908708498
1715066132928459376,0.004,,,,3.916402866
1715066132936153744,0.034,,,,3.924097234
1715066132943848126,0.034,,,,3.931791616
1715066132951542494,0.039,,,,3.939485984
1715066132959236862,0.075,,,,3.947180352
1715066132966931230,0.066,,,,3.95487472
1715066132974625598,0.083,,,,3.962569088
1715066132982319966,0.11,,,,3.970263456
1715066132990014334,0.105,,,,3.977957824
1715066132997708702,0.134,,,,3.985652192
1715066133005403070,0.127,,,,3.99334656
1715066133013097438,0.127,,,,4.001040928
1715066133020791806,0.149,,,,4.008735296
1715066133028486174,0.119,,,,4.016429664
1715066133036180542,0.136,,,,4.024124032
1715066133043874910,0.146,,,,4.0318184
1715066133051569278,0.122,,,,4.039512768
1715066133059263646,0.11,,,,4.047207136
1715066133066958014,0.058,,,,4.054901504
1715066133074652382,0.044,,,,4.062595872
1715066133082346750,0.039,,,,4.07029024
1715066133090041118,0.0,,,,4.077984608
1715066133097735486,0.017,,,,4.085678976
1715066133105429854,0.004,,,,4.093373344
1715066133113124222,-0.014,,,,4.101067712
1715066133120818590,-0.009,,,,4.10876208
1715066133128512958,-0.017,,,,4.116456448
1715066133136207326,0.014,,,,4.124150816
1715066133143901694,0.009,,,,4.131845184
1715066133151596062,0.002,,,,4.139539552
1715066133159290430,0.041,,,,4.14723392
1715066133166984798,0.026,,,,4.154928288
1715066133174679166,0.036,,,,4.162622656
1715066133182373534,0.058,,,,4.170317024
1715066133190067902,0.046,,,,4.178011392
1715066133197762270,0.073,,,,4.18570576
1715066133205456638,0.066,,,,4.193400128
1715066133213151006,0.063,,,,4.201094496
1715066133220845374,0.088,,,,4.208788864
1715066133228539742,0.066,,,,4.216483232
1715066133236234110,0.073,,,,4.2241776
1715066133243928478,0.068,,,,4.231871968
1715066133251622846,0.066,,,,4.239566336
1715066133259317214,0.102,,,,4.247260704
1715066133267011582,0.085,,,,4.254955072
1715066133274705950,0.08,,,,4.26264944
1715066133282400318,0.08,,,,4.270343808
1715066133290094686,0.063,,,,4.278038176
1715066133297789054,0.083,,,,4.285732544
1715066133305483422,0.061,,,,4.293426912
1715066133313177790,0.061,,,,4.30112128
1715066133320872158,0.088,,,,4.308815648
1715066133328566526,0.056,,,,4.316510016
1715066133336260894,0.063,,,,4.324204384
1715066133343955262,0.068,,,,4.331898752
1715066133351649630,0.044,,,,4.33959312
1715066133359343998,0.039,,,,4.347287488
1715066133367038366,0.024,,,,4.354981856
1715066133374732734,0.073,,,,4.362676224
1715066133382427102,0.122,,,,4.370370592
1715066133390121470,0.122,,,,4.37806496
1715066133397815838,0.132,,,,4.385759328
1715066133405510206,0.092,,,,4.393453696
1715066133413204574,0.075,,,,4.401148064
1715066133420898942,0.105,,,,4.408842432
1715066133428593310,0.092,,,,4.4165368
1715066133436287678,0.112,,,,4.424231168
1715066133443982046,0.102,,,,4.431925536
1715066133451676414,0.08,,,,4.439619904
1715066133459370782,0.095,,,,4.447314272
1715066133467065150,0.009,,,,4.45500864
1715066133474759518,-0.122,,,,4.462703008
1715066133482453886,-0.063,,,,4.470397376
1715066133490148254,0.5740000000000001,,,,4.478091744
1715066133497842622,1.682,,,,4.485786112
1715066133505537002,2.12,96.0,729.0,,4.493480492
1715066133513231161,1.278,,,,4.501174651
1715066133520925320,0.127,,,,4.50886881
1715066133528619479,-0.198,,,,4.516562969
1715066133536313638,0.012,,,,4.524257128
1715066133544007797,-0.068,,,,4.531951287
1715066133551701956,-0.195,,,,4.539645446
1715066133559396115,-0.097,,,,4.547339605
1715066133567090274,-0.107,,,,4.555033764
1715066133574784433,-0.139,,,,4.562727923
1715066133582478592,-0.092,,,,4.570422082
1715066133590172751,-0.083,,,,4.578116241
1715066133597866910,-0.068,,,,4.5858104
1715066133605561069,-0.073,,,,4.593504559
1715066133613255228,-0.07,,,,4.601198718
1715066133620949387,-0.061,,,,4.608892877
1715066133628643546,-0.068,,,,4.616587036
1715066133636337705,-0.026,,,,4.624281195
1715066133644031864,-0.022,,,,4.631975354
1715066133651726023,-0.036,,,,4.639669513
1715066133659420182,0.002,,,,4.647363672
1715066133667114341,0.0,,,,4.655057831
1715066133674808500,0.019,,,,4.66275199
1715066133682502659,0.041,,,,4.670446149
1715066133690196818,0.026,,,,4.678140308
1715066133697890977,0.058,,,,4.685834467
1715066133705585136,0.058,,,,4.693528626
1715066133713279295,0.058,,,,4.701222785
1715066133720973454,0.078,,,,4.708916944
1715066133728667613,0.07,,,,4.716611103
1715066133736361772,0.1,,,,4.724305262
1715066133744055931,0.075,,,,4.731999421
1715066133751750090,0.026,,,,4.73969358
1715066133759444249,0.036,,,,4.747387739
1715066133767138408,0.007,,,,4.755081898
1715066133774832567,0.002,,,,4.762776057
1715066133782526726,0.007,,,,4.770470216
1715066133790220885,-0.004,,,,4.778164375
1715066133797915044,0.026,,,,4.785858534
1715066133805609203,0.024,,,,4.793552693
1715066133813303362,0.026,,,,4.801246852
1715066133820997521,0.051,,,,4.808941011
1715066133828691680,0.026,,,,4.81663517
1715066133836385839,0.041,,,,4.824329329
1715066133844079998,0.051,,,,4.832023488
1715066133851774157,0.046,,,,4.839717647
1715066133859468316,0.068,,,,4.847411806
1715066133867162475,0.051,,,,4.855105965
1715066133874856634,0.068,,,,4.862800124
1715066133882550793,0.083,,,,4.870494283
1715066133890244952,0.058,,,,4.878188442
1715066133897939111,0.083,,,,4.885882601
1715066133905633270,0.08,,,,4.89357676
1715066133913327429,0.088,,,,4.901270919
1715066133921021588,0.107,,,,4.908965078
1715066133928715747,0.075,,,,4.916659237
1715066133936409906,0.095,,,,4.924353396
1715066133944104065,0.107,,,,4.932047555
1715066133951798224,0.085,,,,4.939741714
1715066133959492383,0.092,,,,4.947435873
1715066133967186542,0.073,,,,4.955130032
1715066133974880701,0.088,,,,4.962824191
1715066133982574860,0.092,,,,4.97051835
1715066133990269019,0.066,,,,4.978212509
1715066133997963178,0.092,,,,4.985906668
1715066134005657337,0.075,,,,4.993600827
1715066134013351496,0.039,,,,5.001294986
1715066134021045655,0.031,,,,5.008989145
1715066134028739814,0.012,,,,5.016683304
1715066134036433973,0.058,,,,5.024377463
1715066134044128132,0.1,,,,5.032071622
1715066134051822291,0.114,,,,5.039765781
1715066134059516450,0.127,,,,5.04745994
1715066134067210620,0.078,,,,5.05515411
1715066134074905197,0.08,,,,5.062848687
1715066134082599774,0.1,,,,5.070543264
1715066134090294351,0.08,,,,5.078237841
1715066134097988928,0.107,,,,5.085932418
1715066134105683505,0.092,,,,5.093626995
1715066134113378082,0.068,,,,5.101321572
1715066134121072659,0.063,,,,5.109016149
1715066134128767236,0.017,,,,5.116710726
1715066134136461813,-0.066,,,,5.124405303
1715066134144156390,-0.185,,,,5.13209988
1715066134151850967,0.041,,,,5.139794457
1715066134159545544,0.951,,,,5.147489034
1715066134167240121,1.897,,,,5.155183611
1715066134174934698,1.846,,,,5.162878188
1715066134182629275,0.723,,,,5.170572765
1715066134190323852,-0.168,,,,5.178267342
1715066134198018429,-0.112,,,,5.185961919
1715066134205713006,-0.014,,,,5.193656496
1715066134213407583,-0.18,,,,5.201351073
1715066134221102160,-0.171,,,,5.20904565
1715066134228796737,-0.11,,,,5.216740227
1715066134236491314,-0.119,,,,5.224434804
1715066134244185891,-0.127,,,,5.232129381
1715066134251880468,-0.09,,,,5.239823958
1715066134259575045,-0.063,,,,5.247518535
1715066134267269622,-0.09,,,,5.255213112
1715066134274964199,-0.048,,,,5.262907689
1715066134282658776,-0.022,,,,5.270602266
1715066134290353353,-0.048,,,,5.278296843
1715066134298047930,-0.017,,,,5.28599142
1715066134305742507,-0.009,,,,5.293685997
1715066134313437084,-0.007,,,,5.301380574
1715066134321131661,0.019,,,,5.309075151
1715066134328826238,0.014,,,,5.316769728
1715066134336520815,0.046,,,,5.324464305
1715066134344215392,0.051,,,,5.332158882
1715066134351909969,0.044,,,,5.339853459
1715066134359604546,0.08,,,,5.347548036
1715066134367299123,0.07,,,,5.355242613
1715066134374993700,0.078,,,,5.36293719
1715066134382688277,0.09,,,,5.370631767
1715066134390382854,0.088,,,,5.378326344
1715066134398077431,0.114,,,,5.386020921
1715066134405772008,0.085,,,,5.393715498
1715066134413466585,0.061,,,,5.401410075
1715066134421161162,0.063,,,,5.409104652
1715066134428855739,0.022,,,,5.416799229
1715066134436550316,0.029,,,,5.424493806
1715066134444244893,0.022,,,,5.432188383
1715066134451939470,0.009,,,,5.43988296
1715066134459634047,0.041,,,,5.447577537
1715066134467328624,0.022,,,,5.455272114
1715066134475023201,0.031,,,,5.462966691
1715066134482717778,0.041,,,,5.470661268
1715066134490412355,0.031,,,,5.478355845
1715066134498106932,0.061,,,,5.486050422
1715066134505801509,0.036,,,,5.493744999
1715066134513496086,0.034,,,,5.501439576
1715066134521190663,0.061,,,,5.509134153
1715066134528885240,0.039,,,,5.51682873
1715066134536579817,0.061,,,,5.524523307
1715066134544274394,0.073,,,,5.532217884
1715066134551968971,0.061,,,,5.539912461
1715066134559663548,0.075,,,,5.547607038
1715066134567358125,0.058,,,,5.555301615
1715066134575052702,0.07,,,,5.562996192
1715066134582747279,0.078,,,,5.570690769
1715066134590441856,0.061,,,,5.578385346
1715066134598136433,0.092,,,,5.586079923
1715066134605831010,0.083,,,,5.5937745
1715066134613525587,0.075,,,,5.601469077
1715066134621220164,0.078,,,,5.609163654
1715066134628914754,0.046,92.0,782.0,,5.616858244
1715066134636609122,0.075,,746.0,,5.624552612
1715066134644303490,0.078,,,,5.63224698
1715066134651997858,0.056,,,,5.639941348
1715066134659692226,0.08,,,,5.647635716
1715066134667386594,0.07,,,,5.655330084
1715066134675080962,0.07,,,,5.663024452
1715066134682775330,0.056,,,,5.67071882
1715066134690469698,0.024,,,,5.678413188
1715066134698164066,0.046,,,,5.686107556
1715066134705858434,0.019,,,,5.693801924
1715066134713552802,-0.002,,,,5.701496292
1715066134721247170,0.019,,,,5.70919066
1715066134728941538,0.034,,,,5.716885028
1715066134736635906,0.1,,,,5.724579396
1715066134744330274,0.107,,,,5.732273764
1715066134752024642,0.058,,,,5.739968132
1715066134759719010,0.053,,,,5.7476625
1715066134767413378,0.044,,,,5.755356868
1715066134775107746,0.068,,,,5.763051236
1715066134782802114,0.07,,,,5.770745604
1715066134790496482,0.046,,,,5.778439972
1715066134798190850,0.07,,,,5.78613434
1715066134805885218,0.056,,,,5.793828708
1715066134813579586,0.058,,,,5.801523076
1715066134821273954,0.046,,,,5.809217444
1715066134828968322,-0.095,,,,5.816911812
1715066134836662690,-0.105,,,,5.82460618
1715066134844357058,0.357,,,,5.832300548
1715066134852051426,1.315,,,,5.839994916
1715066134859745794,1.949,,,,5.847689284
1715066134867440162,1.33,,,,5.855383652
1715066134875134530,0.212,,,,5.86307802
1715066134882828898,-0.168,,,,5.870772388
1715066134890523266,-0.014,,,,5.878466756
1715066134898217634,-0.036,,,,5.886161124
1715066134905912002,-0.171,,,,5.893855492
1715066134913606370,-0.112,,,,5.90154986
1715066134921300738,-0.063,,,,5.909244228
1715066134928995106,-0.112,,,,5.916938596
1715066134936689474,-0.066,,,,5.924632964
1715066134944383842,-0.044,,,,5.932327332
1715066134952078210,-0.066,,,,5.9400217
1715066134959772578,-0.031,,,,5.947716068
1715066134967466946,-0.026,,,,5.955410436
1715066134975161314,-0.009,,,,5.963104804
1715066134982855682,0.004,,,,5.970799172
1715066134990550050,-0.004,,,,5.97849354
1715066134998244418,0.024,,,,5.986187908
1715066135005938786,0.014,,,,5.993882276
1715066135013633154,0.017,,,,6.001576644
1715066135021327522,0.051,,,,6.009271012
1715066135029021890,0.048,,,,6.01696538
1715066135036716258,0.07,,,,6.024659748
1715066135044410626,0.068,,,,6.032354116
1715066135052104994,0.066,,,,6.040048484
1715066135059799362,0.097,,,,6.047742852
1715066135067493730,0.075,,,,6.05543722
1715066135075188098,0.092,,,,6.063131588
1715066135082882466,0.117,,,,6.070825956
1715066135090576834,0.095,,,,6.078520324
1715066135098271202,0.095,,,,6.086214692
1715066135105965570,0.056,,,,6.09390906
1715066135113659938,0.048,,,,6.101603428
1715066135121354306,0.046,,,,6.109297796
1715066135129048674,-0.014,,,,6.116992164
1715066135136743042,-0.007,,,,6.124686532
1715066135144437410,0.004,,,,6.1323809
1715066135152131778,-0.004,,,,6.140075268
1715066135159826146,0.022,,,,6.147769636
1715066135167520514,0.007,,,,6.155464004
1715066135175214882,0.019,,,,6.163158372
1715066135182909250,0.036,,,,6.17085274
1715066135190603630,0.029,90.0,681.0,,6.17854712
1715066135198297580,0.051,,,,6.18624107
1715066135205991530,0.044,,,,6.19393502
1715066135213685480,0.046,,,,6.20162897
1715066135221379430,0.044,,,,6.20932292
1715066135229073380,0.014,,,,6.21701687
1715066135236767330,0.046,,,,6.22471082
1715066135244461280,0.041,,,,6.23240477
1715066135252155230,0.024,,,,6.24009872
1715066135259849180,0.048,,,,6.24779267
1715066135267543130,0.029,,,,6.25548662
1715066135275237080,0.044,,,,6.26318057
1715066135282931030,0.056,,,,6.27087452
1715066135290624980,0.039,,,,6.27856847
1715066135298318930,0.07,,,,6.28626242
1715066135306012880,0.051,,,,6.29395637
1715066135313706830,0.044,,,,6.30165032
1715066135321400780,0.07,,,,6.30934427
1715066135329094730,0.058,,,,6.31703822
1715066135336788680,0.07,,,,6.32473217
1715066135344482630,0.066,,,,6.33242612
1715066135352176580,0.046,,,,6.34012007
1715066135359870530,0.048,,,,6.34781402
1715066135367564480,0.019,,,,6.35550797
1715066135375258430,0.046,,,,6.36320192
1715066135382952380,0.088,,,,6.37089587
1715066135390646330,0.117,,,,6.37858982
1715066135398340280,0.149,,,,6.38628377
1715066135406034230,0.092,,,,6.39397772
1715066135413728180,0.068,,,,6.40167167
1715066135421422130,0.102,,,,6.40936562
1715066135429116080,0.088,,,,6.41705957
1715066135436810030,0.102,,,,6.42475352
1715066135444503980,0.1,,,,6.43244747
1715066135452197930,0.085,,,,6.44014142
1715066135459891880,0.097,,,,6.44783537
1715066135467585830,0.073,,,,6.45552932
1715066135475279780,0.036,,,,6.46322327
1715066135482973730,-0.08,,,,6.47091722
1715066135490667680,-0.066,,,,6.47861117
1715066135498361630,0.528,,,,6.48630512
1715066135506055580,1.479,,,,6.49399907
1715066135513749530,1.863,,,,6.50169302
1715066135521443480,1.071,,,,6.50938697
1715066135529137430,0.031,,,,6.51708092
1715066135536831380,-0.11,,,,6.52477487
1715066135544525330,0.068,,,,6.53246882
1715066135552219280,-0.051,,,,6.54016277
1715066135559913230,-0.107,,,,6.54785672
1715066135567607180,-0.048,,,,6.55555067
1715066135575301130,-0.026,,,,6.56324462
1715066135582995080,-0.051,,,,6.57093857
1715066135590689030,-0.048,,,,6.57863252
1715066135598382980,0.0,,,,6.58632647
1715066135606076930,-0.009,,,,6.59402042
1715066135613770880,-0.004,,,,6.60171437
1715066135621464830,0.017,,,,6.60940832
1715066135629158780,-0.017,,,,6.61710227
1715066135636852730,-0.014,,,,6.62479622
1715066135644546680,-0.012,,,,6.63249017
1715066135652240630,-0.002,,,,6.64018412
1715066135659934580,0.036,,,,6.64787807
1715066135667628530,0.026,,,,6.65557202
1715066135675322480,0.039,,,,6.66326597
1715066135683016430,0.051,,,,6.67095992
1715066135690710380,0.048,,,,6.67865387
1715066135698404330,0.088,,,,6.68634782
1715066135706098280,0.078,,,,6.69404177
1715066135713792230,0.075,,,,6.70173572
1715066135721486180,0.092,,,,6.70942967
1715066135729180130,0.078,,,,6.71712362
1715066135736874080,0.102,,,,6.72481757
1715066135744568030,0.08,,,,6.73251152
1715066135752261990,0.039,,,,6.74020548
1715066135759956358,0.034,,,,6.747899848
1715066135767650726,-0.012,,,,6.755594216
1715066135775345094,-0.012,,,,6.763288584
1715066135783039462,-0.007,,,,6.770982952
1715066135790733830,-0.039,,,,6.77867732
1715066135798428198,-0.031,,,,6.786371688
1715066135806122566,-0.034,,,,6.794066056
1715066135813816934,-0.019,,,,6.801760424
1715066135821511302,-0.004,,,,6.809454792
1715066135829205670,-0.026,,,,6.81714916
1715066135836900038,0.012,,,,6.824843528
1715066135844594406,0.024,,,,6.832537896
1715066135852288774,0.014,,,,6.840232264
1715066135859983142,0.036,,,,6.847926632
1715066135867677510,0.019,,,,6.855621
1715066135875371878,0.039,,,,6.863315368
1715066135883066246,0.046,,,,6.871009736
1715066135890760614,0.029,,,,6.878704104
1715066135898454982,0.068,,,,6.886398472
1715066135906149350,0.051,,,,6.89409284
1715066135913843718,0.036,,,,6.901787208
1715066135921538086,0.056,,,,6.909481576
1715066135929232454,0.048,,,,6.917175944
1715066135936926822,0.075,,,,6.924870312
1715066135944621190,0.063,,,,6.93256468
1715066135952315558,0.044,,,,6.940259048
1715066135960009926,0.066,,,,6.947953416
1715066135967704294,0.046,,,,6.955647784
1715066135975398662,0.039,,,,6.963342152
1715066135983093030,0.026,,,,6.97103652
1715066135990787398,0.017,,,,6.978730888
1715066135998481766,0.075,,,,6.986425256
1715066136006176134,0.09,,,,6.994119624
1715066136013870502,0.09,,,,7.001813992
1715066136021564870,0.088,,,,7.00950836
1715066136029259238,0.063,,,,7.017202728
1715066136036953606,0.09,,,,7.024897096
1715066136044647974,0.083,,,,7.032591464
1715066136052342342,0.078,,,,7.040285832
1715066136060036710,0.11,,,,7.0479802
1715066136067731078,0.083,,,,7.055674568
1715066136075425446,0.09,,,,7.063368936
1715066136083119814,0.102,,,,7.071063304
1715066136090814182,0.024,,,,7.078757672
1715066136098508550,-0.073,,,,7.08645204
1715066136106202918,-0.002,,,,7.094146408
1715066136113897286,0.586,,,,7.101840776
1715066136121591654,1.486,,,,7.109535144
1715066136129286022,1.724,,,,7.117229512
1715066136136980390,0.853,,,,7.12492388
1715066136144674758,-0.095,,,,7.132618248
1715066136152369126,-0.107,,,,7.140312616
1715066136160063494,0.122,,,,7.148006984
1715066136167757862,-0.041,,,,7.155701352
1715066136175452230,-0.092,,,,7.16339572
1715066136183146598,-0.004,,,,7.171090088
1715066136190840966,-0.031,,,,7.178784456
1715066136198535334,-0.026,,,,7.186478824
1715066136206229702,-0.009,,,,7.194173192
1715066136213924070,-0.002,,,,7.20186756
1715066136221618438,0.007,,,,7.209561928
1715066136229312806,-0.002,,,,7.217256296
1715066136237007174,0.017,,,,7.224950664
1715066136244701542,0.014,,,,7.232645032
1715066136252395910,0.034,,,,7.2403394
1715066136260090278,0.073,,,,7.248033768
1715066136267784646,0.041,,,,7.255728136
1715066136275479014,0.061,,,,7.263422504
1715066136283173382,0.1,,,,7.271116872
1715066136290867750,0.095,,,,7.27881124
1715066136298562118,0.114,,,,7.286505608
1715066136306256486,0.11,,,,7.294199976
1715066136313950866,0.129,89.0,666.0,,7.301894356
1715066136321645234,0.141,,689.0,,7.309588724
1715066136329339602,0.11,,,,7.317283092
1715066136337033970,0.141,,,,7.32497746
1715066136344728338,0.151,,,,7.332671828
1715066136352422706,0.136,,,,7.340366196
1715066136360117074,0.132,,,,7.348060564
1715066136367811442,0.068,,,,7.355754932
1715066136375505810,0.048,,,,7.3634493
1715066136383200178,0.026,,,,7.371143668
1715066136390894546,-0.019,,,,7.378838036
1715066136398588914,-0.007,,,,7.386532404
1715066136406283282,-0.024,,,,7.394226772
1715066136413977650,-0.026,,,,7.40192114
1715066136421672018,-0.009,,,,7.409615508
1715066136429366386,-0.024,,,,7.417309876
1715066136437060754,0.004,,,,7.425004244
1715066136444755122,0.014,,,,7.432698612
1715066136452449490,0.012,,,,7.44039298
1715066136460143858,0.034,,,,7.448087348
1715066136467838226,0.009,,,,7.455781716
1715066136475532594,0.022,,,,7.463476084
1715066136483226962,0.029,,,,7.471170452
1715066136490921330,0.014,,,,7.47886482
1715066136498615698,0.051,,,,7.486559188
1715066136506310066,0.036,,,,7.494253556
1715066136514004434,0.031,,,,7.501947924
1715066136521698802,0.058,,,,7.509642292
1715066136529393170,0.046,,,,7.51733666
1715066136537087538,0.058,,,,7.525031028
1715066136544781906,0.051,,,,7.532725396
1715066136552476274,0.046,,,,7.540419764
1715066136560170642,0.07,,,,7.548114132
1715066136567865010,0.046,,,,7.5558085
1715066136575559378,0.066,,,,7.563502868
1715066136583253746,0.073,,,,7.571197236
1715066136590948114,0.046,,,,7.578891604
1715066136598642482,0.051,,,,7.586585972
1715066136606336850,0.022,,,,7.59428034
1715066136614031218,0.026,,,,7.601974708
1715066136621725586,0.075,,,,7.609669076
1715066136629419954,0.1,,,,7.617363444
1715066136637114322,0.127,,,,7.625057812
1715066136644808690,0.085,,,,7.63275218
1715066136652503058,0.048,,,,7.640446548
1715066136660197426,0.073,,,,7.648140916
1715066136667891794,0.068,,,,7.655835284
1715066136675586162,0.088,,,,7.663529652
1715066136683280530,0.088,,,,7.67122402
1715066136690974898,0.07,,,,7.678918388
1715066136698669266,0.1,,,,7.686612756
1715066136706363634,0.083,,,,7.694307124
1715066136714058002,0.036,,,,7.702001492
1715066136721752370,-0.073,,,,7.70969586
1715066136729446738,-0.095,,,,7.717390228
1715066136737141106,0.447,,,,7.725084596
1715066136744835474,1.445,,,,7.732778964
1715066136752529842,1.993,,,,7.740473332
1715066136760224210,1.332,,,,7.7481677
1715066136767918578,0.18,,,,7.755862068
1715066136775612946,-0.132,,,,7.763556436
1715066136783307314,0.063,,,,7.771250804
1715066136791001682,-0.024,,,,7.778945172
1715066136798696050,-0.122,,,,7.78663954
1715066136806390418,-0.068,,,,7.794333908
1715066136814084786,-0.041,,,,7.802028276
1715066136821779154,-0.053,,,,7.809722644
1715066136829473522,-0.051,,,,7.817417012
1715066136837167890,-0.012,,,,7.82511138
1715066136844862258,-0.019,,,,7.832805748
1715066136852556626,-0.007,,,,7.840500116
1715066136860250994,0.036,,,,7.848194484
1715066136867945362,0.014,,,,7.855888852
1715066136875639742,0.026,,,,7.863583232
1715066136883334319,0.044,,,,7.871277809
1715066136891028896,0.036,,,,7.878972386
1715066136898723473,0.058,,,,7.886666963
1715066136906418050,0.048,,,,7.89436154
1715066136914112627,0.068,,,,7.902056117
1715066136921807204,0.09,,,,7.909750694
1715066136929501781,0.053,,,,7.917445271
1715066136937196358,0.07,,,,7.925139848
1715066136944890935,0.078,,,,7.932834425
1715066136952585512,0.073,,,,7.940529002
1715066136960280089,0.097,,,,7.948223579
1715066136967974666,0.083,,,,7.955918156
1715066136975669243,0.09,,,,7.963612733
1715066136983363820,0.085,,,,7.97130731
1715066136991058397,0.053,,,,7.979001887
1715066136998752974,0.056,,,,7.986696464
1715066137006447551,0.024,,,,7.994391041
1715066137014142128,0.014,,,,8.002085618
1715066137021836705,0.014,,,,8.009780195
1715066137029531282,-0.009,,,,8.017474772
1715066137037225859,0.024,,,,8.025169349
1715066137044920436,0.019,,,,8.032863926
1715066137052615013,0.004,,,,8.040558503
1715066137060309590,0.029,,,,8.04825308
1715066137068004167,0.012,,,,8.055947657
1715066137075698744,0.019,,,,8.063642234
1715066137083393321,0.022,,,,8.071336811
1715066137091087898,0.009,,,,8.079031388
1715066137098782475,0.041,,,,8.086725965
1715066137106477052,0.024,,,,8.094420542
1715066137114171629,0.024,,,,8.102115119
1715066137121866206,0.044,,,,8.109809696
1715066137129560783,0.029,,,,8.117504273
1715066137137255360,0.048,,,,8.12519885
1715066137144949937,0.036,,,,8.132893427
1715066137152644514,0.014,,,,8.140588004
1715066137160339091,0.034,,,,8.148282581
1715066137168033668,0.014,,,,8.155977158
1715066137175728245,0.034,,,,8.163671735
1715066137183422822,0.048,,,,8.171366312
1715066137191117399,0.031,,,,8.179060889
1715066137198811976,0.051,,,,8.186755466
1715066137206506553,0.024,,,,8.194450043
1715066137214201130,0.012,,,,8.20214462
1715066137221895707,0.017,,,,8.209839197
1715066137229590284,-0.012,,,,8.217533774
1715066137237284861,0.009,,,,8.225228351
1715066137244979438,0.026,,,,8.232922928
1715066137252674015,0.061,,,,8.240617505
1715066137260368592,0.107,,,,8.248312082
1715066137268063169,0.066,,,,8.256006659
1715066137275757746,0.061,,,,8.263701236
1715066137283452323,0.073,,,,8.271395813
1715066137291146900,0.063,,,,8.27909039
1715066137298841477,0.085,,,,8.286784967
1715066137306536054,0.07,,,,8.294479544
1715066137314230631,0.083,,,,8.302174121
1715066137321925208,0.095,,,,8.309868698
1715066137329619785,0.07,,,,8.317563275
1715066137337314362,0.066,,,,8.325257852
1715066137345008939,-0.053,,,,8.332952429
1715066137352703516,-0.112,,,,8.340647006
1715066137360398093,0.337,,,,8.348341583
1715066137368092670,1.305,,,,8.35603616
1715066137375787247,2.017,,,,8.363730737
1715066137383481824,1.503,,,,8.371425314
1715066137391176401,0.337,,,,8.379119891
1715066137398870978,-0.11,,,,8.386814468
1715066137406565555,0.036,,,,8.394509045
1715066137414260132,0.014,,,,8.402203622
1715066137421954709,-0.11,,,,8.409898199
1715066137429649286,-0.078,,,,8.417592776
1715066137437343878,-0.014,89.0,652.0,,8.425287368
1715066137445038037,-0.058,,614.0,,8.432981527
1715066137452732196,-0.044,,,,8.440675686
1715066137460426355,0.004,,,,8.448369845
1715066137468120514,-0.036,,,,8.456064004
1715066137475814673,-0.017,,,,8.463758163
1715066137483508832,0.014,,,,8.471452322
1715066137491202991,0.0,,,,8.479146481
1715066137498897150,0.022,,,,8.48684064
1715066137506591309,0.007,,,,8.494534799
1715066137514285468,0.019,,,,8.502228958
1715066137521979627,0.046,,,,8.509923117
1715066137529673786,0.034,,,,8.517617276
1715066137537367945,0.07,,,,8.525311435
1715066137545062104,0.075,,,,8.533005594
1715066137552756263,0.068,,,,8.540699753
1715066137560450422,0.09,,,,8.548393912
1715066137568144581,0.075,,,,8.556088071
1715066137575838740,0.095,,,,8.56378223
1715066137583532899,0.097,,,,8.571476389
1715066137591227058,0.085,,,,8.579170548
1715066137598921217,0.117,,,,8.586864707
1715066137606615376,0.1,,,,8.594558866
1715066137614309535,0.078,,,,8.602253025
1715066137622003694,0.058,,,,8.609947184
1715066137629697853,0.012,,,,8.617641343
1715066137637392012,0.029,,,,8.625335502
1715066137645086171,0.024,,,,8.633029661
1715066137652780330,0.007,,,,8.64072382
1715066137660474489,0.014,,,,8.648417979
1715066137668168648,-0.012,,,,8.656112138
1715066137675862807,0.012,,,,8.663806297
1715066137683556966,0.024,,,,8.671500456
1715066137691251125,0.009,,,,8.679194615
1715066137698945284,0.041,,,,8.686888774
1715066137706639443,0.017,,,,8.694582933
1715066137714333602,0.009,,,,8.702277092
1715066137722027761,0.026,,,,8.709971251
1715066137729721920,0.012,,,,8.71766541
1715066137737416079,0.029,,,,8.725359569
1715066137745110238,0.012,,,,8.733053728
1715066137752804397,0.007,,,,8.740747887
1715066137760498556,0.029,,,,8.748442046
1715066137768192715,0.0,,,,8.756136205
1715066137775886874,0.022,,,,8.763830364
1715066137783581033,0.034,,,,8.771524523
1715066137791275192,0.012,,,,8.779218682
1715066137798969351,0.036,,,,8.786912841
1715066137806663510,0.029,,,,8.794607
1715066137814357669,0.039,,,,8.802301159
1715066137822051828,0.048,,,,8.809995318
1715066137829745987,0.024,,,,8.817689477
1715066137837440146,0.058,,,,8.825383636
1715066137845134305,0.056,,,,8.833077795
1715066137852828464,0.039,,,,8.840771954
1715066137860522623,0.056,,,,8.848466113
1715066137868216782,0.034,,,,8.856160272
1715066137875910941,0.039,,,,8.863854431
1715066137883605100,0.031,,,,8.87154859
1715066137891299259,0.009,,,,8.879242749
1715066137898993418,0.048,,,,8.886936908
1715066137906687577,0.08,,,,8.894631067
1715066137914381736,0.124,,,,8.902325226
1715066137922075895,0.124,,,,8.910019385
1715066137929770054,0.068,,,,8.917713544
1715066137937464213,0.085,,,,8.925407703
1715066137945158372,0.085,,,,8.933101862
1715066137952852531,0.07,,,,8.940796021
1715066137960546690,0.09,,,,8.94849018
1715066137968240849,0.073,,,,8.956184339
1715066137975935008,0.09,,,,8.963878498
1715066137983629167,0.092,,,,8.971572657
1715066137991323326,0.058,,,,8.979266816
1715066137999017494,-0.004,,,,8.986960984
1715066138006711862,-0.124,,,,8.994655352
1715066138014406230,0.102,,,,9.00234972
1715066138022100598,0.951,,,,9.010044088
1715066138029794966,1.853,,,,9.017738456
1715066138037489334,1.812,,,,9.025432824
1715066138045183702,0.714,,,,9.033127192
1715066138052878070,-0.102,,,,9.04082156
1715066138060572438,-0.039,,,,9.048515928
1715066138068266806,0.031,,,,9.056210296
1715066138075961174,-0.105,,,,9.063904664
1715066138083655542,-0.114,,,,9.071599032
1715066138091349910,-0.058,,,,9.0792934
1715066138099044278,-0.046,,,,9.086987768
1715066138106738646,-0.066,,,,9.094682136
1715066138114433014,-0.022,,,,9.102376504
1715066138122127382,0.0,,,,9.110070872
1715066138129821750,-0.034,,,,9.11776524
1715066138137516118,0.004,,,,9.125459608
1715066138145210486,0.022,,,,9.133153976
1715066138152904854,0.017,,,,9.140848344
1715066138160599222,0.029,,,,9.148542712
1715066138168293590,0.009,,,,9.15623708
1715066138175987958,0.039,,,,9.163931448
1715066138183682326,0.056,,,,9.171625816
1715066138191376694,0.048,,,,9.179320184
1715066138199071062,0.073,,,,9.187014552
1715066138206765430,0.066,,,,9.19470892
1715066138214459798,0.08,,,,9.202403288
1715066138222154166,0.095,,,,9.210097656
1715066138229848534,0.083,,,,9.217792024
1715066138237542902,0.122,,,,9.225486392
1715066138245237270,0.107,,,,9.23318076
1715066138252931638,0.085,,,,9.240875128
1715066138260626006,0.11,,,,9.248569496
1715066138268320374,0.078,,,,9.256263864
1715066138276014742,0.063,,,,9.263958232
1715066138283709110,0.036,,,,9.2716526
1715066138291403478,0.009,,,,9.279346968
1715066138299097846,0.036,,,,9.287041336
1715066138306792214,0.012,,,,9.294735704
1715066138314486582,0.004,,,,9.302430072
1715066138322180950,0.024,,,,9.31012444
1715066138329875318,0.012,,,,9.317818808
1715066138337569686,0.031,,,,9.325513176
1715066138345264054,0.026,,,,9.333207544
1715066138352958422,0.026,,,,9.340901912
1715066138360652790,0.051,,,,9.34859628
1715066138368347158,0.034,,,,9.356290648
1715066138376041526,0.053,,,,9.363985016
1715066138383735894,0.063,,,,9.371679384
1715066138391430262,0.046,,,,9.379373752
1715066138399124630,0.063,,,,9.38706812
1715066138406818998,0.039,,,,9.394762488
1715066138414513366,0.048,,,,9.402456856
1715066138422207734,0.066,,,,9.410151224
1715066138429902102,0.034,,,,9.417845592
1715066138437596470,0.051,,,,9.42553996
1715066138445290838,0.034,,,,9.433234328
1715066138452985206,0.014,,,,9.440928696
1715066138460679574,0.039,,,,9.448623064
1715066138468373942,0.026,,,,9.456317432
1715066138476068310,0.044,,,,9.4640118
1715066138483762678,0.046,,,,9.471706168
1715066138491457046,0.029,,,,9.479400536
1715066138499151414,0.051,,,,9.487094904
1715066138506845782,0.036,,,,9.494789272
1715066138514540150,0.046,,,,9.50248364
1715066138522234518,0.056,,,,9.510178008
1715066138529928886,0.029,,,,9.517872376
1715066138537623254,0.039,,,,9.525566744
1715066138545317622,0.017,,,,9.533261112
1715066138553011990,0.009,,,,9.54095548
1715066138560706370,0.039,90.0,625.0,,9.54864986
1715066138568400320,0.036,,,,9.55634381
1715066138576094270,0.095,,,,9.56403776
1715066138583788220,0.124,,,,9.57173171
1715066138591482170,0.08,,,,9.57942566
1715066138599176120,0.078,,,,9.58711961
1715066138606870070,0.063,,,,9.59481356
1715066138614564020,0.058,,,,9.60250751
1715066138622257970,0.068,,,,9.61020146
1715066138629951920,0.061,,,,9.61789541
1715066138637645870,0.085,,,,9.62558936
1715066138645339820,0.066,,,,9.63328331
1715066138653033770,0.061,,,,9.64097726
1715066138660727720,0.046,,,,9.64867121
1715066138668421670,-0.102,,,,9.65636516
1715066138676115620,-0.129,,,,9.66405911
1715066138683809570,0.291,,,,9.67175306
1715066138691503520,1.2,,,,9.67944701
1715066138699197470,1.863,,,,9.68714096
1715066138706891420,1.308,,,,9.69483491
1715066138714585370,0.193,,,,9.70252886
1715066138722279320,-0.176,,,,9.71022281
1715066138729973270,0.009,,,,9.71791676
1715066138737667220,0.0,,,,9.72561071
1715066138745361170,-0.136,,,,9.73330466
1715066138753055120,-0.085,,,,9.74099861
1715066138760749070,-0.031,,,,9.74869256
1715066138768443020,-0.083,,,,9.75638651
1715066138776136970,-0.046,,,,9.76408046
1715066138783830920,-0.014,,,,9.77177441
1715066138791524870,-0.031,,,,9.77946836
1715066138799218820,0.009,,,,9.78716231
1715066138806912770,0.014,,,,9.79485626
1715066138814606720,0.024,,,,9.80255021
1715066138822300670,0.041,,,,9.81024416
1715066138829994620,0.034,,,,9.81793811
1715066138837688570,0.075,,,,9.82563206
1715066138845382520,0.085,,,,9.83332601
1715066138853076470,0.085,,,,9.84101996
1715066138860770420,0.114,,,,9.84871391
1715066138868464370,0.114,,,,9.85640786
1715066138876158320,0.136,,,,9.86410181
1715066138883852270,0.139,,,,9.87179576
1715066138891546220,0.132,,,,9.87948971
1715066138899240170,0.161,,,,9.88718366
1715066138906934120,0.132,,,,9.89487761
1715066138914628070,0.132,,,,9.90257156
1715066138922322020,0.149,,,,9.91026551
1715066138930015970,0.114,,,,9.91795946
1715066138937709920,0.102,,,,9.92565341
1715066138945403870,0.058,,,,9.93334736
1715066138953097820,0.031,,,,9.94104131
1715066138960791770,0.031,,,,9.94873526
1715066138968485720,-0.004,,,,9.95642921
1715066138976179670,0.014,,,,9.96412316
1715066138983873620,0.022,,,,9.97181711
1715066138991567570,0.002,,,,9.97951106
1715066138999261520,0.029,,,,9.98720501
1715066139006955470,0.017,,,,9.99489896
1715066139014649420,0.026,,,,10.00259291
1715066139022343370,0.051,,,,10.01028686
1715066139030037320,0.034,,,,10.01798081
1715066139037731270,0.056,,,,10.02567476
1715066139045425220,0.053,,,,10.03336871
1715066139053119170,0.051,,,,10.04106266
1715066139060813120,0.066,,,,10.04875661
1715066139068507070,0.039,,,,10.05645056
1715066139076201020,0.056,,,,10.06414451
1715066139083894970,0.051,,,,10.07183846
1715066139091588920,0.031,,,,10.07953241
1715066139099282870,0.053,,,,10.08722636
1715066139106976820,0.031,,,,10.09492031
1715066139114670770,0.041,,,,10.10261426
1715066139122364730,0.058,92.0,624.0,,10.11030822
1715066139130059098,0.034,,656.0,,10.118002588
1715066139137753466,0.053,,,,10.125696956
1715066139145447834,0.036,,,,10.133391324
1715066139153142202,0.014,,,,10.141085692
1715066139160836570,0.026,,,,10.14878006
1715066139168530938,-0.017,,,,10.156474428
1715066139176225306,-0.029,,,,10.164168796
1715066139183919674,-0.039,,,,10.171863164
1715066139191614042,-0.048,,,,10.179557532
1715066139199308410,-0.002,,,,10.1872519
1715066139207002778,0.017,,,,10.194946268
1715066139214697146,0.041,,,,10.202640636
1715066139222391514,0.039,,,,10.210335004
1715066139230085882,0.0,,,,10.218029372
1715066139237780250,0.017,,,,10.22572374
1715066139245474618,0.017,,,,10.233418108
1715066139253168986,0.024,,,,10.241112476
1715066139260863354,0.051,,,,10.248806844
1715066139268557722,0.026,,,,10.256501212
1715066139276252090,0.048,,,,10.26419558
1715066139283946458,0.051,,,,10.271889948
1715066139291640826,0.017,,,,10.279584316
1715066139299335194,-0.046,,,,10.287278684
1715066139307029562,-0.151,,,,10.294973052
1715066139314723930,0.107,,,,10.30266742
1715066139322418298,0.939,,,,10.310361788
1715066139330112666,1.777,,,,10.318056156
1715066139337807034,1.64,,,,10.325750524
1715066139345501402,0.469,,,,10.333444892
1715066139353195770,-0.234,,,,10.34113926
1715066139360890138,0.0,,,,10.348833628
1715066139368584506,0.07,,,,10.356527996
1715066139376278874,-0.107,,,,10.364222364
1715066139383973242,-0.085,,,,10.371916732
1715066139391667610,-0.019,,,,10.3796111
1715066139399361978,-0.029,,,,10.387305468
1715066139407056346,-0.036,,,,10.394999836
1715066139414750714,0.004,,,,10.402694204
1715066139422445082,0.007,,,,10.410388572
1715066139430139450,-0.019,,,,10.41808294
1715066139437833818,0.026,,,,10.425777308
1715066139445528186,0.026,,,,10.433471676
1715066139453222554,0.019,,,,10.441166044
1715066139460916922,0.051,,,,10.448860412
1715066139468611290,0.053,,,,10.45655478
1715066139476305658,0.075,,,,10.464249148
1715066139484000026,0.078,,,,10.471943516
1715066139491694394,0.085,,,,10.479637884
1715066139499388762,0.129,,,,10.487332252
1715066139507083130,0.11,,,,10.49502662
1715066139514777498,0.117,,,,10.502720988
1715066139522471866,0.139,,,,10.510415356
1715066139530166234,0.119,,,,10.518109724
1715066139537860602,0.141,,,,10.525804092
1715066139545554970,0.134,,,,10.53349846
1715066139553249338,0.129,,,,10.541192828
1715066139560943706,0.139,,,,10.548887196
1715066139568638074,0.088,,,,10.556581564
1715066139576332442,0.07,,,,10.564275932
1715066139584026810,0.056,,,,10.5719703
1715066139591721178,0.029,,,,10.579664668
1715066139599415546,0.041,,,,10.587359036
1715066139607109914,0.019,,,,10.595053404
1715066139614804282,0.026,,,,10.602747772
1715066139622498650,0.036,,,,10.61044214
1715066139630193018,0.014,,,,10.618136508
1715066139637887386,0.044,,,,10.625830876
1715066139645581754,0.044,,,,10.633525244
1715066139653276122,0.044,,,,10.641219612
1715066139660970490,0.07,,,,10.64891398
1715066139668664858,0.041,,,,10.656608348
1715066139676359226,0.034,,,,10.664302716
1715066139684053606,0.031,,,,10.671997096
1715066139691747974,0.022,,,,10.679691464
1715066139699442342,0.034,,,,10.687385832
1715066139707136710,0.017,,,,10.6950802
1715066139714831078,0.029,,,,10.702774568
1715066139722525446,0.036,,,,10.710468936
1715066139730219814,0.022,,,,10.718163304
1715066139737914182,0.058,,,,10.725857672
1715066139745608550,0.036,,,,10.73355204
1715066139753302918,0.019,,,,10.741246408
1715066139760997286,0.053,,,,10.748940776
1715066139768691654,0.039,,,,10.756635144
1715066139776386022,0.048,,,,10.764329512
1715066139784080390,0.041,,,,10.77202388
1715066139791774758,0.019,,,,10.779718248
1715066139799469126,0.031,,,,10.787412616
1715066139807163494,-0.007,,,,10.795106984
1715066139814857862,-0.017,,,,10.802801352
1715066139822552230,0.024,,,,10.81049572
1715066139830246598,0.061,,,,10.818190088
1715066139837940966,0.095,,,,10.825884456
1715066139845635334,0.046,,,,10.833578824
1715066139853329702,0.017,,,,10.841273192
1715066139861024070,0.056,,,,10.84896756
1715066139868718438,0.048,,,,10.856661928
1715066139876412806,0.053,,,,10.864356296
1715066139884107174,0.056,,,,10.872050664
1715066139891801542,0.053,,,,10.879745032
1715066139899495910,0.083,,,,10.8874394
1715066139907190278,0.058,,,,10.895133768
1715066139914884646,0.036,,,,10.902828136
1715066139922579014,-0.066,,,,10.910522504
1715066139930273382,-0.178,,,,10.918216872
1715066139937967750,0.224,,,,10.92591124
1715066139945662118,1.239,,,,10.933605608
1715066139953356486,2.081,,,,10.941299976
1715066139961050854,1.741,,,,10.948994344
1715066139968745222,0.518,,,,10.956688712
1715066139976439590,-0.141,,,,10.96438308
1715066139984133958,-0.029,,,,10.972077448
1715066139991828326,-0.002,,,,10.979771816
1715066139999522694,-0.127,,,,10.987466184
1715066140007217062,-0.122,,,,10.995160552
1715066140014911430,-0.061,,,,11.00285492
1715066140022605798,-0.078,,,,11.010549288
1715066140030300166,-0.083,,,,11.018243656
1715066140037994534,-0.017,,,,11.025938024
1715066140045688902,-0.019,,,,11.033632392
1715066140053383270,-0.017,,,,11.04132676
1715066140061077638,0.019,,,,11.049021128
1715066140068772006,-0.002,,,,11.056715496
1715066140076466374,0.014,,,,11.064409864
1715066140084160742,0.031,,,,11.072104232
1715066140091855110,0.034,,,,11.0797986
1715066140099549478,0.07,,,,11.087492968
1715066140107243846,0.048,,,,11.095187336
1715066140114938214,0.058,,,,11.102881704
1715066140122632582,0.097,,,,11.110576072
1715066140130326950,0.097,,,,11.11827044
1715066140138021318,0.114,,,,11.125964808
1715066140145715686,0.1,,,,11.133659176
1715066140153410054,0.11,,,,11.141353544
1715066140161104422,0.134,,,,11.149047912
1715066140168798790,0.088,,,,11.15674228
1715066140176493158,0.073,,,,11.164436648
1715066140184187526,0.073,,,,11.172131016
1715066140191881894,0.046,,,,11.179825384
1715066140199576262,0.031,,,,11.187519752
1715066140207270630,-0.007,,,,11.19521412
1715066140214964998,0.004,,,,11.202908488
1715066140222659366,0.009,,,,11.210602856
1715066140230353734,-0.029,,,,11.218297224
1715066140238048102,0.002,,,,11.225991592
1715066140245742482,0.007,92.0,666.0,,11.233685972
1715066140253436850,0.002,,,,11.24138034
1715066140261131218,0.031,,,,11.249074708
1715066140268825586,0.014,,,,11.256769076
1715066140276519954,0.024,,,,11.264463444
1715066140284214322,0.034,,,,11.272157812
1715066140291908690,0.029,,,,11.27985218
1715066140299603058,0.044,,,,11.287546548
1715066140307297426,0.026,,,,11.295240916
1715066140314991794,0.029,,,,11.302935284
1715066140322686162,0.017,,,,11.310629652
1715066140330380530,-0.014,,,,11.31832402
1715066140338074898,0.024,,,,11.326018388
1715066140345769266,0.022,,,,11.333712756
1715066140353463634,0.004,,,,11.341407124
1715066140361158002,0.026,,,,11.349101492
1715066140368852370,0.017,,,,11.35679586
1715066140376546738,0.034,,,,11.364490228
1715066140384241106,0.031,,,,11.372184596
1715066140391935474,0.012,,,,11.379878964
1715066140399629842,0.048,,,,11.387573332
1715066140407324210,0.041,,,,11.3952677
1715066140415018578,0.031,,,,11.402962068
1715066140422712946,0.036,,,,11.410656436
1715066140430407314,0.031,,,,11.418350804
1715066140438101682,0.046,,,,11.426045172
1715066140445796050,0.017,,,,11.43373954
1715066140453490418,0.019,,,,11.441433908
1715066140461184786,0.048,,,,11.449128276
1715066140468879154,0.004,,,,11.456822644
1715066140476573522,0.002,,,,11.464517012
1715066140484267890,0.026,,,,11.47221138
1715066140491962258,0.063,,,,11.479905748
1715066140499656626,0.117,,,,11.487600116
1715066140507350994,0.095,,,,11.495294484
1715066140515045362,0.08,,,,11.502988852
1715066140522739730,0.078,,,,11.51068322
1715066140530434098,0.053,,,,11.518377588
1715066140538128466,0.083,,,,11.526071956
1715066140545822834,0.085,,,,11.533766324
1715066140553517202,0.083,,,,11.541460692
1715066140561211570,0.102,,,,11.54915506
1715066140568905938,0.085,,,,11.556849428
1715066140576600306,0.088,,,,11.564543796
1715066140584294674,0.007,,,,11.572238164
1715066140591989042,-0.136,,,,11.579932532
1715066140599683410,0.019,,,,11.5876269
1715066140607377778,0.753,,,,11.595321268
1715066140615072146,1.78,,,,11.603015636
1715066140622766514,1.968,,,,11.610710004
1715066140630460882,0.936,,,,11.618404372
1715066140638155250,0.002,,,,11.62609874
1715066140645849618,-0.061,,,,11.633793108
1715066140653543986,0.061,,,,11.641487476
1715066140661238354,-0.073,,,,11.649181844
1715066140668932722,-0.151,,,,11.656876212
1715066140676627090,-0.07,,,,11.66457058
1715066140684321458,-0.09,,,,11.672264948
1715066140692015826,-0.11,,,,11.679959316
1715066140699710194,-0.034,,,,11.687653684
1715066140707404562,-0.046,,,,11.695348052
1715066140715098930,-0.056,,,,11.70304242
1715066140722793298,-0.022,,,,11.710736788
1715066140730487666,-0.017,,,,11.718431156
1715066140738182034,0.012,,,,11.726125524
1715066140745876402,0.004,,,,11.733819892
1715066140753570770,0.009,,,,11.74151426
1715066140761265138,0.031,,,,11.749208628
1715066140768959506,0.012,,,,11.756902996
1715066140776653874,0.044,,,,11.764597364
1715066140784348242,0.063,,,,11.772291732
1715066140792042610,0.063,,,,11.7799861
1715066140799736978,0.095,,,,11.787680468
1715066140807431358,0.08,,,,11.795374848
1715066140815125447,0.092,,,,11.803068937
1715066140822819536,0.112,,,,11.810763026
1715066140830513625,0.095,,,,11.818457115
1715066140838207714,0.124,,,,11.826151204
1715066140845901803,0.114,,,,11.833845293
1715066140853595892,0.08,,,,11.841539382
1715066140861289981,0.063,,,,11.849233471
1715066140868984070,0.019,,,,11.85692756
1715066140876678159,0.014,,,,11.864621649
1715066140884372248,0.004,,,,11.872315738
1715066140892066337,-0.009,,,,11.880009827
1715066140899760426,0.012,,,,11.887703916
1715066140907454515,-0.012,,,,11.895398005
1715066140915148604,-0.019,,,,11.903092094
1715066140922842693,-0.019,,,,11.910786183
1715066140930536782,-0.036,,,,11.918480272
1715066140938230871,-0.004,,,,11.926174361
1715066140945924960,-0.017,,,,11.93386845
1715066140953619049,-0.024,,,,11.941562539
1715066140961313138,0.002,,,,11.949256628
1715066140969007227,-0.012,,,,11.956950717
1715066140976701316,0.002,,,,11.964644806
1715066140984395405,0.004,,,,11.972338895
1715066140992089494,-0.009,,,,11.980032984
1715066140999783583,0.017,,,,11.987727073
1715066141007477672,0.007,,,,11.995421162
1715066141015171761,0.014,,,,12.003115251
1715066141022865850,0.031,,,,12.01080934
1715066141030559939,0.019,,,,12.018503429
1715066141038254028,0.029,,,,12.026197518
1715066141045948117,0.012,,,,12.033891607
1715066141053642206,0.019,,,,12.041585696
1715066141061336295,0.041,,,,12.049279785
1715066141069030384,0.014,,,,12.056973874
1715066141076724473,0.041,,,,12.064667963
1715066141084418562,0.051,,,,12.072362052
1715066141092112651,0.031,,,,12.080056141
1715066141099806740,0.058,,,,12.08775023
1715066141107500829,0.046,,,,12.095444319
1715066141115194918,0.056,,,,12.103138408
1715066141122889007,0.07,,,,12.110832497
1715066141130583096,0.044,,,,12.118526586
1715066141138277185,0.068,,,,12.126220675
1715066141145971274,0.068,,,,12.133914764
1715066141153665363,0.039,,,,12.141608853
1715066141161359452,0.034,,,,12.149302942
1715066141169053541,0.009,,,,12.156997031
1715066141176747630,0.012,,,,12.16469112
1715066141184441719,0.007,,,,12.172385209
1715066141192135808,0.041,,,,12.180079298
1715066141199829897,0.112,,,,12.187773387
1715066141207523986,0.085,,,,12.195467476
1715066141215218075,0.058,,,,12.203161565
1715066141222912164,0.061,,,,12.210855654
1715066141230606253,0.051,,,,12.218549743
1715066141238300342,0.09,,,,12.226243832
1715066141245994431,0.085,,,,12.233937921
1715066141253688520,0.078,,,,12.24163201
1715066141261382609,0.097,,,,12.249326099
1715066141269076698,0.078,,,,12.257020188
1715066141276770787,0.083,,,,12.264714277
1715066141284464876,0.009,,,,12.272408366
1715066141292158965,-0.127,,,,12.280102455
1715066141299853054,0.029,,,,12.287796544
1715066141307547143,0.745,,,,12.295490633
1715066141315241232,1.753,,,,12.303184722
1715066141322935321,1.961,,,,12.310878811
1715066141330629410,0.973,,,,12.3185729
1715066141338323499,0.041,,,,12.326266989
1715066141346017588,-0.053,,,,12.333961078
1715066141353711677,0.073,,,,12.341655167
1715066141361405766,-0.048,,,,12.349349256
1715066141369099890,-0.129,92.0,633.0,,12.35704338
1715066141376794118,-0.034,,622.0,,12.364737608
1715066141384488346,-0.031,,,,12.372431836
1715066141392182574,-0.063,,,,12.380126064
1715066141399876802,-0.007,,,,12.387820292
1715066141407571030,-0.022,,,,12.39551452
1715066141415265258,-0.024,,,,12.403208748
1715066141422959486,-0.002,,,,12.410902976
1715066141430653714,-0.024,,,,12.418597204
1715066141438347942,-0.007,,,,12.426291432
1715066141446042170,-0.002,,,,12.43398566
1715066141453736398,0.002,,,,12.441679888
1715066141461430626,0.031,,,,12.449374116
1715066141469124854,0.024,,,,12.457068344
1715066141476819082,0.056,,,,12.464762572
1715066141484513310,0.063,,,,12.4724568
1715066141492207538,0.053,,,,12.480151028
1715066141499901766,0.09,,,,12.487845256
1715066141507595994,0.088,,,,12.495539484
1715066141515290222,0.102,,,,12.503233712
1715066141522984450,0.114,,,,12.51092794
1715066141530678678,0.097,,,,12.518622168
1715066141538372906,0.132,,,,12.526316396
1715066141546067134,0.117,,,,12.534010624
1715066141553761362,0.09,,,,12.541704852
1715066141561455590,0.095,,,,12.54939908
1715066141569149818,0.056,,,,12.557093308
1715066141576844046,0.048,,,,12.564787536
1715066141584538274,0.026,,,,12.572481764
1715066141592232502,-0.004,,,,12.580175992
1715066141599926730,0.014,,,,12.58787022
1715066141607620958,-0.012,,,,12.595564448
1715066141615315186,-0.007,,,,12.603258676
1715066141623009414,0.017,,,,12.610952904
1715066141630703642,0.004,,,,12.618647132
1715066141638397870,0.029,,,,12.62634136
1715066141646092098,0.017,,,,12.634035588
1715066141653786326,0.009,,,,12.641729816
1715066141661480554,0.039,,,,12.649424044
1715066141669174782,0.019,,,,12.657118272
1715066141676869010,0.024,,,,12.6648125
1715066141684563238,0.022,,,,12.672506728
1715066141692257466,0.004,,,,12.680200956
1715066141699951694,0.029,,,,12.687895184
1715066141707645922,0.014,,,,12.695589412
1715066141715340150,0.022,,,,12.70328364
1715066141723034378,0.034,,,,12.710977868
1715066141730728606,0.012,,,,12.718672096
1715066141738422834,0.039,,,,12.726366324
1715066141746117062,0.036,,,,12.734060552
1715066141753811290,0.031,,,,12.74175478
1715066141761505518,0.048,,,,12.749449008
1715066141769199746,0.026,,,,12.757143236
1715066141776893974,0.044,,,,12.764837464
1715066141784588202,0.056,,,,12.772531692
1715066141792282430,0.044,,,,12.78022592
1715066141799976658,0.063,,,,12.787920148
1715066141807670886,0.046,,,,12.795614376
1715066141815365114,0.053,,,,12.803308604
1715066141823059342,0.063,,,,12.811002832
1715066141830753570,0.031,,,,12.81869706
1715066141838447798,0.048,,,,12.826391288
1715066141846142026,0.031,,,,12.834085516
1715066141853836254,0.026,,,,12.841779744
1715066141861530482,0.09,,,,12.849473972
1715066141869224710,0.117,,,,12.8571682
1715066141876918938,0.132,,,,12.864862428
1715066141884613166,0.1,,,,12.872556656
1715066141892307394,0.058,,,,12.880250884
1715066141900001622,0.085,,,,12.887945112
1715066141907695850,0.078,,,,12.89563934
1715066141915390078,0.078,,,,12.903333568
1715066141923084306,0.09,,,,12.911027796
1715066141930778592,0.078,,,,12.918722082
1715066141938472960,0.097,,,,12.92641645
1715066141946167328,0.08,,,,12.934110818
1715066141953861696,0.036,,,,12.941805186
1715066141961556064,-0.066,,,,12.949499554
1715066141969250432,-0.112,,,,12.957193922
1715066141976944800,0.408,,,,12.96488829
1715066141984639168,1.435,,,,12.972582658
1715066141992333536,2.01,,,,12.980277026
1715066142000027904,1.381,,,,12.987971394
1715066142007722272,0.244,,,,12.995665762
1715066142015416640,-0.122,,,,13.00336013
1715066142023111008,0.044,,,,13.011054498
1715066142030805376,-0.031,,,,13.018748866
1715066142038499744,-0.124,,,,13.026443234
1715066142046194112,-0.075,,,,13.034137602
1715066142053888480,-0.056,,,,13.04183197
1715066142061582848,-0.058,,,,13.049526338
1715066142069277216,-0.051,,,,13.057220706
1715066142076971584,-0.007,,,,13.064915074
1715066142084665952,-0.012,,,,13.072609442
1715066142092360320,-0.024,,,,13.08030381
1715066142100054688,0.009,,,,13.087998178
1715066142107749056,0.002,,,,13.095692546
1715066142115443424,0.022,,,,13.103386914
1715066142123137792,0.044,,,,13.111081282
1715066142130832160,0.026,,,,13.11877565
1715066142138526528,0.056,,,,13.126470018
1715066142146220896,0.044,,,,13.134164386
1715066142153915264,0.044,,,,13.141858754
1715066142161609632,0.083,,,,13.149553122
1715066142169304000,0.078,,,,13.15724749
1715066142176998368,0.105,,,,13.164941858
1715066142184692736,0.102,,,,13.172636226
1715066142192387104,0.07,,,,13.180330594
1715066142200081472,0.095,,,,13.188024962
1715066142207775840,0.085,,,,13.19571933
1715066142215470208,0.09,,,,13.203413698
1715066142223164576,0.092,,,,13.211108066
1715066142230858944,0.046,,,,13.218802434
1715066142238553312,0.026,,,,13.226496802
1715066142246247680,-0.009,,,,13.23419117
1715066142253942048,-0.014,,,,13.241885538
1715066142261636416,0.0,,,,13.249579906
1715066142269330784,-0.041,,,,13.257274274
1715066142277025152,-0.026,,,,13.264968642
1715066142284719520,-0.024,,,,13.27266301
1715066142292413888,-0.036,,,,13.280357378
1715066142300108256,0.0,,,,13.288051746
1715066142307802624,-0.014,,,,13.295746114
1715066142315496992,-0.004,,,,13.303440482
1715066142323191360,0.019,,,,13.31113485
1715066142330885728,0.002,,,,13.318829218
1715066142338580096,0.024,,,,13.326523586
1715066142346274464,0.024,,,,13.334217954
1715066142353968832,0.024,,,,13.341912322
1715066142361663200,0.046,,,,13.34960669
1715066142369357568,0.017,,,,13.357301058
1715066142377051936,0.031,,,,13.364995426
1715066142384746304,0.041,,,,13.372689794
1715066142392440672,0.017,,,,13.380384162
1715066142400135040,0.039,,,,13.38807853
1715066142407829408,0.034,,,,13.395772898
1715066142415523776,0.044,,,,13.403467266
1715066142423218144,0.053,,,,13.411161634
1715066142430912512,0.034,,,,13.418856002
1715066142438606880,0.066,,,,13.42655037
1715066142446301248,0.061,,,,13.434244738
1715066142453995616,0.046,,,,13.441939106
1715066142461689984,0.07,,,,13.449633474
1715066142469384352,0.058,,,,13.457327842
1715066142477078720,0.068,,,,13.46502221
1715066142484773088,0.068,,,,13.472716578
1715066142492467468,0.058,92.0,665.0,,13.480410958
1715066142500161766,0.075,,,,13.488105256
1715066142507856064,0.041,,,,13.495799554
1715066142515550362,0.031,,,,13.503493852
1715066142523244660,0.044,,,,13.51118815
1715066142530938958,0.046,,,,13.518882448
1715066142538633256,0.112,,,,13.526576746
1715066142546327554,0.119,,,,13.534271044
1715066142554021852,0.088,,,,13.541965342
1715066142561716150,0.085,,,,13.54965964
1715066142569410448,0.068,,,,13.557353938
1715066142577104746,0.095,,,,13.565048236
1715066142584799044,0.105,,,,13.572742534
1715066142592493342,0.088,,,,13.580436832
1715066142600187640,0.107,,,,13.58813113
1715066142607881938,0.085,,,,13.595825428
1715066142615576236,0.092,,,,13.603519726
1715066142623270534,0.09,,,,13.611214024
1715066142630964832,-0.031,,,,13.618908322
1715066142638659130,-0.112,,,,13.62660262
1715066142646353428,0.151,,,,13.634296918
1715066142654047726,1.022,,,,13.641991216
1715066142661742024,1.922,,,,13.649685514
1715066142669436322,1.731,,,,13.657379812
1715066142677130620,0.643,,,,13.66507411
1715066142684824918,-0.08,,,,13.672768408
1715066142692519216,-0.036,,,,13.680462706
1715066142700213514,0.046,,,,13.688157004
1715066142707907812,-0.117,,,,13.695851302
1715066142715602110,-0.11,,,,13.7035456
1715066142723296408,-0.041,,,,13.711239898
1715066142730990706,-0.085,,,,13.718934196
1715066142738685004,-0.056,,,,13.726628494
1715066142746379302,-0.031,,,,13.734322792
1715066142754073600,-0.039,,,,13.74201709
1715066142761767898,-0.009,,,,13.749711388
1715066142769462196,-0.009,,,,13.757405686
1715066142777156494,0.017,,,,13.765099984
1715066142784850792,0.026,,,,13.772794282
1715066142792545090,0.017,,,,13.78048858
1715066142800239388,0.056,,,,13.788182878
1715066142807933686,0.051,,,,13.795877176
1715066142815627984,0.063,,,,13.803571474
1715066142823322282,0.097,,,,13.811265772
1715066142831016580,0.092,,,,13.81896007
1715066142838710878,0.117,,,,13.826654368
1715066142846405176,0.112,,,,13.834348666
1715066142854099474,0.117,,,,13.842042964
1715066142861793772,0.149,,,,13.849737262
1715066142869488070,0.124,,,,13.85743156
1715066142877182368,0.134,,,,13.865125858
1715066142884876666,0.129,,,,13.872820156
1715066142892570964,0.1,,,,13.880514454
1715066142900265262,0.092,,,,13.888208752
1715066142907959560,0.039,,,,13.89590305
1715066142915653858,0.022,,,,13.903597348
1715066142923348156,0.009,,,,13.911291646
1715066142931042454,-0.041,,,,13.918985944
1715066142938736752,-0.022,,,,13.926680242
1715066142946431050,-0.014,,,,13.93437454
1715066142954125348,-0.017,,,,13.942068838
1715066142961819646,0.004,,,,13.949763136
1715066142969513944,-0.014,,,,13.957457434
1715066142977208242,0.007,,,,13.965151732
1715066142984902540,0.017,,,,13.97284603
1715066142992596838,0.002,,,,13.980540328
1715066143000291136,0.039,,,,13.988234626
1715066143007985434,0.034,,,,13.995928924
1715066143015679732,0.036,,,,14.003623222
1715066143023374030,0.039,,,,14.01131752
1715066143031068328,0.022,,,,14.019011818
1715066143038762626,0.063,,,,14.026706116
1715066143046456924,0.061,,,,14.034400414
1715066143054151260,0.051,,,,14.04209475
1715066143061845558,0.075,,,,14.049789048
1715066143069539856,0.053,,,,14.057483346
1715066143077234154,0.068,,,,14.065177644
1715066143084928452,0.073,,,,14.072871942
1715066143092622750,0.063,,,,14.08056624
1715066143100317048,0.095,,,,14.088260538
1715066143108011346,0.075,,,,14.095954836
1715066143115705644,0.068,,,,14.103649134
1715066143123399942,0.073,,,,14.111343432
1715066143131094240,0.053,,,,14.11903773
1715066143138788538,0.075,,,,14.126732028
1715066143146482836,0.048,,,,14.134426326
1715066143154177134,0.041,,,,14.142120624
1715066143161871432,0.08,,,,14.149814922
1715066143169565730,0.053,,,,14.15750922
1715066143177260028,0.056,,,,14.165203518
1715066143184954326,0.056,,,,14.172897816
1715066143192648624,0.022,,,,14.180592114
1715066143200342922,0.012,,,,14.188286412
1715066143208037220,-0.012,,,,14.19598071
1715066143215731518,0.024,,,,14.203675008
1715066143223425816,0.088,,,,14.211369306
1715066143231120114,0.092,,,,14.219063604
1715066143238814412,0.102,,,,14.226757902
1715066143246508710,0.073,,,,14.2344522
1715066143254203008,0.058,,,,14.242146498
1715066143261897306,0.088,,,,14.249840796
1715066143269591604,0.07,,,,14.257535094
1715066143277285902,0.092,,,,14.265229392
1715066143284980200,0.105,,,,14.27292369
1715066143292674498,0.088,,,,14.280617988
1715066143300368796,0.102,,,,14.288312286
1715066143308063094,0.056,,,,14.296006584
1715066143315757392,-0.041,,,,14.303700882
1715066143323451690,-0.092,,,,14.31139518
1715066143331145988,0.222,,,,14.319089478
1715066143338840286,1.146,,,,14.326783776
1715066143346534584,1.917,,,,14.334478074
1715066143354228882,1.545,,,,14.342172372
1715066143361923180,0.381,,,,14.34986667
1715066143369617478,-0.217,,,,14.357560968
1715066143377311776,0.012,,,,14.365255266
1715066143385006074,0.046,,,,14.372949564
1715066143392700372,-0.156,,,,14.380643862
1715066143400394670,-0.09,,,,14.38833816
1715066143408088968,-0.031,,,,14.396032458
1715066143415783266,-0.07,,,,14.403726756
1715066143423477564,-0.053,,,,14.411421054
1715066143431171862,-0.029,,,,14.419115352
1715066143438866160,-0.009,,,,14.42680965
1715066143446560458,-0.019,,,,14.434503948
1715066143454254756,0.0,,,,14.442198246
1715066143461949054,0.041,,,,14.449892544
1715066143469643352,0.022,,,,14.457586842
1715066143477337650,0.046,,,,14.46528114
1715066143485031948,0.063,,,,14.472975438
1715066143492726246,0.051,,,,14.480669736
1715066143500420544,0.085,,,,14.488364034
1715066143508114842,0.078,,,,14.496058332
1715066143515809140,0.085,,,,14.50375263
1715066143523503438,0.107,,,,14.511446928
1715066143531197736,0.097,,,,14.519141226
1715066143538892034,0.127,,,,14.526835524
1715066143546586332,0.114,,,,14.534529822
1715066143554280630,0.102,,,,14.54222412
1715066143561974928,0.136,,,,14.549918418
1715066143569669226,0.119,,,,14.557612716
1715066143577363524,0.122,,,,14.565307014
1715066143585057822,0.1,,,,14.573001312
1715066143592752120,0.044,,,,14.58069561
1715066143600446418,0.044,,,,14.588389908
1715066143608140716,0.012,,,,14.596084206
1715066143615835050,-0.004,92.0,700.0,,14.60377854
1715066143623529139,0.0,,672.0,,14.611472629
1715066143631223228,-0.022,,,,14.619166718
1715066143638917317,0.012,,,,14.626860807
1715066143646611406,0.012,,,,14.634554896
1715066143654305495,0.004,,,,14.642248985
1715066143661999584,0.034,,,,14.649943074
1715066143669693673,0.012,,,,14.657637163
1715066143677387762,0.014,,,,14.665331252
1715066143685081851,0.012,,,,14.673025341
1715066143692775940,0.009,,,,14.68071943
1715066143700470029,0.036,,,,14.688413519
1715066143708164118,0.004,,,,14.696107608
1715066143715858207,0.009,,,,14.703801697
1715066143723552296,0.044,,,,14.711495786
1715066143731246385,0.019,,,,14.719189875
1715066143738940474,0.036,,,,14.726883964
1715066143746634563,0.034,,,,14.734578053
1715066143754328652,0.034,,,,14.742272142
1715066143762022741,0.058,,,,14.749966231
1715066143769716830,0.034,,,,14.75766032
1715066143777410919,0.051,,,,14.765354409
1715066143785105008,0.061,,,,14.773048498
1715066143792799097,0.036,,,,14.780742587
1715066143800493186,0.048,,,,14.788436676
1715066143808187275,0.024,,,,14.796130765
1715066143815881364,0.031,,,,14.803824854
1715066143823575453,0.066,,,,14.811518943
1715066143831269542,0.078,,,,14.819213032
1715066143838963631,0.127,,,,14.826907121
1715066143846657720,0.1,,,,14.83460121
1715066143854351809,0.061,,,,14.842295299
1715066143862045898,0.088,,,,14.849989388
1715066143869739987,0.08,,,,14.857683477
1715066143877434076,0.092,,,,14.865377566
1715066143885128165,0.09,,,,14.873071655
1715066143892822254,0.07,,,,14.880765744
1715066143900516343,0.1,,,,14.888459833
1715066143908210432,0.09,,,,14.896153922
1715066143915904521,0.075,,,,14.903848011
1715066143923598610,0.0,,,,14.9115421
1715066143931292699,-0.124,,,,14.919236189
1715066143938986788,0.129,,,,14.926930278
1715066143946680877,0.983,,,,14.934624367
1715066143954374966,1.939,,,,14.942318456
1715066143962069055,1.897,,,,14.950012545
1715066143969763144,0.6940000000000001,,,,14.957706634
1715066143977457233,-0.134,,,,14.965400723
1715066143985151322,-0.014,,,,14.973094812
1715066143992845411,0.075,,,,14.980788901
1715066144000539500,-0.092,,,,14.98848299
1715066144008233589,-0.11,,,,14.996177079
1715066144015927678,-0.022,,,,15.003871168
1715066144023621767,-0.044,,,,15.011565257
1715066144031315856,-0.073,,,,15.019259346
1715066144039009945,-0.007,,,,15.026953435
1715066144046704034,-0.009,,,,15.034647524
1715066144054398123,-0.019,,,,15.042341613
1715066144062092212,0.024,,,,15.050035702
1715066144069786301,0.007,,,,15.057729791
1715066144077480390,0.022,,,,15.06542388
1715066144085174479,0.041,,,,15.073117969
1715066144092868568,0.031,,,,15.080812058
1715066144100562657,0.058,,,,15.088506147
1715066144108256746,0.046,,,,15.096200236
1715066144115950835,0.053,,,,15.103894325
1715066144123644924,0.083,,,,15.111588414
1715066144131339013,0.078,,,,15.119282503
1715066144139033102,0.105,,,,15.126976592
1715066144146727191,0.107,,,,15.134670681
1715066144154421280,0.102,,,,15.14236477
1715066144162115369,0.122,,,,15.150058859
1715066144169809458,0.1,,,,15.157752948
1715066144177503580,0.114,91.0,672.0,,15.16544707
1715066144185197948,0.107,,,,15.173141438
1715066144192892316,0.058,,,,15.180835806
1715066144200586684,0.041,,,,15.188530174
1715066144208281052,-0.007,,,,15.196224542
1715066144215975420,-0.019,,,,15.20391891
1715066144223669788,-0.014,,,,15.211613278
1715066144231364156,-0.036,,,,15.219307646
1715066144239058524,-0.007,,,,15.227002014
1715066144246752892,-0.022,,,,15.234696382
1715066144254447260,-0.044,,,,15.24239075
1715066144262141628,-0.012,,,,15.250085118
1715066144269835996,-0.024,,,,15.257779486
1715066144277530364,-0.014,,,,15.265473854
1715066144285224732,-0.002,,,,15.273168222
1715066144292919100,-0.004,,,,15.28086259
1715066144300613468,0.029,,,,15.288556958
1715066144308307836,0.012,,,,15.296251326
1715066144316002204,0.017,,,,15.303945694
1715066144323696572,0.041,,,,15.311640062
1715066144331390940,0.024,,,,15.31933443
1715066144339085308,0.046,,,,15.327028798
1715066144346779676,0.041,,,,15.334723166
1715066144354474044,0.026,,,,15.342417534
1715066144362168412,0.048,,,,15.350111902
1715066144369862780,0.036,,,,15.35780627
1715066144377557148,0.048,,,,15.365500638
1715066144385251516,0.048,,,,15.373195006
1715066144392945884,0.036,,,,15.380889374
1715066144400640252,0.061,,,,15.388583742
1715066144408334620,0.031,,,,15.39627811
1715066144416028988,0.026,,,,15.403972478
1715066144423723356,0.039,,,,15.411666846
1715066144431417724,0.014,,,,15.419361214
1715066144439112092,0.046,,,,15.427055582
1715066144446806460,0.078,,,,15.43474995
1715066144454500828,0.095,,,,15.442444318
1715066144462195196,0.107,,,,15.450138686
1715066144469889564,0.07,,,,15.457833054
1715066144477583932,0.088,,,,15.465527422
1715066144485278300,0.102,,,,15.47322179
1715066144492972668,0.083,,,,15.480916158
1715066144500667036,0.11,,,,15.488610526
1715066144508361404,0.097,,,,15.496304894
1715066144516055772,0.097,,,,15.503999262
1715066144523750140,0.11,,,,15.51169363
1715066144531444508,0.075,,,,15.519387998
1715066144539138876,0.014,,,,15.527082366
1715066144546833244,-0.107,,,,15.534776734
1715066144554527612,0.102,,,,15.542471102
1715066144562221980,1.012,,,,15.55016547
1715066144569916348,1.988,,,,15.557859838
1715066144577610716,1.971,,,,15.565554206
1715066144585305084,0.846,,,,15.573248574
1715066144592999452,-0.066,,,,15.580942942
1715066144600693820,-0.044,,,,15.58863731
1715066144608388188,0.048,,,,15.596331678
1715066144616082556,-0.095,,,,15.604026046
1715066144623776924,-0.102,,,,15.611720414
1715066144631471292,-0.058,,,,15.619414782
1715066144639165660,-0.053,,,,15.62710915
1715066144646860028,-0.066,,,,15.634803518
1715066144654554396,-0.034,,,,15.642497886
1715066144662248764,0.0,,,,15.650192254
1715066144669943132,-0.019,,,,15.657886622
1715066144677637500,0.009,,,,15.66558099
1715066144685331868,0.026,,,,15.673275358
1715066144693026236,0.012,,,,15.680969726
1715066144700720604,0.036,,,,15.688664094
1715066144708414972,0.012,,,,15.696358462
1715066144716109340,0.017,,,,15.70405283
1715066144723803708,0.046,,,,15.711747198
1715066144731498076,0.026,,,,15.719441566
1715066144739192456,0.056,,,,15.727135946
1715066144746886824,0.073,,,,15.734830314
1715066144754581192,0.078,,,,15.742524682
1715066144762275560,0.097,,,,15.75021905
1715066144769969928,0.073,,,,15.757913418
1715066144777664296,0.09,,,,15.765607786
1715066144785358664,0.1,,,,15.773302154
1715066144793053032,0.075,,,,15.780996522
1715066144800747400,0.1,,,,15.78869089
1715066144808441768,0.08,,,,15.796385258
1715066144816136136,0.048,,,,15.804079626
1715066144823830504,0.024,,,,15.811773994
1715066144831524872,-0.009,,,,15.819468362
1715066144839219240,0.017,,,,15.82716273
1715066144846913608,0.002,,,,15.834857098
1715066144854607976,-0.017,,,,15.842551466
1715066144862302344,0.014,,,,15.850245834
1715066144869996712,-0.007,,,,15.857940202
1715066144877691080,0.0,,,,15.86563457
1715066144885385448,0.004,,,,15.873328938
1715066144893079816,-0.014,,,,15.881023306
1715066144900774184,0.017,,,,15.888717674
1715066144908468552,0.007,,,,15.896412042
1715066144916162920,0.002,,,,15.90410641
1715066144923857288,0.026,,,,15.911800778
1715066144931551656,0.022,,,,15.919495146
1715066144939246024,0.044,,,,15.927189514
1715066144946940392,0.031,,,,15.934883882
1715066144954634760,0.022,,,,15.94257825
1715066144962329128,0.048,,,,15.950272618
1715066144970023496,0.031,,,,15.957966986
1715066144977717864,0.053,,,,15.965661354
1715066144985412232,0.061,,,,15.973355722
1715066144993106600,0.036,,,,15.98105009
1715066145000800968,0.063,,,,15.988744458
1715066145008495336,0.058,,,,15.996438826
1715066145016189704,0.068,,,,16.004133194
1715066145023884072,0.088,,,,16.011827562
1715066145031578440,0.061,,,,16.01952193
1715066145039272808,0.085,,,,16.027216298
1715066145046967176,0.075,,,,16.034910666
1715066145054661544,0.044,,,,16.042605034
1715066145062355912,0.056,,,,16.050299402
1715066145070050280,0.046,,,,16.05799377
1715066145077744648,0.056,,,,16.065688138
1715066145085439016,0.061,,,,16.073382506
1715066145093133384,0.088,,,,16.081076874
1715066145100827752,0.156,,,,16.088771242
1715066145108522120,0.114,,,,16.09646561
1715066145116216488,0.078,,,,16.104159978
1715066145123910856,0.1,,,,16.111854346
1715066145131605224,0.092,,,,16.119548714
1715066145139299592,0.114,,,,16.127243082
1715066145146993960,0.119,,,,16.13493745
1715066145154688328,0.105,,,,16.142631818
1715066145162382696,0.114,,,,16.150326186
1715066145170077064,0.1,,,,16.158020554
1715066145177771432,0.1,,,,16.165714922
1715066145185465800,0.029,,,,16.17340929
1715066145193160168,-0.1,,,,16.181103658
1715066145200854536,0.044,,,,16.188798026
1715066145208548904,0.738,,,,16.196492394
1715066145216243272,1.743,,,,16.204186762
1715066145223937640,1.997,,,,16.21188113
1715066145231632008,1.029,,,,16.219575498
1715066145239326376,0.039,,,,16.227269866
1715066145247020744,-0.092,,,,16.234964234
1715066145254715112,0.051,,,,16.242658602
1715066145262409480,-0.058,,,,16.25035297
1715066145270103848,-0.141,,,,16.258047338
1715066145277798216,-0.048,,,,16.265741706
1715066145285492584,-0.041,,,,16.273436074
1715066145293186952,-0.07,,,,16.281130442
1715066145300881332,-0.019,91.0,684.0,,16.288824822
1715066145308575700,-0.024,,609.0,,16.29651919
1715066145316270068,-0.019,,,,16.304213558
1715066145323964436,-0.004,,,,16.311907926
1715066145331658804,-0.026,,,,16.319602294
1715066145339353172,-0.012,,,,16.327296662
1715066145347047540,-0.004,,,,16.33499103
1715066145354741908,0.007,,,,16.342685398
1715066145362436276,0.034,,,,16.350379766
1715066145370130644,0.024,,,,16.358074134
1715066145377825012,0.041,,,,16.365768502
1715066145385519380,0.044,,,,16.37346287
1715066145393213748,0.041,,,,16.381157238
1715066145400908116,0.073,,,,16.388851606
1715066145408602484,0.073,,,,16.396545974
1715066145416296852,0.09,,,,16.404240342
1715066145423991220,0.097,,,,16.41193471
1715066145431685588,0.07,,,,16.419629078
1715066145439379956,0.085,,,,16.427323446
1715066145447074324,0.1,,,,16.435017814
1715066145454768692,0.1,,,,16.442712182
1715066145462463060,0.08,,,,16.45040655
1715066145470157428,0.029,,,,16.458100918
1715066145477851796,0.034,,,,16.465795286
1715066145485546164,0.034,,,,16.473489654
1715066145493240532,0.024,,,,16.481184022
1715066145500934900,0.034,,,,16.48887839
1715066145508629268,0.009,,,,16.496572758
1715066145516323636,0.022,,,,16.504267126
1715066145524018004,0.048,,,,16.511961494
1715066145531712372,0.029,,,,16.519655862
1715066145539406740,0.031,,,,16.52735023
1715066145547101108,0.026,,,,16.535044598
1715066145554795476,0.024,,,,16.542738966
1715066145562489844,0.031,,,,16.550433334
1715066145570184212,0.017,,,,16.558127702
1715066145577878580,0.031,,,,16.56582207
1715066145585572948,0.029,,,,16.573516438
1715066145593267316,0.009,,,,16.581210806
1715066145600961684,0.024,,,,16.588905174
1715066145608656052,0.022,,,,16.596599542
1715066145616350420,0.029,,,,16.60429391
1715066145624044788,0.026,,,,16.611988278
1715066145631739156,0.012,,,,16.619682646
1715066145639433524,0.044,,,,16.627377014
1715066145647127892,0.044,,,,16.635071382
1715066145654822260,0.026,,,,16.64276575
1715066145662516628,0.031,,,,16.650460118
1715066145670210996,0.026,,,,16.658154486
1715066145677905364,0.041,,,,16.665848854
1715066145685599732,0.026,,,,16.673543222
1715066145693294100,-0.004,,,,16.68123759
1715066145700988468,0.019,,,,16.688931958
1715066145708682836,0.039,,,,16.696626326
1715066145716377204,0.063,,,,16.704320694
1715066145724071572,0.063,,,,16.712015062
1715066145731765940,0.039,,,,16.71970943
1715066145739460308,0.053,,,,16.727403798
1715066145747154676,0.048,,,,16.735098166
1715066145754849044,0.053,,,,16.742792534
1715066145762543412,0.07,,,,16.750486902
1715066145770237780,0.053,,,,16.75818127
1715066145777932148,0.07,,,,16.765875638
1715066145785626516,0.068,,,,16.773570006
1715066145793320884,0.056,,,,16.781264374
1715066145801015252,0.061,,,,16.788958742
1715066145808709620,-0.056,,,,16.79665311
1715066145816403988,-0.129,,,,16.804347478
1715066145824098356,0.22,,,,16.812041846
1715066145831792724,1.112,,,,16.819736214
1715066145839487092,1.914,,,,16.827430582
1715066145847181460,1.592,,,,16.83512495
1715066145854875828,0.469,,,,16.842819318
1715066145862570208,-0.119,,,,16.850513698
1715066145870264506,-0.017,,,,16.858207996
1715066145877958804,0.026,,,,16.865902294
1715066145885653102,-0.11,,,,16.873596592
1715066145893347400,-0.105,,,,16.88129089
1715066145901041698,-0.048,,,,16.888985188
1715066145908735996,-0.09,,,,16.896679486
1715066145916430294,-0.063,,,,16.904373784
1715066145924124592,-0.017,,,,16.912068082
1715066145931818890,-0.039,,,,16.91976238
1715066145939513188,-0.012,,,,16.927456678
1715066145947207486,0.002,,,,16.935150976
1715066145954901784,0.004,,,,16.942845274
1715066145962596082,0.036,,,,16.950539572
1715066145970290380,0.034,,,,16.95823387
1715066145977984678,0.053,,,,16.965928168
1715066145985678976,0.056,,,,16.973622466
1715066145993373274,0.051,,,,16.981316764
1715066146001067572,0.097,,,,16.989011062
1715066146008761870,0.105,,,,16.99670536
1715066146016456168,0.102,,,,17.004399658
1715066146024150466,0.11,,,,17.012093956
1715066146031844764,0.102,,,,17.019788254
1715066146039539062,0.132,,,,17.027482552
1715066146047233360,0.124,,,,17.03517685
1715066146054927658,0.114,,,,17.042871148
1715066146062621956,0.132,,,,17.050565446
1715066146070316254,0.102,,,,17.058259744
1715066146078010552,0.09,,,,17.065954042
1715066146085704850,0.061,,,,17.07364834
1715066146093399148,0.022,,,,17.081342638
1715066146101093446,0.034,,,,17.089036936
1715066146108787744,0.012,,,,17.096731234
1715066146116482042,0.012,,,,17.104425532
1715066146124176340,0.022,,,,17.11211983
1715066146131870638,0.0,,,,17.119814128
1715066146139564936,0.036,,,,17.127508426
1715066146147259234,0.041,,,,17.135202724
1715066146154953532,0.029,,,,17.142897022
1715066146162647830,0.046,,,,17.15059132
1715066146170342128,0.036,,,,17.158285618
1715066146178036426,0.053,,,,17.165979916
1715066146185730724,0.058,,,,17.173674214
1715066146193425022,0.048,,,,17.181368512
1715066146201119320,0.07,,,,17.18906281
1715066146208813618,0.041,,,,17.196757108
1715066146216507916,0.031,,,,17.204451406
1715066146224202214,0.034,,,,17.212145704
1715066146231896512,0.002,,,,17.219840002
1715066146239590810,0.024,,,,17.2275343
1715066146247285108,0.024,,,,17.235228598
1715066146254979406,0.019,,,,17.242922896
1715066146262673704,0.041,,,,17.250617194
1715066146270368002,0.014,,,,17.258311492
1715066146278062300,0.024,,,,17.26600579
1715066146285756598,0.034,,,,17.273700088
1715066146293450896,0.004,,,,17.281394386
1715066146301145194,0.009,,,,17.289088684
1715066146308839492,0.004,,,,17.296782982
1715066146316533790,0.058,,,,17.30447728
1715066146324228088,0.1,,,,17.312171578
1715066146331922386,0.063,,,,17.319865876
1715066146339616684,0.068,,,,17.327560174
1715066146347310982,0.058,,,,17.335254472
1715066146355005280,0.044,,,,17.34294877
1715066146362699578,0.073,,,,17.350643068
1715066146370393876,0.061,,,,17.358337366
1715066146378088174,0.075,,,,17.366031664
1715066146385782472,0.083,,,,17.373725962
1715066146393476770,0.068,,,,17.38142026
1715066146401171068,0.088,,,,17.389114558
1715066146408865366,0.022,,,,17.396808856
1715066146416559664,-0.1,,,,17.404503154
1715066146424254000,-0.014,92.0,616.0,,17.41219749
1715066146431948019,0.613,,648.0,,17.419891509
1715066146439642038,1.618,,,,17.427585528
1715066146447336057,1.909,,,,17.435279547
1715066146455030076,1.051,,,,17.442973566
1715066146462724095,0.102,,,,17.450667585
1715066146470418114,-0.088,,,,17.458361604
1715066146478112133,0.058,,,,17.466055623
1715066146485806152,-0.034,,,,17.473749642
1715066146493500171,-0.119,,,,17.481443661
1715066146501194190,-0.034,,,,17.48913768
1715066146508888209,-0.044,,,,17.496831699
1715066146516582228,-0.048,,,,17.504525718
1715066146524276247,-0.004,,,,17.512219737
1715066146531970266,-0.026,,,,17.519913756
1715066146539664285,-0.012,,,,17.527607775
1715066146547358304,0.012,,,,17.535301794
1715066146555052323,0.019,,,,17.542995813
1715066146562746342,0.036,,,,17.550689832
1715066146570440361,0.029,,,,17.558383851
1715066146578134380,0.046,,,,17.56607787
1715066146585828399,0.048,,,,17.573771889
1715066146593522418,0.046,,,,17.581465908
1715066146601216437,0.088,,,,17.589159927
1715066146608910456,0.088,,,,17.596853946
1715066146616604475,0.097,,,,17.604547965
1715066146624298494,0.112,,,,17.612241984
1715066146631992513,0.095,,,,17.619936003
1715066146639686532,0.132,,,,17.627630022
1715066146647380551,0.127,,,,17.635324041
1715066146655074570,0.112,,,,17.64301806
1715066146662768589,0.146,,,,17.650712079
1715066146670462608,0.127,,,,17.658406098
1715066146678156627,0.114,,,,17.666100117
1715066146685850646,0.095,,,,17.673794136
1715066146693544665,0.063,,,,17.681488155
1715066146701238684,0.075,,,,17.689182174
1715066146708932703,0.041,,,,17.696876193
1715066146716626722,0.029,,,,17.704570212
1715066146724320741,0.044,,,,17.712264231
1715066146732014760,0.004,,,,17.71995825
1715066146739708779,0.009,,,,17.727652269
1715066146747402798,0.012,,,,17.735346288
1715066146755096817,0.009,,,,17.743040307
1715066146762790836,0.031,,,,17.750734326
1715066146770484855,0.012,,,,17.758428345
1715066146778178874,0.031,,,,17.766122364
1715066146785872893,0.051,,,,17.773816383
1715066146793566912,0.034,,,,17.781510402
1715066146801260931,0.051,,,,17.789204421
1715066146808954950,0.036,,,,17.79689844
1715066146816648969,0.034,,,,17.804592459
1715066146824342988,0.044,,,,17.812286478
1715066146832037007,0.024,,,,17.819980497
1715066146839731026,0.051,,,,17.827674516
1715066146847425045,0.051,,,,17.835368535
1715066146855119064,0.039,,,,17.843062554
1715066146862813083,0.058,,,,17.850756573
1715066146870507102,0.044,,,,17.858450592
1715066146878201121,0.058,,,,17.866144611
1715066146885895140,0.048,,,,17.87383863
1715066146893589159,0.007,,,,17.881532649
1715066146901283178,0.019,,,,17.889226668
1715066146908977197,0.004,,,,17.896920687
1715066146916671216,0.026,,,,17.904614706
1715066146924365235,0.088,,,,17.912308725
1715066146932059254,0.088,,,,17.920002744
1715066146939753273,0.08,,,,17.927696763
1715066146947447292,0.044,,,,17.935390782
1715066146955141311,0.031,,,,17.943084801
1715066146962835330,0.075,,,,17.95077882
1715066146970529349,0.063,,,,17.958472839
1715066146978223368,0.068,,,,17.966166858
1715066146985917444,0.075,,,,17.973860934
1715066146993611812,0.061,,,,17.981555302
1715066147001306180,0.088,,,,17.98924967
1715066147009000548,0.048,,,,17.996944038
1715066147016694916,-0.051,,,,18.004638406
1715066147024389284,-0.1,,,,18.012332774
1715066147032083652,0.2,,,,18.020027142
1715066147039778020,1.083,,,,18.02772151
1715066147047472388,1.829,,,,18.035415878
1715066147055166756,1.513,,,,18.043110246
1715066147062861124,0.457,,,,18.050804614
1715066147070555492,-0.149,,,,18.058498982
1715066147078249860,-0.024,,,,18.06619335
1715066147085944228,0.009,,,,18.073887718
1715066147093638596,-0.144,,,,18.081582086
1715066147101332964,-0.092,,,,18.089276454
1715066147109027332,-0.051,,,,18.096970822
1715066147116721700,-0.078,,,,18.10466519
1715066147124416068,-0.058,,,,18.112359558
1715066147132110436,-0.051,,,,18.120053926
1715066147139804804,-0.022,,,,18.127748294
1715066147147499172,-0.014,,,,18.135442662
1715066147155193540,-0.017,,,,18.14313703
1715066147162887908,0.014,,,,18.150831398
1715066147170582276,0.007,,,,18.158525766
1715066147178276644,0.031,,,,18.166220134
1715066147185971012,0.056,,,,18.173914502
1715066147193665380,0.051,,,,18.18160887
1715066147201359748,0.083,,,,18.189303238
1715066147209054116,0.083,,,,18.196997606
1715066147216748484,0.092,,,,18.204691974
1715066147224442852,0.114,,,,18.212386342
1715066147232137220,0.083,,,,18.22008071
1715066147239831588,0.09,,,,18.227775078
1715066147247525956,0.095,,,,18.235469446
1715066147255220324,0.09,,,,18.243163814
1715066147262914692,0.114,,,,18.250858182
1715066147270609060,0.107,,,,18.25855255
1715066147278303428,0.119,,,,18.266246918
1715066147285997796,0.102,,,,18.273941286
1715066147293692164,0.056,,,,18.281635654
1715066147301386532,0.066,,,,18.289330022
1715066147309080900,0.036,,,,18.29702439
1715066147316775268,0.012,,,,18.304718758
1715066147324469636,0.029,,,,18.312413126
1715066147332164004,0.019,,,,18.320107494
1715066147339858372,0.034,,,,18.327801862
1715066147347552740,0.024,,,,18.33549623
1715066147355247108,0.022,,,,18.343190598
1715066147362941476,0.053,,,,18.350884966
1715066147370635844,0.034,,,,18.358579334
1715066147378330212,0.044,,,,18.366273702
1715066147386024580,0.061,,,,18.37396807
1715066147393718948,0.048,,,,18.381662438
1715066147401413316,0.075,,,,18.389356806
1715066147409107684,0.058,,,,18.397051174
1715066147416802052,0.053,,,,18.404745542
1715066147424496420,0.075,,,,18.41243991
1715066147432190788,0.058,,,,18.420134278
1715066147439885156,0.075,,,,18.427828646
1715066147447579524,0.068,,,,18.435523014
1715066147455273892,0.058,,,,18.443217382
1715066147462968260,0.08,,,,18.45091175
1715066147470662628,0.053,,,,18.458606118
1715066147478356996,0.051,,,,18.466300486
1715066147486051364,0.053,,,,18.473994854
1715066147493745732,0.024,,,,18.481689222
1715066147501440100,0.053,,,,18.48938359
1715066147509134468,0.075,,,,18.497077958
1715066147516828836,0.105,,,,18.504772326
1715066147524523204,0.1,,,,18.512466694
1715066147532217572,0.041,,,,18.520161062
1715066147539911940,0.066,,,,18.52785543
1715066147547606320,0.078,92.0,620.0,,18.53554981
1715066147555300688,0.053,,,,18.543244178
1715066147562995056,0.07,,,,18.550938546
1715066147570689424,0.063,,,,18.558632914
1715066147578383792,0.07,,,,18.566327282
1715066147586078160,0.073,,,,18.57402165
1715066147593772528,0.041,,,,18.581716018
1715066147601466896,-0.017,,,,18.589410386
1715066147609161264,-0.149,,,,18.597104754
1715066147616855632,-0.004,,,,18.604799122
1715066147624550000,0.718,,,,18.61249349
1715066147632244368,1.621,,,,18.620187858
1715066147639938736,1.726,,,,18.627882226
1715066147647633104,0.679,,,,18.635576594
1715066147655327472,-0.171,,,,18.643270962
1715066147663021840,-0.058,,,,18.65096533
1715066147670716208,0.061,,,,18.658659698
1715066147678410576,-0.105,,,,18.666354066
1715066147686104944,-0.112,,,,18.674048434
1715066147693799312,-0.041,,,,18.681742802
1715066147701493680,-0.041,,,,18.68943717
1715066147709188048,-0.068,,,,18.697131538
1715066147716882416,-0.024,,,,18.704825906
1715066147724576784,0.009,,,,18.712520274
1715066147732271152,-0.024,,,,18.720214642
1715066147739965520,-0.007,,,,18.72790901
1715066147747659888,-0.002,,,,18.735603378
1715066147755354256,-0.004,,,,18.743297746
1715066147763048624,0.031,,,,18.750992114
1715066147770742992,0.026,,,,18.758686482
1715066147778437360,0.046,,,,18.76638085
1715066147786131728,0.063,,,,18.774075218
1715066147793826096,0.061,,,,18.781769586
1715066147801520464,0.1,,,,18.789463954
1715066147809214832,0.095,,,,18.797158322
1715066147816909200,0.092,,,,18.80485269
1715066147824603568,0.114,,,,18.812547058
1715066147832297936,0.097,,,,18.820241426
1715066147839992304,0.122,,,,18.827935794
1715066147847686672,0.124,,,,18.835630162
1715066147855381040,0.112,,,,18.84332453
1715066147863075408,0.136,,,,18.851018898
1715066147870769776,0.102,,,,18.858713266
1715066147878464144,0.068,,,,18.866407634
1715066147886158512,0.046,,,,18.874102002
1715066147893852880,0.014,,,,18.88179637
1715066147901547248,0.036,,,,18.889490738
1715066147909241616,0.022,,,,18.897185106
1715066147916935984,0.014,,,,18.904879474
1715066147924630352,0.034,,,,18.912573842
1715066147932324720,0.022,,,,18.92026821
1715066147940019088,0.039,,,,18.927962578
1715066147947713456,0.046,,,,18.935656946
1715066147955407824,0.044,,,,18.943351314
1715066147963102192,0.066,,,,18.951045682
1715066147970796560,0.036,,,,18.95874005
1715066147978490928,0.044,,,,18.966434418
1715066147986185296,0.061,,,,18.974128786
1715066147993879664,0.048,,,,18.981823154
1715066148001574032,0.073,,,,18.989517522
1715066148009268400,0.056,,,,18.99721189
1715066148016962768,0.056,,,,19.004906258
1715066148024657136,0.078,,,,19.012600626
1715066148032351504,0.044,,,,19.020294994
1715066148040045872,0.041,,,,19.027989362
1715066148047740240,0.024,,,,19.03568373
1715066148055434608,0.002,,,,19.043378098
1715066148063128976,0.041,,,,19.051072466
1715066148070823344,0.066,,,,19.058766834
1715066148078517712,0.1,,,,19.066461202
1715066148086212080,0.095,,,,19.07415557
1715066148093906448,0.048,,,,19.081849938
1715066148101600816,0.075,,,,19.089544306
1715066148109295196,0.08,,,,19.097238686
1715066148116989215,0.066,,,,19.104932705
1715066148124683234,0.078,,,,19.112626724
1715066148132377253,0.063,,,,19.120320743
1715066148140071272,0.07,,,,19.128014762
1715066148147765291,0.044,,,,19.135708781
1715066148155459310,0.009,,,,19.1434028
1715066148163153329,-0.039,,,,19.151096819
1715066148170847348,-0.185,,,,19.158790838
1715066148178541367,-0.039,,,,19.166484857
1715066148186235386,0.748,,,,19.174178876
1715066148193929405,1.743,,,,19.181872895
1715066148201623424,1.836,,,,19.189566914
1715066148209317443,0.709,,,,19.197260933
1715066148217011462,-0.185,,,,19.204954952
1715066148224705481,-0.08,,,,19.212648971
1715066148232399500,0.022,,,,19.22034299
1715066148240093519,-0.154,,,,19.228037009
1715066148247787538,-0.171,,,,19.235731028
1715066148255481557,-0.088,,,,19.243425047
1715066148263175576,-0.09,,,,19.251119066
1715066148270869595,-0.124,,,,19.258813085
1715066148278563614,-0.073,,,,19.266507104
1715066148286257633,-0.046,,,,19.274201123
1715066148293951652,-0.078,,,,19.281895142
1715066148301645671,-0.046,,,,19.289589161
1715066148309339690,-0.044,,,,19.29728318
1715066148317033709,-0.039,,,,19.304977199
1715066148324727728,-0.007,,,,19.312671218
1715066148332421747,-0.014,,,,19.320365237
1715066148340115766,0.012,,,,19.328059256
1715066148347809785,0.022,,,,19.335753275
1715066148355503804,0.019,,,,19.343447294
1715066148363197823,0.056,,,,19.351141313
1715066148370891842,0.041,,,,19.358835332
1715066148378585861,0.048,,,,19.366529351
1715066148386279880,0.073,,,,19.37422337
1715066148393973899,0.063,,,,19.381917389
1715066148401667918,0.088,,,,19.389611408
1715066148409361937,0.088,,,,19.397305427
1715066148417055956,0.095,,,,19.404999446
1715066148424749975,0.107,,,,19.412693465
1715066148432443994,0.058,,,,19.420387484
1715066148440138013,0.056,,,,19.428081503
1715066148447832032,0.048,,,,19.435775522
1715066148455526051,0.022,,,,19.443469541
1715066148463220070,0.036,,,,19.45116356
1715066148470914089,0.017,,,,19.458857579
1715066148478608108,0.026,,,,19.466551598
1715066148486302127,0.044,,,,19.474245617
1715066148493996146,0.026,,,,19.481939636
1715066148501690165,0.058,,,,19.489633655
1715066148509384184,0.048,,,,19.497327674
1715066148517078203,0.039,,,,19.505021693
1715066148524772222,0.075,,,,19.512715712
1715066148532466241,0.061,,,,19.520409731
1715066148540160260,0.073,,,,19.52810375
1715066148547854279,0.073,,,,19.535797769
1715066148555548298,0.058,,,,19.543491788
1715066148563242317,0.078,,,,19.551185807
1715066148570936336,0.058,,,,19.558879826
1715066148578630355,0.068,,,,19.566573845
1715066148586324374,0.083,,,,19.574267864
1715066148594018393,0.053,,,,19.581961883
1715066148601712412,0.063,,,,19.589655902
1715066148609406431,0.034,,,,19.597349921
1715066148617100450,0.017,,,,19.60504394
1715066148624794469,0.046,,,,19.612737959
1715066148632488488,0.048,,,,19.620431978
1715066148640182507,0.097,,,,19.628125997
1715066148647876526,0.105,,,,19.635820016
1715066148655570545,0.066,,,,19.643514035
1715066148663264564,0.078,,,,19.651208054
1715066148670958642,0.066,94.0,604.0,,19.658902132
1715066148678652940,0.078,,604.0,,19.66659643
1715066148686347238,0.1,,,,19.674290728
1715066148694041536,0.07,,,,19.681985026
1715066148701735834,0.083,,,,19.689679324
1715066148709430132,0.083,,,,19.697373622
1715066148717124430,0.063,,,,19.70506792
1715066148724818728,0.009,,,,19.712762218
1715066148732513026,-0.144,,,,19.720456516
1715066148740207324,-0.105,,,,19.728150814
1715066148747901622,0.493,,,,19.735845112
1715066148755595920,1.56,,,,19.74353941
1715066148763290218,2.1,,,,19.751233708
1715066148770984516,1.278,,,,19.758928006
1715066148778678814,0.112,,,,19.766622304
1715066148786373112,-0.19,,,,19.774316602
1715066148794067410,-0.046,,,,19.7820109
1715066148801761708,-0.102,,,,19.789705198
1715066148809456006,-0.215,,,,19.797399496
1715066148817150304,-0.158,,,,19.805093794
1715066148824844602,-0.112,,,,19.812788092
1715066148832538900,-0.151,,,,19.82048239
1715066148840233198,-0.114,,,,19.828176688
1715066148847927496,-0.088,,,,19.835870986
1715066148855621794,-0.097,,,,19.843565284
1715066148863316092,-0.058,,,,19.851259582
1715066148871010390,-0.061,,,,19.85895388
1715066148878704688,-0.053,,,,19.866648178
1715066148886398986,-0.031,,,,19.874342476
1715066148894093284,-0.039,,,,19.882036774
1715066148901787582,-0.002,,,,19.889731072
1715066148909481880,0.002,,,,19.89742537
1715066148917176178,0.004,,,,19.905119668
1715066148924870476,0.026,,,,19.912813966
1715066148932564774,0.007,,,,19.920508264
1715066148940259072,0.039,,,,19.928202562
1715066148947953370,0.051,,,,19.93589686
1715066148955647668,0.034,,,,19.943591158
1715066148963341966,0.061,,,,19.951285456
1715066148971036264,0.046,,,,19.958979754
1715066148978730562,0.061,,,,19.966674052
1715066148986424860,0.083,,,,19.97436835
1715066148994119158,0.044,,,,19.982062648
1715066149001813456,0.048,,,,19.989756946
1715066149009507754,0.036,,,,19.997451244
1715066149017202052,0.014,,,,20.005145542
1715066149024896350,0.022,,,,20.01283984
1715066149032590648,-0.002,,,,20.020534138
1715066149040284946,0.007,,,,20.028228436
1715066149047979244,0.014,,,,20.035922734
1715066149055673542,0.002,,,,20.043617032
1715066149063367840,0.034,,,,20.05131133
1715066149071062138,0.026,,,,20.059005628
1715066149078756436,0.041,,,,20.066699926
1715066149086450734,0.056,,,,20.074394224
1715066149094145032,0.029,,,,20.082088522
1715066149101839330,0.056,,,,20.08978282
1715066149109533628,0.056,,,,20.097477118
1715066149117227926,0.048,,,,20.105171416
1715066149124922224,0.078,,,,20.112865714
1715066149132616522,0.056,,,,20.120560012
1715066149140310820,0.068,,,,20.12825431
1715066149148005118,0.083,,,,20.135948608
1715066149155699416,0.068,,,,20.143642906
1715066149163393714,0.088,,,,20.151337204
1715066149171088012,0.07,,,,20.159031502
1715066149178782310,0.073,,,,20.1667258
1715066149186476608,0.092,,,,20.174420098
1715066149194170906,0.066,,,,20.182114396
1715066149201865204,0.073,,,,20.189808694
1715066149209559502,0.046,,,,20.197502992
1715066149217253800,0.031,,,,20.20519729
1715066149224948098,0.061,,,,20.212891588
1715066149232642430,0.056,96.0,587.0,,20.22058592
1715066149240336798,0.107,,562.0,,20.228280288
1715066149248031166,0.124,,,,20.235974656
1715066149255725534,0.056,,,,20.243669024
1715066149263419902,0.056,,,,20.251363392
1715066149271114270,0.058,,,,20.25905776
1715066149278808638,0.061,,,,20.266752128
1715066149286503006,0.058,,,,20.274446496
1715066149294197374,0.022,,,,20.282140864
1715066149301891742,0.053,,,,20.289835232
1715066149309586110,0.053,,,,20.2975296
1715066149317280478,0.031,,,,20.305223968
1715066149324974846,0.009,,,,20.312918336
1715066149332669214,-0.127,,,,20.320612704
1715066149340363582,-0.139,,,,20.328307072
1715066149348057950,0.352,,,,20.33600144
1715066149355752318,1.371,,,,20.343695808
1715066149363446686,2.071,,,,20.351390176
1715066149371141054,1.464,,,,20.359084544
1715066149378835422,0.286,,,,20.366778912
1715066149386529790,-0.166,,,,20.37447328
1715066149394224158,-0.039,,,,20.382167648
1715066149401918526,-0.046,,,,20.389862016
1715066149409612894,-0.188,,,,20.397556384
1715066149417307262,-0.154,,,,20.405250752
1715066149425001630,-0.085,,,,20.41294512
1715066149432695998,-0.134,,,,20.420639488
1715066149440390366,-0.107,,,,20.428333856
1715066149448084734,-0.07,,,,20.436028224
1715066149455779102,-0.092,,,,20.443722592
1715066149463473470,-0.056,,,,20.45141696
1715066149471167838,-0.048,,,,20.459111328
1715066149478862206,-0.044,,,,20.466805696
1715066149486556574,-0.024,,,,20.474500064
1715066149494250942,-0.034,,,,20.482194432
1715066149501945310,0.0,,,,20.4898888
1715066149509639678,0.004,,,,20.497583168
1715066149517334046,0.002,,,,20.505277536
1715066149525028414,0.031,,,,20.512971904
1715066149532722782,0.009,,,,20.520666272
1715066149540417150,0.034,,,,20.52836064
1715066149548111518,0.053,,,,20.536055008
1715066149555805886,0.034,,,,20.543749376
1715066149563500254,0.058,,,,20.551443744
1715066149571194622,0.048,,,,20.559138112
1715066149578888990,0.061,,,,20.56683248
1715066149586583358,0.095,,,,20.574526848
1715066149594277726,0.068,,,,20.582221216
1715066149601972094,0.068,,,,20.589915584
1715066149609666462,0.051,,,,20.597609952
1715066149617360830,0.039,,,,20.60530432
1715066149625055198,0.053,,,,20.612998688
1715066149632749566,0.019,,,,20.620693056
1715066149640443934,0.036,,,,20.628387424
1715066149648138302,0.053,,,,20.636081792
1715066149655832670,0.024,,,,20.64377616
1715066149663527038,0.048,,,,20.651470528
1715066149671221406,0.041,,,,20.659164896
1715066149678915774,0.044,,,,20.666859264
1715066149686610142,0.063,,,,20.674553632
1715066149694304510,0.048,,,,20.682248
1715066149701998878,0.078,,,,20.689942368
1715066149709693246,0.07,,,,20.697636736
1715066149717387614,0.048,,,,20.705331104
1715066149725081982,0.075,,,,20.713025472
1715066149732776350,0.063,,,,20.72071984
1715066149740470718,0.075,,,,20.728414208
1715066149748165086,0.07,,,,20.736108576
1715066149755859454,0.036,,,,20.743802944
1715066149763553822,0.063,,,,20.751497312
1715066149771248190,0.048,,,,20.75919168
1715066149778942558,0.036,,,,20.766886048
1715066149786636926,0.058,,,,20.774580416
1715066149794331308,0.048,,,,20.782274798
1715066149802025258,0.066,,,,20.789968748
1715066149809719208,0.058,,,,20.797662698
1715066149817413158,0.044,,,,20.805356648
1715066149825107108,0.061,,,,20.813050598
1715066149832801058,0.022,,,,20.820744548
1715066149840495008,0.022,,,,20.828438498
1715066149848188958,0.034,,,,20.836132448
1715066149855882908,0.022,,,,20.843826398
1715066149863576858,0.073,,,,20.851520348
1715066149871270808,0.092,,,,20.859214298
1715066149878964758,0.078,,,,20.866908248
1715066149886658708,0.063,,,,20.874602198
1715066149894352658,0.036,,,,20.882296148
1715066149902046608,0.07,,,,20.889990098
1715066149909740558,0.075,,,,20.897684048
1715066149917434508,0.061,,,,20.905377998
1715066149925128458,0.097,,,,20.913071948
1715066149932822408,0.085,,,,20.920765898
1715066149940516358,0.08,,,,20.928459848
1715066149948210308,0.056,,,,20.936153798
1715066149955904258,-0.061,,,,20.943847748
1715066149963598208,-0.088,,,,20.951541698
1715066149971292158,0.276,,,,20.959235648
1715066149978986108,1.225,,,,20.966929598
1715066149986680058,1.971,,,,20.974623548
1715066149994374008,1.486,,,,20.982317498
1715066150002067958,0.374,,,,20.990011448
1715066150009761908,-0.134,,,,20.997705398
1715066150017455858,-0.019,,,,21.005399348
1715066150025149808,-0.007,,,,21.013093298
1715066150032843758,-0.158,,,,21.020787248
1715066150040537708,-0.117,,,,21.028481198
1715066150048231658,-0.068,,,,21.036175148
1715066150055925608,-0.114,,,,21.043869098
1715066150063619558,-0.073,,,,21.051563048
1715066150071313508,-0.046,,,,21.059256998
1715066150079007458,-0.051,,,,21.066950948
1715066150086701408,-0.031,,,,21.074644898
1715066150094395358,-0.036,,,,21.082338848
1715066150102089308,-0.007,,,,21.090032798
1715066150109783258,0.0,,,,21.097726748
1715066150117477208,0.0,,,,21.105420698
1715066150125171158,0.031,,,,21.113114648
1715066150132865108,0.012,,,,21.120808598
1715066150140559058,0.034,,,,21.128502548
1715066150148253008,0.061,,,,21.136196498
1715066150155946958,0.041,,,,21.143890448
1715066150163640908,0.075,,,,21.151584398
1715066150171334858,0.073,,,,21.159278348
1715066150179028808,0.07,,,,21.166972298
1715066150186722758,0.09,,,,21.174666248
1715066150194416708,0.066,,,,21.182360198
1715066150202110658,0.097,,,,21.190054148
1715066150209804608,0.112,,,,21.197748098
1715066150217498558,0.09,,,,21.205442048
1715066150225192508,0.097,,,,21.213135998
1715066150232886458,0.056,,,,21.220829948
1715066150240580408,0.048,,,,21.228523898
1715066150248274358,0.048,,,,21.236217848
1715066150255968308,0.007,,,,21.243911798
1715066150263662258,0.012,,,,21.251605748
1715066150271356208,-0.007,,,,21.259299698
1715066150279050158,-0.007,,,,21.266993648
1715066150286744108,0.029,,,,21.274687598
1715066150294438058,0.012,,,,21.282381548
1715066150302132008,0.036,,,,21.290075498
1715066150309825958,0.041,,,,21.297769448
1715066150317519908,0.029,,,,21.305463398
1715066150325213858,0.063,,,,21.313157348
1715066150332907808,0.053,,,,21.320851298
1715066150340601758,0.061,,,,21.328545248
1715066150348295708,0.07,,,,21.336239198
1715066150355989666,0.056,97.0,564.0,,21.343933156
1715066150363684034,0.088,,,,21.351627524
1715066150371378402,0.075,,,,21.359321892
1715066150379072770,0.075,,,,21.36701626
1715066150386767138,0.107,,,,21.374710628
1715066150394461506,0.083,,,,21.382404996
1715066150402155874,0.095,,,,21.390099364
1715066150409850242,0.095,,,,21.397793732
1715066150417544610,0.083,,,,21.4054881
1715066150425238978,0.097,,,,21.413182468
1715066150432933346,0.056,,,,21.420876836
1715066150440627714,0.058,,,,21.428571204
1715066150448322082,0.083,,,,21.436265572
1715066150456016450,0.061,,,,21.44395994
1715066150463710818,0.078,,,,21.451654308
1715066150471405186,0.073,,,,21.459348676
1715066150479099554,0.063,,,,21.467043044
1715066150486793922,0.066,,,,21.474737412
1715066150494488290,0.022,,,,21.48243178
1715066150502182658,0.034,,,,21.490126148
1715066150509877026,0.044,,,,21.497820516
1715066150517571394,0.056,,,,21.505514884
1715066150525265762,0.117,,,,21.513209252
1715066150532960130,0.102,,,,21.52090362
1715066150540654498,0.08,,,,21.528597988
1715066150548348866,0.073,,,,21.536292356
1715066150556043234,0.061,,,,21.543986724
1715066150563737602,0.097,,,,21.551681092
1715066150571431970,0.088,,,,21.55937546
1715066150579126338,0.075,,,,21.567069828
1715066150586820706,0.097,,,,21.574764196
1715066150594515074,0.07,,,,21.582458564
1715066150602209442,0.068,,,,21.590152932
1715066150609903810,-0.019,,,,21.5978473
1715066150617598178,-0.149,,,,21.605541668
1715066150625292546,0.046,,,,21.613236036
1715066150632986914,0.75,,,,21.620930404
1715066150640681282,1.655,,,,21.628624772
1715066150648375650,1.719,,,,21.63631914
1715066150656070018,0.677,,,,21.644013508
1715066150663764386,-0.107,,,,21.651707876
1715066150671458754,-0.061,,,,21.659402244
1715066150679153122,0.046,,,,21.667096612
1715066150686847490,-0.078,,,,21.67479098
1715066150694541858,-0.119,,,,21.682485348
1715066150702236226,-0.046,,,,21.690179716
1715066150709930594,-0.063,,,,21.697874084
1715066150717624962,-0.075,,,,21.705568452
1715066150725319330,-0.012,,,,21.71326282
1715066150733013698,-0.031,,,,21.720957188
1715066150740708066,-0.024,,,,21.728651556
1715066150748402434,0.014,,,,21.736345924
1715066150756096802,-0.004,,,,21.744040292
1715066150763791170,0.007,,,,21.75173466
1715066150771485538,0.012,,,,21.759429028
1715066150779179906,0.026,,,,21.767123396
1715066150786874274,0.053,,,,21.774817764
1715066150794568642,0.034,,,,21.782512132
1715066150802263010,0.068,,,,21.7902065
1715066150809957378,0.088,,,,21.797900868
1715066150817651746,0.068,,,,21.805595236
1715066150825346114,0.092,,,,21.813289604
1715066150833040482,0.088,,,,21.820983972
1715066150840734850,0.1,,,,21.82867834
1715066150848429218,0.11,,,,21.836372708
1715066150856123586,0.088,,,,21.844067076
1715066150863817954,0.119,,,,21.851761444
1715066150871512322,0.117,,,,21.859455812
1715066150879206690,0.102,,,,21.86715018
1715066150886901058,0.102,,,,21.874844548
1715066150894595426,0.053,,,,21.882538916
1715066150902289794,0.056,,,,21.890233284
1715066150909984162,0.051,,,,21.897927652
1715066150917678542,0.024,,,,21.905622032
1715066150925372910,0.048,,,,21.9133164
1715066150933067278,0.031,,,,21.921010768
1715066150940761646,0.039,,,,21.928705136
1715066150948456014,0.066,,,,21.936399504
1715066150956150382,0.041,,,,21.944093872
1715066150963844750,0.058,,,,21.95178824
1715066150971539118,0.046,,,,21.959482608
1715066150979233486,0.039,,,,21.967176976
1715066150986927854,0.07,,,,21.974871344
1715066150994622222,0.058,,,,21.982565712
1715066151002316590,0.073,,,,21.99026008
1715066151010010958,0.07,,,,21.997954448
1715066151017705326,0.051,,,,22.005648816
1715066151025399694,0.073,,,,22.013343184
1715066151033094062,0.048,,,,22.021037552
1715066151040788430,0.056,,,,22.02873192
1715066151048482798,0.078,,,,22.036426288
1715066151056177166,0.046,,,,22.044120656
1715066151063871534,0.061,,,,22.051815024
1715066151071565902,0.068,,,,22.059509392
1715066151079260270,0.068,,,,22.06720376
1715066151086954638,0.085,,,,22.074898128
1715066151094649006,0.058,,,,22.082592496
1715066151102343374,0.073,,,,22.090286864
1715066151110037742,0.088,,,,22.097981232
1715066151117732110,0.066,,,,22.1056756
1715066151125426478,0.073,,,,22.113369968
1715066151133120846,0.048,,,,22.121064336
1715066151140815214,0.048,,,,22.128758704
1715066151148509582,0.053,,,,22.136453072
1715066151156203950,0.046,,,,22.14414744
1715066151163898318,0.124,,,,22.151841808
1715066151171592686,0.141,,,,22.159536176
1715066151179287054,0.095,,,,22.167230544
1715066151186981422,0.095,,,,22.174924912
1715066151194675790,0.07,,,,22.18261928
1715066151202370158,0.078,,,,22.190313648
1715066151210064526,0.078,,,,22.198008016
1715066151217758894,0.061,,,,22.205702384
1715066151225453262,0.085,,,,22.213396752
1715066151233147630,0.066,,,,22.22109112
1715066151240841998,0.063,,,,22.228785488
1715066151248536366,0.036,,,,22.236479856
