HRV_ULF,HRV_VLF,HRV_LF,HRV_HF,HRV_VHF,HRV_TP,HRV_LFHF,HRV_LFn,HRV_HFn,HRV_LnHF,time
,,0.028010582382980313,0.004829871404331246,0.0017735665340302327,0.034614020321341796,5.799446825408537,0.8092264961695295,0.13953511783643682,-5.332935436034151,0.0
,,0.029505372205243963,0.004849148604032254,0.001909699436780267,0.03626422024605648,5.94204842834816,0.8136221323675779,0.13371716174042292,-5.32895213500303,0.1
,,0.029505372205243963,0.004849148604032254,0.001909699436780267,0.03626422024605648,5.989582295994701,0.8136221323675779,0.13371716174042292,-5.32895213500303,0.2
,,0.029505372205243963,0.004849148604032254,0.001909699436780267,0.03626422024605648,6.013349229817972,0.8136221323675779,0.13371716174042292,-5.32895213500303,0.3
,,0.029505372205243963,0.004849148604032254,0.001909699436780267,0.03626422024605648,6.027609390111934,0.8136221323675779,0.13371716174042292,-5.32895213500303,0.4
,,0.029505372205243963,0.004849148604032254,0.001909699436780267,0.03626422024605648,6.037116163641241,0.8136221323675779,0.13371716174042292,-5.32895213500303,0.5
,,0.029505372205243963,0.004849148604032254,0.001909699436780267,0.03626422024605648,6.0439067161621765,0.8136221323675779,0.13371716174042292,-5.32895213500303,0.6
,,0.029505372205243963,0.004849148604032254,0.001909699436780267,0.03626422024605648,6.048999630552877,0.8136221323675779,0.13371716174042292,-5.32895213500303,0.7
,,0.028719196338813174,0.004856637767298728,0.0017441569379733483,0.03531999104408525,6.033931965480355,0.8131144853056961,0.13750393541257788,-5.327408897914085,0.8
,,0.03067050576523903,0.00497075409300618,0.0018816820158217274,0.037522941874066934,6.04755794130281,0.81738009424139,0.13247239807819,-5.30418372140819,0.9
,,0.03067050576523903,0.00497075409300618,0.0018816820158217274,0.037522941874066934,6.058706466975727,0.81738009424139,0.13247239807819,-5.30418372140819,1.0
,,0.03067050576523903,0.00497075409300618,0.0018816820158217274,0.037522941874066934,6.067996905036494,0.81738009424139,0.13247239807819,-5.30418372140819,1.1
,,0.03067050576523903,0.00497075409300618,0.0018816820158217274,0.037522941874066934,6.075858044934064,0.81738009424139,0.13247239807819,-5.30418372140819,1.2
,,0.03067050576523903,0.00497075409300618,0.0018816820158217274,0.037522941874066934,6.082596164846267,0.81738009424139,0.13247239807819,-5.30418372140819,1.3
,,0.03067050576523903,0.00497075409300618,0.0018816820158217274,0.037522941874066934,6.088435868770176,0.81738009424139,0.13247239807819,-5.30418372140819,1.4
,,0.03067050576523903,0.00497075409300618,0.0018816820158217274,0.037522941874066934,6.093545609703597,0.81738009424139,0.13247239807819,-5.30418372140819,1.5
,,0.030374115109079117,0.005085428029306408,0.001714300035908318,0.03717384317429385,6.0864414297185006,0.817082994800042,0.13680124504380117,-5.2813760781359385,1.6
,,0.03227387693183489,0.005200674996103026,0.0018297972097933842,0.0393043491377313,6.093067419758438,0.8211273724121457,0.13231805411352032,-5.258966854876058,1.7
,,0.03227387693183489,0.005200674996103026,0.0018297972097933842,0.0393043491377313,6.098995937162592,0.8211273724121457,0.13231805411352032,-5.258966854876058,1.8
,,0.03227387693183489,0.005200674996103026,0.0018297972097933842,0.0393043491377313,6.104331602826331,0.8211273724121457,0.13231805411352032,-5.258966854876058,1.9
,,0.03227387693183489,0.005200674996103026,0.0018297972097933842,0.0393043491377313,6.109159109855429,0.8211273724121457,0.13231805411352032,-5.258966854876058,2.0
,,0.03227387693183489,0.005200674996103026,0.0018297972097933842,0.0393043491377313,6.113547752609153,0.8211273724121457,0.13231805411352032,-5.258966854876058,2.1
,,0.03227387693183489,0.005200674996103026,0.0018297972097933842,0.0393043491377313,6.1175547742538585,0.8211273724121457,0.13231805411352032,-5.258966854876058,2.2
,,0.03278349243400031,0.005216603588272621,0.001599301240895299,0.03959939726316823,6.124508806001088,0.8278785713865535,0.1317344189257303,-5.255908742442118,2.3
,,0.03247632732476864,0.00523720385863184,0.0016738928265028256,0.03938742400990331,6.127571708913251,0.8245354485889458,0.13296639702345175,-5.251967537837129,2.4
,,0.03247632732476864,0.00523720385863184,0.0016738928265028256,0.03938742400990331,6.130399003909096,0.8245354485889458,0.13296639702345175,-5.251967537837129,2.5
,,0.03247632732476864,0.00523720385863184,0.0016738928265028256,0.03938742400990331,6.133016869645989,0.8245354485889458,0.13296639702345175,-5.251967537837129,2.6
,,0.03247632732476864,0.00523720385863184,0.0016738928265028256,0.03938742400990331,6.135447744973104,0.8245354485889458,0.13296639702345175,-5.251967537837129,2.7
,,0.03247632732476864,0.00523720385863184,0.0016738928265028256,0.03938742400990331,6.137710973725934,0.8245354485889458,0.13296639702345175,-5.251967537837129,2.8
,,0.03247632732476864,0.00523720385863184,0.0016738928265028256,0.03938742400990331,6.13982332056191,0.8245354485889458,0.13296639702345175,-5.251967537837129,2.9
,,0.03247632732476864,0.00523720385863184,0.0016738928265028256,0.03938742400990331,6.141799386956854,0.8245354485889458,0.13296639702345175,-5.251967537837129,3.0
,,0.0325265035114903,0.005210244277725136,0.0014403851278665045,0.03917713291708194,6.144955599342329,0.8302420593240541,0.13299197490415063,-5.257128537996387,3.1
,,0.033308431395388104,0.005156835803743628,0.0010298642064992549,0.03949513140563098,6.154474616899267,0.8433553759651293,0.1305688984999401,-5.267432103911451,3.2
,,0.033308431395388104,0.005156835803743628,0.0010298642064992549,0.03949513140563098,6.163433692246974,0.8433553759651293,0.1305688984999401,-5.267432103911451,3.3
,,0.033308431395388104,0.005156835803743628,0.0010298642064992549,0.03949513140563098,6.171880820431953,0.8433553759651293,0.1305688984999401,-5.267432103911451,3.4
,,0.033308431395388104,0.005156835803743628,0.0010298642064992549,0.03949513140563098,6.179858663717769,0.8433553759651293,0.1305688984999401,-5.267432103911451,3.5
,,0.033308431395388104,0.005156835803743628,0.0010298642064992549,0.03949513140563098,6.187405272231377,0.8433553759651293,0.1305688984999401,-5.267432103911451,3.6
,,0.033308431395388104,0.005156835803743628,0.0010298642064992549,0.03949513140563098,6.1945546908232165,0.8433553759651293,0.1305688984999401,-5.267432103911451,3.7
,,0.03191590251525802,0.00520001309609212,0.001284138189576459,0.03840005380092659,6.193095803957543,0.8311421301833668,0.13541681798286032,-5.259094134918673,3.8
,,0.03191590251525802,0.00520001309609212,0.001284138189576459,0.03840005380092659,6.191709861435152,0.8311421301833668,0.13541681798286032,-5.259094134918673,3.9
,,0.032084774831748014,0.005056645818907627,0.0008830079781681434,0.038024428628823784,6.195450367792024,0.8437937396757275,0.13298413681026414,-5.287051897124746,4.0
,,0.032084774831748014,0.005056645818907627,0.0008830079781681434,0.038024428628823784,6.199012754798567,0.8437937396757275,0.13298413681026414,-5.287051897124746,4.1
,,0.032084774831748014,0.005056645818907627,0.0008830079781681434,0.038024428628823784,6.202409449386203,0.8437937396757275,0.13298413681026414,-5.287051897124746,4.2
,,0.032084774831748014,0.005056645818907627,0.0008830079781681434,0.038024428628823784,6.205651748765308,0.8437937396757275,0.13298413681026414,-5.287051897124746,4.3
,,0.032084774831748014,0.005056645818907627,0.0008830079781681434,0.038024428628823784,6.208749945949787,0.8437937396757275,0.13298413681026414,-5.287051897124746,4.4
,,0.032084774831748014,0.005056645818907627,0.0008830079781681434,0.038024428628823784,6.211713438908854,0.8437937396757275,0.13298413681026414,-5.287051897124746,4.5
,,0.03049202502261737,0.005103074673786121,0.001119919991020009,0.036715019687423495,6.20668179357344,0.8305054792892356,0.1389914731690624,-5.277912043696351,4.6
,,0.033094167325809574,0.005536626298996088,0.0008159330225391049,0.03944672664734477,6.201903348431451,0.8389585179442818,0.1403570529056501,-5.196369935021624,4.7
,,0.033094167325809574,0.005536626298996088,0.0008159330225391049,0.03944672664734477,6.197319941866687,0.8389585179442818,0.1403570529056501,-5.196369935021624,4.8
,,0.033094167325809574,0.005536626298996088,0.0008159330225391049,0.03944672664734477,6.192919871564514,0.8389585179442818,0.1403570529056501,-5.196369935021624,4.9
,,0.033094167325809574,0.005536626298996088,0.0008159330225391049,0.03944672664734477,6.188692353038895,0.8389585179442818,0.1403570529056501,-5.196369935021624,5.0
,,0.033094167325809574,0.005536626298996088,0.0008159330225391049,0.03944672664734477,6.1846274313796465,0.8389585179442818,0.1403570529056501,-5.196369935021624,5.1
,,0.033094167325809574,0.005536626298996088,0.0008159330225391049,0.03944672664734477,6.180715902990559,0.8389585179442818,0.1403570529056501,-5.196369935021624,5.2
,,0.02868082825283811,0.004958900517849316,0.0009756644887243637,0.034615393259411785,6.173363888566846,0.8285570537333101,0.14325709029756614,-5.3065712326061245,5.3
,,0.02868082825283811,0.004958900517849316,0.0009756644887243637,0.034615393259411785,6.166279220122177,0.8285570537333101,0.14325709029756614,-5.3065712326061245,5.4
,,0.03177758514407182,0.0054442224251135115,0.0007090162513529931,0.03793082382053833,6.160398115066404,0.8377773521192354,0.1435302974401953,-5.213200338100002,5.5
,,0.03177758514407182,0.0054442224251135115,0.0007090162513529931,0.03793082382053833,6.154723364573992,0.8377773521192354,0.1435302974401953,-5.213200338100002,5.6
,,0.03177758514407182,0.0054442224251135115,0.0007090162513529931,0.03793082382053833,6.149244295133042,0.8377773521192354,0.1435302974401953,-5.213200338100002,5.7
,,0.03177758514407182,0.0054442224251135115,0.0007090162513529931,0.03793082382053833,6.143950956859582,0.8377773521192354,0.1435302974401953,-5.213200338100002,5.8
,,0.02690494381884822,0.004784149537512547,0.000877426775652376,0.032566520132013145,6.13528122956393,0.8261534763243079,0.14690392212982223,-5.3424470049810715,5.9
,,0.03177758514407182,0.0054442224251135115,0.0007090162513529931,0.03793082382053833,6.130390346079257,0.8377773521192354,0.1435302974401953,-5.213200338100002,6.0
,,0.026673178248503293,0.004796702998361228,0.0008527646927153745,0.0323226459395799,6.121202302829034,0.8252164225157481,0.1484006911849857,-5.3398264724166475,6.1
,,0.030457261124851375,0.0053669645328991026,0.0006305074290172419,0.03645473308676772,6.114118949945393,0.8354816657787216,0.14722270823173836,-5.2274927941753875,6.2
,,0.030457261124851375,0.0053669645328991026,0.0006305074290172419,0.03645473308676772,6.107256951839365,0.8354816657787216,0.14722270823173836,-5.2274927941753875,6.3
,,0.030457261124851375,0.0053669645328991026,0.0006305074290172419,0.03645473308676772,6.100606092136599,0.8354816657787216,0.14722270823173836,-5.2274927941753875,6.4
,,0.030457261124851375,0.0053669645328991026,0.0006305074290172419,0.03645473308676772,6.094156773636948,0.8354816657787216,0.14722270823173836,-5.2274927941753875,6.5
,,0.030457261124851375,0.0053669645328991026,0.0006305074290172419,0.03645473308676772,6.087899972107436,0.8354816657787216,0.14722270823173836,-5.2274927941753875,6.6
,,0.02475883870127913,0.004596484448272375,0.000771716061557612,0.030127039211109118,6.077584867419232,0.8218145343718176,0.15257006890267052,-5.382463518050856,6.7
,,0.02465369109583472,0.004630129781774365,0.0007559552505502956,0.03003977612815938,6.0666723627107695,0.8207015588483122,0.15413329853127858,-5.375170380656032,6.8
,,0.02465369109583472,0.004630129781774365,0.0007559552505502956,0.03003977612815938,6.056071643851118,0.8207015588483122,0.15413329853127858,-5.375170380656032,6.9
,,0.029073264282116564,0.005288165941044353,0.0005763696942840789,0.034937799917445,6.048208624522773,0.8321435336745351,0.15135944316871217,-5.242283796243505,7.0
,,0.029073264282116564,0.005288165941044353,0.0005763696942840789,0.034937799917445,6.040564022397991,0.8321435336745351,0.15135944316871217,-5.242283796243505,7.1
,,0.029073264282116564,0.005288165941044353,0.0005763696942840789,0.034937799917445,6.033128861427313,0.8321435336745351,0.15135944316871217,-5.242283796243505,7.2
,,0.029073264282116564,0.005288165941044353,0.0005763696942840789,0.034937799917445,6.02589465075314,0.8321435336745351,0.15135944316871217,-5.242283796243505,7.3
,,0.029073264282116564,0.005288165941044353,0.0005763696942840789,0.034937799917445,6.018853352363612,0.8321435336745351,0.15135944316871217,-5.242283796243505,7.4
,,0.029073264282116564,0.005288165941044353,0.0005763696942840789,0.034937799917445,6.011997351300124,0.8321435336745351,0.15135944316871217,-5.242283796243505,7.5
,,0.0227363276431568,0.004470975296480354,0.0006861234494772335,0.027893426389114385,5.999962544335552,0.8151141894862303,0.16028777655746101,-5.41014870702394,7.6
,,0.0227363276431568,0.004470975296480354,0.0006861234494772335,0.027893426389114385,5.988236322164943,0.8151141894862303,0.16028777655746101,-5.41014870702394,7.7
,,0.02734302458925591,0.005148900030484667,0.0005368249915633882,0.03302874961130396,5.979656867509822,0.8278552749056496,0.15589146095686518,-5.268972173432954,7.8
,,0.02734302458925591,0.005148900030484667,0.0005368249915633882,0.03302874961130396,5.971291899221078,0.8278552749056496,0.15589146095686518,-5.268972173432954,7.9
,,0.02734302458925591,0.005148900030484667,0.0005368249915633882,0.03302874961130396,5.963133473359217,0.8278552749056496,0.15589146095686518,-5.268972173432954,8.0
,,0.02734302458925591,0.005148900030484667,0.0005368249915633882,0.03302874961130396,5.955174033493987,0.8278552749056496,0.15589146095686518,-5.268972173432954,8.1
,,0.027725021674893095,0.005520794424796509,0.0007492540137329643,0.033995070113422565,5.943930082619571,0.8155600674565512,0.16239985404874002,-5.199233511512669,8.2
,,0.02734302458925591,0.005148900030484667,0.0005368249915633882,0.03302874961130396,5.936388765021841,0.8278552749056496,0.15589146095686518,-5.268972173432954,8.3
,,0.020972891040529778,0.004329791037285102,0.0006389371949816995,0.02594161927279658,5.92353545670398,0.8084649928743188,0.16690519553748495,-5.442235997419761,8.4
,,0.02014532640468758,0.004057952193953054,0.00044825969905222323,0.024651538297692857,5.912382800595628,0.8172036228089257,0.1646125343152658,-5.5070768183396135,8.5
,,0.02014532640468758,0.004057952193953054,0.00044825969905222323,0.024651538297692857,5.901486527386318,0.8172036228089257,0.1646125343152658,-5.5070768183396135,8.6
,,0.02014532640468758,0.004057952193953054,0.00044825969905222323,0.024651538297692857,5.890837896749948,0.8172036228089257,0.1646125343152658,-5.5070768183396135,8.7
,,0.02014532640468758,0.004057952193953054,0.00044825969905222323,0.024651538297692857,5.880428561184058,0.8172036228089257,0.1646125343152658,-5.5070768183396135,8.8
,,0.02014532640468758,0.004057952193953054,0.00044825969905222323,0.024651538297692857,5.870250544186298,0.8172036228089257,0.1646125343152658,-5.5070768183396135,8.9
,,0.02014532640468758,0.004057952193953054,0.00044825969905222323,0.024651538297692857,5.860972324252711,0.8172036228089257,0.1646125343152658,-5.5070768183396135,9.0
,,0.0194423294428496,0.004193893419252236,0.0006163113638637048,0.024252534225965537,5.844874727966301,0.8016617670426384,0.17292598704023762,-5.47412575949765,9.1
,,0.0194423294428496,0.004193893419252236,0.0006163113638637048,0.024252534225965537,5.828777131679894,0.8016617670426384,0.17292598704023762,-5.47412575949765,9.2
,,0.018621473417233605,0.003933875334449883,0.0004503016107200226,0.023005650362403512,5.813765693826329,0.8094304279119771,0.17099604977387353,-5.538130248777709,9.3
,,0.018621473417233605,0.003933875334449883,0.0004503016107200226,0.023005650362403512,5.798754255972764,0.8094304279119771,0.17099604977387353,-5.538130248777709,9.4
,,0.018621473417233605,0.003933875334449883,0.0004503016107200226,0.023005650362403512,5.783742818119199,0.8094304279119771,0.17099604977387353,-5.538130248777709,9.5
,,0.018621473417233605,0.003933875334449883,0.0004503016107200226,0.023005650362403512,5.768731380265634,0.8094304279119771,0.17099604977387353,-5.538130248777709,9.6
,,0.018621473417233605,0.003933875334449883,0.0004503016107200226,0.023005650362403512,5.753719942412069,0.8094304279119771,0.17099604977387353,-5.538130248777709,9.7
,,0.018621473417233605,0.003933875334449883,0.0004503016107200226,0.023005650362403512,5.7406113866294755,0.8094304279119771,0.17099604977387353,-5.538130248777709,9.8
,,0.01807868419630692,0.004074433931232486,0.0006091933769538649,0.02276231150449327,5.721354848463966,0.7942376235707957,0.1789991289078086,-5.503023454519543,9.9
,,0.02335560341719792,0.0049402056378817305,0.0005335208278202433,0.028829329882899893,5.705326697578878,0.8101334131616874,0.17136040476653644,-5.310348321547125,10.0
,,0.02335560341719792,0.0049402056378817305,0.0005335208278202433,0.028829329882899893,5.689298546693788,0.8101334131616874,0.17136040476653644,-5.310348321547125,10.1
,,0.02335560341719792,0.0049402056378817305,0.0005335208278202433,0.028829329882899893,5.6732703958087,0.8101334131616874,0.17136040476653644,-5.310348321547125,10.2
,,0.02335560341719792,0.0049402056378817305,0.0005335208278202433,0.028829329882899893,5.65724224492361,0.8101334131616874,0.17136040476653644,-5.310348321547125,10.3
,,0.02335560341719792,0.0049402056378817305,0.0005335208278202433,0.028829329882899893,5.641214094038522,0.8101334131616874,0.17136040476653644,-5.310348321547125,10.4
,,0.02335560341719792,0.0049402056378817305,0.0005335208278202433,0.028829329882899893,5.625185943153432,0.8101334131616874,0.17136040476653644,-5.310348321547125,10.5
,,0.01688940595819692,0.003967627299823955,0.0006162179947690457,0.021473251252789923,5.606119587460731,0.7865323121948082,0.18477068298208726,-5.529587020426533,10.6
,,0.01688940595819692,0.003967627299823955,0.0006162179947690457,0.021473251252789923,5.58446506842936,0.7865323121948082,0.18477068298208726,-5.529587020426533,10.7
,,0.016170886326174843,0.0037308361793989987,0.0004913096303579297,0.020393032135931775,5.563672594486152,0.7929613516217794,0.1829466140459516,-5.591122893667699,10.8
,,0.016170886326174843,0.0037308361793989987,0.0004913096303579297,0.020393032135931775,5.542880120542943,0.7929613516217794,0.1829466140459516,-5.591122893667699,10.9
,,0.016170886326174843,0.0037308361793989987,0.0004913096303579297,0.020393032135931775,5.5220876465997355,0.7929613516217794,0.1829466140459516,-5.591122893667699,11.0
,,0.016170886326174843,0.0037308361793989987,0.0004913096303579297,0.020393032135931775,5.501295172656526,0.7929613516217794,0.1829466140459516,-5.591122893667699,11.1
,,0.016170886326174843,0.0037308361793989987,0.0004913096303579297,0.020393032135931775,5.480502698713318,0.7929613516217794,0.1829466140459516,-5.591122893667699,11.2
,,0.01599960814815401,0.0038982195274846194,0.0006388301877377814,0.02053665786337641,5.456279208163274,0.7790755562367601,0.18981762044331577,-5.54723536150293,11.3
,,0.01599960814815401,0.0038982195274846194,0.0006388301877377814,0.02053665786337641,5.432982052695253,0.7790755562367601,0.18981762044331577,-5.54723536150293,11.4
,,0.02165833279093355,0.004949218074365198,0.0006023810464991348,0.027209931911797883,5.412704615568496,0.7959715908566007,0.18189013079519245,-5.308525679653995,11.5
,,0.02165833279093355,0.004949218074365198,0.0006023810464991348,0.027209931911797883,5.392427178441742,0.7959715908566007,0.18189013079519245,-5.308525679653995,11.6
,,0.02165833279093355,0.004949218074365198,0.0006023810464991348,0.027209931911797883,5.3721497413149875,0.7959715908566007,0.18189013079519245,-5.308525679653995,11.7
,,0.02165833279093355,0.004949218074365198,0.0006023810464991348,0.027209931911797883,5.351872304188232,0.7959715908566007,0.18189013079519245,-5.308525679653995,11.8
,,0.02165833279093355,0.004949218074365198,0.0006023810464991348,0.027209931911797883,5.331594867061477,0.7959715908566007,0.18189013079519245,-5.308525679653995,11.9
,,0.02165833279093355,0.004949218074365198,0.0006023810464991348,0.027209931911797883,5.3113174299347214,0.7959715908566007,0.18189013079519245,-5.308525679653995,12.0
,,0.015289967304532137,0.003834138468720935,0.0006712603421391026,0.019795366115392173,5.286262444938971,0.7724013395560895,0.19368868685584173,-5.563810519016867,12.1
,,0.01526230978172764,0.0038271963845543664,0.0006700571784074044,0.01975956334468941,5.2588043701584635,0.7724011667408403,0.19368830767117967,-5.565622758319667,12.2
,,0.02080366787121442,0.004902318542558634,0.0006422565440791542,0.02634824295785221,5.2341883185460745,0.7895656611521636,0.18605865106074038,-5.318047013825361,12.3
,,0.02080366787121442,0.004902318542558634,0.0006422565440791542,0.02634824295785221,5.2095722669336855,0.7895656611521636,0.18605865106074038,-5.318047013825361,12.4
,,0.02080366787121442,0.004902318542558634,0.0006422565440791542,0.02634824295785221,5.184956215321297,0.7895656611521636,0.18605865106074038,-5.318047013825361,12.5
,,0.02080366787121442,0.004902318542558634,0.0006422565440791542,0.02634824295785221,5.1603401637089075,0.7895656611521636,0.18605865106074038,-5.318047013825361,12.6
,,0.02080366787121442,0.004902318542558634,0.0006422565440791542,0.02634824295785221,5.135724112096519,0.7895656611521636,0.18605865106074038,-5.318047013825361,12.7
,,0.014777441720791288,0.003783791784846328,0.0007100721489279418,0.019271305654565557,5.110921894086309,0.7668106139601585,0.19634330193657176,-5.577028654452763,12.8
,,0.014777441720791288,0.003783791784846328,0.0007100721489279418,0.019271305654565557,5.086119676076099,0.7668106139601585,0.19634330193657176,-5.577028654452763,12.9
,,0.014545921480504258,0.003634834556553169,0.0006273244181605892,0.018808080455218014,5.0600834597922,0.7733868171788214,0.19325919863048754,-5.617191683048083,13.0
,,0.014545921480504258,0.003634834556553169,0.0006273244181605892,0.018808080455218014,5.034047243508302,0.7733868171788214,0.19325919863048754,-5.617191683048083,13.1
,,0.014545921480504258,0.003634834556553169,0.0006273244181605892,0.018808080455218014,5.008011027224403,0.7733868171788214,0.19325919863048754,-5.617191683048083,13.2
,,0.014545921480504258,0.003634834556553169,0.0006273244181605892,0.018808080455218014,4.981974810940504,0.7733868171788214,0.19325919863048754,-5.617191683048083,13.3
,,0.014545921480504258,0.003634834556553169,0.0006273244181605892,0.018808080455218014,4.9559385946566055,0.7733868171788214,0.19325919863048754,-5.617191683048083,13.4
,,0.014545921480504258,0.003634834556553169,0.0006273244181605892,0.018808080455218014,4.929902378372707,0.7733868171788214,0.19325919863048754,-5.617191683048083,13.5
,,0.01488815041198507,0.0038576112296930935,0.0007749031539821229,0.019520664795660288,4.9063934460402265,0.7626866486276077,0.19761679584553357,-5.557707139484705,13.6
,,0.018795749852572003,0.004573970583392641,0.0006979070339036418,0.024067627469868284,4.885637544076984,0.7809556582219638,0.1900465922168303,-5.387373614667501,13.7
,,0.018795749852572003,0.004573970583392641,0.0006979070339036418,0.024067627469868284,4.864881642113743,0.7809556582219638,0.1900465922168303,-5.387373614667501,13.8
,,0.018795749852572003,0.004573970583392641,0.0006979070339036418,0.024067627469868284,4.8441257401505,0.7809556582219638,0.1900465922168303,-5.387373614667501,13.9
,,0.018795749852572003,0.004573970583392641,0.0006979070339036418,0.024067627469868284,4.823369838187258,0.7809556582219638,0.1900465922168303,-5.387373614667501,14.0
,,0.018795749852572003,0.004573970583392641,0.0006979070339036418,0.024067627469868284,4.8026139362240166,0.7809556582219638,0.1900465922168303,-5.387373614667501,14.1
,,0.018795749852572003,0.004573970583392641,0.0006979070339036418,0.024067627469868284,4.7818580342607735,0.7809556582219638,0.1900465922168303,-5.387373614667501,14.2
,,0.015067037059538855,0.003912071507392692,0.0008371415415227274,0.019816250108454274,4.760388196112901,0.7603374491680822,0.1974173461670062,-5.5436882479907625,14.3
,,0.015067037059538855,0.003912071507392692,0.0008371415415227274,0.019816250108454274,4.738918357965029,0.7603374491680822,0.1974173461670062,-5.5436882479907625,14.4
,,0.01519687081447047,0.003811546278462477,0.0007541032225441805,0.019762520315477126,4.718364186056641,0.7689743297857085,0.19286741860942927,-5.569720324811814,14.5
,,0.01519687081447047,0.003811546278462477,0.0007541032225441805,0.019762520315477126,4.697810014148254,0.7689743297857085,0.19286741860942927,-5.569720324811814,14.6
,,0.01519687081447047,0.003811546278462477,0.0007541032225441805,0.019762520315477126,4.677255842239865,0.7689743297857085,0.19286741860942927,-5.569720324811814,14.7
,,0.01519687081447047,0.003811546278462477,0.0007541032225441805,0.019762520315477126,4.656701670331477,0.7689743297857085,0.19286741860942927,-5.569720324811814,14.8
,,0.018506635531805753,0.004598782201964985,0.000813269773863942,0.023918687507634682,4.638929222466634,0.7737312311095064,0.192267330742838,-5.381963749239828,14.9
,,0.01519687081447047,0.003811546278462477,0.0007541032225441805,0.019762520315477126,4.618375050558246,0.7689743297857085,0.19286741860942927,-5.569720324811814,15.0
,,0.015892607885345342,0.004115530014688374,0.0009242566865266326,0.02093239458656035,4.599496018213163,0.7592350612169902,0.19661056921460632,-5.492987652493885,15.1
,,0.01596947040786508,0.003983307699280366,0.0008136419231832255,0.020766420030328674,4.58098653818668,0.7690044978644462,0.19181484788725628,-5.525642724620538,15.2
,,0.01596947040786508,0.003983307699280366,0.0008136419231832255,0.020766420030328674,4.562477058160199,0.7690044978644462,0.19181484788725628,-5.525642724620538,15.3
,,0.01596947040786508,0.003983307699280366,0.0008136419231832255,0.020766420030328674,4.543967578133718,0.7690044978644462,0.19181484788725628,-5.525642724620538,15.4
,,0.01596947040786508,0.003983307699280366,0.0008136419231832255,0.020766420030328674,4.5254580981072365,0.7690044978644462,0.19181484788725628,-5.525642724620538,15.5
,,0.01596947040786508,0.003983307699280366,0.0008136419231832255,0.020766420030328674,4.506948618080755,0.7690044978644462,0.19181484788725628,-5.525642724620538,15.6
,,0.01596947040786508,0.003983307699280366,0.0008136419231832255,0.020766420030328674,4.49164445158594,0.7690044978644462,0.19181484788725628,-5.525642724620538,15.7
,,0.016256288723869142,0.004193787607948443,0.0009718849166215467,0.02142196124843913,4.475551745519652,0.7588608967843047,0.1957704786835993,-5.4741509896663825,15.8
,,0.016256288723869142,0.004193787607948443,0.0009718849166215467,0.02142196124843913,4.459459039453362,0.7588608967843047,0.1957704786835993,-5.4741509896663825,15.9
,,0.01799415995098004,0.004291156844916658,0.0008702032937603376,0.023155520089657038,4.44496475984778,0.7771002284253403,0.18531895756612288,-5.451198921574422,16.0
,,0.01799415995098004,0.004291156844916658,0.0008702032937603376,0.023155520089657038,4.430470480242199,0.7771002284253403,0.18531895756612288,-5.451198921574422,16.1
,,0.01799415995098004,0.004291156844916658,0.0008702032937603376,0.023155520089657038,4.415976200636616,0.7771002284253403,0.18531895756612288,-5.451198921574422,16.2
,,0.01799415995098004,0.004291156844916658,0.0008702032937603376,0.023155520089657038,4.401481921031035,0.7771002284253403,0.18531895756612288,-5.451198921574422,16.3
,,0.01799415995098004,0.004291156844916658,0.0008702032937603376,0.023155520089657038,4.386987641425452,0.7771002284253403,0.18531895756612288,-5.451198921574422,16.4
,,0.01799415995098004,0.004291156844916658,0.0008702032937603376,0.023155520089657038,4.3724933618198705,0.7771002284253403,0.18531895756612288,-5.451198921574422,16.5
,,0.017763753223596412,0.004335918536844105,0.0008615073809633887,0.022961179141403908,4.361510765274914,0.7736429002273918,0.18883692819701572,-5.440821802649486,16.6
,,0.01811176428301775,0.004268391094143783,0.0009205702916985171,0.023300725668860052,4.352154238426411,0.7773047303510799,0.18318704553687862,-5.456518315686466,16.7
,,0.01811176428301775,0.004268391094143783,0.0009205702916985171,0.023300725668860052,4.340296131695882,0.7773047303510799,0.18318704553687862,-5.456518315686466,16.8
,,0.01811176428301775,0.004268391094143783,0.0009205702916985171,0.023300725668860052,4.3284380249653545,0.7773047303510799,0.18318704553687862,-5.456518315686466,16.9
,,0.01811176428301775,0.004268391094143783,0.0009205702916985171,0.023300725668860052,4.316579918234826,0.7773047303510799,0.18318704553687862,-5.456518315686466,17.0
,,0.01811176428301775,0.004268391094143783,0.0009205702916985171,0.023300725668860052,4.304721811504297,0.7773047303510799,0.18318704553687862,-5.456518315686466,17.1
,,0.01735804009082443,0.0041893022973937205,0.0008771180065153876,0.022424460394733538,4.294960635585993,0.7740672366368747,0.1868184216543107,-5.475221075048592,17.2
,,0.017657186713048674,0.004285407029769485,0.0008915590615860145,0.02283415280440417,4.281736704762966,0.7732796948631708,0.18767532417243574,-5.452539741999152,17.3
,,0.017657186713048674,0.004285407029769485,0.0008915590615860145,0.02283415280440417,4.273697238900013,0.7732796948631708,0.18767532417243574,-5.452539741999152,17.4
,,0.018939043065315703,0.004704748410256094,0.0011406764274527346,0.02478446790302453,4.263265123564906,0.7641496738771829,0.18982648442018632,-5.359182980221257,17.5
,,0.018939043065315703,0.004704748410256094,0.0011406764274527346,0.02478446790302453,4.252833008229801,0.7641496738771829,0.18982648442018632,-5.359182980221257,17.6
,,0.018939043065315703,0.004704748410256094,0.0011406764274527346,0.02478446790302453,4.242400892894694,0.7641496738771829,0.18982648442018632,-5.359182980221257,17.7
,,0.018939043065315703,0.004704748410256094,0.0011406764274527346,0.02478446790302453,4.231968777559589,0.7641496738771829,0.18982648442018632,-5.359182980221257,17.8
,,0.018939043065315703,0.004704748410256094,0.0011406764274527346,0.02478446790302453,4.221536662224483,0.7641496738771829,0.18982648442018632,-5.359182980221257,17.9
,,0.018939043065315703,0.004704748410256094,0.0011406764274527346,0.02478446790302453,4.211104546889377,0.7641496738771829,0.18982648442018632,-5.359182980221257,18.0
,,0.019146465958881004,0.004947613424599512,0.001144566008176279,0.025238645391656794,4.202593128508846,0.7586170201198794,0.1960332398122705,-5.308849955111229,18.1
,,0.020156379006986302,0.005044189181728475,0.00120639466940179,0.02640696285811657,4.1954830595527675,0.7632978890940857,0.19101739222456887,-5.289518355292468,18.2
,,0.020156379006986302,0.005044189181728475,0.00120639466940179,0.02640696285811657,4.187286832163847,0.7632978890940857,0.19101739222456887,-5.289518355292468,18.3
,,0.020156379006986302,0.005044189181728475,0.00120639466940179,0.02640696285811657,4.179090604774925,0.7632978890940857,0.19101739222456887,-5.289518355292468,18.4
,,0.020156379006986302,0.005044189181728475,0.00120639466940179,0.02640696285811657,4.170894377386004,0.7632978890940857,0.19101739222456887,-5.289518355292468,18.5
,,0.020156379006986302,0.005044189181728475,0.00120639466940179,0.02640696285811657,4.162698149997083,0.7632978890940857,0.19101739222456887,-5.289518355292468,18.6
,,0.020156379006986302,0.005044189181728475,0.00120639466940179,0.02640696285811657,4.154501922608162,0.7632978890940857,0.19101739222456887,-5.289518355292468,18.7
,,0.020156379006986302,0.005044189181728475,0.00120639466940179,0.02640696285811657,4.146305695219239,0.7632978890940857,0.19101739222456887,-5.289518355292468,18.8
,,0.015865474149061965,0.0052416638382229075,0.0012058931186275062,0.02231303110591238,4.130635671487796,0.711040739994219,0.2349149164603639,-5.2511163046716005,18.9
,,0.02127052021107157,0.00537035616234609,0.0012774430785861609,0.027918319452003824,4.1221142258336485,0.7618839754176138,0.19235957850466662,-5.226861048201498,19.0
,,0.02127052021107157,0.00537035616234609,0.0012774430785861609,0.027918319452003824,4.113592780179502,0.7618839754176138,0.19235957850466662,-5.226861048201498,19.1
,,0.02127052021107157,0.00537035616234609,0.0012774430785861609,0.027918319452003824,4.105071334525354,0.7618839754176138,0.19235957850466662,-5.226861048201498,19.2
,,0.02127052021107157,0.00537035616234609,0.0012774430785861609,0.027918319452003824,4.096549888871206,0.7618839754176138,0.19235957850466662,-5.226861048201498,19.3
,,0.02127052021107157,0.00537035616234609,0.0012774430785861609,0.027918319452003824,4.088028443217059,0.7618839754176138,0.19235957850466662,-5.226861048201498,19.4
,,0.02127052021107157,0.00537035616234609,0.0012774430785861609,0.027918319452003824,4.079506997562912,0.7618839754176138,0.19235957850466662,-5.226861048201498,19.5
,,0.021309708434490652,0.0055004392878347935,0.0012735153155816873,0.028083663037907134,4.0752556694743225,0.7587937658177623,0.19585904019751052,-5.202927319417775,19.6
,,0.022199591032921816,0.005633034112698878,0.001351975441148215,0.02918460058676891,4.071746364982115,0.76066112218737,0.19301391828033662,-5.179107063220885,19.7
,,0.022199591032921816,0.005633034112698878,0.001351975441148215,0.02918460058676891,4.067375015401744,0.76066112218737,0.19301391828033662,-5.179107063220885,19.8
,,0.022199591032921816,0.005633034112698878,0.001351975441148215,0.02918460058676891,4.063003665821374,0.76066112218737,0.19301391828033662,-5.179107063220885,19.9
,,0.022199591032921816,0.005633034112698878,0.001351975441148215,0.02918460058676891,4.058632316241003,0.76066112218737,0.19301391828033662,-5.179107063220885,20.0
,,0.022199591032921816,0.005633034112698878,0.001351975441148215,0.02918460058676891,4.054260966660633,0.76066112218737,0.19301391828033662,-5.179107063220885,20.1
,,0.022199591032921816,0.005633034112698878,0.001351975441148215,0.02918460058676891,4.049889617080262,0.76066112218737,0.19301391828033662,-5.179107063220885,20.2
,,0.022199591032921816,0.005633034112698878,0.001351975441148215,0.02918460058676891,4.048074369820617,0.76066112218737,0.19301391828033662,-5.179107063220885,20.3
,,0.022365504171128186,0.005717099729309201,0.0013580284265909581,0.029440632327028347,4.045937695937147,0.7596815150806137,0.19419079270456244,-5.164293642509406,20.4
,,0.02315493441572505,0.00585224858755639,0.0014439751669508053,0.030451158170232244,4.041276313721047,0.7603958537892437,0.19218476206521756,-5.140929317649848,20.5
,,0.02315493441572505,0.00585224858755639,0.0014439751669508053,0.030451158170232244,4.036614931504946,0.7603958537892437,0.19218476206521756,-5.140929317649848,20.6
,,0.02315493441572505,0.00585224858755639,0.0014439751669508053,0.030451158170232244,4.031953549288844,0.7603958537892437,0.19218476206521756,-5.140929317649848,20.7
,,0.02315493441572505,0.00585224858755639,0.0014439751669508053,0.030451158170232244,4.027292167072743,0.7603958537892437,0.19218476206521756,-5.140929317649848,20.8
,,0.02315493441572505,0.00585224858755639,0.0014439751669508053,0.030451158170232244,4.022630784856642,0.7603958537892437,0.19218476206521756,-5.140929317649848,20.9
,,0.02315493441572505,0.00585224858755639,0.0014439751669508053,0.030451158170232244,4.01796940264054,0.7603958537892437,0.19218476206521756,-5.140929317649848,21.0
,,0.02315493441572505,0.00585224858755639,0.0014439751669508053,0.030451158170232244,4.017622048243581,0.7603958537892437,0.19218476206521756,-5.140929317649848,21.1
,,0.024832675849846088,0.006162537245818069,0.001592516736921773,0.032587729832585934,4.01808607420647,0.7620253382920458,0.1891060616212631,-5.089266695685456,21.2
,,0.024832675849846088,0.006162537245818069,0.001592516736921773,0.032587729832585934,4.01570807700124,0.7620253382920458,0.1891060616212631,-5.089266695685456,21.3
,,0.024832675849846088,0.006162537245818069,0.001592516736921773,0.032587729832585934,4.01333007979601,0.7620253382920458,0.1891060616212631,-5.089266695685456,21.4
,,0.024832675849846088,0.006162537245818069,0.001592516736921773,0.032587729832585934,4.010952082590779,0.7620253382920458,0.1891060616212631,-5.089266695685456,21.5
,,0.024832675849846088,0.006162537245818069,0.001592516736921773,0.032587729832585934,4.008574085385549,0.7620253382920458,0.1891060616212631,-5.089266695685456,21.6
,,0.024832675849846088,0.006162537245818069,0.001592516736921773,0.032587729832585934,4.006196088180319,0.7620253382920458,0.1891060616212631,-5.089266695685456,21.7
,,0.024832675849846088,0.006162537245818069,0.001592516736921773,0.032587729832585934,4.007575647102458,0.7620253382920458,0.1891060616212631,-5.089266695685456,21.8
,,0.025666993629036336,0.006185726790662456,0.0016481695763107887,0.03350088999600958,4.010285998632122,0.7661585597306111,0.18464365547898168,-5.085510771445895,21.9
,,0.02695389153754125,0.006450155346602343,0.001778817772718037,0.03518286465686163,4.012252510976749,0.7661084962927968,0.18333229569310766,-5.043651063719939,22.0
,,0.02695389153754125,0.006450155346602343,0.001778817772718037,0.03518286465686163,4.014219023321376,0.7661084962927968,0.18333229569310766,-5.043651063719939,22.1
,,0.02695389153754125,0.006450155346602343,0.001778817772718037,0.03518286465686163,4.016185535666002,0.7661084962927968,0.18333229569310766,-5.043651063719939,22.2
,,0.02695389153754125,0.006450155346602343,0.001778817772718037,0.03518286465686163,4.01815204801063,0.7661084962927968,0.18333229569310766,-5.043651063719939,22.3
,,0.02695389153754125,0.006450155346602343,0.001778817772718037,0.03518286465686163,4.020118560355256,0.7661084962927968,0.18333229569310766,-5.043651063719939,22.4
,,0.02652246651077354,0.006119338426797318,0.0017574630296474435,0.0343992679672183,4.023811824020295,0.7710183407405306,0.17789153050084974,-5.096301288497666,22.5
,,0.02695389153754125,0.006450155346602343,0.001778817772718037,0.03518286465686163,4.02736043590153,0.7661084962927968,0.18333229569310766,-5.043651063719939,22.6
,,0.022383046919495164,0.00663874657351343,0.0019838381279563755,0.031005631620964973,4.019163680351468,0.7219026270169737,0.21411421817398268,-5.014832102362096,22.7
,,0.022383046919495164,0.00663874657351343,0.0019838381279563755,0.031005631620964973,4.010966924801406,0.7219026270169737,0.21411421817398268,-5.014832102362096,22.8
,,0.022383046919495164,0.00663874657351343,0.0019838381279563755,0.031005631620964973,4.002770169251344,0.7219026270169737,0.21411421817398268,-5.014832102362096,22.9
,,0.022383046919495164,0.00663874657351343,0.0019838381279563755,0.031005631620964973,3.994573413701282,0.7219026270169737,0.21411421817398268,-5.014832102362096,23.0
,,0.022383046919495164,0.00663874657351343,0.0019838381279563755,0.031005631620964973,3.986376658151221,0.7219026270169737,0.21411421817398268,-5.014832102362096,23.1
,,0.022383046919495164,0.00663874657351343,0.0019838381279563755,0.031005631620964973,3.9781799026011595,0.7219026270169737,0.21411421817398268,-5.014832102362096,23.2
,,0.022383046919495164,0.00663874657351343,0.0019838381279563755,0.031005631620964973,3.972848297709594,0.7219026270169737,0.21411421817398268,-5.014832102362096,23.3
,,0.03196400974768605,0.006718176980729062,0.00220733566196915,0.04088952239038426,3.982919609910524,0.7817163879420326,0.16430069582590517,-5.002938443880471,23.4
,,0.03196400974768605,0.006718176980729062,0.00220733566196915,0.04088952239038426,3.991483809062094,0.7817163879420326,0.16430069582590517,-5.002938443880471,23.5
,,0.03196400974768605,0.006718176980729062,0.00220733566196915,0.04088952239038426,4.000048008213664,0.7817163879420326,0.16430069582590517,-5.002938443880471,23.6
,,0.03196400974768605,0.006718176980729062,0.00220733566196915,0.04088952239038426,4.008612207365234,0.7817163879420326,0.16430069582590517,-5.002938443880471,23.7
,,0.03196400974768605,0.006718176980729062,0.00220733566196915,0.04088952239038426,4.017176406516803,0.7817163879420326,0.16430069582590517,-5.002938443880471,23.8
,,0.03196400974768605,0.006718176980729062,0.00220733566196915,0.04088952239038426,4.025327437379035,0.7817163879420326,0.16430069582590517,-5.002938443880471,23.9
,,0.03196400974768605,0.006718176980729062,0.00220733566196915,0.04088952239038426,4.033891636530606,0.7817163879420326,0.16430069582590517,-5.002938443880471,24.0
,,0.03290197901935504,0.005926731778988977,0.0024654480187752226,0.04129415881711924,4.052667584047479,0.7967707773166924,0.1435247005572116,-5.128282351293739,24.1
,,0.034627140171232924,0.00666171238159005,0.0024197859295367148,0.04370863848235969,4.065876872534269,0.7922264653749864,0.15241180262978546,-5.011378713125209,24.2
,,0.034627140171232924,0.00666171238159005,0.0024197859295367148,0.04370863848235969,4.079086161021058,0.7922264653749864,0.15241180262978546,-5.011378713125209,24.3
,,0.034627140171232924,0.00666171238159005,0.0024197859295367148,0.04370863848235969,4.092295449507848,0.7922264653749864,0.15241180262978546,-5.011378713125209,24.4
,,0.034627140171232924,0.00666171238159005,0.0024197859295367148,0.04370863848235969,4.105504737994638,0.7922264653749864,0.15241180262978546,-5.011378713125209,24.5
,,0.034627140171232924,0.00666171238159005,0.0024197859295367148,0.04370863848235969,4.1187140264814275,0.7922264653749864,0.15241180262978546,-5.011378713125209,24.6
,,0.034627140171232924,0.00666171238159005,0.0024197859295367148,0.04370863848235969,4.131923314968216,0.7922264653749864,0.15241180262978546,-5.011378713125209,24.7
,,0.034973019723856205,0.006373546644869067,0.0024647232392586895,0.043811289607983965,4.1498226076567875,0.7982650142643344,0.1454772662913712,-5.055599191203857,24.8
,,0.017154256786584,0.006631622877444583,0.0015889700053427923,0.025374849669371372,4.135494356272554,0.6760338291694389,0.2613462922481571,-5.015905726842476,24.9
,,0.036484340620588404,0.0063690635683735005,0.0025549597034273844,0.04540836389238929,4.152550534057017,0.803471816492895,0.14026190380845222,-5.0563028267393575,25.0
,,0.036484340620588404,0.0063690635683735005,0.0025549597034273844,0.04540836389238929,4.169606711841479,0.803471816492895,0.14026190380845222,-5.0563028267393575,25.1
,,0.036484340620588404,0.0063690635683735005,0.0025549597034273844,0.04540836389238929,4.186662889625942,0.803471816492895,0.14026190380845222,-5.0563028267393575,25.2
,,0.036484340620588404,0.0063690635683735005,0.0025549597034273844,0.04540836389238929,4.203719067410404,0.803471816492895,0.14026190380845222,-5.0563028267393575,25.3
,,0.036484340620588404,0.0063690635683735005,0.0025549597034273844,0.04540836389238929,4.220775245194868,0.803471816492895,0.14026190380845222,-5.0563028267393575,25.4
,,0.036484340620588404,0.0063690635683735005,0.0025549597034273844,0.04540836389238929,4.23783142297933,0.803471816492895,0.14026190380845222,-5.0563028267393575,25.5
,,0.037670331181963765,0.006377273828805792,0.0021101513127123692,0.04615775632348192,4.2579434356632735,0.8161213668611459,0.13816256111134825,-5.055014572504131,25.6
,,0.037670331181963765,0.006377273828805792,0.0021101513127123692,0.04615775632348192,4.276429378650764,0.8161213668611459,0.13816256111134825,-5.055014572504131,25.7
,,0.037823568105745706,0.00600274897149855,0.00263389217707133,0.046460209254315585,4.299293948893945,0.8141067100818613,0.1292019357605663,-5.115537752761781,25.8
,,0.037823568105745706,0.00600274897149855,0.00263389217707133,0.046460209254315585,4.322158519137125,0.8141067100818613,0.1292019357605663,-5.115537752761781,25.9
,,0.037823568105745706,0.00600274897149855,0.00263389217707133,0.046460209254315585,4.345023089380305,0.8141067100818613,0.1292019357605663,-5.115537752761781,26.0
,,0.037823568105745706,0.00600274897149855,0.00263389217707133,0.046460209254315585,4.367887659623485,0.8141067100818613,0.1292019357605663,-5.115537752761781,26.1
,,0.037823568105745706,0.00600274897149855,0.00263389217707133,0.046460209254315585,4.3918612245376965,0.8141067100818613,0.1292019357605663,-5.115537752761781,26.2
,,0.038927741060283426,0.0059575474266938145,0.0021956687158564553,0.047080957202833694,4.418682151236187,0.8268256079113968,0.12653836669096533,-5.123096388184824,26.3
,,0.02325779965498696,0.007308365796957319,0.0025448404104051765,0.033111005862349455,4.408260455094123,0.7024190008505123,0.22072315855761018,-4.918735587400864,26.4
,,0.038927741060283426,0.0059575474266938145,0.0021956687158564553,0.047080957202833694,4.436134592671632,0.8268256079113968,0.12653836669096533,-5.123096388184824,26.5
,,0.03876967604114594,0.0056291374401382455,0.0026653732842800027,0.04706418676556418,4.467932417856794,0.8237617327643457,0.11960553930694835,-5.179799056358771,26.6
,,0.03876967604114594,0.0056291374401382455,0.0026653732842800027,0.04706418676556418,4.499730243041956,0.8237617327643457,0.11960553930694835,-5.179799056358771,26.7
,,0.03876967604114594,0.0056291374401382455,0.0026653732842800027,0.04706418676556418,4.531528068227117,0.8237617327643457,0.11960553930694835,-5.179799056358771,26.8
,,0.03876967604114594,0.0056291374401382455,0.0026653732842800027,0.04706418676556418,4.563325893412279,0.8237617327643457,0.11960553930694835,-5.179799056358771,26.9
,,0.03876967604114594,0.0056291374401382455,0.0026653732842800027,0.04706418676556418,4.59512371859744,0.8237617327643457,0.11960553930694835,-5.179799056358771,27.0
,,0.039685529668255316,0.0055461864356084935,0.002230354650061542,0.047462070753925355,4.631630650805966,0.836152511634211,0.11685512973851432,-5.19464471612412,27.1
,,0.03971482990490635,0.005374999338822552,0.0026714417920990314,0.04776127103582793,4.669328943174131,0.8315279104510102,0.11253886720875826,-5.225996827978176,27.2
,,0.039685529668255316,0.0055461864356084935,0.002230354650061542,0.047462070753925355,4.704434525958204,0.836152511634211,0.11685512973851432,-5.19464471612412,27.3
,,0.039194131934716304,0.0052850191870484784,0.0026466022597139574,0.04712575338147874,4.742435871904251,0.8316924212848829,0.1121471553837394,-5.2428790291937775,27.4
,,0.039194131934716304,0.0052850191870484784,0.0026466022597139574,0.04712575338147874,4.7804372178503,0.8316924212848829,0.1121471553837394,-5.2428790291937775,27.5
,,0.039194131934716304,0.0052850191870484784,0.0026466022597139574,0.04712575338147874,4.818438563796348,0.8316924212848829,0.1121471553837394,-5.2428790291937775,27.6
,,0.039194131934716304,0.0052850191870484784,0.0026466022597139574,0.04712575338147874,4.856439909742395,0.8316924212848829,0.1121471553837394,-5.2428790291937775,27.7
,,0.03989703818996805,0.005184194544110007,0.0022143541189653558,0.047295586853043414,4.897550342551602,0.8435678853914195,0.10961264864348352,-5.262140792837315,27.8
,,0.03989703818996805,0.005184194544110007,0.0022143541189653558,0.047295586853043414,4.949429208766196,0.8435678853914195,0.10961264864348352,-5.262140792837315,27.9
,,0.03989703818996805,0.005184194544110007,0.0022143541189653558,0.047295586853043414,4.990931109623072,0.8435678853914195,0.10961264864348352,-5.262140792837315,28.0
,,0.03989703818996805,0.005184194544110007,0.0022143541189653558,0.047295586853043414,5.0324330104799495,0.8435678853914195,0.10961264864348352,-5.262140792837315,28.1
,,0.038775309973647434,0.004959535368273084,0.0025581488896844118,0.046292994231604934,5.075295312374606,0.8376064373726541,0.10713360521595153,-5.306443218384542,28.2
,,0.038775309973647434,0.004959535368273084,0.0025581488896844118,0.046292994231604934,5.118157614269262,0.8376064373726541,0.10713360521595153,-5.306443218384542,28.3
,,0.038775309973647434,0.004959535368273084,0.0025581488896844118,0.046292994231604934,5.1610199161639185,0.8376064373726541,0.10713360521595153,-5.306443218384542,28.4
,,0.038775309973647434,0.004959535368273084,0.0025581488896844118,0.046292994231604934,5.203882218058575,0.8376064373726541,0.10713360521595153,-5.306443218384542,28.5
,,0.038437878416270485,0.0047519631168105895,0.0020874204692832355,0.04527726200236431,5.250711761401132,0.8489444086584413,0.10495252819312371,-5.349197458565848,28.6
,,0.038437878416270485,0.0047519631168105895,0.0020874204692832355,0.04527726200236431,5.296799281147308,0.8489444086584413,0.10495252819312371,-5.349197458565848,28.7
,,0.038437878416270485,0.0047519631168105895,0.0020874204692832355,0.04527726200236431,5.342886800893485,0.8489444086584413,0.10495252819312371,-5.349197458565848,28.8
,,0.038437878416270485,0.0047519631168105895,0.0020874204692832355,0.04527726200236431,5.388974320639661,0.8489444086584413,0.10495252819312371,-5.349197458565848,28.9
,,0.034560828629582124,0.004305358213549706,0.0022160635973813695,0.0410822504405132,5.434379142442564,0.8412593823122214,0.1047984997750752,-5.447894935841749,29.0
,,0.034560828629582124,0.004305358213549706,0.0022160635973813695,0.0410822504405132,5.479783964245469,0.8412593823122214,0.1047984997750752,-5.447894935841749,29.1
,,0.034560828629582124,0.004305358213549706,0.0022160635973813695,0.0410822504405132,5.525188786048371,0.8412593823122214,0.1047984997750752,-5.447894935841749,29.2
,,0.03768131206272504,0.007505836624619841,0.00223600669895163,0.04742315538629652,5.537181041074377,0.7945762308682965,0.15827366533245785,-4.892074344477434,29.3
,,0.03768131206272504,0.007505836624619841,0.00223600669895163,0.04742315538629652,5.549494722724207,0.7945762308682965,0.15827366533245785,-4.892074344477434,29.4
,,0.03768131206272504,0.007505836624619841,0.00223600669895163,0.04742315538629652,5.561313394365402,0.7945762308682965,0.15827366533245785,-4.892074344477434,29.5
,,0.03768131206272504,0.007505836624619841,0.00223600669895163,0.04742315538629652,5.573132066006598,0.7945762308682965,0.15827366533245785,-4.892074344477434,29.6
,,0.03768131206272504,0.007505836624619841,0.00223600669895163,0.04742315538629652,5.584950737647794,0.7945762308682965,0.15827366533245785,-4.892074344477434,29.7
,,0.03620734428408217,0.007515094814681761,0.0025379115632092656,0.0462603506619732,5.5945214205377045,0.7826863343222608,0.16245218004495798,-4.8908416391326694,29.8
,,0.03620734428408217,0.007515094814681761,0.0025379115632092656,0.0462603506619732,5.604092103427616,0.7826863343222608,0.16245218004495798,-4.8908416391326694,29.9
,,0.03620734428408217,0.007515094814681761,0.0025379115632092656,0.0462603506619732,5.613662786317527,0.7826863343222608,0.16245218004495798,-4.8908416391326694,30.0
,,0.0298959981992959,0.003671886969777288,0.0014974936862183319,0.03506537885529152,5.660165838451584,0.8525787878314756,0.10471545124125144,-5.6070495883487235,30.1
,,0.0298959981992959,0.003671886969777288,0.0014974936862183319,0.03506537885529152,5.7058574333946686,0.8525787878314756,0.10471545124125144,-5.6070495883487235,30.2
,,0.0298959981992959,0.003671886969777288,0.0014974936862183319,0.03506537885529152,5.7515490283377515,0.8525787878314756,0.10471545124125144,-5.6070495883487235,30.3
,,0.0298959981992959,0.003671886969777288,0.0014974936862183319,0.03506537885529152,5.797240623280836,0.8525787878314756,0.10471545124125144,-5.6070495883487235,30.4
,,0.0298959981992959,0.003671886969777288,0.0014974936862183319,0.03506537885529152,5.842932218223921,0.8525787878314756,0.10471545124125144,-5.6070495883487235,30.5
,,0.026126952421697592,0.003375884415126447,0.0015286239539978954,0.031031460790821933,5.884150800201509,0.841950451440722,0.10878909110604683,-5.691097940060112,30.6
,,0.026126952421697592,0.003375884415126447,0.0015286239539978954,0.031031460790821933,5.925369382179098,0.841950451440722,0.10878909110604683,-5.691097940060112,30.7
,,0.029348958509776053,0.005417944818164452,0.0013945598382037877,0.03616146316614429,5.940784629403207,0.8116087110450122,0.14982648222146425,-5.218038720279839,30.8
,,0.029348958509776053,0.005417944818164452,0.0013945598382037877,0.03616146316614429,5.954869084019791,0.8116087110450122,0.14982648222146425,-5.218038720279839,30.9
,,0.029348958509776053,0.005417944818164452,0.0013945598382037877,0.03616146316614429,5.9686267925506025,0.8116087110450122,0.14982648222146425,-5.218038720279839,31.0
,,0.029348958509776053,0.005417944818164452,0.0013945598382037877,0.03616146316614429,5.9823845010814125,0.8116087110450122,0.14982648222146425,-5.218038720279839,31.1
,,0.029348958509776053,0.005417944818164452,0.0013945598382037877,0.03616146316614429,5.9961422096122226,0.8116087110450122,0.14982648222146425,-5.218038720279839,31.2
,,0.029348958509776053,0.005417944818164452,0.0013945598382037877,0.03616146316614429,6.009899918143034,0.8116087110450122,0.14982648222146425,-5.218038720279839,31.3
,,0.02229152730224194,0.0030375483371024034,0.0012232640845672253,0.026552339723911567,6.045009477805281,0.839531564224731,0.11439851887579441,-5.7967045569927365,31.4
,,0.02229152730224194,0.0030375483371024034,0.0012232640845672253,0.026552339723911567,6.078392286147116,0.839531564224731,0.11439851887579441,-5.7967045569927365,31.5
,,0.022324764862773787,0.0030459932863982674,0.0009654159507637948,0.026336174099935848,6.113397019463509,0.8476844350306815,0.11565815424973543,-5.793928228583077,31.6
,,0.022324764862773787,0.0030459932863982674,0.0009654159507637948,0.026336174099935848,6.157370864079589,0.8476844350306815,0.11565815424973543,-5.793928228583077,31.7
,,0.022324764862773787,0.0030459932863982674,0.0009654159507637948,0.026336174099935848,6.201344708695668,0.8476844350306815,0.11565815424973543,-5.793928228583077,31.8
,,0.022324764862773787,0.0030459932863982674,0.0009654159507637948,0.026336174099935848,6.245318553311749,0.8476844350306815,0.11565815424973543,-5.793928228583077,31.9
,,0.022324764862773787,0.0030459932863982674,0.0009654159507637948,0.026336174099935848,6.289292397927828,0.8476844350306815,0.11565815424973543,-5.793928228583077,32.0
,,0.022324764862773787,0.0030459932863982674,0.0009654159507637948,0.026336174099935848,6.333266242543909,0.8476844350306815,0.11565815424973543,-5.793928228583077,32.1
,,0.015601476631938773,0.0028086714822887276,0.0009877319921677927,0.019397880106395295,6.357523752016991,0.8042877132122863,0.14479270244395084,-5.875043689536835,32.2
,,0.019468432255888395,0.002838398113250988,0.0009513650399174676,0.02325819540905685,6.3962723440603,0.8370568702121789,0.12203862179890802,-5.86451543057197,32.3
,,0.019468432255888395,0.002838398113250988,0.0009513650399174676,0.02325819540905685,6.419618019011111,0.8370568702121789,0.12203862179890802,-5.86451543057197,32.4
,,0.019468432255888395,0.002838398113250988,0.0009513650399174676,0.02325819540905685,6.442963693961923,0.8370568702121789,0.12203862179890802,-5.86451543057197,32.5
,,0.019468432255888395,0.002838398113250988,0.0009513650399174676,0.02325819540905685,6.466309368912733,0.8370568702121789,0.12203862179890802,-5.86451543057197,32.6
,,0.019468432255888395,0.002838398113250988,0.0009513650399174676,0.02325819540905685,6.489655043863545,0.8370568702121789,0.12203862179890802,-5.86451543057197,32.7
,,0.019468432255888395,0.002838398113250988,0.0009513650399174676,0.02325819540905685,6.513000718814357,0.8370568702121789,0.12203862179890802,-5.86451543057197,32.8
,,0.019468432255888395,0.002838398113250988,0.0009513650399174676,0.02325819540905685,6.536346393765168,0.8370568702121789,0.12203862179890802,-5.86451543057197,32.9
,,0.01708442113243703,0.0026004816537848444,0.0007952381883949492,0.020480140974616822,6.556478331173916,0.8341945084075123,0.12697576921017745,-5.952058599655923,33.0
,,0.017111285865584323,0.0026445667453400077,0.0007738254907081056,0.020529678101632434,6.566688342800266,0.8334902174731958,0.1288167662565407,-5.935248028472526,33.1
,,0.017111285865584323,0.0026445667453400077,0.0007738254907081056,0.020529678101632434,6.580826356620386,0.8334902174731958,0.1288167662565407,-5.935248028472526,33.2
,,0.017111285865584323,0.0026445667453400077,0.0007738254907081056,0.020529678101632434,6.594964370440503,0.8334902174731958,0.1288167662565407,-5.935248028472526,33.3
,,0.017111285865584323,0.0026445667453400077,0.0007738254907081056,0.020529678101632434,6.609102384260624,0.8334902174731958,0.1288167662565407,-5.935248028472526,33.4
,,0.017111285865584323,0.0026445667453400077,0.0007738254907081056,0.020529678101632434,6.6232403980807435,0.8334902174731958,0.1288167662565407,-5.935248028472526,33.5
,,0.017111285865584323,0.0026445667453400077,0.0007738254907081056,0.020529678101632434,6.637378411900864,0.8334902174731958,0.1288167662565407,-5.935248028472526,33.6
,,0.017111285865584323,0.0026445667453400077,0.0007738254907081056,0.020529678101632434,6.651516425720983,0.8334902174731958,0.1288167662565407,-5.935248028472526,33.7
,,0.015171636671508969,0.0024375547732332493,0.0006365057767366832,0.018245697221478903,6.659704275691657,0.8315186033915362,0.1335961428957481,-6.016759884274691,33.8
,,0.015171636671508969,0.0024375547732332493,0.0006365057767366832,0.018245697221478903,6.700119669735134,0.8315186033915362,0.1335961428957481,-6.016759884274691,33.9
,,0.015171636671508969,0.0024375547732332493,0.0006365057767366832,0.018245697221478903,6.705628038938062,0.8315186033915362,0.1335961428957481,-6.016759884274691,34.0
,,0.015171636671508969,0.0024375547732332493,0.0006365057767366832,0.018245697221478903,6.711136408140987,0.8315186033915362,0.1335961428957481,-6.016759884274691,34.1
,,0.015171636671508969,0.0024375547732332493,0.0006365057767366832,0.018245697221478903,6.716644777343916,0.8315186033915362,0.1335961428957481,-6.016759884274691,34.2
,,0.015171636671508969,0.0024375547732332493,0.0006365057767366832,0.018245697221478903,6.722153146546844,0.8315186033915362,0.1335961428957481,-6.016759884274691,34.3
,,0.01516706939690435,0.002433829438620087,0.0006031597952382107,0.01820405863076265,6.727746519698003,0.8331696631252243,0.13369707755759536,-6.0182893613914095,34.4
,,0.015171636671508969,0.0024375547732332493,0.0006365057767366832,0.018245697221478903,6.73325488890093,0.8315186033915362,0.1335961428957481,-6.016759884274691,34.5
,,0.01403949107249217,0.002287562324016488,0.0005529747266859235,0.01688002812319458,6.735814339506231,0.8317220190646913,0.13551886924128903,-6.08026851571406,34.6
,,0.01403949107249217,0.002287562324016488,0.0005529747266859235,0.01688002812319458,6.738373790111532,0.8317220190646913,0.13551886924128903,-6.08026851571406,34.7
,,0.01403949107249217,0.002287562324016488,0.0005529747266859235,0.01688002812319458,6.736554613461142,0.8317220190646913,0.13551886924128903,-6.08026851571406,34.8
,,0.01403949107249217,0.002287562324016488,0.0005529747266859235,0.01688002812319458,6.734735436810754,0.8317220190646913,0.13551886924128903,-6.08026851571406,34.9
,,0.01403949107249217,0.002287562324016488,0.0005529747266859235,0.01688002812319458,6.732916260160365,0.8317220190646913,0.13551886924128903,-6.08026851571406,35.0
,,0.01403949107249217,0.002287562324016488,0.0005529747266859235,0.01688002812319458,6.731097083509976,0.8317220190646913,0.13551886924128903,-6.08026851571406,35.1
,,0.01403949107249217,0.002287562324016488,0.0005529747266859235,0.01688002812319458,6.729277906859587,0.8317220190646913,0.13551886924128903,-6.08026851571406,35.2
,,0.01391399515672129,0.0020620943786407776,0.0005752598873458209,0.01655134942270789,6.731648100575342,0.8406562390394442,0.12458768925581706,-6.184033123997957,35.3
,,0.009362161272800668,0.0018499538174400882,0.00048423253956664627,0.011696347629807402,6.752519223595802,0.8004345945517037,0.15816508503266422,-6.2925946037493965,35.4
,,0.009362161272800668,0.0018499538174400882,0.00048423253956664627,0.011696347629807402,6.736147723775706,0.8004345945517037,0.15816508503266422,-6.2925946037493965,35.5
,,0.009362161272800668,0.0018499538174400882,0.00048423253956664627,0.011696347629807402,6.715852536347957,0.8004345945517037,0.15816508503266422,-6.2925946037493965,35.6
,,0.009362161272800668,0.0018499538174400882,0.00048423253956664627,0.011696347629807402,6.695557348920209,0.8004345945517037,0.15816508503266422,-6.2925946037493965,35.7
,,0.009362161272800668,0.0018499538174400882,0.00048423253956664627,0.011696347629807402,6.67526216149246,0.8004345945517037,0.15816508503266422,-6.2925946037493965,35.8
,,0.009362161272800668,0.0018499538174400882,0.00048423253956664627,0.011696347629807402,6.654966974064713,0.8004345945517037,0.15816508503266422,-6.2925946037493965,35.9
,,0.012856638076551267,0.0019828643252162337,0.000461620785122362,0.015301123186889863,6.650484206060444,0.8402414593699205,0.12958946222426138,-6.223212850738145,36.0
,,0.007571187514728742,0.0016243777537315578,0.0005254718765444143,0.009721037145004715,6.622767700412839,0.7788456521451828,0.16709922300484842,-6.4226304573138995,36.1
,,0.01191758355979831,0.001843169449475024,0.0004338876310784024,0.014194640640351737,6.612512184663633,0.8395833231536461,0.12984967327988312,-6.296268662320646,36.2
,,0.01191758355979831,0.001843169449475024,0.0004338876310784024,0.014194640640351737,6.60484937849852,0.8395833231536461,0.12984967327988312,-6.296268662320646,36.3
,,0.01191758355979831,0.001843169449475024,0.0004338876310784024,0.014194640640351737,6.59429080917143,0.8395833231536461,0.12984967327988312,-6.296268662320646,36.4
,,0.01191758355979831,0.001843169449475024,0.0004338876310784024,0.014194640640351737,6.583732239844341,0.8395833231536461,0.12984967327988312,-6.296268662320646,36.5
,,0.01191758355979831,0.001843169449475024,0.0004338876310784024,0.014194640640351737,6.573173670517251,0.8395833231536461,0.12984967327988312,-6.296268662320646,36.6
,,0.01191758355979831,0.001843169449475024,0.0004338876310784024,0.014194640640351737,6.562615101190163,0.8395833231536461,0.12984967327988312,-6.296268662320646,36.7
,,0.01191758355979831,0.001843169449475024,0.0004338876310784024,0.014194640640351737,6.548947444999917,0.8395833231536461,0.12984967327988312,-6.296268662320646,36.8
,,0.011741695688786108,0.0016291461977563616,0.00047089695904869414,0.013841738845591164,6.543518226994544,0.8482818394255461,0.11769808807477054,-6.419699206454706,36.9
,,0.007167024856433479,0.001585137575224227,0.00039379080098782656,0.009145953232645531,6.5082459012478555,0.7836279799519996,0.17331573154848887,-6.44708407717092,37.0
,,0.007167024856433479,0.001585137575224227,0.00039379080098782656,0.009145953232645531,6.472973575501167,0.7836279799519996,0.17331573154848887,-6.44708407717092,37.1
,,0.007167024856433479,0.001585137575224227,0.00039379080098782656,0.009145953232645531,6.4363408487167,0.7836279799519996,0.17331573154848887,-6.44708407717092,37.2
,,0.007167024856433479,0.001585137575224227,0.00039379080098782656,0.009145953232645531,6.399708121932232,0.7836279799519996,0.17331573154848887,-6.44708407717092,37.3
,,0.007167024856433479,0.001585137575224227,0.00039379080098782656,0.009145953232645531,6.3630753951477645,0.7836279799519996,0.17331573154848887,-6.44708407717092,37.4
,,0.007167024856433479,0.001585137575224227,0.00039379080098782656,0.009145953232645531,6.326442668363297,0.7836279799519996,0.17331573154848887,-6.44708407717092,37.5
,,0.010810323446854658,0.0013940526857128157,0.000440156448957246,0.012644532581524719,6.322728889206078,0.8549405347454222,0.11024944391773764,-6.575540172729012,37.6
,,0.010810323446854658,0.0013940526857128157,0.000440156448957246,0.012644532581524719,6.319015110048858,0.8549405347454222,0.11024944391773764,-6.575540172729012,37.7
,,0.01017969616799421,0.001359750263000151,0.0003668743584031712,0.011906320789397533,6.312321816030715,0.8549825213057534,0.11420406749085711,-6.600454226243204,37.8
,,0.01017969616799421,0.001359750263000151,0.0003668743584031712,0.011906320789397533,6.305628522012572,0.8549825213057534,0.11420406749085711,-6.600454226243204,37.9
,,0.01017969616799421,0.001359750263000151,0.0003668743584031712,0.011906320789397533,6.299617925937704,0.8549825213057534,0.11420406749085711,-6.600454226243204,38.0
,,0.01017969616799421,0.001359750263000151,0.0003668743584031712,0.011906320789397533,6.2936073298628346,0.8549825213057534,0.11420406749085711,-6.600454226243204,38.1
,,0.01017969616799421,0.001359750263000151,0.0003668743584031712,0.011906320789397533,6.287596733787964,0.8549825213057534,0.11420406749085711,-6.600454226243204,38.2
,,0.01017969616799421,0.001359750263000151,0.0003668743584031712,0.011906320789397533,6.314998704489994,0.8549825213057534,0.11420406749085711,-6.600454226243204,38.3
,,0.009787659539324017,0.0012121571620195963,0.00035759897118473505,0.011357415672528348,6.3489354995236,0.8617857989470876,0.10672825552661577,-6.715353728108323,38.4
,,0.010021367240904673,0.001181627543094534,0.00041646996245417055,0.011619464746453378,6.38738792634863,0.8624637588373858,0.10169380164049324,-6.740862517020019,38.5
,,0.009479728847704412,0.0011564877802429667,0.0003453689065357748,0.010981585534483154,6.422684933333077,0.8632386296074661,0.10531154873870374,-6.762367642502544,38.6
,,0.009479728847704412,0.0011564877802429667,0.0003453689065357748,0.010981585534483154,6.457981940317525,0.8632386296074661,0.10531154873870374,-6.762367642502544,38.7
,,0.009479728847704412,0.0011564877802429667,0.0003453689065357748,0.010981585534483154,6.495526936053257,0.8632386296074661,0.10531154873870374,-6.762367642502544,38.8
,,0.009479728847704412,0.0011564877802429667,0.0003453689065357748,0.010981585534483154,6.5330719317889905,0.8632386296074661,0.10531154873870374,-6.762367642502544,38.9
,,0.009479728847704412,0.0011564877802429667,0.0003453689065357748,0.010981585534483154,6.570616927524722,0.8632386296074661,0.10531154873870374,-6.762367642502544,39.0
,,0.009479728847704412,0.0011564877802429667,0.0003453689065357748,0.010981585534483154,6.571229554016309,0.8632386296074661,0.10531154873870374,-6.762367642502544,39.1
,,0.005131402974191055,0.0010349131717263208,0.0003388471959277209,0.006505163341845097,6.53585656402886,0.7888200041316112,0.1590910354347509,-6.873437747835804,39.2
,,0.009358957835654321,0.0011442810500496108,0.0002795919743652511,0.010782830860069183,6.536268069958045,0.8679499805855504,0.10612065281364054,-6.7729787430769415,39.3
,,0.008976395145816045,0.000997116470695326,0.00033118268705357464,0.010304694303564945,6.545829085141355,0.8710976649458324,0.09676332371649006,-6.910642973666693,39.4
,,0.008976395145816045,0.000997116470695326,0.00033118268705357464,0.010304694303564945,6.555390100324664,0.8710976649458324,0.09676332371649006,-6.910642973666693,39.5
,,0.008976395145816045,0.000997116470695326,0.00033118268705357464,0.010304694303564945,6.569424128473468,0.8710976649458324,0.09676332371649006,-6.910642973666693,39.6
,,0.008976395145816045,0.000997116470695326,0.00033118268705357464,0.010304694303564945,6.583458156622274,0.8710976649458324,0.09676332371649006,-6.910642973666693,39.7
,,0.008976395145816045,0.000997116470695326,0.00033118268705357464,0.010304694303564945,6.623295519524557,0.8710976649458324,0.09676332371649006,-6.910642973666693,39.8
,,0.008873263452012066,0.0009871775840058692,0.00027240146286223104,0.010132842498880166,6.662979152116452,0.8756934150503867,0.09742355949132411,-6.920660611710062,39.9
,,0.008873263452012066,0.0009871775840058692,0.00027240146286223104,0.010132842498880166,6.7026627847083455,0.8756934150503867,0.09742355949132411,-6.920660611710062,40.0
,,0.008873263452012066,0.0009871775840058692,0.00027240146286223104,0.010132842498880166,6.742346417300241,0.8756934150503867,0.09742355949132411,-6.920660611710062,40.1
,,0.007198080303081493,0.0009576959547719472,0.00047658555856124507,0.008632361816414686,6.765669174283547,0.8338483089754342,0.1109425178345584,-6.9509802053446,40.2
,,0.007198080303081493,0.0009576959547719472,0.00047658555856124507,0.008632361816414686,6.788991931266851,0.8338483089754342,0.1109425178345584,-6.9509802053446,40.3
,,0.007198080303081493,0.0009576959547719472,0.00047658555856124507,0.008632361816414686,6.7909628371187205,0.8338483089754342,0.1109425178345584,-6.9509802053446,40.4
,,0.007198080303081493,0.0009576959547719472,0.00047658555856124507,0.008632361816414686,6.79293374297059,0.8338483089754342,0.1109425178345584,-6.9509802053446,40.5
,,0.007198080303081493,0.0009576959547719472,0.00047658555856124507,0.008632361816414686,6.795009475168312,0.8338483089754342,0.1109425178345584,-6.9509802053446,40.6
,,0.008416789324280041,0.0008621542463198376,0.00026330036343125325,0.009542243934031133,6.822045992798683,0.8820555607746194,0.09035131068543324,-7.0560763632622265,40.7
,,0.008242510370015924,0.0007948397866374977,0.0003072205408454973,0.00934457069749892,6.855832705454161,0.882064102979288,0.08505899440091315,-7.1373699898612255,40.8
,,0.008416789324280041,0.0008621542463198376,0.00026330036343125325,0.009542243934031133,6.8828692230845325,0.8820555607746194,0.09035131068543324,-7.0560763632622265,40.9
,,0.008107990650052622,0.0007738302827286077,0.0003026761819944499,0.009184497114775678,6.917852715694331,0.8827909191684308,0.08425396328816939,-7.164157981378833,41.0
,,0.008107990650052622,0.0007738302827286077,0.0003026761819944499,0.009184497114775678,6.952836208304129,0.8827909191684308,0.08425396328816939,-7.164157981378833,41.1
,,0.008107990650052622,0.0007738302827286077,0.0003026761819944499,0.009184497114775678,7.0075360360569245,0.8827909191684308,0.08425396328816939,-7.164157981378833,41.2
,,0.008107990650052622,0.0007738302827286077,0.0003026761819944499,0.009184497114775678,7.047744781239495,0.8827909191684308,0.08425396328816939,-7.164157981378833,41.3
,,0.007995538935355657,0.0007683552714857008,0.00025226595393790273,0.00901616016077926,7.087156933353206,0.8868008989166635,0.0852197895538817,-7.171258338699456,41.4
,,0.007995538935355657,0.0007683552714857008,0.00025226595393790273,0.00901616016077926,7.126569085466916,0.8868008989166635,0.0852197895538817,-7.171258338699456,41.5
,,0.005293943128360403,0.0008992711241734652,0.0005157420583790952,0.006708956310912963,7.115768819860262,0.7890859446720702,0.134040390561299,-7.013925984784864,41.6
,,0.007746506681992944,0.0007068381784391443,0.0002880864568330204,0.00874143131726511,7.161329123455451,0.8861828687817863,0.08086069120546376,-7.25470880307609,41.7
,,0.007746506681992944,0.0007068381784391443,0.0002880864568330204,0.00874143131726511,7.20688942705064,0.8861828687817863,0.08086069120546376,-7.25470880307609,41.8
,,0.007746506681992944,0.0007068381784391443,0.0002880864568330204,0.00874143131726511,7.2524497306458295,0.8861828687817863,0.08086069120546376,-7.25470880307609,41.9
,,0.007746506681992944,0.0007068381784391443,0.0002880864568330204,0.00874143131726511,7.301223771783084,0.8861828687817863,0.08086069120546376,-7.25470880307609,42.0
,,0.007746506681992944,0.0007068381784391443,0.0002880864568330204,0.00874143131726511,7.351101802690053,0.8861828687817863,0.08086069120546376,-7.25470880307609,42.1
,,0.007629226614121085,0.0007045668533727876,0.00023952961141129382,0.008573323078905166,7.399522866607873,0.8898797518657556,0.08218130203285917,-7.25792733634737,42.2
,,0.007629226614121085,0.0007045668533727876,0.00023952961141129382,0.008573323078905166,7.447943930525691,0.8898797518657556,0.08218130203285917,-7.25792733634737,42.3
,,0.007629226614121085,0.0007045668533727876,0.00023952961141129382,0.008573323078905166,7.49636499444351,0.8898797518657556,0.08218130203285917,-7.25792733634737,42.4
,,0.00740184453643202,0.0006628517330693481,0.00027224848088158623,0.008336944750382953,7.548546237416755,0.8878365825912449,0.07950775169031801,-7.318959223150384,42.5
,,0.00740184453643202,0.0006628517330693481,0.00027224848088158623,0.008336944750382953,7.600727480389998,0.8878365825912449,0.07950775169031801,-7.318959223150384,42.6
,,0.00740184453643202,0.0006628517330693481,0.00027224848088158623,0.008336944750382953,7.652908723363243,0.8878365825912449,0.07950775169031801,-7.318959223150384,42.7
,,0.00740184453643202,0.0006628517330693481,0.00027224848088158623,0.008336944750382953,7.707825896786451,0.8878365825912449,0.07950775169031801,-7.318959223150384,42.8
,,0.00740184453643202,0.0006628517330693481,0.00027224848088158623,0.008336944750382953,7.762743070209661,0.8878365825912449,0.07950775169031801,-7.318959223150384,42.9
,,0.007276845290597337,0.0006628906745718803,0.00022502720681690254,0.00816476317198612,7.815557767019868,0.8912500139091245,0.0811892103430881,-7.318900476440135,43.0
,,0.005350270143088708,0.000866639377153692,0.0005100813433055245,0.0067269908635479245,7.814996230174334,0.7953437505141621,0.1288301700913285,-7.050887611018151,43.1
,,0.007276845290597337,0.0006628906745718803,0.00022502720681690254,0.00816476317198612,7.867810926984541,0.8912500139091245,0.0811892103430881,-7.318900476440135,43.2
,,0.0070530805728892376,0.0006361784207399918,0.00025464288769922486,0.007943901881328454,7.9218389024719364,0.8878609879947,0.08008387191126838,-7.360031498212245,43.3
,,0.0070530805728892376,0.0006361784207399918,0.00025464288769922486,0.007943901881328454,7.9757818740110995,0.8878609879947,0.08008387191126838,-7.360031498212245,43.4
,,0.0070530805728892376,0.0006361784207399918,0.00025464288769922486,0.007943901881328454,8.029809849498495,0.8878609879947,0.08008387191126838,-7.360031498212245,43.5
,,0.0070530805728892376,0.0006361784207399918,0.00025464288769922486,0.007943901881328454,8.084802337362415,0.8878609879947,0.08008387191126838,-7.360031498212245,43.6
,,0.006933269145606779,0.000638610182799115,0.00020844325043138822,0.007780322578837282,8.13724116347714,0.8911287514563323,0.08208016779871756,-7.356216332306313,43.7
,,0.006933269145606779,0.000638610182799115,0.00020844325043138822,0.007780322578837282,8.189679989591864,0.8911287514563323,0.08208016779871756,-7.356216332306313,43.8
,,0.006767091286264363,0.0006278651223449273,0.00023755385166292686,0.007632510260272217,8.241242463580319,0.8866141093170324,0.08226194278611218,-7.373185187899274,43.9
,,0.006933269145606779,0.000638610182799115,0.00020844325043138822,0.007780322578837282,8.293681289695046,0.8911287514563323,0.08208016779871756,-7.356216332306313,44.0
,,0.006730038105082047,0.0006259651279221524,0.00023646505113412026,0.007592468284138319,8.344949548512929,0.8864097752165783,0.08244553740578373,-7.376215894610468,44.1
,,0.006730038105082047,0.0006259651279221524,0.00023646505113412026,0.007592468284138319,8.396217807330814,0.8864097752165783,0.08244553740578373,-7.376215894610468,44.2
,,0.006730038105082047,0.0006259651279221524,0.00023646505113412026,0.007592468284138319,8.440706163419744,0.8864097752165783,0.08244553740578373,-7.376215894610468,44.3
,,0.006730038105082047,0.0006259651279221524,0.00023646505113412026,0.007592468284138319,8.503936213044524,0.8864097752165783,0.08244553740578373,-7.376215894610468,44.4
,,0.006683158696965508,0.0008135118495196923,0.0003617546454025853,0.007858425191887786,8.53898555992243,0.8504450362223337,0.10352097648769076,-7.114150065314533,44.5
,,0.006683158696965508,0.0008135118495196923,0.0003617546454025853,0.007858425191887786,8.574034906800335,0.8504450362223337,0.10352097648769076,-7.114150065314533,44.6
,,0.006683158696965508,0.0008135118495196923,0.0003617546454025853,0.007858425191887786,8.60908425367824,0.8504450362223337,0.10352097648769076,-7.114150065314533,44.7
,,0.006430825548423901,0.0006299172130382138,0.00021788621304774357,0.007278628974509859,8.666286999171957,0.8835215493116891,0.08654338821833302,-7.369922155089318,44.8
,,0.006430825548423901,0.0006299172130382138,0.00021788621304774357,0.007278628974509859,8.723489744665672,0.8835215493116891,0.08654338821833302,-7.369922155089318,44.9
,,0.006430825548423901,0.0006299172130382138,0.00021788621304774357,0.007278628974509859,8.764880070735908,0.8835215493116891,0.08654338821833302,-7.369922155089318,45.0
,,0.006430825548423901,0.0006299172130382138,0.00021788621304774357,0.007278628974509859,8.826524782314591,0.8835215493116891,0.08654338821833302,-7.369922155089318,45.1
,,0.006337983853274319,0.0006373017391157857,0.00017395125232318783,0.007149236844713293,8.865182763198503,0.8865259315001044,0.08914262500438164,-7.3582673267668675,45.2
,,0.006337983853274319,0.0006373017391157857,0.00017395125232318783,0.007149236844713293,8.903840744082414,0.8865259315001044,0.08914262500438164,-7.3582673267668675,45.3
,,0.006337983853274319,0.0006373017391157857,0.00017395125232318783,0.007149236844713293,8.942498724966326,0.8865259315001044,0.08914262500438164,-7.3582673267668675,45.4
,,0.006337983853274319,0.0006373017391157857,0.00017395125232318783,0.007149236844713293,8.981156705850237,0.8865259315001044,0.08914262500438164,-7.3582673267668675,45.5
,,0.006441335203334264,0.0008698647856549402,0.0003949943778292279,0.007706194366818432,8.991591976801162,0.8358646170500919,0.11287864596310089,-7.047172777181821,45.6
,,0.006441335203334264,0.0008698647856549402,0.0003949943778292279,0.007706194366818432,9.002027247752089,0.8358646170500919,0.11287864596310089,-7.047172777181821,45.7
,,0.006441335203334264,0.0008698647856549402,0.0003949943778292279,0.007706194366818432,9.012462518703014,0.8358646170500919,0.11287864596310089,-7.047172777181821,45.8
,,0.006441335203334264,0.0008698647856549402,0.0003949943778292279,0.007706194366818432,9.014659351469064,0.8358646170500919,0.11287864596310089,-7.047172777181821,45.9
,,0.006103613791356048,0.0006554125936522178,0.00015759704924839417,0.00691662343425666,9.06789533356063,0.8824557024640178,0.0947590395634508,-7.330245606668702,46.0
,,0.006103613791356048,0.0006554125936522178,0.00015759704924839417,0.00691662343425666,9.121131315652194,0.8824557024640178,0.0947590395634508,-7.330245606668702,46.1
,,0.006103613791356048,0.0006554125936522178,0.00015759704924839417,0.00691662343425666,9.174367297743762,0.8824557024640178,0.0947590395634508,-7.330245606668702,46.2
,,0.006103613791356048,0.0006554125936522178,0.00015759704924839417,0.00691662343425666,9.227603279835327,0.8824557024640178,0.0947590395634508,-7.330245606668702,46.3
,,0.0059722769245448976,0.0006717856334707319,0.00018481849702157145,0.006828881055037201,9.276145090904151,0.8745615682000428,0.0983741886930658,-7.30557126614316,46.4
,,0.0059722769245448976,0.0006717856334707319,0.00018481849702157145,0.006828881055037201,9.324686901972976,0.8745615682000428,0.0983741886930658,-7.30557126614316,46.5
,,0.0059722769245448976,0.0006717856334707319,0.00018481849702157145,0.006828881055037201,9.33730413536146,0.8745615682000428,0.0983741886930658,-7.30557126614316,46.6
,,0.005927952191738205,0.0006822417025230784,0.0001431766416789028,0.006753370535940186,9.347685589198656,0.8777768316118215,0.10102240042839565,-7.290126560380045,46.7
,,0.005927952191738205,0.0006822417025230784,0.0001431766416789028,0.006753370535940186,9.361046557896776,0.8777768316118215,0.10102240042839565,-7.290126560380045,46.8
,,0.005927952191738205,0.0006822417025230784,0.0001431766416789028,0.006753370535940186,9.374407526594895,0.8777768316118215,0.10102240042839565,-7.290126560380045,46.9
,,0.005927952191738205,0.0006822417025230784,0.0001431766416789028,0.006753370535940186,9.387768495293013,0.8777768316118215,0.10102240042839565,-7.290126560380045,47.0
,,0.005927952191738205,0.0006822417025230784,0.0001431766416789028,0.006753370535940186,9.401129463991131,0.8777768316118215,0.10102240042839565,-7.290126560380045,47.1
,,0.006169309979791474,0.0009596432006148506,0.0003217270508010665,0.007450680231207391,9.389377335800734,0.8280196959669722,0.12879940768298673,-6.948949008613525,47.2
,,0.006169309979791474,0.0009596432006148506,0.0003217270508010665,0.007450680231207391,9.377625207610338,0.8280196959669722,0.12879940768298673,-6.948949008613525,47.3
,,0.006169309979791474,0.0009596432006148506,0.0003217270508010665,0.007450680231207391,9.359338255088362,0.8280196959669722,0.12879940768298673,-6.948949008613525,47.4
,,0.004511129202450702,0.00071531399365215,0.0001306488918075842,0.005357092087910436,9.3351773173011,0.8420854315032493,0.13352654423589763,-7.242788959708219,47.5
,,0.004511129202450702,0.00071531399365215,0.0001306488918075842,0.005357092087910436,9.314171799354423,0.8420854315032493,0.13352654423589763,-7.242788959708219,47.6
,,0.004511129202450702,0.00071531399365215,0.0001306488918075842,0.005357092087910436,9.293166281407744,0.8420854315032493,0.13352654423589763,-7.242788959708219,47.7
,,0.005752769362142888,0.0007352792608852661,0.00016082638079589455,0.006648875003824048,9.289021011432022,0.865224471633807,0.11058701817410856,-7.215260184130264,47.8
,,0.005748004894873138,0.0007400821882694692,0.0001608306001910037,0.006648917683333611,9.284240043169861,0.8645023398742431,0.11130867060131949,-7.208749312704332,47.9
,,0.005748004894873138,0.0007400821882694692,0.0001608306001910037,0.006648917683333611,9.279459074907704,0.8645023398742431,0.11130867060131949,-7.208749312704332,48.0
,,0.005748004894873138,0.0007400821882694692,0.0001608306001910037,0.006648917683333611,9.274678106645545,0.8645023398742431,0.11130867060131949,-7.208749312704332,48.1
,,0.005768065606168717,0.0007506795424532867,0.0001214992591152295,0.006640244407737234,9.304961428420592,0.8686526055347825,0.11304998677135927,-7.19453170505105,48.2
,,0.005768065606168717,0.0007506795424532867,0.0001214992591152295,0.006640244407737234,9.299460254279007,0.8686526055347825,0.11304998677135927,-7.19453170505105,48.3
,,0.005768065606168717,0.0007506795424532867,0.0001214992591152295,0.006640244407737234,9.284809570883295,0.8686526055347825,0.11304998677135927,-7.19453170505105,48.4
,,0.005768065606168717,0.0007506795424532867,0.0001214992591152295,0.006640244407737234,9.270158887487584,0.8686526055347825,0.11304998677135927,-7.19453170505105,48.5
,,0.005768065606168717,0.0007506795424532867,0.0001214992591152295,0.006640244407737234,9.255508204091875,0.8686526055347825,0.11304998677135927,-7.19453170505105,48.6
,,0.005742581335836176,0.0007774219176880745,0.00015455363800614795,0.006674556891530398,9.237556480008951,0.8603689247331396,0.11647543504716772,-7.159527346364891,48.7
,,0.005742581335836176,0.0007774219176880745,0.00015455363800614795,0.006674556891530398,9.21960475592603,0.8603689247331396,0.11647543504716772,-7.159527346364891,48.8
,,0.005742581335836176,0.0007774219176880745,0.00015455363800614795,0.006674556891530398,9.201806762153497,0.8603689247331396,0.11647543504716772,-7.159527346364891,48.9
,,0.005800511823229075,0.0007869276789936315,0.00011723541691653554,0.006704674919139242,9.183835299021183,0.8651443795836942,0.11736999757397017,-7.147374208313739,49.0
,,0.005800511823229075,0.0007869276789936315,0.00011723541691653554,0.006704674919139242,9.165863835888867,0.8651443795836942,0.11736999757397017,-7.147374208313739,49.1
,,0.005800511823229075,0.0007869276789936315,0.00011723541691653554,0.006704674919139242,9.164253248365144,0.8651443795836942,0.11736999757397017,-7.147374208313739,49.2
,,0.005800511823229075,0.0007869276789936315,0.00011723541691653554,0.006704674919139242,9.162642660841417,0.8651443795836942,0.11736999757397017,-7.147374208313739,49.3
,,0.005800511823229075,0.0007869276789936315,0.00011723541691653554,0.006704674919139242,9.161032073317692,0.8651443795836942,0.11736999757397017,-7.147374208313739,49.4
,,0.0058206059469652505,0.0008113572535315598,0.00015297162394266415,0.006784934824439474,9.157230665995371,0.8578720500010271,0.11958217352494445,-7.116802090941585,49.5
,,0.0058206059469652505,0.0008113572535315598,0.00015297162394266415,0.006784934824439474,9.15342925867305,0.8578720500010271,0.11958217352494445,-7.116802090941585,49.6
,,0.005915394323365046,0.0008194006078274673,0.00011738174233156406,0.0068521766735240765,9.125169954602558,0.8632868948375724,0.11958252784017159,-7.106937451055992,49.7
,,0.005915394323365046,0.0008194006078274673,0.00011738174233156406,0.0068521766735240765,9.09016045550696,0.8632868948375724,0.11958252784017159,-7.106937451055992,49.8
,,0.005915394323365046,0.0008194006078274673,0.00011738174233156406,0.0068521766735240765,9.06190115143647,0.8632868948375724,0.11958252784017159,-7.106937451055992,49.9
,,0.005915394323365046,0.0008194006078274673,0.00011738174233156406,0.0068521766735240765,9.02569487238655,0.8632868948375724,0.11958252784017159,-7.106937451055992,50.0
,,0.005915394323365046,0.0008194006078274673,0.00011738174233156406,0.0068521766735240765,8.989488593336631,0.8632868948375724,0.11958252784017159,-7.106937451055992,50.1
,,0.005915394323365046,0.0008194006078274673,0.00011738174233156406,0.0068521766735240765,8.953282314286714,0.8632868948375724,0.11958252784017159,-7.106937451055992,50.2
,,0.005987420623190997,0.0008425711820458005,0.00015635264450202045,0.0069863444497388185,8.915820011161724,0.8570176672887685,0.12060258238159151,-7.079052410231624,50.3
,,0.005987420623190997,0.0008425711820458005,0.00015635264450202045,0.0069863444497388185,8.879154301105592,0.8570176672887685,0.12060258238159151,-7.079052410231624,50.4
,,0.00646734562114273,0.000996274217699977,0.00016986899942761306,0.00763348883827032,8.835659716996595,0.8472332583652762,0.13051361426051733,-6.911488019297109,50.5
,,0.00646734562114273,0.000996274217699977,0.00016986899942761306,0.00763348883827032,8.842377550607962,0.8472332583652762,0.13051361426051733,-6.911488019297109,50.6
,,0.00646734562114273,0.000996274217699977,0.00016986899942761306,0.00763348883827032,8.792734815017488,0.8472332583652762,0.13051361426051733,-6.911488019297109,50.7
,,0.00646734562114273,0.000996274217699977,0.00016986899942761306,0.00763348883827032,8.743092079427011,0.8472332583652762,0.13051361426051733,-6.911488019297109,50.8
,,0.006210797754531195,0.0008623120159451373,0.00016190447073698218,0.007235014241213315,8.701348933612515,0.8584361478035795,0.11918594590085109,-7.05589338534124,50.9
,,0.00646734562114273,0.000996274217699977,0.00016986899942761306,0.00763348883827032,8.651706198022037,0.8472332583652762,0.13051361426051733,-6.911488019297109,51.0
,,0.006238233221994649,0.000866574835961768,0.00016456032454479754,0.007269368382501215,8.6099211571112,0.8581534039478989,0.11920909635667692,-7.050962086742461,51.1
,,0.006238233221994649,0.000866574835961768,0.00016456032454479754,0.007269368382501215,8.569593083189517,0.8581534039478989,0.11920909635667692,-7.050962086742461,51.2
,,0.006398093102026182,0.000870116817989278,0.00013306212530209016,0.0074012720453175505,8.530980770308968,0.8644585772352424,0.11756314491098344,-7.0468830817786365,51.3
,,0.006398093102026182,0.000870116817989278,0.00013306212530209016,0.0074012720453175505,8.49236845742842,0.8644585772352424,0.11756314491098344,-7.0468830817786365,51.4
,,0.006398093102026182,0.000870116817989278,0.00013306212530209016,0.0074012720453175505,8.449995965492445,0.8644585772352424,0.11756314491098344,-7.0468830817786365,51.5
,,0.006398093102026182,0.000870116817989278,0.00013306212530209016,0.0074012720453175505,8.407623473556471,0.8644585772352424,0.11756314491098344,-7.0468830817786365,51.6
,,0.006398093102026182,0.000870116817989278,0.00013306212530209016,0.0074012720453175505,8.365250981620497,0.8644585772352424,0.11756314491098344,-7.0468830817786365,51.7
,,0.006556033334588807,0.0008822147666877818,0.00017712441378610322,0.007615372515062693,8.323747291608148,0.8608946340604371,0.11584656757667738,-7.0330750319526985,51.8
,,0.006556033334588807,0.0008822147666877818,0.00017712441378610322,0.007615372515062693,8.282243601595797,0.8608946340604371,0.11584656757667738,-7.0330750319526985,51.9
,,0.006735310007003916,0.0008833157007073984,0.00014709876302579903,0.007765724470737113,8.244994572831105,0.8673125131317734,0.11374543405910398,-7.0318278893146715,52.0
,,0.006735310007003916,0.0008833157007073984,0.00014709876302579903,0.007765724470737113,8.261121777722158,0.8673125131317734,0.11374543405910398,-7.0318278893146715,52.1
,,0.006735310007003916,0.0008833157007073984,0.00014709876302579903,0.007765724470737113,8.223872748957469,0.8673125131317734,0.11374543405910398,-7.0318278893146715,52.2
,,0.006735310007003916,0.0008833157007073984,0.00014709876302579903,0.007765724470737113,8.18541044151559,0.8673125131317734,0.11374543405910398,-7.0318278893146715,52.3
,,0.006735310007003916,0.0008833157007073984,0.00014709876302579903,0.007765724470737113,8.146948134073712,0.8673125131317734,0.11374543405910398,-7.0318278893146715,52.4
,,0.006735310007003916,0.0008833157007073984,0.00014709876302579903,0.007765724470737113,8.108485826631835,0.8673125131317734,0.11374543405910398,-7.0318278893146715,52.5
,,0.006921963483652744,0.0008882511779320522,0.00019294344138087762,0.008003158102965674,8.071887610379513,0.8649040034692956,0.11098758346444501,-7.026255996937305,52.6
,,0.006921963483652744,0.0008882511779320522,0.00019294344138087762,0.008003158102965674,8.037843055876388,0.8649040034692956,0.11098758346444501,-7.026255996937305,52.7
,,0.007100463998153931,0.0008868931929134339,0.00016374508397464974,0.008151102275042014,8.00616735757593,0.8711047608732565,0.1088065347467208,-7.027785996756847,52.8
,,0.007100463998153931,0.0008868931929134339,0.00016374508397464974,0.008151102275042014,7.975368011401738,0.8711047608732565,0.1088065347467208,-7.027785996756847,52.9
,,0.007100463998153931,0.0008868931929134339,0.00016374508397464974,0.008151102275042014,7.943692313101278,0.8711047608732565,0.1088065347467208,-7.027785996756847,53.0
,,0.007100463998153931,0.0008868931929134339,0.00016374508397464974,0.008151102275042014,7.9131871820976585,0.8711047608732565,0.1088065347467208,-7.027785996756847,53.1
,,0.007100463998153931,0.0008868931929134339,0.00016374508397464974,0.008151102275042014,7.88268205109404,0.8711047608732565,0.1088065347467208,-7.027785996756847,53.2
,,0.007100463998153931,0.0008868931929134339,0.00016374508397464974,0.008151102275042014,7.85217692009042,0.8711047608732565,0.1088065347467208,-7.027785996756847,53.3
,,0.00729614039084436,0.0008844086207077178,0.0002098173780423028,0.00839036638959438,7.824380037848061,0.8695854331096834,0.10540762818231031,-7.030591361507326,53.4
,,0.00729614039084436,0.0008844086207077178,0.0002098173780423028,0.00839036638959438,7.8247638583525765,0.8695854331096834,0.10540762818231031,-7.030591361507326,53.5
,,0.007463957862711814,0.0008813904771106081,0.0001809549193894555,0.008526303259211878,7.827577127604477,0.8754037518719148,0.10337310910896204,-7.034009809891351,53.6
,,0.007463957862711814,0.0008813904771106081,0.0001809549193894555,0.008526303259211878,7.830390396856378,0.8754037518719148,0.10337310910896204,-7.034009809891351,53.7
,,0.007463957862711814,0.0008813904771106081,0.0001809549193894555,0.008526303259211878,7.81105026749247,0.8754037518719148,0.10337310910896204,-7.034009809891351,53.8
,,0.007463957862711814,0.0008813904771106081,0.0001809549193894555,0.008526303259211878,7.791710138128561,0.8754037518719148,0.10337310910896204,-7.034009809891351,53.9
,,0.007463957862711814,0.0008813904771106081,0.0001809549193894555,0.008526303259211878,7.7723700087646534,0.8754037518719148,0.10337310910896204,-7.034009809891351,54.0
,,0.007638992394528073,0.0008701347623703237,0.00022615867927050393,0.0087352858361689,7.756482119981317,0.8744982749045752,0.09961148137448302,-7.046862459035065,54.1
,,0.007638992394528073,0.0008701347623703237,0.00022615867927050393,0.0087352858361689,7.743527262410264,0.8744982749045752,0.09961148137448302,-7.046862459035065,54.2
,,0.007779676653907058,0.0008667063929105198,0.00019615377674583065,0.008842536823563408,7.7327618202164095,0.8798014426330617,0.09801558197653626,-7.0508102856996615,54.3
,,0.007779676653907058,0.0008667063929105198,0.00019615377674583065,0.008842536823563408,7.721996378022554,0.8798014426330617,0.09801558197653626,-7.0508102856996615,54.4
,,0.007779676653907058,0.0008667063929105198,0.00019615377674583065,0.008842536823563408,7.711230935828699,0.8798014426330617,0.09801558197653626,-7.0508102856996615,54.5
,,0.007779676653907058,0.0008667063929105198,0.00019615377674583065,0.008842536823563408,7.728688203567831,0.8798014426330617,0.09801558197653626,-7.0508102856996615,54.6
,,0.007779676653907058,0.0008667063929105198,0.00019615377674583065,0.008842536823563408,7.746145471306961,0.8798014426330617,0.09801558197653626,-7.0508102856996615,54.7
,,0.007779676653907058,0.0008667063929105198,0.00019615377674583065,0.008842536823563408,7.7636027390460915,0.8798014426330617,0.09801558197653626,-7.0508102856996615,54.8
,,0.007921915220182494,0.00085029872883993,0.00023928518801767006,0.009011499137040094,7.784843200492806,0.8790896053710899,0.09435707820743554,-7.069922824528449,54.9
,,0.007921915220182494,0.00085029872883993,0.00023928518801767006,0.009011499137040094,7.78488762035532,0.8790896053710899,0.09435707820743554,-7.069922824528449,55.0
,,0.008028352638851974,0.0008485511365781464,0.00020764545071891324,0.009084549226149033,7.7865389502768005,0.8837370395597731,0.09340597045097963,-7.071980208072216,55.1
,,0.008028352638851974,0.0008485511365781464,0.00020764545071891324,0.009084549226149033,7.78819028019828,0.8837370395597731,0.09340597045097963,-7.071980208072216,55.2
,,0.008028352638851974,0.0008485511365781464,0.00020764545071891324,0.009084549226149033,7.789841610119759,0.8837370395597731,0.09340597045097963,-7.071980208072216,55.3
,,0.008028352638851974,0.0008485511365781464,0.00020764545071891324,0.009084549226149033,7.79618711106398,0.8837370395597731,0.09340597045097963,-7.071980208072216,55.4
,,0.008028352638851974,0.0008485511365781464,0.00020764545071891324,0.009084549226149033,7.8025326120082,0.8837370395597731,0.09340597045097963,-7.071980208072216,55.5
,,0.008117330412516973,0.0008264940376235451,0.00024866614859956395,0.009192490598740083,7.812879828374641,0.8830392944464397,0.08990969626194928,-7.098317854735816,55.6
,,0.008117330412516973,0.0008264940376235451,0.00024866614859956395,0.009192490598740083,7.825462824292368,0.8830392944464397,0.08990969626194928,-7.098317854735816,55.7
,,0.00817456612787533,0.0008266650603056157,0.00021448350637471347,0.009215714694555658,7.838792542532097,0.887024652868713,0.08970167672334543,-7.098110950653934,55.8
,,0.00817456612787533,0.0008266650603056157,0.00021448350637471347,0.009215714694555658,7.852122260771825,0.887024652868713,0.08970167672334543,-7.098110950653934,55.9
,,0.00817456612787533,0.0008266650603056157,0.00021448350637471347,0.009215714694555658,7.865451979011555,0.887024652868713,0.08970167672334543,-7.098110950653934,56.0
,,0.00817456612787533,0.0008266650603056157,0.00021448350637471347,0.009215714694555658,7.878781697251284,0.887024652868713,0.08970167672334543,-7.098110950653934,56.1
,,0.00817456612787533,0.0008266650603056157,0.00021448350637471347,0.009215714694555658,7.917224512379529,0.887024652868713,0.08970167672334543,-7.098110950653934,56.2
,,0.00817456612787533,0.0008266650603056157,0.00021448350637471347,0.009215714694555658,7.955667327507774,0.887024652868713,0.08970167672334543,-7.098110950653934,56.3
,,0.008206771443510468,0.0008026579428212888,0.00025199634355260194,0.009261425729884358,7.997842219081555,0.8861239816488752,0.08666677963321649,-7.127581908840864,56.4
,,0.008206771443510468,0.0008026579428212888,0.00025199634355260194,0.009261425729884358,8.041375464129198,0.8861239816488752,0.08666677963321649,-7.127581908840864,56.5
,,0.008207654797576515,0.000806073630816291,0.00021507095008985817,0.009228799378482665,8.084439489181614,0.8893523914619933,0.08734328245293595,-7.123335466260023,56.6
,,0.008207654797576515,0.000806073630816291,0.00021507095008985817,0.009228799378482665,8.127503514234027,0.8893523914619933,0.08734328245293595,-7.123335466260023,56.7
,,0.008207654797576515,0.000806073630816291,0.00021507095008985817,0.009228799378482665,8.153707291315486,0.8893523914619933,0.08734328245293595,-7.123335466260023,56.8
,,0.008207654797576515,0.000806073630816291,0.00021507095008985817,0.009228799378482665,8.180546766683381,0.8893523914619933,0.08734328245293595,-7.123335466260023,56.9
,,0.008207654797576515,0.000806073630816291,0.00021507095008985817,0.009228799378482665,8.207386242051276,0.8893523914619933,0.08734328245293595,-7.123335466260023,57.0
,,0.008178457658510857,0.0007793684974964208,0.0002499941022164737,0.009207820258223752,8.237686091480986,0.8882077874192273,0.0846420190272878,-7.157026584793107,57.1
,,0.008178457658510857,0.0007793684974964208,0.0002499941022164737,0.009207820258223752,8.268907267352528,0.8882077874192273,0.0846420190272878,-7.157026584793107,57.2
,,0.008178457658510857,0.0007793684974964208,0.0002499941022164737,0.009207820258223752,8.30012844322407,0.8882077874192273,0.0846420190272878,-7.157026584793107,57.3
,,0.00816121795870494,0.0007893209806161614,0.0002113720384488534,0.009161910977769954,8.329636781870885,0.8907768235804681,0.0861524394344514,-7.144337500308171,57.4
,,0.00816121795870494,0.0007893209806161614,0.0002113720384488534,0.009161910977769954,8.359145120517702,0.8907768235804681,0.0861524394344514,-7.144337500308171,57.5
,,0.00816121795870494,0.0007893209806161614,0.0002113720384488534,0.009161910977769954,8.388653459164518,0.8907768235804681,0.0861524394344514,-7.144337500308171,57.6
,,0.00816121795870494,0.0007893209806161614,0.0002113720384488534,0.009161910977769954,8.421462838498547,0.8907768235804681,0.0861524394344514,-7.144337500308171,57.7
,,0.00816121795870494,0.0007893209806161614,0.0002113720384488534,0.009161910977769954,8.454272217832575,0.8907768235804681,0.0861524394344514,-7.144337500308171,57.8
,,0.008117562332460752,0.0007659028974005768,0.00024514913626756945,0.009128614366128898,8.489960938733642,0.8892436471607799,0.08390133120776876,-7.174455162054737,57.9
,,0.008117562332460752,0.0007659028974005768,0.00024514913626756945,0.009128614366128898,8.52582312899449,0.8892436471607799,0.08390133120776876,-7.174455162054737,58.0
,,0.008060346435418413,0.0007798503263130242,0.0002035759609886943,0.00904377272272013,8.558763956960943,0.8912592877493355,0.08623064181542874,-7.156408546036029,58.1
,,0.008060346435418413,0.0007798503263130242,0.0002035759609886943,0.00904377272272013,8.591704784927394,0.8912592877493355,0.08623064181542874,-7.156408546036029,58.2
,,0.008060346435418413,0.0007798503263130242,0.0002035759609886943,0.00904377272272013,8.624645612893847,0.8912592877493355,0.08623064181542874,-7.156408546036029,58.3
,,0.008060346435418413,0.0007798503263130242,0.0002035759609886943,0.00904377272272013,8.657586440860298,0.8912592877493355,0.08623064181542874,-7.156408546036029,58.4
,,0.007884954988748727,0.0007515545499233626,0.00023066247833020755,0.008867172017002297,8.694448826154781,0.8892299567020664,0.08475696067272627,-7.19336676335059,58.5
,,0.008060346435418413,0.0007798503263130242,0.0002035759609886943,0.00904377272272013,8.729580473919832,0.8912592877493355,0.08623064181542874,-7.156408546036029,58.6
,,0.007996307452703947,0.0007603464632778958,0.00023589966896979243,0.008992553584951634,8.76621925645691,0.8892143235137535,0.08455289769418542,-7.18173635582823,58.7
,,0.007996307452703947,0.0007603464632778958,0.00023589966896979243,0.008992553584951634,8.80285803899399,0.8892143235137535,0.08455289769418542,-7.18173635582823,58.8
,,0.007942500975973205,0.0007812632966374652,0.0001935422454182604,0.00891730651802893,8.835603102735494,0.8906838583954838,0.08761202668742114,-7.154598337362541,58.9
,,0.007942500975973205,0.0007812632966374652,0.0001935422454182604,0.00891730651802893,8.868348166476997,0.8906838583954838,0.08761202668742114,-7.154598337362541,59.0
,,0.007942500975973205,0.0007812632966374652,0.0001935422454182604,0.00891730651802893,8.901093230218502,0.8906838583954838,0.08761202668742114,-7.154598337362541,59.1
,,0.007942500975973205,0.0007812632966374652,0.0001935422454182604,0.00891730651802893,8.933838293960005,0.8906838583954838,0.08761202668742114,-7.154598337362541,59.2
,,0.007942500975973205,0.0007812632966374652,0.0001935422454182604,0.00891730651802893,8.96783938177658,0.8906838583954838,0.08761202668742114,-7.154598337362541,59.3
,,0.007856182709062364,0.0007658189640585068,0.0002246612167279795,0.00884666288984885,9.002866130373148,0.8880391179002629,0.0865658580635247,-7.174564755505436,59.4
,,0.007856182709062364,0.0007658189640585068,0.0002246612167279795,0.00884666288984885,9.044721753022582,0.8880391179002629,0.0865658580635247,-7.174564755505436,59.5
,,0.007856182709062364,0.0007658189640585068,0.0002246612167279795,0.00884666288984885,9.086577375672018,0.8880391179002629,0.0865658580635247,-7.174564755505436,59.6
,,0.007810805564566066,0.0007933948559077406,0.0001813264427479789,0.008785526863221786,9.123835799223107,0.8890537455714665,0.09030703203800697,-7.139189533510129,59.7
,,0.007810805564566066,0.0007933948559077406,0.0001813264427479789,0.008785526863221786,9.161094222774198,0.8890537455714665,0.09030703203800697,-7.139189533510129,59.8
,,0.007810805564566066,0.0007933948559077406,0.0001813264427479789,0.008785526863221786,9.190453056549307,0.8890537455714665,0.09030703203800697,-7.139189533510129,59.9
,,0.007810805564566066,0.0007933948559077406,0.0001813264427479789,0.008785526863221786,9.227711480100398,0.8890537455714665,0.09030703203800697,-7.139189533510129,60.0
,,0.007810805564566066,0.0007933948559077406,0.0001813264427479789,0.008785526863221786,9.257112208971847,0.8890537455714665,0.09030703203800697,-7.139189533510129,60.1
,,0.007741346590216118,0.0007854976157570242,0.00021360642190399983,0.008740450627877141,9.286630169894904,0.8856919305196415,0.08986923548904066,-7.149193135592079,60.2
,,0.007741346590216118,0.0007854976157570242,0.00021360642190399983,0.008740450627877141,9.314432369776824,0.8856919305196415,0.08986923548904066,-7.149193135592079,60.3
,,0.007745065312123331,0.0008218195471436484,0.00017033469313560752,0.008737219552402586,9.337445112106407,0.8864450830920886,0.09405961956371602,-7.103989716030442,60.4
,,0.007745065312123331,0.0008218195471436484,0.00017033469313560752,0.008737219552402586,9.360457854435989,0.8864450830920886,0.09405961956371602,-7.103989716030442,60.5
,,0.007745065312123331,0.0008218195471436484,0.00017033469313560752,0.008737219552402586,9.38347059676557,0.8864450830920886,0.09405961956371602,-7.103989716030442,60.6
,,0.007745065312123331,0.0008218195471436484,0.00017033469313560752,0.008737219552402586,9.406483339095152,0.8864450830920886,0.09405961956371602,-7.103989716030442,60.7
,,0.007575833449084465,0.0008073241773999995,0.00019917126911081718,0.00858232889559528,9.428178288688459,0.8827246708026558,0.0940681937526705,-7.121785263541542,60.8
,,0.007745065312123331,0.0008218195471436484,0.00017033469313560752,0.008737219552402586,9.45032222909442,0.8864450830920886,0.09405961956371602,-7.103989716030442,60.9
,,0.0067576463007193366,0.0006326722562480131,0.00017680334474291077,0.007567121901710261,9.484278733497694,0.8930272815073889,0.08360804338370993,-7.365558032546828,61.0
,,0.0067576463007193366,0.0006326722562480131,0.00017680334474291077,0.007567121901710261,9.51823523790097,0.8930272815073889,0.08360804338370993,-7.365558032546828,61.1
,,0.007764891517480767,0.0008676266438556012,0.0001605127290157375,0.008793030890352107,9.532952411349404,0.8830733809886379,0.09867207959061977,-7.049749069644917,61.2
,,0.007764891517480767,0.0008676266438556012,0.0001605127290157375,0.008793030890352107,9.54766958479784,0.8830733809886379,0.09867207959061977,-7.049749069644917,61.3
,,0.007764891517480767,0.0008676266438556012,0.0001605127290157375,0.008793030890352107,9.562386758246273,0.8830733809886379,0.09867207959061977,-7.049749069644917,61.4
,,0.007764891517480767,0.0008676266438556012,0.0001605127290157375,0.008793030890352107,9.577103931694706,0.8830733809886379,0.09867207959061977,-7.049749069644917,61.5
,,0.007764891517480767,0.0008676266438556012,0.0001605127290157375,0.008793030890352107,9.589957013953583,0.8830733809886379,0.09867207959061977,-7.049749069644917,61.6
,,0.007727292658501236,0.000871974992166074,0.0001946187101362172,0.008793886360803528,9.601835109824595,0.8787119075069747,0.09915695477402081,-7.044749813175168,61.7
,,0.007727292658501236,0.000871974992166074,0.0001946187101362172,0.008793886360803528,9.61134434949294,0.8787119075069747,0.09915695477402081,-7.044749813175168,61.8
,,0.007727292658501236,0.000871974992166074,0.0001946187101362172,0.008793886360803528,9.620853589161287,0.8787119075069747,0.09915695477402081,-7.044749813175168,61.9
,,0.007867307830456152,0.0009254250782059448,0.00015145633040067934,0.008944189239062775,9.626356858182977,0.8795998854872771,0.10346662547838895,-6.985257382003431,62.0
,,0.007867307830456152,0.0009254250782059448,0.00015145633040067934,0.008944189239062775,9.631860127204668,0.8795998854872771,0.10346662547838895,-6.985257382003431,62.1
,,0.007867307830456152,0.0009254250782059448,0.00015145633040067934,0.008944189239062775,9.63736339622636,0.8795998854872771,0.10346662547838895,-6.985257382003431,62.2
,,0.007867307830456152,0.0009254250782059448,0.00015145633040067934,0.008944189239062775,9.642866665248052,0.8795998854872771,0.10346662547838895,-6.985257382003431,62.3
,,0.007867307830456152,0.0009254250782059448,0.00015145633040067934,0.008944189239062775,9.645661685508482,0.8795998854872771,0.10346662547838895,-6.985257382003431,62.4
,,0.006809166442599393,0.0007428187261620129,0.0001589157644145676,0.007710900933175974,9.655849691439595,0.8830571812047424,0.09633358444096363,-7.2050585185692295,62.5
,,0.006809166442599393,0.0007428187261620129,0.0001589157644145676,0.007710900933175974,9.663608248623321,0.8830571812047424,0.09633358444096363,-7.2050585185692295,62.6
,,0.00809066406108044,0.0009953814223101138,0.00014547714099499343,0.009231522624385547,9.659828418683125,0.8764170755221387,0.10782418706105555,-6.912384555256167,62.7
,,0.00809066406108044,0.0009953814223101138,0.00014547714099499343,0.009231522624385547,9.65604858874293,0.8764170755221387,0.10782418706105555,-6.912384555256167,62.8
,,0.00809066406108044,0.0009953814223101138,0.00014547714099499343,0.009231522624385547,9.652268758802734,0.8764170755221387,0.10782418706105555,-6.912384555256167,62.9
,,0.00809066406108044,0.0009953814223101138,0.00014547714099499343,0.009231522624385547,9.648488928862538,0.8764170755221387,0.10782418706105555,-6.912384555256167,63.0
,,0.00809066406108044,0.0009953814223101138,0.00014547714099499343,0.009231522624385547,9.64125685834177,0.8764170755221387,0.10782418706105555,-6.912384555256167,63.1
,,0.00809066406108044,0.0009953814223101138,0.00014547714099499343,0.009231522624385547,9.634024787821001,0.8764170755221387,0.10782418706105555,-6.912384555256167,63.2
,,0.008143706999373702,0.0010091399832308637,0.00018557825899191146,0.009338425241596478,9.623956001981282,0.8720642708685936,0.10806318593587019,-6.898656812614132,63.3
,,0.008143706999373702,0.0010091399832308637,0.00018557825899191146,0.009338425241596478,9.613887216141565,0.8720642708685936,0.10806318593587019,-6.898656812614132,63.4
,,0.008434182695553872,0.0010714058248078113,0.0001438235935556161,0.009649412113917299,9.6016197987792,0.874061818065506,0.11103327458286584,-6.838783637899925,63.5
,,0.008434182695553872,0.0010714058248078113,0.0001438235935556161,0.009649412113917299,9.589352381416834,0.874061818065506,0.11103327458286584,-6.838783637899925,63.6
,,0.008434182695553872,0.0010714058248078113,0.0001438235935556161,0.009649412113917299,9.57708496405447,0.874061818065506,0.11103327458286584,-6.838783637899925,63.7
,,0.008434182695553872,0.0010714058248078113,0.0001438235935556161,0.009649412113917299,9.564817546692105,0.874061818065506,0.11103327458286584,-6.838783637899925,63.8
,,0.008434182695553872,0.0010714058248078113,0.0001438235935556161,0.009649412113917299,9.548766935622155,0.874061818065506,0.11103327458286584,-6.838783637899925,63.9
,,0.008533575144163795,0.001086814395454736,0.00018725066277541178,0.009807640202393943,9.532492378379978,0.8700946372482994,0.11081303688011065,-6.824504434774064,64.0
,,0.008533575144163795,0.001086814395454736,0.00018725066277541178,0.009807640202393943,9.514610911078835,0.8700946372482994,0.11081303688011065,-6.824504434774064,64.1
,,0.00894447912640682,0.0011556388660275204,0.00014801753219552798,0.01024813552462987,9.495484341553768,0.8727908705842243,0.11276576731934451,-6.763101957169053,64.2
,,0.00894447912640682,0.0011556388660275204,0.00014801753219552798,0.01024813552462987,9.4763577720287,0.8727908705842243,0.11276576731934451,-6.763101957169053,64.3
,,0.00894447912640682,0.0011556388660275204,0.00014801753219552798,0.01024813552462987,9.457231202503634,0.8727908705842243,0.11276576731934451,-6.763101957169053,64.4
,,0.00894447912640682,0.0011556388660275204,0.00014801753219552798,0.01024813552462987,9.438104632978568,0.8727908705842243,0.11276576731934451,-6.763101957169053,64.5
,,0.00894447912640682,0.0011556388660275204,0.00014801753219552798,0.01024813552462987,9.414976348031281,0.8727908705842243,0.11276576731934451,-6.763101957169053,64.6
,,0.00894447912640682,0.0011556388660275204,0.00014801753219552798,0.01024813552462987,9.391848063083996,0.8727908705842243,0.11276576731934451,-6.763101957169053,64.7
,,0.009135910442693395,0.0011766545200741522,0.00019646468548260452,0.010509029648250151,9.368244759915143,0.8693391063193553,0.11196604819457102,-6.745080019641479,64.8
,,0.009135910442693395,0.0011766545200741522,0.00019646468548260452,0.010509029648250151,9.34464145674629,0.8693391063193553,0.11196604819457102,-6.745080019641479,64.9
,,0.009632139980363155,0.001245534733071847,0.00015871734856748676,0.011036392062002489,9.32069401055318,0.8727616712282201,0.11285705745812838,-6.688190336800732,65.0
,,0.009632139980363155,0.001245534733071847,0.00015871734856748676,0.011036392062002489,9.296746564360069,0.8727616712282201,0.11285705745812838,-6.688190336800732,65.1
,,0.009632139980363155,0.001245534733071847,0.00015871734856748676,0.011036392062002489,9.272799118166958,0.8727616712282201,0.11285705745812838,-6.688190336800732,65.2
,,0.009632139980363155,0.001245534733071847,0.00015871734856748676,0.011036392062002489,9.248851671973847,0.8727616712282201,0.11285705745812838,-6.688190336800732,65.3
,,0.009632139980363155,0.001245534733071847,0.00015871734856748676,0.011036392062002489,9.221172149335203,0.8727616712282201,0.11285705745812838,-6.688190336800732,65.4
,,0.009632139980363155,0.001245534733071847,0.00015871734856748676,0.011036392062002489,9.193492626696555,0.8727616712282201,0.11285705745812838,-6.688190336800732,65.5
,,0.009833340435724078,0.0012597314115831307,0.0002106051285906514,0.01130367697589786,9.167088604870594,0.8699240483155268,0.11144439232200098,-6.676856746151939,65.6
,,0.01040914737634606,0.0013266190077216022,0.00017546006198895743,0.011911226446056621,9.141134254928058,0.8738938364984368,0.11137551735159884,-6.625121672827115,65.7
,,0.01040914737634606,0.0013266190077216022,0.00017546006198895743,0.011911226446056621,9.115179904985522,0.8738938364984368,0.11137551735159884,-6.625121672827115,65.8
,,0.01040914737634606,0.0013266190077216022,0.00017546006198895743,0.011911226446056621,9.089225555042987,0.8738938364984368,0.11137551735159884,-6.625121672827115,65.9
,,0.01040914737634606,0.0013266190077216022,0.00017546006198895743,0.011911226446056621,9.06327120510045,0.8738938364984368,0.11137551735159884,-6.625121672827115,66.0
,,0.01040914737634606,0.0013266190077216022,0.00017546006198895743,0.011911226446056621,9.033856481096098,0.8738938364984368,0.11137551735159884,-6.625121672827115,66.1
,,0.01040914737634606,0.0013266190077216022,0.00017546006198895743,0.011911226446056621,9.004441757091747,0.8738938364984368,0.11137551735159884,-6.625121672827115,66.2
,,0.010668310614712247,0.0013392106340545467,0.0002312830321827131,0.012238804280949507,8.976357540271415,0.8716791583405059,0.10942332300706163,-6.615674917658329,66.3
,,0.010668310614712247,0.0013392106340545467,0.0002312830321827131,0.012238804280949507,8.94998616067581,0.8716791583405059,0.10942332300706163,-6.615674917658329,66.4
,,0.011256452717744362,0.0013967146301990588,0.00019719503353038742,0.012850362381473808,8.92464941901946,0.8759638353835559,0.10869068036654618,-6.573632492874546,66.5
,,0.011256452717744362,0.0013967146301990588,0.00019719503353038742,0.012850362381473808,8.899312677363111,0.8759638353835559,0.10869068036654618,-6.573632492874546,66.6
,,0.011256452717744362,0.0013967146301990588,0.00019719503353038742,0.012850362381473808,8.873975935706762,0.8759638353835559,0.10869068036654618,-6.573632492874546,66.7
,,0.011256452717744362,0.0013967146301990588,0.00019719503353038742,0.012850362381473808,8.848639194050413,0.8759638353835559,0.10869068036654618,-6.573632492874546,66.8
,,0.011141874522127629,0.0013583994352311243,0.00024217700277388287,0.012742450960132637,8.822011687916888,0.8743902218644797,0.10660425058579033,-6.601448158167639,66.9
,,0.011256452717744362,0.0013967146301990588,0.00019719503353038742,0.012850362381473808,8.793795604693498,0.8759638353835559,0.10869068036654618,-6.573632492874546,67.0
,,0.011545473673649515,0.0014037189118432747,0.0002562888199702238,0.013205481405463014,8.770341801532002,0.8742940389036657,0.10629820062921494,-6.5686301986620945,67.1
,,0.012216024339251633,0.0014630468613614797,0.00022569266400010763,0.01390476386461322,8.748274626051641,0.8785495718011201,0.10521910876062017,-6.527234126451336,67.2
,,0.012216024339251633,0.0014630468613614797,0.00022569266400010763,0.01390476386461322,8.726207450571282,0.8785495718011201,0.10521910876062017,-6.527234126451336,67.3
,,0.012216024339251633,0.0014630468613614797,0.00022569266400010763,0.01390476386461322,8.704140275090921,0.8785495718011201,0.10521910876062017,-6.527234126451336,67.4
,,0.012216024339251633,0.0014630468613614797,0.00022569266400010763,0.01390476386461322,8.680342362081124,0.8785495718011201,0.10521910876062017,-6.527234126451336,67.5
,,0.012216024339251633,0.0014630468613614797,0.00022569266400010763,0.01390476386461322,8.658275186600765,0.8785495718011201,0.10521910876062017,-6.527234126451336,67.6
,,0.012113358626127384,0.001419874627675481,0.0002745528281092316,0.013807786081912096,8.636215459484541,0.8772846388455876,0.10283144736254905,-6.557186701636171,67.7
,,0.012216024339251633,0.0014630468613614797,0.00022569266400010763,0.01390476386461322,8.61213826054767,0.8785495718011201,0.10521910876062017,-6.527234126451336,67.8
,,0.012576888605944987,0.0014698178519175873,0.0002907425382656941,0.014337448996128268,8.59425535591128,0.8772054644686995,0.10251599516165684,-6.522616796129148,67.9
,,0.011589475480162818,0.001351347462653358,0.00021816196892542102,0.013158984911741596,8.576588781594387,0.8807271653470531,0.10269389863404796,-6.606653063838871,68.0
,,0.011589475480162818,0.001351347462653358,0.00021816196892542102,0.013158984911741596,8.558922207277494,0.8807271653470531,0.10269389863404796,-6.606653063838871,68.1
,,0.011589475480162818,0.001351347462653358,0.00021816196892542102,0.013158984911741596,8.541255632960599,0.8807271653470531,0.10269389863404796,-6.606653063838871,68.2
,,0.011589475480162818,0.001351347462653358,0.00021816196892542102,0.013158984911741596,8.523589058643706,0.8807271653470531,0.10269389863404796,-6.606653063838871,68.3
,,0.011589475480162818,0.001351347462653358,0.00021816196892542102,0.013158984911741596,8.50489682354682,0.8807271653470531,0.10269389863404796,-6.606653063838871,68.4
,,0.011589475480162818,0.001351347462653358,0.00021816196892542102,0.013158984911741596,8.486204588449935,0.8807271653470531,0.10269389863404796,-6.606653063838871,68.5
,,0.013546736451124558,0.001517989266408504,0.0003269273040516288,0.01539165302158469,8.471377857522059,0.880135254616714,0.09862418703694342,-6.490368670910836,68.6
,,0.014030176438810105,0.0015497954351587839,0.00030936179769505744,0.015889333671663945,8.462579321305695,0.8829933796299245,0.0975368424619714,-6.469632334077668,68.7
,,0.014030176438810105,0.0015497954351587839,0.00030936179769505744,0.015889333671663945,8.453780785089332,0.8829933796299245,0.0975368424619714,-6.469632334077668,68.8
,,0.014030176438810105,0.0015497954351587839,0.00030936179769505744,0.015889333671663945,8.44498224887297,0.8829933796299245,0.0975368424619714,-6.469632334077668,68.9
,,0.014030176438810105,0.0015497954351587839,0.00030936179769505744,0.015889333671663945,8.436183712656607,0.8829933796299245,0.0975368424619714,-6.469632334077668,69.0
,,0.014030176438810105,0.0015497954351587839,0.00030936179769505744,0.015889333671663945,8.427385176440245,0.8829933796299245,0.0975368424619714,-6.469632334077668,69.1
,,0.014030176438810105,0.0015497954351587839,0.00030936179769505744,0.015889333671663945,8.418469408172275,0.8829933796299245,0.0975368424619714,-6.469632334077668,69.2
,,0.014030176438810105,0.0015497954351587839,0.00030936179769505744,0.015889333671663945,8.409553639904304,0.8829933796299245,0.0975368424619714,-6.469632334077668,69.3
,,0.014167879026545102,0.0015250689030185127,0.00035606497169234135,0.016049012901255957,8.408061453834332,0.8827881885144698,0.09502571356891143,-6.4857156876362305,69.4
,,0.014466691475505767,0.0015417616109190577,0.0003340576144255326,0.016342510700850358,8.407605148573621,0.8852184184130909,0.09434055997520836,-6.4748296131211545,69.5
,,0.014466691475505767,0.0015417616109190577,0.0003340576144255326,0.016342510700850358,8.407148843312909,0.8852184184130909,0.09434055997520836,-6.4748296131211545,69.6
,,0.014466691475505767,0.0015417616109190577,0.0003340576144255326,0.016342510700850358,8.406692538052196,0.8852184184130909,0.09434055997520836,-6.4748296131211545,69.7
,,0.014466691475505767,0.0015417616109190577,0.0003340576144255326,0.016342510700850358,8.406685223604136,0.8852184184130909,0.09434055997520836,-6.4748296131211545,69.8
,,0.014466691475505767,0.0015417616109190577,0.0003340576144255326,0.016342510700850358,8.406228918343423,0.8852184184130909,0.09434055997520836,-6.4748296131211545,69.9
,,0.01408658000887795,0.0014711999752579582,0.00036107227160209654,0.015918852255738004,8.393937524521318,0.8848992240505527,0.09241872162785224,-6.521676901491755,70.0
,,0.014466691475505767,0.0015417616109190577,0.0003340576144255326,0.016342510700850358,8.379516470628632,0.8852184184130909,0.09434055997520836,-6.4748296131211545,70.1
,,0.01476397642549727,0.0015309861069196325,0.0003560401648358462,0.016651002697252747,8.38722608604268,0.8866719136339568,0.09194558038070766,-6.481843236861394,70.2
,,0.01476397642549727,0.0015309861069196325,0.0003560401648358462,0.016651002697252747,8.394935701456731,0.8866719136339568,0.09194558038070766,-6.481843236861394,70.3
,,0.01476397642549727,0.0015309861069196325,0.0003560401648358462,0.016651002697252747,8.402645316870784,0.8866719136339568,0.09194558038070766,-6.481843236861394,70.4
,,0.01476397642549727,0.0015309861069196325,0.0003560401648358462,0.016651002697252747,8.410354932284832,0.8866719136339568,0.09194558038070766,-6.481843236861394,70.5
,,0.01476397642549727,0.0015309861069196325,0.0003560401648358462,0.016651002697252747,8.418064547698881,0.8866719136339568,0.09194558038070766,-6.481843236861394,70.6
,,0.01476397642549727,0.0015309861069196325,0.0003560401648358462,0.016651002697252747,8.426749149500798,0.8866719136339568,0.09194558038070766,-6.481843236861394,70.7
,,0.01476397642549727,0.0015309861069196325,0.0003560401648358462,0.016651002697252747,8.435433751302714,0.8866719136339568,0.09194558038070766,-6.481843236861394,70.8
,,0.01476397642549727,0.0015309861069196325,0.0003560401648358462,0.016651002697252747,8.44411835310463,0.8866719136339568,0.09194558038070766,-6.481843236861394,70.9
,,0.014665172964056556,0.001497218046032814,0.0003663912031626118,0.01652878221325198,8.458492320902682,0.8872506621993438,0.09058247768746186,-6.504146528818812,71.0
,,0.014665172964056556,0.001497218046032814,0.0003663912031626118,0.01652878221325198,8.472866288700734,0.8872506621993438,0.09058247768746186,-6.504146528818812,71.1
,,0.014665172964056556,0.001497218046032814,0.0003663912031626118,0.01652878221325198,8.487240256498787,0.8872506621993438,0.09058247768746186,-6.504146528818812,71.2
,,0.014665172964056556,0.001497218046032814,0.0003663912031626118,0.01652878221325198,8.50161422429684,0.8872506621993438,0.09058247768746186,-6.504146528818812,71.3
,,0.014665172964056556,0.001497218046032814,0.0003663912031626118,0.01652878221325198,8.515988192094891,0.8872506621993438,0.09058247768746186,-6.504146528818812,71.4
,,0.014665172964056556,0.001497218046032814,0.0003663912031626118,0.01652878221325198,8.522969174222263,0.8872506621993438,0.09058247768746186,-6.504146528818812,71.5
