HRV_ULF,HRV_VLF,HRV_LF,HRV_HF,HRV_VHF,HRV_TP,HRV_LFHF,HRV_LFn,HRV_HFn,HRV_LnHF,time
,,0.001655400840820855,0.0005917560734161509,6.470357817716009e-05,0.0023118604924141656,2.7974378552033867,0.7160470306286514,0.25596530385715804,-7.432416046139705,0.0
,,0.001655400840820855,0.0005917560734161509,6.470357817716009e-05,0.0023118604924141656,2.7974378552033867,0.7160470306286514,0.25596530385715804,-7.432416046139705,0.1
,,0.001655400840820855,0.0005917560734161509,6.470357817716009e-05,0.0023118604924141656,2.7974378552033867,0.7160470306286514,0.25596530385715804,-7.432416046139705,0.2
,,0.001655400840820855,0.0005917560734161509,6.470357817716009e-05,0.0023118604924141656,2.7974378552033867,0.7160470306286514,0.25596530385715804,-7.432416046139705,0.3
,,0.001655400840820855,0.0005917560734161509,6.470357817716009e-05,0.0023118604924141656,2.7974378552033867,0.7160470306286514,0.25596530385715804,-7.432416046139705,0.4
,,0.001655400840820855,0.0005917560734161509,6.470357817716009e-05,0.0023118604924141656,2.7974378552033867,0.7160470306286514,0.25596530385715804,-7.432416046139705,0.5
,,0.001655400840820855,0.0005917560734161509,6.470357817716009e-05,0.0023118604924141656,2.7974378552033867,0.7160470306286514,0.25596530385715804,-7.432416046139705,0.6
,,0.002022500112083798,0.0008812244956206822,0.00010006540467052182,0.003003790012375002,2.734645874683965,0.6733160786045329,0.2933708721282836,-7.03419814539625,0.7
,,0.002022500112083798,0.0008812244956206822,0.00010006540467052182,0.003003790012375002,2.6858076676133034,0.6733160786045329,0.2933708721282836,-7.03419814539625,0.8
,,0.002022500112083798,0.0008812244956206822,0.00010006540467052182,0.003003790012375002,2.6467371019567745,0.6733160786045329,0.2933708721282836,-7.03419814539625,0.9
,,0.002022500112083798,0.0008812244956206822,0.00010006540467052182,0.003003790012375002,2.6147702755105233,0.6733160786045329,0.2933708721282836,-7.03419814539625,1.0
,,0.002022500112083798,0.0008812244956206822,0.00010006540467052182,0.003003790012375002,2.5881312534719805,0.6733160786045329,0.2933708721282836,-7.03419814539625,1.1
,,0.002022500112083798,0.0008812244956206822,0.00010006540467052182,0.003003790012375002,2.565590542516291,0.6733160786045329,0.2933708721282836,-7.03419814539625,1.2
,,0.002022500112083798,0.0008812244956206822,0.00010006540467052182,0.003003790012375002,2.5462699331256995,0.6733160786045329,0.2933708721282836,-7.03419814539625,1.3
,,0.001744033685450115,0.0005359910567820898,7.51012098205455e-05,0.0023551259520527505,2.593441836256389,0.7405267153249271,0.22758487982985148,-7.531393082140712,1.4
,,0.002100655069371446,0.0009339799037363821,0.000101785942943504,0.0031364209160513325,2.571923206284081,0.669761848169318,0.29778525546636037,-6.976055636309114,1.5
,,0.002100655069371446,0.0009339799037363821,0.000101785942943504,0.0031364209160513325,2.5529361798379266,0.669761848169318,0.29778525546636037,-6.976055636309114,1.6
,,0.002100655069371446,0.0009339799037363821,0.000101785942943504,0.0031364209160513325,2.536058822996901,0.669761848169318,0.29778525546636037,-6.976055636309114,1.7
,,0.002100655069371446,0.0009339799037363821,0.000101785942943504,0.0031364209160513325,2.520958030033878,0.669761848169318,0.29778525546636037,-6.976055636309114,1.8
,,0.002100655069371446,0.0009339799037363821,0.000101785942943504,0.0031364209160513325,2.507367316367157,0.669761848169318,0.29778525546636037,-6.976055636309114,1.9
,,0.002100655069371446,0.0009339799037363821,0.000101785942943504,0.0031364209160513325,2.495070956382981,0.669761848169318,0.29778525546636037,-6.976055636309114,2.0
,,0.002100655069371446,0.0009339799037363821,0.000101785942943504,0.0031364209160513325,2.4838924473064568,0.669761848169318,0.29778525546636037,-6.976055636309114,2.1
,,0.002104980280096061,0.0009923226735836412,0.00010639097665413722,0.00320369393033384,2.468126077035078,0.6570478721969275,0.3097432823366608,-6.915462227780141,2.2
,,0.002104980280096061,0.0009923226735836412,0.00010639097665413722,0.00320369393033384,2.453673570952981,0.6570478721969275,0.3097432823366608,-6.915462227780141,2.3
,,0.002104980280096061,0.0009923226735836412,0.00010639097665413722,0.00320369393033384,2.440377265357452,0.6570478721969275,0.3097432823366608,-6.915462227780141,2.4
,,0.002104980280096061,0.0009923226735836412,0.00010639097665413722,0.00320369393033384,2.42810375250004,0.6570478721969275,0.3097432823366608,-6.915462227780141,2.5
,,0.002104980280096061,0.0009923226735836412,0.00010639097665413722,0.00320369393033384,2.4167393887431774,0.6570478721969275,0.3097432823366608,-6.915462227780141,2.6
,,0.002104980280096061,0.0009923226735836412,0.00010639097665413722,0.00320369393033384,2.406186765254662,0.6570478721969275,0.3097432823366608,-6.915462227780141,2.7
,,0.002104980280096061,0.0009923226735836412,0.00010639097665413722,0.00320369393033384,2.3963619089032857,0.6570478721969275,0.3097432823366608,-6.915462227780141,2.8
,,0.0018521295755645195,0.0006035012021775971,9.103807376438774e-05,0.0025466688515065044,2.4187823161990294,0.7272753874022042,0.2369767085424517,-7.412762525419398,2.9
,,0.0018521295755645195,0.0006035012021775971,9.103807376438774e-05,0.0025466688515065044,2.4397562456047255,0.7272753874022042,0.2369767085424517,-7.412762525419398,3.0
,,0.0018521295755645195,0.0006035012021775971,9.103807376438774e-05,0.0025466688515065044,2.4594193044225654,0.7272753874022042,0.2369767085424517,-7.412762525419398,3.1
,,0.0018521295755645195,0.0006035012021775971,9.103807376438774e-05,0.0025466688515065044,2.477890662705991,0.7272753874022042,0.2369767085424517,-7.412762525419398,3.2
,,0.0018521295755645195,0.0006035012021775971,9.103807376438774e-05,0.0025466688515065044,2.495275470502156,0.7272753874022042,0.2369767085424517,-7.412762525419398,3.3
,,0.0018521295755645195,0.0006035012021775971,9.103807376438774e-05,0.0025466688515065044,2.5116668607099686,0.7272753874022042,0.2369767085424517,-7.412762525419398,3.4
,,0.0018521295755645195,0.0006035012021775971,9.103807376438774e-05,0.0025466688515065044,2.5271476181284585,0.7272753874022042,0.2369767085424517,-7.412762525419398,3.5
,,0.0018521295755645195,0.0006035012021775971,9.103807376438774e-05,0.0025466688515065044,2.5417915778486515,0.7272753874022042,0.2369767085424517,-7.412762525419398,3.6
,,0.0018840883603653616,0.000644139466218963,0.00010501869433755193,0.0026332465209218765,2.551875210154118,0.7155001802511672,0.24461798813787303,-7.347595292854377,3.7
,,0.0018840883603653616,0.000644139466218963,0.00010501869433755193,0.0026332465209218765,2.5614417331105863,0.7155001802511672,0.24461798813787303,-7.347595292854377,3.8
,,0.0018840883603653616,0.000644139466218963,0.00010501869433755193,0.0026332465209218765,2.570529929919231,0.7155001802511672,0.24461798813787303,-7.347595292854377,3.9
,,0.0018840883603653616,0.000644139466218963,0.00010501869433755193,0.0026332465209218765,2.5791748000542833,0.7155001802511672,0.24461798813787303,-7.347595292854377,4.0
,,0.0018840883603653616,0.000644139466218963,0.00010501869433755193,0.0026332465209218765,2.5874080097067145,0.7155001802511672,0.24461798813787303,-7.347595292854377,4.1
,,0.0018840883603653616,0.000644139466218963,0.00010501869433755193,0.0026332465209218765,2.5952582793753107,0.7155001802511672,0.24461798813787303,-7.347595292854377,4.2
,,0.0019244846627829407,0.0006832750065764027,0.00011420272363293195,0.0027219623929922755,2.6002878509713323,0.7070210329641399,0.2510229415128961,-7.288613134372635,4.3
,,0.0018814590227796575,0.0006174585156999209,0.00012491294831519566,0.002623830486794774,2.610217052291886,0.717065767872076,0.23532713672147226,-7.38989867277165,4.4
,,0.0019067440219071995,0.0006979981119021299,0.00012079914542673494,0.002725541279236064,2.612858689179437,0.6995836153476408,0.2560952267425464,-7.267294160216835,4.5
,,0.0019067440219071995,0.0006979981119021299,0.00012079914542673494,0.002725541279236064,2.615387915986667,0.6995836153476408,0.2560952267425464,-7.267294160216835,4.6
,,0.0019067440219071995,0.0006979981119021299,0.00012079914542673494,0.002725541279236064,2.6178117583435956,0.6995836153476408,0.2560952267425464,-7.267294160216835,4.7
,,0.0019067440219071995,0.0006979981119021299,0.00012079914542673494,0.002725541279236064,2.6201366683594247,0.6995836153476408,0.2560952267425464,-7.267294160216835,4.8
,,0.0019067440219071995,0.0006979981119021299,0.00012079914542673494,0.002725541279236064,2.622368581974621,0.6995836153476408,0.2560952267425464,-7.267294160216835,4.9
,,0.0019067440219071995,0.0006979981119021299,0.00012079914542673494,0.002725541279236064,2.624512969565692,0.6995836153476408,0.2560952267425464,-7.267294160216835,5.0
,,0.0019067440219071995,0.0006979981119021299,0.00012079914542673494,0.002725541279236064,2.626574880710953,0.6995836153476408,0.2560952267425464,-7.267294160216835,5.1
,,0.0016544043771604263,0.0012065726191899323,0.00014608756102378452,0.0030070645573741428,2.6028878116282055,0.5501725505371594,0.4012459979387829,-6.719971484747885,5.2
,,0.0016544043771604263,0.0012065726191899323,0.00014608756102378452,0.0030070645573741428,2.580078041400375,0.5501725505371594,0.4012459979387829,-6.719971484747885,5.3
,,0.0016544043771604263,0.0012065726191899323,0.00014608756102378452,0.0030070645573741428,2.5580977173626467,0.5501725505371594,0.4012459979387829,-6.719971484747885,5.4
,,0.0016544043771604263,0.0012065726191899323,0.00014608756102378452,0.0030070645573741428,2.5369024048976954,0.5501725505371594,0.4012459979387829,-6.719971484747885,5.5
,,0.0016544043771604263,0.0012065726191899323,0.00014608756102378452,0.0030070645573741428,2.516450787606952,0.5501725505371594,0.4012459979387829,-6.719971484747885,5.6
,,0.0016544043771604263,0.0012065726191899323,0.00014608756102378452,0.0030070645573741428,2.496704398498649,0.5501725505371594,0.4012459979387829,-6.719971484747885,5.7
,,0.0016544043771604263,0.0012065726191899323,0.00014608756102378452,0.0030070645573741428,2.4776273785126603,0.5501725505371594,0.4012459979387829,-6.719971484747885,5.8
,,0.0019089841053525763,0.0007383066452835347,0.00016392659371862212,0.002811217344354733,2.479427338546648,0.6790595928792376,0.26262880270219746,-7.211151311149285,5.9
,,0.001950612608642853,0.0008377705181749929,0.00015287250138814657,0.0029412556282059927,2.476950457802203,0.663190438103002,0.2848343102656425,-7.0847663396444,6.0
,,0.001950612608642853,0.0008377705181749929,0.00015287250138814657,0.0029412556282059927,2.474553476436611,0.663190438103002,0.2848343102656425,-7.0847663396444,6.1
,,0.001950612608642853,0.0008377705181749929,0.00015287250138814657,0.0029412556282059927,2.4722325897175454,0.663190438103002,0.2848343102656425,-7.0847663396444,6.2
,,0.001950612608642853,0.0008377705181749929,0.00015287250138814657,0.0029412556282059927,2.469984230708451,0.663190438103002,0.2848343102656425,-7.0847663396444,6.3
,,0.001950612608642853,0.0008377705181749929,0.00015287250138814657,0.0029412556282059927,2.4678050519765593,0.663190438103002,0.2848343102656425,-7.0847663396444,6.4
,,0.001950612608642853,0.0008377705181749929,0.00015287250138814657,0.0029412556282059927,2.465691908963816,0.663190438103002,0.2848343102656425,-7.0847663396444,6.5
,,0.001950612608642853,0.0008377705181749929,0.00015287250138814657,0.0029412556282059927,2.4636418448469755,0.663190438103002,0.2848343102656425,-7.0847663396444,6.6
,,0.001930931755998227,0.0008122270517406813,0.00018123573219214407,0.0029243945399310524,2.4623725533565106,0.660284284364637,0.2777419533001286,-7.115730636518789,6.7
,,0.000908185664268279,0.0009154493897855219,0.000165426579431171,0.0019890616334849722,2.441063754020011,0.4565900065535302,0.4602418418687167,-6.996095476879129,6.8
,,0.000908185664268279,0.0009154493897855219,0.000165426579431171,0.0019890616334849722,2.420363777521698,0.4565900065535302,0.4602418418687167,-6.996095476879129,6.9
,,0.000908185664268279,0.0009154493897855219,0.000165426579431171,0.0019890616334849722,2.4002468989529144,0.4565900065535302,0.4602418418687167,-6.996095476879129,7.0
,,0.000908185664268279,0.0009154493897855219,0.000165426579431171,0.0019890616334849722,2.380688822566597,0.4565900065535302,0.4602418418687167,-6.996095476879129,7.1
,,0.000908185664268279,0.0009154493897855219,0.000165426579431171,0.0019890616334849722,2.361666583889494,0.4565900065535302,0.4602418418687167,-6.996095476879129,7.2
,,0.000908185664268279,0.0009154493897855219,0.000165426579431171,0.0019890616334849722,2.3431584597712316,0.4565900065535302,0.4602418418687167,-6.996095476879129,7.3
,,0.000908185664268279,0.0009154493897855219,0.000165426579431171,0.0019890616334849722,2.325143885629456,0.4565900065535302,0.4602418418687167,-6.996095476879129,7.4
,,0.0019741264868592488,0.0008872759548932848,0.00019386346938599178,0.0030552659111385255,2.3238252758880256,0.6461390086087804,0.29040875023629187,-7.027354513675019,7.5
,,0.0020502309943327486,0.0009894827239893518,0.00017290199962475126,0.0032126157179468515,2.32055511688254,0.638181212548829,0.3079990919741001,-6.918328252407721,7.6
,,0.0020502309943327486,0.0009894827239893518,0.00017290199962475126,0.0032126157179468515,2.3173688081079638,0.638181212548829,0.3079990919741001,-6.918328252407721,7.7
,,0.0020502309943327486,0.0009894827239893518,0.00017290199962475126,0.0032126157179468515,2.3142631653783137,0.638181212548829,0.3079990919741001,-6.918328252407721,7.8
,,0.0020502309943327486,0.0009894827239893518,0.00017290199962475126,0.0032126157179468515,2.311235163716905,0.638181212548829,0.3079990919741001,-6.918328252407721,7.9
,,0.0020502309943327486,0.0009894827239893518,0.00017290199962475126,0.0032126157179468515,2.308281927528617,0.638181212548829,0.3079990919741001,-6.918328252407721,8.0
,,0.0020502309943327486,0.0009894827239893518,0.00017290199962475126,0.0032126157179468515,2.3054007214912633,0.638181212548829,0.3079990919741001,-6.918328252407721,8.1
,,0.0020472345000409156,0.0009587519771594127,0.00020057598074360448,0.003206562457943933,2.3033514585071337,0.6384514653594537,0.29899681972019665,-6.949878143058689,8.2
,,0.002131889174355967,0.0010534189767603345,0.00017445217994324012,0.0033597603310595416,2.300023237227739,0.6345360871868052,0.31353991742265913,-6.855714236305714,8.3
,,0.002131889174355967,0.0010534189767603345,0.00017445217994324012,0.0033597603310595416,2.2967733270372714,0.6345360871868052,0.31353991742265913,-6.855714236305714,8.4
,,0.002131889174355967,0.0010534189767603345,0.00017445217994324012,0.0033597603310595416,2.293598996153559,0.6345360871868052,0.31353991742265913,-6.855714236305714,8.5
,,0.002131889174355967,0.0010534189767603345,0.00017445217994324012,0.0033597603310595416,2.2904976383936093,0.6345360871868052,0.31353991742265913,-6.855714236305714,8.6
,,0.002131889174355967,0.0010534189767603345,0.00017445217994324012,0.0033597603310595416,2.2874667660372956,0.6345360871868052,0.31353991742265913,-6.855714236305714,8.7
,,0.002131889174355967,0.0010534189767603345,0.00017445217994324012,0.0033597603310595416,2.2845040031721346,0.6345360871868052,0.31353991742265913,-6.855714236305714,8.8
,,0.002131889174355967,0.0010534189767603345,0.00017445217994324012,0.0033597603310595416,2.281607079481755,0.6345360871868052,0.31353991742265913,-6.855714236305714,8.9
,,0.002152113441687808,0.0010204259983434345,0.0002001182495283625,0.003372657689559605,2.273958151205697,0.6381060990416809,0.3025584249188004,-6.887535093440797,9.0
,,0.0022429188378464623,0.001105093802430787,0.0001702807580559492,0.003518293398333199,2.265426825159411,0.6375019317345879,0.3140993877754278,-6.807825058537659,9.1
,,0.0022429188378464623,0.001105093802430787,0.0001702807580559492,0.003518293398333199,2.2568954991131247,0.6375019317345879,0.3140993877754278,-6.807825058537659,9.2
,,0.0022429188378464623,0.001105093802430787,0.0001702807580559492,0.003518293398333199,2.2483641730668382,0.6375019317345879,0.3140993877754278,-6.807825058537659,9.3
,,0.0022429188378464623,0.001105093802430787,0.0001702807580559492,0.003518293398333199,2.2398328470205517,0.6375019317345879,0.3140993877754278,-6.807825058537659,9.4
,,0.0022429188378464623,0.001105093802430787,0.0001702807580559492,0.003518293398333199,2.2313015209742653,0.6375019317345879,0.3140993877754278,-6.807825058537659,9.5
,,0.0022429188378464623,0.001105093802430787,0.0001702807580559492,0.003518293398333199,2.222770194927979,0.6375019317345879,0.3140993877754278,-6.807825058537659,9.6
,,0.0011593798612208757,0.0010652235786079798,0.00013231187311301177,0.002356915312941867,2.209362295903335,0.49190560851070836,0.45195666248966043,-6.844570568888351,9.7
,,0.0011702557407212467,0.0010136807663214138,0.000126023438976282,0.0023099599460189423,2.19668851598455,0.5066130011206914,0.43883045161385725,-6.894167249494294,9.8
,,0.0011702557407212467,0.0010136807663214138,0.000126023438976282,0.0023099599460189423,2.1840147360657642,0.5066130011206914,0.43883045161385725,-6.894167249494294,9.9
,,0.0011702557407212467,0.0010136807663214138,0.000126023438976282,0.0023099599460189423,2.1713409561469788,0.5066130011206914,0.43883045161385725,-6.894167249494294,10.0
,,0.0011702557407212467,0.0010136807663214138,0.000126023438976282,0.0023099599460189423,2.158667176228193,0.5066130011206914,0.43883045161385725,-6.894167249494294,10.1
,,0.0011702557407212467,0.0010136807663214138,0.000126023438976282,0.0023099599460189423,2.1459933963094073,0.5066130011206914,0.43883045161385725,-6.894167249494294,10.2
,,0.0011702557407212467,0.0010136807663214138,0.000126023438976282,0.0023099599460189423,2.133319616390622,0.5066130011206914,0.43883045161385725,-6.894167249494294,10.3
,,0.0011702557407212467,0.0010136807663214138,0.000126023438976282,0.0023099599460189423,2.109993097926969,0.5066130011206914,0.43883045161385725,-6.894167249494294,10.4
,,0.002416047396402084,0.0010804175539329039,0.0001803671807502645,0.0036768321310852526,2.1098494600487374,0.6571002728071146,0.2938446780854279,-6.830407688553866,10.5
,,0.0024936366761329665,0.0011387664977248525,0.00014904297129871689,0.003781446145156536,2.1091897512741946,0.6594399550888593,0.3011457664638279,-6.777809621921085,10.6
,,0.0024936366761329665,0.0011387664977248525,0.00014904297129871689,0.003781446145156536,2.1085300424996523,0.6594399550888593,0.3011457664638279,-6.777809621921085,10.7
,,0.0024936366761329665,0.0011387664977248525,0.00014904297129871689,0.003781446145156536,2.1078703337251095,0.6594399550888593,0.3011457664638279,-6.777809621921085,10.8
,,0.0024936366761329665,0.0011387664977248525,0.00014904297129871689,0.003781446145156536,2.107210624950566,0.6594399550888593,0.3011457664638279,-6.777809621921085,10.9
,,0.0024936366761329665,0.0011387664977248525,0.00014904297129871689,0.003781446145156536,2.106550916176024,0.6594399550888593,0.3011457664638279,-6.777809621921085,11.0
,,0.0024936366761329665,0.0011387664977248525,0.00014904297129871689,0.003781446145156536,2.105891207401481,0.6594399550888593,0.3011457664638279,-6.777809621921085,11.1
,,0.0014006874423453327,0.0011635344347627047,0.000147661097648762,0.0027118829747567992,2.0956973772745027,0.5164999579198088,0.4290503851358299,-6.756292979817414,11.2
,,0.0007318681255618867,0.0008786950950123908,0.00012373860362922755,0.001734301824203505,2.0813822379565217,0.4219958229577509,0.5066563863045811,-7.03707259757389,11.3
,,0.002625820098380497,0.0011272765868759803,0.00013543869392490228,0.0038885353791813797,2.0836942672065293,0.6752722663753387,0.2898974747436389,-6.787950655333782,11.4
,,0.002625820098380497,0.0011272765868759803,0.00013543869392490228,0.0038885353791813797,2.0860062964565365,0.6752722663753387,0.2898974747436389,-6.787950655333782,11.5
,,0.002625820098380497,0.0011272765868759803,0.00013543869392490228,0.0038885353791813797,2.088318325706544,0.6752722663753387,0.2898974747436389,-6.787950655333782,11.6
,,0.002625820098380497,0.0011272765868759803,0.00013543869392490228,0.0038885353791813797,2.090630354956552,0.6752722663753387,0.2898974747436389,-6.787950655333782,11.7
,,0.002625820098380497,0.0011272765868759803,0.00013543869392490228,0.0038885353791813797,2.0929423842065593,0.6752722663753387,0.2898974747436389,-6.787950655333782,11.8
,,0.002625820098380497,0.0011272765868759803,0.00013543869392490228,0.0038885353791813797,2.084724322382002,0.6752722663753387,0.2898974747436389,-6.787950655333782,11.9
,,0.0012910866452018103,0.0008843199427148483,0.0001060765658254162,0.0022814831537420746,2.0668465748617764,0.5658979524280852,0.3876074829938552,-7.030691634658082,12.0
,,0.002756565447237207,0.0011056009577322325,0.000123101577314173,0.003985267982283612,2.0604498999912204,0.6916888549255495,0.2774219858356196,-6.807366238695606,12.1
,,0.002756565447237207,0.0011056009577322325,0.000123101577314173,0.003985267982283612,2.0540532251206645,0.6916888549255495,0.2774219858356196,-6.807366238695606,12.2
,,0.002756565447237207,0.0011056009577322325,0.000123101577314173,0.003985267982283612,2.0476565502501085,0.6916888549255495,0.2774219858356196,-6.807366238695606,12.3
,,0.002756565447237207,0.0011056009577322325,0.000123101577314173,0.003985267982283612,2.0412598753795526,0.6916888549255495,0.2774219858356196,-6.807366238695606,12.4
,,0.002756565447237207,0.0011056009577322325,0.000123101577314173,0.003985267982283612,2.034863200508997,0.6916888549255495,0.2774219858356196,-6.807366238695606,12.5
,,0.002756565447237207,0.0011056009577322325,0.000123101577314173,0.003985267982283612,2.028466525638441,0.6916888549255495,0.2774219858356196,-6.807366238695606,12.6
,,0.0028079577639908405,0.001122348441359661,0.00012293505382891267,0.004053241259179415,2.0237652988158072,0.6927684745218734,0.2769014646778964,-6.792331966296992,12.7
,,0.002756565447237207,0.0011056009577322325,0.000123101577314173,0.003985267982283612,2.018968674193243,0.6916888549255495,0.2774219858356196,-6.807366238695606,12.8
,,0.0028707346970958236,0.0010763668637473382,0.00011264168593945836,0.00405974324678262,2.016103008704856,0.7071222298037948,0.26513175792591515,-6.834163923915231,12.9
,,0.0028707346970958236,0.0010763668637473382,0.00011264168593945836,0.00405974324678262,2.013237343216469,0.7071222298037948,0.26513175792591515,-6.834163923915231,13.0
,,0.0028707346970958236,0.0010763668637473382,0.00011264168593945836,0.00405974324678262,2.0103716777280827,0.7071222298037948,0.26513175792591515,-6.834163923915231,13.1
,,0.0028707346970958236,0.0010763668637473382,0.00011264168593945836,0.00405974324678262,2.0075060122396957,0.7071222298037948,0.26513175792591515,-6.834163923915231,13.2
,,0.0028707346970958236,0.0010763668637473382,0.00011264168593945836,0.00405974324678262,2.005844904260822,0.7071222298037948,0.26513175792591515,-6.834163923915231,13.3
,,0.0028707346970958236,0.0010763668637473382,0.00011264168593945836,0.00405974324678262,2.0016222131619923,0.7071222298037948,0.26513175792591515,-6.834163923915231,13.4
,,0.0029056412796176533,0.0010925634089956836,0.00011367832364599641,0.004111883012259333,2.000819315158292,0.7066449290883661,0.2657087776423287,-6.819228592408152,13.5
,,0.0028657758069758348,0.0010796695889883294,0.00011211467118723355,0.004057560067151397,1.9999590464604893,0.7062805625913376,0.2660883809777607,-6.831100220775928,13.6
,,0.002969910790097541,0.00104702866992923,0.00010474276646823276,0.004121682226495004,2.0011232796976,0.7205579243849406,0.2540294502081501,-6.861798964537191,13.7
,,0.002969910790097541,0.00104702866992923,0.00010474276646823276,0.004121682226495004,2.002287512934711,0.7205579243849406,0.2540294502081501,-6.861798964537191,13.8
,,0.002969910790097541,0.00104702866992923,0.00010474276646823276,0.004121682226495004,2.003451746171822,0.7205579243849406,0.2540294502081501,-6.861798964537191,13.9
,,0.002969910790097541,0.00104702866992923,0.00010474276646823276,0.004121682226495004,2.004615979408933,0.7205579243849406,0.2540294502081501,-6.861798964537191,14.0
,,0.002969910790097541,0.00104702866992923,0.00010474276646823276,0.004121682226495004,2.005780212646044,0.7205579243849406,0.2540294502081501,-6.861798964537191,14.1
,,0.002969910790097541,0.00104702866992923,0.00010474276646823276,0.004121682226495004,2.0220619139919758,0.7205579243849406,0.2540294502081501,-6.861798964537191,14.2
,,0.002969910790097541,0.00104702866992923,0.00010474276646823276,0.004121682226495004,2.038343615337908,0.7205579243849406,0.2540294502081501,-6.861798964537191,14.3
,,0.0030565676532255423,0.0010239966050840036,0.00010105563038969361,0.004181619888699239,2.056274493400564,0.7309530121295499,0.24488036510715333,-6.88404206771797,14.4
,,0.0030565676532255423,0.0010239966050840036,0.00010105563038969361,0.004181619888699239,2.07420537146322,0.7309530121295499,0.24488036510715333,-6.88404206771797,14.5
,,0.0030565676532255423,0.0010239966050840036,0.00010105563038969361,0.004181619888699239,2.092136249525876,0.7309530121295499,0.24488036510715333,-6.88404206771797,14.6
,,0.0030565676532255423,0.0010239966050840036,0.00010105563038969361,0.004181619888699239,2.110067127588532,0.7309530121295499,0.24488036510715333,-6.88404206771797,14.7
,,0.0030565676532255423,0.0010239966050840036,0.00010105563038969361,0.004181619888699239,2.1279980056511882,0.7309530121295499,0.24488036510715333,-6.88404206771797,14.8
,,0.0030565676532255423,0.0010239966050840036,0.00010105563038969361,0.004181619888699239,2.132434830811327,0.7309530121295499,0.24488036510715333,-6.88404206771797,14.9
,,0.003067725344935191,0.0010453373048273623,0.00010523720177368093,0.004218299851536235,2.139171913843069,0.7272421242927944,0.24781009923859912,-6.863415665908433,15.0
,,0.0030565676532255423,0.0010239966050840036,0.00010105563038969361,0.004181619888699239,2.1464674875300562,0.7309530121295499,0.24488036510715333,-6.88404206771797,15.1
,,0.0031288895553081178,0.0010102976285809603,0.00010100482606974917,0.004240192009958827,2.155008156517672,0.7379122332100474,0.23826695258330305,-6.897510309775785,15.2
,,0.0031288895553081178,0.0010102976285809603,0.00010100482606974917,0.004240192009958827,2.1635488255052877,0.7379122332100474,0.23826695258330305,-6.897510309775785,15.3
,,0.0031288895553081178,0.0010102976285809603,0.00010100482606974917,0.004240192009958827,2.1720894944929037,0.7379122332100474,0.23826695258330305,-6.897510309775785,15.4
,,0.0031288895553081178,0.0010102976285809603,0.00010100482606974917,0.004240192009958827,2.180630163480519,0.7379122332100474,0.23826695258330305,-6.897510309775785,15.5
,,0.0031288895553081178,0.0010102976285809603,0.00010100482606974917,0.004240192009958827,2.1891708324681343,0.7379122332100474,0.23826695258330305,-6.897510309775785,15.6
,,0.0031288895553081178,0.0010102976285809603,0.00010100482606974917,0.004240192009958827,2.197167141340641,0.7379122332100474,0.23826695258330305,-6.897510309775785,15.7
,,0.0031288895553081178,0.0010102976285809603,0.00010100482606974917,0.004240192009958827,2.2205552793726726,0.7379122332100474,0.23826695258330305,-6.897510309775785,15.8
,,0.003072980999168677,0.001023016020283101,0.00010571189643065012,0.004201708915882427,2.2429083799853786,0.7313645615841765,0.24347617618538694,-6.885000132034483,15.9
,,0.0019047778811938734,0.0006418038876217025,0.00010214103528344154,0.0026487228040990175,2.2648615459101684,0.7191306988583872,0.24230692869351303,-7.3512277719343135,16.0
,,0.0019047778811938734,0.0006418038876217025,0.00010214103528344154,0.0026487228040990175,2.2868147118349578,0.7191306988583872,0.24230692869351303,-7.3512277719343135,16.1
,,0.0019047778811938734,0.0006418038876217025,0.00010214103528344154,0.0026487228040990175,2.308767877759747,0.7191306988583872,0.24230692869351303,-7.3512277719343135,16.2
,,0.0019047778811938734,0.0006418038876217025,0.00010214103528344154,0.0026487228040990175,2.3307210436845374,0.7191306988583872,0.24230692869351303,-7.3512277719343135,16.3
,,0.0019047778811938734,0.0006418038876217025,0.00010214103528344154,0.0026487228040990175,2.3526742096093267,0.7191306988583872,0.24230692869351303,-7.3512277719343135,16.4
,,0.0019047778811938734,0.0006418038876217025,0.00010214103528344154,0.0026487228040990175,2.36092888502142,0.7191306988583872,0.24230692869351303,-7.3512277719343135,16.5
,,0.0019047778811938734,0.0006418038876217025,0.00010214103528344154,0.0026487228040990175,2.370882521687015,0.7191306988583872,0.24230692869351303,-7.3512277719343135,16.6
,,0.0019313470549167286,0.0006543594242468377,0.00011048936384523627,0.0026961958430088027,2.3806545765316565,0.7163229851884402,0.24269728994041082,-7.331853779110874,16.7
,,0.002016910011477899,0.0006484578306928928,0.00011194241083420232,0.0027773102530049944,2.392191186398452,0.7262098317232087,0.2334841165085083,-7.340913582238948,16.8
,,0.002016910011477899,0.0006484578306928928,0.00011194241083420232,0.0027773102530049944,2.4037277962652484,0.7262098317232087,0.2334841165085083,-7.340913582238948,16.9
,,0.002016910011477899,0.0006484578306928928,0.00011194241083420232,0.0027773102530049944,2.415264406132044,0.7262098317232087,0.2334841165085083,-7.340913582238948,17.0
,,0.002016910011477899,0.0006484578306928928,0.00011194241083420232,0.0027773102530049944,2.42680101599884,0.7262098317232087,0.2334841165085083,-7.340913582238948,17.1
,,0.002016910011477899,0.0006484578306928928,0.00011194241083420232,0.0027773102530049944,2.4376344162951593,0.7262098317232087,0.2334841165085083,-7.340913582238948,17.2
,,0.002016910011477899,0.0006484578306928928,0.00011194241083420232,0.0027773102530049944,2.4497070501778175,0.7262098317232087,0.2334841165085083,-7.340913582238948,17.3
,,0.002016910011477899,0.0006484578306928928,0.00011194241083420232,0.0027773102530049944,2.4617796840604758,0.7262098317232087,0.2334841165085083,-7.340913582238948,17.4
,,0.0020354935711489382,0.0006654900350800718,0.00012136552803404928,0.0028223491342630595,2.4732781043052845,0.7212054477733577,0.23579295240304746,-7.3149868938248765,17.5
,,0.002100151868600232,0.0006664129428676964,0.00012326639805172772,0.0028898312095196562,2.4858075078606294,0.7267385934797611,0.23060618235155217,-7.313601045229874,17.6
,,0.002100151868600232,0.0006664129428676964,0.00012326639805172772,0.0028898312095196562,2.498336911415974,0.7267385934797611,0.23060618235155217,-7.313601045229874,17.7
,,0.002100151868600232,0.0006664129428676964,0.00012326639805172772,0.0028898312095196562,2.510866314971318,0.7267385934797611,0.23060618235155217,-7.313601045229874,17.8
,,0.002100151868600232,0.0006664129428676964,0.00012326639805172772,0.0028898312095196562,2.5233957185266624,0.7267385934797611,0.23060618235155217,-7.313601045229874,17.9
,,0.002100151868600232,0.0006664129428676964,0.00012326639805172772,0.0028898312095196562,2.5349778616451157,0.7267385934797611,0.23060618235155217,-7.313601045229874,18.0
,,0.0021854148037862564,0.0007078593325006868,0.00013623476493910476,0.003029508901226048,2.546730516837011,0.7213759308981779,0.2336548119116649,-7.2532651669192525,18.1
,,0.002100151868600232,0.0006664129428676964,0.00012326639805172772,0.0028898312095196562,2.559195057725693,0.7267385934797611,0.23060618235155217,-7.313601045229874,18.2
,,0.0031922905177187958,0.0010568781173413487,0.00012954157454866055,0.004378710209608805,2.5702047486432607,0.7290481363013049,0.24136744994498513,-6.852435888732008,18.3
,,0.0031922905177187958,0.0010568781173413487,0.00012954157454866055,0.004378710209608805,2.5812144395608283,0.7290481363013049,0.24136744994498513,-6.852435888732008,18.4
,,0.0031922905177187958,0.0010568781173413487,0.00012954157454866055,0.004378710209608805,2.5922241304783964,0.7290481363013049,0.24136744994498513,-6.852435888732008,18.5
,,0.0031922905177187958,0.0010568781173413487,0.00012954157454866055,0.004378710209608805,2.6032338213959636,0.7290481363013049,0.24136744994498513,-6.852435888732008,18.6
,,0.0031922905177187958,0.0010568781173413487,0.00012954157454866055,0.004378710209608805,2.6247015946713925,0.7290481363013049,0.24136744994498513,-6.852435888732008,18.7
,,0.0031922905177187958,0.0010568781173413487,0.00012954157454866055,0.004378710209608805,2.6454352488409634,0.7290481363013049,0.24136744994498513,-6.852435888732008,18.8
,,0.0031731935186867406,0.0010957816117308043,0.00013861792925460746,0.004407593059672152,2.6647837462083817,0.7199379515591602,0.24861224638835222,-6.816287369680803,18.9
,,0.0021865060212359023,0.0007280271088247131,0.00014672226796023357,0.003061255398020849,2.6853267315672293,0.7142514220308157,0.23781978769082593,-7.225172273064299,19.0
,,0.003157136604927759,0.0010890428953818155,0.0001396868775136914,0.004385866377823265,2.7047105019067406,0.7198433178200625,0.24830735858448902,-6.822456046108431,19.1
,,0.003157136604927759,0.0010890428953818155,0.0001396868775136914,0.004385866377823265,2.724094272246252,0.7198433178200625,0.24830735858448902,-6.822456046108431,19.2
,,0.003157136604927759,0.0010890428953818155,0.0001396868775136914,0.004385866377823265,2.743478042585763,0.7198433178200625,0.24830735858448902,-6.822456046108431,19.3
,,0.003157136604927759,0.0010890428953818155,0.0001396868775136914,0.004385866377823265,2.7628618129252738,0.7198433178200625,0.24830735858448902,-6.822456046108431,19.4
,,0.003157136604927759,0.0010890428953818155,0.0001396868775136914,0.004385866377823265,2.7702260884947707,0.7198433178200625,0.24830735858448902,-6.822456046108431,19.5
,,0.003157136604927759,0.0010890428953818155,0.0001396868775136914,0.004385866377823265,2.778106434960579,0.7198433178200625,0.24830735858448902,-6.822456046108431,19.6
,,0.003157136604927759,0.0010890428953818155,0.0001396868775136914,0.004385866377823265,2.785986781426386,0.7198433178200625,0.24830735858448902,-6.822456046108431,19.7
,,0.003075823589201916,0.0011154213670015595,0.0001478310903949078,0.004339076046598384,2.7922953827011843,0.7088660249716541,0.2570642586169914,-6.798523037834439,19.8
,,0.0031054184405214257,0.0011218300371139607,0.00014814394143306643,0.004375392419068453,2.7987220713925245,0.7097462680119073,0.2563952966195441,-6.792793965429319,19.9
,,0.0031054184405214257,0.0011218300371139607,0.00014814394143306643,0.004375392419068453,2.8051487600838643,0.7097462680119073,0.2563952966195441,-6.792793965429319,20.0
,,0.0031054184405214257,0.0011218300371139607,0.00014814394143306643,0.004375392419068453,2.811575448775204,0.7097462680119073,0.2563952966195441,-6.792793965429319,20.1
,,0.0031054184405214257,0.0011218300371139607,0.00014814394143306643,0.004375392419068453,2.828957123548254,0.7097462680119073,0.2563952966195441,-6.792793965429319,20.2
,,0.0031054184405214257,0.0011218300371139607,0.00014814394143306643,0.004375392419068453,2.8504601075123066,0.7097462680119073,0.2563952966195441,-6.792793965429319,20.3
,,0.0031054184405214257,0.0011218300371139607,0.00014814394143306643,0.004375392419068453,2.855335922908371,0.7097462680119073,0.2563952966195441,-6.792793965429319,20.4
,,0.0031054184405214257,0.0011218300371139607,0.00014814394143306643,0.004375392419068453,2.860211738304435,0.7097462680119073,0.2563952966195441,-6.792793965429319,20.5
,,0.0030594530551762895,0.001154663244023793,0.0001537685102545497,0.0043678848094546325,2.8637706392145956,0.700442705941755,0.26435295214847077,-6.763946541137079,20.6
,,0.0030594530551762895,0.001154663244023793,0.0001537685102545497,0.0043678848094546325,2.867329540124756,0.700442705941755,0.26435295214847077,-6.763946541137079,20.7
,,0.0030594530551762895,0.001154663244023793,0.0001537685102545497,0.0043678848094546325,2.8708884410349165,0.700442705941755,0.26435295214847077,-6.763946541137079,20.8
,,0.0030594530551762895,0.001154663244023793,0.0001537685102545497,0.0043678848094546325,2.8744473419450776,0.700442705941755,0.26435295214847077,-6.763946541137079,20.9
,,0.0030594530551762895,0.001154663244023793,0.0001537685102545497,0.0043678848094546325,2.887665928550906,0.700442705941755,0.26435295214847077,-6.763946541137079,21.0
,,0.0030594530551762895,0.001154663244023793,0.0001537685102545497,0.0043678848094546325,2.889403442507065,0.700442705941755,0.26435295214847077,-6.763946541137079,21.1
,,0.003057339206746301,0.0011873587623289312,0.00016104923182369966,0.004405747200898932,2.890310490280339,0.693943403317034,0.2695022451779955,-6.736023966115205,21.2
,,0.0030594530551762895,0.001154663244023793,0.0001537685102545497,0.0043678848094546325,2.8920480042364973,0.700442705941755,0.26435295214847077,-6.763946541137079,21.3
,,0.002997392792704486,0.0011685725422979488,0.0001534448952800043,0.004319410230282439,2.8928450067174025,0.6939356608664816,0.27053983761610384,-6.751972324356545,21.4
,,0.002997392792704486,0.0011685725422979488,0.0001534448952800043,0.004319410230282439,2.8936420091983086,0.6939356608664816,0.27053983761610384,-6.751972324356545,21.5
,,0.002997392792704486,0.0011685725422979488,0.0001534448952800043,0.004319410230282439,2.894439011679213,0.6939356608664816,0.27053983761610384,-6.751972324356545,21.6
,,0.002997392792704486,0.0011685725422979488,0.0001534448952800043,0.004319410230282439,2.8951406163601874,0.6939356608664816,0.27053983761610384,-6.751972324356545,21.7
,,0.002997392792704486,0.0011685725422979488,0.0001534448952800043,0.004319410230282439,2.8959376188410926,0.6939356608664816,0.27053983761610384,-6.751972324356545,21.8
,,0.002997392792704486,0.0011685725422979488,0.0001534448952800043,0.004319410230282439,2.8948036621878197,0.6939356608664816,0.27053983761610384,-6.751972324356545,21.9
,,0.0030024814202421635,0.001195295124123236,0.00015941110507601834,0.0043571876494414175,2.893079847570189,0.6890870124969429,0.27432720834882346,-6.729362158296191,22.0
,,0.002997392792704486,0.0011685725422979488,0.0001534448952800043,0.004319410230282439,2.891945890916916,0.6939356608664816,0.27053983761610384,-6.751972324356545,22.1
,,0.0029552753017410556,0.001172079228256377,0.00014839225684709422,0.0042757467868445274,2.8903273997725427,0.6911717295406141,0.2741226940431998,-6.748975989210808,22.2
,,0.0029552753017410556,0.001172079228256377,0.00014839225684709422,0.0042757467868445274,2.8887089086281685,0.6911717295406141,0.2741226940431998,-6.748975989210808,22.3
,,0.0029552753017410556,0.001172079228256377,0.00014839225684709422,0.0042757467868445274,2.887090417483795,0.6911717295406141,0.2741226940431998,-6.748975989210808,22.4
,,0.0029552753017410556,0.001172079228256377,0.00014839225684709422,0.0042757467868445274,2.885556239480702,0.6911717295406141,0.2741226940431998,-6.748975989210808,22.5
,,0.0029552753017410556,0.001172079228256377,0.00014839225684709422,0.0042757467868445274,2.8840794321717125,0.6911717295406141,0.2741226940431998,-6.748975989210808,22.6
,,0.0029552753017410556,0.001172079228256377,0.00014839225684709422,0.0042757467868445274,2.8805781229278087,0.6911717295406141,0.2741226940431998,-6.748975989210808,22.7
,,0.0029552753017410556,0.001172079228256377,0.00014839225684709422,0.0042757467868445274,2.877076813683906,0.6911717295406141,0.2741226940431998,-6.748975989210808,22.8
,,0.002927163095184926,0.0011777018996120385,0.00015154411649622357,0.004256409111293187,2.873176524161621,0.6877071772585299,0.27668907494990014,-6.744190282133409,22.9
,,0.0029259173492556046,0.0011565276290122165,0.0001387930697007591,0.00422123804796858,2.869769883165744,0.6931419919953737,0.27397830112158245,-6.762333186381677,23.0
,,0.0029259173492556046,0.0011565276290122165,0.0001387930697007591,0.00422123804796858,2.866363242169866,0.6931419919953737,0.27397830112158245,-6.762333186381677,23.1
,,0.0029259173492556046,0.0011565276290122165,0.0001387930697007591,0.00422123804796858,2.862956601173989,0.6931419919953737,0.27397830112158245,-6.762333186381677,23.2
,,0.0029259173492556046,0.0011565276290122165,0.0001387930697007591,0.00422123804796858,2.8595499601781116,0.6931419919953737,0.27397830112158245,-6.762333186381677,23.3
,,0.0029259173492556046,0.0011565276290122165,0.0001387930697007591,0.00422123804796858,2.8544941424655095,0.6931419919953737,0.27397830112158245,-6.762333186381677,23.4
,,0.0029259173492556046,0.0011565276290122165,0.0001387930697007591,0.00422123804796858,2.8494383247529083,0.6931419919953737,0.27397830112158245,-6.762333186381677,23.5
,,0.0029259173492556046,0.0011565276290122165,0.0001387930697007591,0.00422123804796858,2.844382507040307,0.6931419919953737,0.27397830112158245,-6.762333186381677,23.6
,,0.002894926920112623,0.0011156357029043068,0.00012527237692986875,0.004135834999946799,2.840048377465004,0.6999618989030902,0.2697486004443257,-6.798330899402574,23.7
,,0.002894926920112623,0.0011156357029043068,0.00012527237692986875,0.004135834999946799,2.835714247889702,0.6999618989030902,0.2697486004443257,-6.798330899402574,23.8
,,0.002894926920112623,0.0011156357029043068,0.00012527237692986875,0.004135834999946799,2.8313801183144,0.6999618989030902,0.2697486004443257,-6.798330899402574,23.9
,,0.002894926920112623,0.0011156357029043068,0.00012527237692986875,0.004135834999946799,2.827604479394343,0.6999618989030902,0.2697486004443257,-6.798330899402574,24.0
,,0.002894926920112623,0.0011156357029043068,0.00012527237692986875,0.004135834999946799,2.8232703498190403,0.6999618989030902,0.2697486004443257,-6.798330899402574,24.1
,,0.002894926920112623,0.0011156357029043068,0.00012527237692986875,0.004135834999946799,2.81769112494311,0.6999618989030902,0.2697486004443257,-6.798330899402574,24.2
,,0.002894926920112623,0.0011156357029043068,0.00012527237692986875,0.004135834999946799,2.8121119000671797,0.6999618989030902,0.2697486004443257,-6.798330899402574,24.3
,,0.00290812998535508,0.0011361600299408347,0.00013593738352213916,0.004180227398818054,2.8061409576260803,0.6956870303700091,0.2717938335751975,-6.780101097177834,24.4
,,0.0028771535689360644,0.0010591253376104686,0.00011044361659588923,0.004046722523142422,2.801913619373138,0.7109836546692245,0.2617242303008264,-6.850311864682125,24.5
,,0.0028771535689360644,0.0010591253376104686,0.00011044361659588923,0.004046722523142422,2.7976862811201957,0.7109836546692245,0.2617242303008264,-6.850311864682125,24.6
,,0.0028771535689360644,0.0010591253376104686,0.00011044361659588923,0.004046722523142422,2.7934589428672534,0.7109836546692245,0.2617242303008264,-6.850311864682125,24.7
,,0.0028771535689360644,0.0010591253376104686,0.00011044361659588923,0.004046722523142422,2.789231604614311,0.7109836546692245,0.2617242303008264,-6.850311864682125,24.8
,,0.0028771535689360644,0.0010591253376104686,0.00011044361659588923,0.004046722523142422,2.7860393037806936,0.7109836546692245,0.2617242303008264,-6.850311864682125,24.9
,,0.0028771535689360644,0.0010591253376104686,0.00011044361659588923,0.004046722523142422,2.7832469376349933,0.7109836546692245,0.2617242303008264,-6.850311864682125,25.0
,,0.0028771535689360644,0.0010591253376104686,0.00011044361659588923,0.004046722523142422,2.7804545714892925,0.7109836546692245,0.2617242303008264,-6.850311864682125,25.1
,,0.003007497929958325,0.0011276991044807535,0.00011755760520599086,0.00425275463964507,2.7771110453193644,0.707188207361365,0.26516909627658886,-6.787575912837588,25.2
,,0.0028770377319314354,0.0009957179982029497,9.659487097540807e-05,0.003969350601109793,2.7762394881993084,0.7248132052449695,0.25085161233289804,-6.912046474804157,25.3
,,0.0028770377319314354,0.0009957179982029497,9.659487097540807e-05,0.003969350601109793,2.775367931079253,0.7248132052449695,0.25085161233289804,-6.912046474804157,25.4
,,0.0028770377319314354,0.0009957179982029497,9.659487097540807e-05,0.003969350601109793,2.7744963739591975,0.7248132052449695,0.25085161233289804,-6.912046474804157,25.5
,,0.0028770377319314354,0.0009957179982029497,9.659487097540807e-05,0.003969350601109793,2.7736248168391415,0.7248132052449695,0.25085161233289804,-6.912046474804157,25.6
,,0.0028770377319314354,0.0009957179982029497,9.659487097540807e-05,0.003969350601109793,2.772934841540039,0.7248132052449695,0.25085161233289804,-6.912046474804157,25.7
,,0.0028978424393485804,0.000997870872475409,9.804428759549311e-05,0.0039937575994194825,2.770642703311737,0.72559297033195,0.24985764599745758,-6.909886676321125,25.8
,,0.001587344802374373,0.0009889162298088155,9.739822533260027e-05,0.0026736592575157883,2.7539184570647053,0.593697494515155,0.3698736953966453,-6.918900931841191,25.9
,,0.0028821557343431522,0.0009293839635702054,8.466547182041788e-05,0.0038962051697337755,2.753816551299554,0.7397340768222654,0.2385356835902226,-6.980988596067159,26.0
,,0.0028821557343431522,0.0009293839635702054,8.466547182041788e-05,0.0038962051697337755,2.753714645534403,0.7397340768222654,0.2385356835902226,-6.980988596067159,26.1
,,0.0028821557343431522,0.0009293839635702054,8.466547182041788e-05,0.0038962051697337755,2.753612739769251,0.7397340768222654,0.2385356835902226,-6.980988596067159,26.2
,,0.0028821557343431522,0.0009293839635702054,8.466547182041788e-05,0.0038962051697337755,2.7535108340041003,0.7397340768222654,0.2385356835902226,-6.980988596067159,26.3
,,0.0028821557343431522,0.0009293839635702054,8.466547182041788e-05,0.0038962051697337755,2.753408928238949,0.7397340768222654,0.2385356835902226,-6.980988596067159,26.4
,,0.0028821557343431522,0.0009293839635702054,8.466547182041788e-05,0.0038962051697337755,2.7538812361116474,0.7397340768222654,0.2385356835902226,-6.980988596067159,26.5
,,0.0028821557343431522,0.0009293839635702054,8.466547182041788e-05,0.0038962051697337755,2.75332256067381,0.7397340768222654,0.2385356835902226,-6.980988596067159,26.6
,,0.0028829225119315557,0.0009269256962478218,8.567633010065545e-05,0.003895524538280033,2.7528644593342873,0.7400601597043038,0.23794631175833422,-6.983637150683477,26.7
,,0.0031961619410261575,0.0010057251374251256,7.371035666570282e-05,0.004275597435116986,2.753159353206933,0.7475357513256405,0.23522446925539606,-6.90204646787232,26.8
,,0.0031961619410261575,0.0010057251374251256,7.371035666570282e-05,0.004275597435116986,2.753454247079579,0.7475357513256405,0.23522446925539606,-6.90204646787232,26.9
,,0.0031961619410261575,0.0010057251374251256,7.371035666570282e-05,0.004275597435116986,2.753749140952225,0.7475357513256405,0.23522446925539606,-6.90204646787232,27.0
,,0.0031961619410261575,0.0010057251374251256,7.371035666570282e-05,0.004275597435116986,2.7547559205216565,0.7475357513256405,0.23522446925539606,-6.90204646787232,27.1
,,0.0031961619410261575,0.0010057251374251256,7.371035666570282e-05,0.004275597435116986,2.755050814394302,0.7475357513256405,0.23522446925539606,-6.90204646787232,27.2
,,0.0029123395784365303,0.0008742743566556495,7.700542969052028e-05,0.0038636193647827,2.7585025915220176,0.7537853249682963,0.2262837702452661,-7.042116322350938,27.3
,,0.0028950846191493776,0.000870427381799763,7.676089236163136e-05,0.0038422728933107716,2.7618976901510046,0.753482300590776,0.22653970864878933,-7.046526223488203,27.4
,,0.0028950846191493776,0.000870427381799763,7.676089236163136e-05,0.0038422728933107716,2.7652927887799916,0.753482300590776,0.22653970864878933,-7.046526223488203,27.5
,,0.003217072733703573,0.0009605992574791246,6.597241010717223e-05,0.00424364440128987,2.768943190845088,0.7580919675375564,0.22636186415316686,-6.947953241709984,27.6
,,0.003217072733703573,0.0009605992574791246,6.597241010717223e-05,0.00424364440128987,2.7725935929101837,0.7580919675375564,0.22636186415316686,-6.947953241709984,27.7
,,0.003217072733703573,0.0009605992574791246,6.597241010717223e-05,0.00424364440128987,2.77624399497528,0.7580919675375564,0.22636186415316686,-6.947953241709984,27.8
,,0.003217072733703573,0.0009605992574791246,6.597241010717223e-05,0.00424364440128987,2.781279553842529,0.7580919675375564,0.22636186415316686,-6.947953241709984,27.9
,,0.003217072733703573,0.0009605992574791246,6.597241010717223e-05,0.00424364440128987,2.785120624718348,0.7580919675375564,0.22636186415316686,-6.947953241709984,28.0
,,0.003217072733703573,0.0009605992574791246,6.597241010717223e-05,0.00424364440128987,2.7901209106135045,0.7580919675375564,0.22636186415316686,-6.947953241709984,28.1
,,0.0029061958284777754,0.0008222783922098041,7.096972879953673e-05,0.0037994439494871165,2.7971800205976147,0.7649003030746329,0.21642071922677072,-7.103431543591824,28.2
,,0.0032206751709161962,0.0009195419239993242,6.202421719770528e-05,0.004202241312113226,2.803885316671733,0.7664184257178179,0.21882178002217212,-6.9916349206152715,28.3
,,0.0032206751709161962,0.0009195419239993242,6.202421719770528e-05,0.004202241312113226,2.8105906127458513,0.7664184257178179,0.21882178002217212,-6.9916349206152715,28.4
,,0.0032206751709161962,0.0009195419239993242,6.202421719770528e-05,0.004202241312113226,2.81729590881997,0.7664184257178179,0.21882178002217212,-6.9916349206152715,28.5
,,0.0032206751709161962,0.0009195419239993242,6.202421719770528e-05,0.004202241312113226,2.8240012048940883,0.7664184257178179,0.21882178002217212,-6.9916349206152715,28.6
,,0.0032206751709161962,0.0009195419239993242,6.202421719770528e-05,0.004202241312113226,2.830706500968207,0.7664184257178179,0.21882178002217212,-6.9916349206152715,28.7
,,0.002926798005148405,0.0007816190164213133,6.836689816197507e-05,0.0037767839197316937,2.84167304172878,0.7749445208812283,0.206953596772579,-7.154143127412286,28.8
,,0.0032206751709161962,0.0009195419239993242,6.202421719770528e-05,0.004202241312113226,2.8498319955773663,0.7664184257178179,0.21882178002217212,-6.9916349206152715,28.9
,,0.0031712237047037575,0.0009360752267398721,6.345300687223424e-05,0.004170751938315864,2.856716609870493,0.7603481941878057,0.22443800076919854,-6.9738147142676326,29.0
,,0.003194548234684779,0.0008787498540123843,6.14069087318269e-05,0.00413470499742899,2.8663517312870126,0.7726181763079077,0.21253024207502147,-7.037010280970413,29.1
,,0.003194548234684779,0.0008787498540123843,6.14069087318269e-05,0.00413470499742899,2.8759868527035324,0.7726181763079077,0.21253024207502147,-7.037010280970413,29.2
,,0.003194548234684779,0.0008787498540123843,6.14069087318269e-05,0.00413470499742899,2.885621974120052,0.7726181763079077,0.21253024207502147,-7.037010280970413,29.3
,,0.003194548234684779,0.0008787498540123843,6.14069087318269e-05,0.00413470499742899,2.8952570955365724,0.7726181763079077,0.21253024207502147,-7.037010280970413,29.4
,,0.003194548234684779,0.0008787498540123843,6.14069087318269e-05,0.00413470499742899,2.904892216953092,0.7726181763079077,0.21253024207502147,-7.037010280970413,29.5
,,0.003194548234684779,0.0008787498540123843,6.14069087318269e-05,0.00413470499742899,2.9158442528555155,0.7726181763079077,0.21253024207502147,-7.037010280970413,29.6
,,0.0031327923918887286,0.0008956838347250973,6.290375523047776e-05,0.004091379981844304,2.9252665264959363,0.7657055579757065,0.2189197382545101,-7.017923070290177,29.7
,,0.00294951085135534,0.000704332826226058,6.983311353107389e-05,0.003723676791112472,2.942355600608337,0.7920963651826922,0.18914982844567294,-7.25825954899852,29.8
,,0.00294951085135534,0.000704332826226058,6.983311353107389e-05,0.003723676791112472,2.959444674720737,0.7920963651826922,0.18914982844567294,-7.25825954899852,29.9
,,0.00294951085135534,0.000704332826226058,6.983311353107389e-05,0.003723676791112472,2.976533748833138,0.7920963651826922,0.18914982844567294,-7.25825954899852,30.0
,,0.00294951085135534,0.000704332826226058,6.983311353107389e-05,0.003723676791112472,2.9936228229455377,0.7920963651826922,0.18914982844567294,-7.25825954899852,30.1
,,0.00294951085135534,0.000704332826226058,6.983311353107389e-05,0.003723676791112472,3.0115423632408236,0.7920963651826922,0.18914982844567294,-7.25825954899852,30.2
,,0.003166922055801277,0.000875354952817043,6.628099802434026e-05,0.00410855800664266,3.022300387903632,0.7708110852228546,0.2130564912073241,-7.040881093502245,30.3
,,0.00294951085135534,0.000704332826226058,6.983311353107389e-05,0.003723676791112472,3.0403299734912865,0.7920963651826922,0.18914982844567294,-7.25825954899852,30.4
,,0.0018041236174273828,0.0007247936449041589,7.051744532677887e-05,0.0025994347076583207,3.0394872094760013,0.6940445982782975,0.2788274091935486,-7.229623571342158,30.5
,,0.002990264921674498,0.0006849591888844233,7.433514770494235e-05,0.0037495592582638634,3.0594939509585415,0.7974977099199287,0.18267725396653042,-7.28615129974782,30.6
,,0.002990264921674498,0.0006849591888844233,7.433514770494235e-05,0.0037495592582638634,3.079500692441082,0.7974977099199287,0.18267725396653042,-7.28615129974782,30.7
,,0.002990264921674498,0.0006849591888844233,7.433514770494235e-05,0.0037495592582638634,3.0995074339236215,0.7974977099199287,0.18267725396653042,-7.28615129974782,30.8
,,0.002990264921674498,0.0006849591888844233,7.433514770494235e-05,0.0037495592582638634,3.1195141754061613,0.7974977099199287,0.18267725396653042,-7.28615129974782,30.9
,,0.002990264921674498,0.0006849591888844233,7.433514770494235e-05,0.0037495592582638634,3.140110774853059,0.7974977099199287,0.18267725396653042,-7.28615129974782,31.0
,,0.002990264921674498,0.0006849591888844233,7.433514770494235e-05,0.0037495592582638634,3.1601175163355992,0.7974977099199287,0.18267725396653042,-7.28615129974782,31.1
,,0.002990264921674498,0.0006849591888844233,7.433514770494235e-05,0.0037495592582638634,3.1806087923092394,0.7974977099199287,0.18267725396653042,-7.28615129974782,31.2
,,0.0030590997836037965,0.0006733302123655439,8.075826197692669e-05,0.0038131882579462667,3.2030737150899276,0.8022420024054588,0.1765793259649317,-7.303274691348553,31.3
,,0.0030590997836037965,0.0006733302123655439,8.075826197692669e-05,0.0038131882579462667,3.225538637870615,0.8022420024054588,0.1765793259649317,-7.303274691348553,31.4
,,0.0030590997836037965,0.0006733302123655439,8.075826197692669e-05,0.0038131882579462667,3.2480035606513025,0.8022420024054588,0.1765793259649317,-7.303274691348553,31.5
,,0.0030590997836037965,0.0006733302123655439,8.075826197692669e-05,0.0038131882579462667,3.2704684834319906,0.8022420024054588,0.1765793259649317,-7.303274691348553,31.6
,,0.0030590997836037965,0.0006733302123655439,8.075826197692669e-05,0.0038131882579462667,3.2929334062126783,0.8022420024054588,0.1765793259649317,-7.303274691348553,31.7
,,0.0030590997836037965,0.0006733302123655439,8.075826197692669e-05,0.0038131882579462667,3.315398328993365,0.8022420024054588,0.1765793259649317,-7.303274691348553,31.8
,,0.0030590997836037965,0.0006733302123655439,8.075826197692669e-05,0.0038131882579462667,3.338262232052434,0.8022420024054588,0.1765793259649317,-7.303274691348553,31.9
,,0.003107477071045674,0.0006961951006400623,8.131155354544056e-05,0.003884983725231177,3.3597466660162176,0.7998687487064731,0.17920154880407768,-7.269880619899744,32.0
,,0.0031634815431196553,0.0006690995489220572,8.890946379306648e-05,0.003921490555834779,3.384169474661852,0.8067038535672912,0.17062378179809845,-7.309577706331974,32.1
,,0.0031634815431196553,0.0006690995489220572,8.890946379306648e-05,0.003921490555834779,3.408592283307485,0.8067038535672912,0.17062378179809845,-7.309577706331974,32.2
,,0.0031634815431196553,0.0006690995489220572,8.890946379306648e-05,0.003921490555834779,3.4330150919531186,0.8067038535672912,0.17062378179809845,-7.309577706331974,32.3
,,0.0031634815431196553,0.0006690995489220572,8.890946379306648e-05,0.003921490555834779,3.457437900598752,0.8067038535672912,0.17062378179809845,-7.309577706331974,32.4
,,0.0031634815431196553,0.0006690995489220572,8.890946379306648e-05,0.003921490555834779,3.4818607092443865,0.8067038535672912,0.17062378179809845,-7.309577706331974,32.5
,,0.0031634815431196553,0.0006690995489220572,8.890946379306648e-05,0.003921490555834779,3.506283517890019,0.8067038535672912,0.17062378179809845,-7.309577706331974,32.6
,,0.0031634815431196553,0.0006690995489220572,8.890946379306648e-05,0.003921490555834779,3.5299846383983535,0.8067038535672912,0.17062378179809845,-7.309577706331974,32.7
,,0.0033158954141523,0.0006753704075704853,9.849983797821391e-05,0.004089765659700999,3.5557054810217164,0.8107788294145742,0.1651367006734223,-7.300249265644766,32.8
,,0.0033158954141523,0.0006753704075704853,9.849983797821391e-05,0.004089765659700999,3.58142632364508,0.8107788294145742,0.1651367006734223,-7.300249265644766,32.9
,,0.0033158954141523,0.0006753704075704853,9.849983797821391e-05,0.004089765659700999,3.6071471662684433,0.8107788294145742,0.1651367006734223,-7.300249265644766,33.0
,,0.0033158954141523,0.0006753704075704853,9.849983797821391e-05,0.004089765659700999,3.6328680088918066,0.8107788294145742,0.1651367006734223,-7.300249265644766,33.1
,,0.0033158954141523,0.0006753704075704853,9.849983797821391e-05,0.004089765659700999,3.65858885151517,0.8107788294145742,0.1651367006734223,-7.300249265644766,33.2
,,0.0033158954141523,0.0006753704075704853,9.849983797821391e-05,0.004089765659700999,3.6843096941385327,0.8107788294145742,0.1651367006734223,-7.300249265644766,33.3
,,0.0033158954141523,0.0006753704075704853,9.849983797821391e-05,0.004089765659700999,3.7104222543270655,0.8107788294145742,0.1651367006734223,-7.300249265644766,33.4
,,0.0034107876250889027,0.0007006672675653085,9.974405714368971e-05,0.004211198949797901,3.7343264330388877,0.809932673746651,0.16638189644280144,-7.263477437585995,33.5
,,0.003524045354933752,0.0006933503713198848,0.0001092957707625846,0.004326691497016221,3.760616382411001,0.8144896296313265,0.16024955137153504,-7.273975100219892,33.6
,,0.003524045354933752,0.0006933503713198848,0.0001092957707625846,0.004326691497016221,3.7869063317831135,0.8144896296313265,0.16024955137153504,-7.273975100219892,33.7
,,0.003524045354933752,0.0006933503713198848,0.0001092957707625846,0.004326691497016221,3.8131962811552267,0.8144896296313265,0.16024955137153504,-7.273975100219892,33.8
,,0.003524045354933752,0.0006933503713198848,0.0001092957707625846,0.004326691497016221,3.8394862305273403,0.8144896296313265,0.16024955137153504,-7.273975100219892,33.9
,,0.003524045354933752,0.0006933503713198848,0.0001092957707625846,0.004326691497016221,3.8657761798994525,0.8144896296313265,0.16024955137153504,-7.273975100219892,34.0
,,0.003524045354933752,0.0006933503713198848,0.0001092957707625846,0.004326691497016221,3.8920661292715653,0.8144896296313265,0.16024955137153504,-7.273975100219892,34.1
,,0.003524045354933752,0.0006933503713198848,0.0001092957707625846,0.004326691497016221,3.9189072386679067,0.8144896296313265,0.16024955137153504,-7.273975100219892,34.2
,,0.003346008517400723,0.0008481037388086508,0.00012820309973727691,0.004322315355946651,3.9306391489939982,0.7741241075335416,0.1962151460424626,-7.072507596153736,34.3
,,0.003346008517400723,0.0008481037388086508,0.00012820309973727691,0.004322315355946651,3.9423710593200902,0.7741241075335416,0.1962151460424626,-7.072507596153736,34.4
,,0.003346008517400723,0.0008481037388086508,0.00012820309973727691,0.004322315355946651,3.954102969646182,0.7741241075335416,0.1962151460424626,-7.072507596153736,34.5
,,0.003346008517400723,0.0008481037388086508,0.00012820309973727691,0.004322315355946651,3.9658348799722742,0.7741241075335416,0.1962151460424626,-7.072507596153736,34.6
,,0.003346008517400723,0.0008481037388086508,0.00012820309973727691,0.004322315355946651,3.977566790298366,0.7741241075335416,0.1962151460424626,-7.072507596153736,34.7
,,0.003346008517400723,0.0008481037388086508,0.00012820309973727691,0.004322315355946651,3.9891363085315037,0.7741241075335416,0.1962151460424626,-7.072507596153736,34.8
,,0.0038951363839148665,0.0007390535279715601,0.0001231075139362851,0.004757297425822711,4.029861897806415,0.8187708346280776,0.15535154980219693,-7.210140206660107,34.9
,,0.003346008517400723,0.0008481037388086508,0.00012820309973727691,0.004322315355946651,4.039241183576402,0.7741241075335416,0.1962151460424626,-7.072507596153736,35.0
,,0.004147343662092744,0.0007635395591287377,0.00013429694793771067,0.0050451801691591925,4.065136599567124,0.8220407444406335,0.15134039489733145,-7.177545621774563,35.1
,,0.004147343662092744,0.0007635395591287377,0.00013429694793771067,0.0050451801691591925,4.091032015557846,0.8220407444406335,0.15134039489733145,-7.177545621774563,35.2
,,0.004147343662092744,0.0007635395591287377,0.00013429694793771067,0.0050451801691591925,4.116927431548569,0.8220407444406335,0.15134039489733145,-7.177545621774563,35.3
,,0.004147343662092744,0.0007635395591287377,0.00013429694793771067,0.0050451801691591925,4.14282284753929,0.8220407444406335,0.15134039489733145,-7.177545621774563,35.4
,,0.004147343662092744,0.0007635395591287377,0.00013429694793771067,0.0050451801691591925,4.168718263530012,0.8220407444406335,0.15134039489733145,-7.177545621774563,35.5
,,0.004147343662092744,0.0007635395591287377,0.00013429694793771067,0.0050451801691591925,4.194613679520733,0.8220407444406335,0.15134039489733145,-7.177545621774563,35.6
,,0.004147343662092744,0.0007635395591287377,0.00013429694793771067,0.0050451801691591925,4.220408521413142,0.8220407444406335,0.15134039489733145,-7.177545621774563,35.7
,,0.0038342556394694452,0.0009783931386085545,0.00016506311534982625,0.004977711893427826,4.228641452618845,0.7702847656835846,0.19655479456341113,-6.929598986485327,35.8
,,0.0038342556394694452,0.0009783931386085545,0.00016506311534982625,0.004977711893427826,4.23687438382455,0.7702847656835846,0.19655479456341113,-6.929598986485327,35.9
,,0.0038342556394694452,0.0009783931386085545,0.00016506311534982625,0.004977711893427826,4.245107315030254,0.7702847656835846,0.19655479456341113,-6.929598986485327,36.0
,,0.0038342556394694452,0.0009783931386085545,0.00016506311534982625,0.004977711893427826,4.253340246235959,0.7702847656835846,0.19655479456341113,-6.929598986485327,36.1
,,0.0038342556394694452,0.0009783931386085545,0.00016506311534982625,0.004977711893427826,4.261573177441663,0.7702847656835846,0.19655479456341113,-6.929598986485327,36.2
,,0.0038342556394694452,0.0009783931386085545,0.00016506311534982625,0.004977711893427826,4.2681040753634125,0.7702847656835846,0.19655479456341113,-6.929598986485327,36.3
,,0.004694697049921748,0.0008250402469594374,0.00015245426604244808,0.005672191562923633,4.2943731277357795,0.8276689878756399,0.14545352317653118,-7.100078388626246,36.4
,,0.004934095224493361,0.0008313720753793201,0.00017641402918314777,0.005941881329055829,4.323360155522067,0.8303927579915827,0.13991731395137538,-7.092433119177549,36.5
,,0.00420394013703169,0.0010658179644756289,0.0001842033358799878,0.005453961437387306,4.329974659296225,0.7708048883905506,0.19542088383122191,-6.844012732852735,36.6
,,0.00420394013703169,0.0010658179644756289,0.0001842033358799878,0.005453961437387306,4.336589163070381,0.7708048883905506,0.19542088383122191,-6.844012732852735,36.7
,,0.00420394013703169,0.0010658179644756289,0.0001842033358799878,0.005453961437387306,4.343203666844539,0.7708048883905506,0.19542088383122191,-6.844012732852735,36.8
,,0.00420394013703169,0.0010658179644756289,0.0001842033358799878,0.005453961437387306,4.349818170618696,0.7708048883905506,0.19542088383122191,-6.844012732852735,36.9
,,0.00420394013703169,0.0010658179644756289,0.0001842033358799878,0.005453961437387306,4.356432674392853,0.7708048883905506,0.19542088383122191,-6.844012732852735,37.0
,,0.00420394013703169,0.0010658179644756289,0.0001842033358799878,0.005453961437387306,4.36304717816701,0.7708048883905506,0.19542088383122191,-6.844012732852735,37.1
,,0.00420394013703169,0.0010658179644756289,0.0001842033358799878,0.005453961437387306,4.367602857852213,0.7708048883905506,0.19542088383122191,-6.844012732852735,37.2
,,0.0046945215182010265,0.0011737658030963655,0.0002030729496289672,0.006071360270926359,4.373125754555961,0.7732240072593721,0.19332830712041965,-6.747538063765566,37.3
,,0.0046945215182010265,0.0011737658030963655,0.0002030729496289672,0.006071360270926359,4.378648651259706,0.7732240072593721,0.19332830712041965,-6.747538063765566,37.4
,,0.0046945215182010265,0.0011737658030963655,0.0002030729496289672,0.006071360270926359,4.384171547963453,0.7732240072593721,0.19332830712041965,-6.747538063765566,37.5
,,0.0046945215182010265,0.0011737658030963655,0.0002030729496289672,0.006071360270926359,4.3896944446671995,0.7732240072593721,0.19332830712041965,-6.747538063765566,37.6
,,0.0046945215182010265,0.0011737658030963655,0.0002030729496289672,0.006071360270926359,4.395217341370946,0.7732240072593721,0.19332830712041965,-6.747538063765566,37.7
,,0.0046945215182010265,0.0011737658030963655,0.0002030729496289672,0.006071360270926359,4.398050738579248,0.7732240072593721,0.19332830712041965,-6.747538063765566,37.8
,,0.005915501944831326,0.0009665427065313365,0.0001883042110752113,0.007070348862437874,4.427137314194743,0.8366633754464622,0.1367036797386643,-6.941785073503336,37.9
,,0.006424756378390622,0.0010646262585468213,0.0001661221377978463,0.007655504774735289,4.456548043561409,0.8392335407579673,0.13906676174513047,-6.845131472353374,38.0
,,0.0026089064803348242,0.001301980438976467,0.00022056916053254653,0.004131456079843838,4.438419884073648,0.6314738508447212,0.3151383952327238,-6.643868759136216,38.1
,,0.0026089064803348242,0.001301980438976467,0.00022056916053254653,0.004131456079843838,4.420291724585886,0.6314738508447212,0.3151383952327238,-6.643868759136216,38.2
,,0.0026089064803348242,0.001301980438976467,0.00022056916053254653,0.004131456079843838,4.4021635650981255,0.6314738508447212,0.3151383952327238,-6.643868759136216,38.3
,,0.0026089064803348242,0.001301980438976467,0.00022056916053254653,0.004131456079843838,4.384035405610364,0.6314738508447212,0.3151383952327238,-6.643868759136216,38.4
,,0.0026089064803348242,0.001301980438976467,0.00022056916053254653,0.004131456079843838,4.365907246122602,0.6314738508447212,0.3151383952327238,-6.643868759136216,38.5
,,0.0026089064803348242,0.001301980438976467,0.00022056916053254653,0.004131456079843838,4.347779086634841,0.6314738508447212,0.3151383952327238,-6.643868759136216,38.6
,,0.007416189007476442,0.0011961535178432055,0.00018443454993991425,0.008796777075259561,4.377805495789669,0.8430575134538825,0.13597633628881192,-6.728644272290387,38.7
,,0.003047869975265625,0.001451467047683518,0.0002355406828657974,0.0047348777058149405,4.354607589510773,0.6437061661640199,0.3065479486198682,-6.5351804770077075,38.8
,,0.003047869975265625,0.001451467047683518,0.0002355406828657974,0.0047348777058149405,4.331409683231878,0.6437061661640199,0.3065479486198682,-6.5351804770077075,38.9
,,0.003047869975265625,0.001451467047683518,0.0002355406828657974,0.0047348777058149405,4.308211776952982,0.6437061661640199,0.3065479486198682,-6.5351804770077075,39.0
,,0.003047869975265625,0.001451467047683518,0.0002355406828657974,0.0047348777058149405,4.285013870674087,0.6437061661640199,0.3065479486198682,-6.5351804770077075,39.1
,,0.003047869975265625,0.001451467047683518,0.0002355406828657974,0.0047348777058149405,4.261815964395191,0.6437061661640199,0.3065479486198682,-6.5351804770077075,39.2
,,0.003047869975265625,0.001451467047683518,0.0002355406828657974,0.0047348777058149405,4.244949107565887,0.6437061661640199,0.3065479486198682,-6.5351804770077075,39.3
,,0.008361055285877146,0.0012987480444674254,0.00023283537947439784,0.009892638709818968,4.269950380138122,0.8451794845775936,0.13128428951704757,-6.6463545212555895,39.4
,,0.006932093717703373,0.0016376147844268084,0.00022336969533746508,0.008793078197467647,4.289326914565532,0.7883580200275909,0.18623907892669844,-6.414514495551689,39.5
,,0.008672921602699278,0.0013435095246462617,0.000244237383698956,0.010260668511044495,4.312547049511985,0.8452589218103888,0.13093781591327305,-6.612470040506049,39.6
,,0.008672921602699278,0.0013435095246462617,0.000244237383698956,0.010260668511044495,4.335767184458438,0.8452589218103888,0.13093781591327305,-6.612470040506049,39.7
,,0.008672921602699278,0.0013435095246462617,0.000244237383698956,0.010260668511044495,4.35898731940489,0.8452589218103888,0.13093781591327305,-6.612470040506049,39.8
,,0.008672921602699278,0.0013435095246462617,0.000244237383698956,0.010260668511044495,4.382207454351343,0.8452589218103888,0.13093781591327305,-6.612470040506049,39.9
,,0.008672921602699278,0.0013435095246462617,0.000244237383698956,0.010260668511044495,4.405427589297797,0.8452589218103888,0.13093781591327305,-6.612470040506049,40.0
,,0.009673890146250322,0.0015055734832042909,0.00022143341629454692,0.01140089704574916,4.428313980767755,0.8485200863959425,0.1320574580370977,-6.498581401400176,40.1
,,0.009673890146250322,0.0015055734832042909,0.00022143341629454692,0.01140089704574916,4.4512003722377145,0.8485200863959425,0.1320574580370977,-6.498581401400176,40.2
,,0.00976312546155045,0.0015035559813964484,0.0002658500528908708,0.011532531495837769,4.472868352736983,0.8465726250194141,0.1303751896917949,-6.4999223221773486,40.3
,,0.00976312546155045,0.0015035559813964484,0.0002658500528908708,0.011532531495837769,4.494536333236252,0.8465726250194141,0.1303751896917949,-6.4999223221773486,40.4
,,0.00976312546155045,0.0015035559813964484,0.0002658500528908708,0.011532531495837769,4.51620431373552,0.8465726250194141,0.1303751896917949,-6.4999223221773486,40.5
,,0.00976312546155045,0.0015035559813964484,0.0002658500528908708,0.011532531495837769,4.537872294234789,0.8465726250194141,0.1303751896917949,-6.4999223221773486,40.6
,,0.00976312546155045,0.0015035559813964484,0.0002658500528908708,0.011532531495837769,4.559540274734057,0.8465726250194141,0.1303751896917949,-6.4999223221773486,40.7
,,0.010839501617231986,0.001681718789504313,0.00023947906132393027,0.01276069946806023,4.580676401704696,0.849444158164138,0.13178891907247098,-6.387938919575163,40.8
,,0.01034888066997218,0.0016040351613191952,0.0002709112284527908,0.012223827059744164,4.601882408691659,0.8466154355253759,0.13122201038017356,-6.435232848756134,40.9
,,0.010839501617231986,0.001681718789504313,0.00023947906132393027,0.01276069946806023,4.623904356231174,0.849444158164138,0.13178891907247098,-6.387938919575163,41.0
,,0.010853206958689203,0.0016846396524565696,0.00028767416378260084,0.012825520774928373,4.642954152980334,0.8462195921046188,0.13135058466785554,-6.386203594157151,41.1
,,0.010853206958689203,0.0016846396524565696,0.00028767416378260084,0.012825520774928373,4.6620039497294945,0.8462195921046188,0.13135058466785554,-6.386203594157151,41.2
,,0.010853206958689203,0.0016846396524565696,0.00028767416378260084,0.012825520774928373,4.681053746478656,0.8462195921046188,0.13135058466785554,-6.386203594157151,41.3
,,0.010853206958689203,0.0016846396524565696,0.00028767416378260084,0.012825520774928373,4.700103543227817,0.8462195921046188,0.13135058466785554,-6.386203594157151,41.4
,,0.011981171080816052,0.001879855796208192,0.00025916649207253194,0.014120193369096775,4.718386696362507,0.8485132439501748,0.13313243997935706,-6.276560209226771,41.5
,,0.011981171080816052,0.001879855796208192,0.00025916649207253194,0.014120193369096775,4.736669849497199,0.8485132439501748,0.13313243997935706,-6.276560209226771,41.6
,,0.011981171080816052,0.001879855796208192,0.00025916649207253194,0.014120193369096775,4.75495300263189,0.8485132439501748,0.13313243997935706,-6.276560209226771,41.7
,,0.011972483365615114,0.0019029216394576354,0.00031276606314760696,0.014188171068220356,4.77030732419685,0.8438355661239458,0.13412029149549307,-6.264364868889748,41.8
,,0.011972483365615114,0.0019029216394576354,0.00031276606314760696,0.014188171068220356,4.785661645761808,0.8438355661239458,0.13412029149549307,-6.264364868889748,41.9
,,0.011972483365615114,0.0019029216394576354,0.00031276606314760696,0.014188171068220356,4.8010159673267685,0.8438355661239458,0.13412029149549307,-6.264364868889748,42.0
,,0.011972483365615114,0.0019029216394576354,0.00031276606314760696,0.014188171068220356,4.8163702888917275,0.8438355661239458,0.13412029149549307,-6.264364868889748,42.1
,,0.011972483365615114,0.0019029216394576354,0.00031276606314760696,0.014188171068220356,4.831724610456686,0.8438355661239458,0.13412029149549307,-6.264364868889748,42.2
,,0.013324809847514541,0.0021495539818847794,0.0002858773047719702,0.015760241134171293,4.84604826061285,0.845469922323951,0.1363909323204532,-6.1424949086495015,42.3
,,0.013324809847514541,0.0021495539818847794,0.0002858773047719702,0.015760241134171293,4.860371910769013,0.845469922323951,0.1363909323204532,-6.1424949086495015,42.4
,,0.013324809847514541,0.0021495539818847794,0.0002858773047719702,0.015760241134171293,4.875160338213728,0.845469922323951,0.1363909323204532,-6.1424949086495015,42.5
,,0.01323389425134221,0.002188978223946998,0.0003445534633895296,0.015767425938678737,4.885861026776344,0.839318624537086,0.13882914259183307,-6.124320408436531,42.6
,,0.01323389425134221,0.002188978223946998,0.0003445534633895296,0.015767425938678737,4.89656171533896,0.839318624537086,0.13882914259183307,-6.124320408436531,42.7
,,0.01323389425134221,0.002188978223946998,0.0003445534633895296,0.015767425938678737,4.9072624039015755,0.839318624537086,0.13882914259183307,-6.124320408436531,42.8
,,0.01323389425134221,0.002188978223946998,0.0003445534633895296,0.015767425938678737,4.91796309246419,0.839318624537086,0.13882914259183307,-6.124320408436531,42.9
,,0.014834528184715208,0.002496854171059721,0.0003177675280253819,0.01764914988380031,4.927503698693714,0.8405236672805091,0.1414716395689697,-5.992723671048045,43.0
,,0.014834528184715208,0.002496854171059721,0.0003177675280253819,0.01764914988380031,4.937044304923239,0.8405236672805091,0.1414716395689697,-5.992723671048045,43.1
,,0.014834528184715208,0.002496854171059721,0.0003177675280253819,0.01764914988380031,4.946584911152761,0.8405236672805091,0.1414716395689697,-5.992723671048045,43.2
,,0.01489934041110133,0.0025989191862492264,0.0003895124026534275,0.017887772000003983,4.96644731753084,0.8329343873064803,0.14529026791311114,-5.95265961797735,43.3
,,0.01489934041110133,0.0025989191862492264,0.0003895124026534275,0.017887772000003983,4.986309723908919,0.8329343873064803,0.14529026791311114,-5.95265961797735,43.4
,,0.01489934041110133,0.0025989191862492264,0.0003895124026534275,0.017887772000003983,5.0061721302869975,0.8329343873064803,0.14529026791311114,-5.95265961797735,43.5
,,0.01489934041110133,0.0025989191862492264,0.0003895124026534275,0.017887772000003983,5.026034536665075,0.8329343873064803,0.14529026791311114,-5.95265961797735,43.6
,,0.016966471109945896,0.0030087133266712197,0.0003670882229727728,0.02034227265958989,5.044854867491481,0.834049931090047,0.14790448329050548,-5.806242757833269,43.7
,,0.016966471109945896,0.0030087133266712197,0.0003670882229727728,0.02034227265958989,5.0636751983178865,0.834049931090047,0.14790448329050548,-5.806242757833269,43.8
,,0.016966471109945896,0.0030087133266712197,0.0003670882229727728,0.02034227265958989,5.067771566121246,0.834049931090047,0.14790448329050548,-5.806242757833269,43.9
,,0.016966471109945896,0.0030087133266712197,0.0003670882229727728,0.02034227265958989,5.0865918969476525,0.834049931090047,0.14790448329050548,-5.806242757833269,44.0
,,0.017160080955486545,0.0031709113986954,0.00045339981370054705,0.020784392167882495,5.086369508047295,0.8256234205397408,0.1525621424520326,-5.753736224940412,44.1
,,0.017160080955486545,0.0031709113986954,0.00045339981370054705,0.020784392167882495,5.086147119146937,0.8256234205397408,0.1525621424520326,-5.753736224940412,44.2
,,0.019516733866902076,0.0036574638691260664,0.0005130145956926477,0.02368721233172079,5.085084949005227,0.8239354464166386,0.15440668230208604,-5.610985303689925,44.3
,,0.019516733866902076,0.0036574638691260664,0.0005130145956926477,0.02368721233172079,5.084022778863518,0.8239354464166386,0.15440668230208604,-5.610985303689925,44.4
,,0.019516733866902076,0.0036574638691260664,0.0005130145956926477,0.02368721233172079,5.082960608721808,0.8239354464166386,0.15440668230208604,-5.610985303689925,44.5
,,0.019516733866902076,0.0036574638691260664,0.0005130145956926477,0.02368721233172079,5.081898438580099,0.8239354464166386,0.15440668230208604,-5.610985303689925,44.6
,,0.019516733866902076,0.0036574638691260664,0.0005130145956926477,0.02368721233172079,5.0808362684383885,0.8239354464166386,0.15440668230208604,-5.610985303689925,44.7
,,0.019516733866902076,0.0036574638691260664,0.0005130145956926477,0.02368721233172079,5.096583013771214,0.8239354464166386,0.15440668230208604,-5.610985303689925,44.8
,,0.015964985585187476,0.0037098885698704292,0.0002950087554142449,0.01996988291047215,5.100854440655891,0.7994531393479269,0.18577417737011237,-5.596753437889211,44.9
,,0.0225193190737701,0.004441195015597537,0.0006053053442579133,0.02756581943362555,5.11365024659493,0.8169290641982662,0.16111238870628472,-5.4168317910946335,45.0
,,0.0225193190737701,0.004441195015597537,0.0006053053442579133,0.02756581943362555,5.126446052533968,0.8169290641982662,0.16111238870628472,-5.4168317910946335,45.1
,,0.0225193190737701,0.004441195015597537,0.0006053053442579133,0.02756581943362555,5.1392418584730075,0.8169290641982662,0.16111238870628472,-5.4168317910946335,45.2
,,0.0225193190737701,0.004441195015597537,0.0006053053442579133,0.02756581943362555,5.152037664412045,0.8169290641982662,0.16111238870628472,-5.4168317910946335,45.3
,,0.0225193190737701,0.004441195015597537,0.0006053053442579133,0.02756581943362555,5.145151994399195,0.8169290641982662,0.16111238870628472,-5.4168317910946335,45.4
,,0.0225193190737701,0.004441195015597537,0.0006053053442579133,0.02756581943362555,5.1355483489724225,0.8169290641982662,0.16111238870628472,-5.4168317910946335,45.5
,,0.018444825851861166,0.004335143497750123,0.0003263218233983919,0.02310629117300968,5.138997112624751,0.7982599073886187,0.1876174529824145,-5.441000567163672,45.6
,,0.0259651517173394,0.00533399327394856,0.0007061013899340065,0.032005246381221965,5.149258572446204,0.811277982617675,0.16665996600726396,-5.233655114200133,45.7
,,0.0259651517173394,0.00533399327394856,0.0007061013899340065,0.032005246381221965,5.159520032267655,0.811277982617675,0.16665996600726396,-5.233655114200133,45.8
,,0.0259651517173394,0.00533399327394856,0.0007061013899340065,0.032005246381221965,5.169781492089108,0.811277982617675,0.16665996600726396,-5.233655114200133,45.9
,,0.0259651517173394,0.00533399327394856,0.0007061013899340065,0.032005246381221965,5.1800429519105595,0.811277982617675,0.16665996600726396,-5.233655114200133,46.0
,,0.0259651517173394,0.00533399327394856,0.0007061013899340065,0.032005246381221965,5.190304411732011,0.811277982617675,0.16665996600726396,-5.233655114200133,46.1
,,0.0259651517173394,0.00533399327394856,0.0007061013899340065,0.032005246381221965,5.200565871553464,0.811277982617675,0.16665996600726396,-5.233655114200133,46.2
,,0.0259651517173394,0.00533399327394856,0.0007061013899340065,0.032005246381221965,5.210213928266364,0.811277982617675,0.16665996600726396,-5.233655114200133,46.3
,,0.030400343421397955,0.006410236263637414,0.0008278365725921543,0.037638416257627524,5.218468705819597,0.80769454307837,0.17031099873492583,-5.049859150127039,46.4
,,0.030400343421397955,0.006410236263637414,0.0008278365725921543,0.037638416257627524,5.226723483372831,0.80769454307837,0.17031099873492583,-5.049859150127039,46.5
,,0.030400343421397955,0.006410236263637414,0.0008278365725921543,0.037638416257627524,5.234978260926064,0.80769454307837,0.17031099873492583,-5.049859150127039,46.6
,,0.030400343421397955,0.006410236263637414,0.0008278365725921543,0.037638416257627524,5.243233038479297,0.80769454307837,0.17031099873492583,-5.049859150127039,46.7
,,0.030400343421397955,0.006410236263637414,0.0008278365725921543,0.037638416257627524,5.2514878160325305,0.80769454307837,0.17031099873492583,-5.049859150127039,46.8
,,0.030400343421397955,0.006410236263637414,0.0008278365725921543,0.037638416257627524,5.236178914674014,0.80769454307837,0.17031099873492583,-5.049859150127039,46.9
,,0.028334572329726027,0.006135713114911494,0.0007365776541884822,0.035206863098826,5.220436942877274,0.8048025252971448,0.17427605230515678,-5.093628970424889,47.0
,,0.027634356021549622,0.0061825843759176526,0.0004030400864624303,0.0342199804839297,5.247835953558862,0.8075503150718394,0.1806717680280707,-5.08601891112157,47.1
,,0.020859671012367947,0.006499147425797731,0.0005121834146492851,0.027871001852814964,5.26123376046024,0.7484363541191156,0.2331867171520897,-5.036084275945348,47.2
,,0.020859671012367947,0.006499147425797731,0.0005121834146492851,0.027871001852814964,5.274631567361619,0.7484363541191156,0.2331867171520897,-5.036084275945348,47.3
,,0.020859671012367947,0.006499147425797731,0.0005121834146492851,0.027871001852814964,5.288029374262997,0.7484363541191156,0.2331867171520897,-5.036084275945348,47.4
,,0.020859671012367947,0.006499147425797731,0.0005121834146492851,0.027871001852814964,5.301427181164376,0.7484363541191156,0.2331867171520897,-5.036084275945348,47.5
,,0.020859671012367947,0.006499147425797731,0.0005121834146492851,0.027871001852814964,5.314824988065754,0.7484363541191156,0.2331867171520897,-5.036084275945348,47.6
,,0.020859671012367947,0.006499147425797731,0.0005121834146492851,0.027871001852814964,5.281597988586546,0.7484363541191156,0.2331867171520897,-5.036084275945348,47.7
,,0.03883749299047004,0.00808850608301694,0.0008357774390294782,0.04776177651251645,5.311616998611868,0.8131500925283273,0.16935103075358315,-4.817311227137327,47.8
,,0.03317759741462462,0.007294709792075137,0.0005865882272582514,0.04105889543395801,5.338820527551662,0.8080489517305642,0.1776645405332069,-4.920605879556738,47.9
,,0.03317759741462462,0.007294709792075137,0.0005865882272582514,0.04105889543395801,5.366024056491457,0.8080489517305642,0.1776645405332069,-4.920605879556738,48.0
,,0.03317759741462462,0.007294709792075137,0.0005865882272582514,0.04105889543395801,5.393227585431252,0.8080489517305642,0.1776645405332069,-4.920605879556738,48.1
,,0.03317759741462462,0.007294709792075137,0.0005865882272582514,0.04105889543395801,5.4204311143710475,0.8080489517305642,0.1776645405332069,-4.920605879556738,48.2
,,0.03317759741462462,0.007294709792075137,0.0005865882272582514,0.04105889543395801,5.447634643310843,0.8080489517305642,0.1776645405332069,-4.920605879556738,48.3
,,0.03317759741462462,0.007294709792075137,0.0005865882272582514,0.04105889543395801,5.426638993399508,0.8080489517305642,0.1776645405332069,-4.920605879556738,48.4
,,0.024152393003268564,0.007370371401837021,0.0006177553027780136,0.0321405197078836,5.416015820469101,0.7514624288214088,0.22931711959931925,-4.910287180314247,48.5
,,0.044227924688375886,0.009119021196036104,0.0009123683612136855,0.054259314245625676,5.398178611452184,0.8151213354477935,0.16806370155648012,-4.697392805651678,48.6
,,0.04483858930708118,0.00937566779765504,0.001119824841900213,0.055334081946636436,5.379589941523063,0.8103249883195497,0.16943748712948428,-4.669637477912652,48.7
,,0.04483858930708118,0.00937566779765504,0.001119824841900213,0.055334081946636436,5.361001271593944,0.8103249883195497,0.16943748712948428,-4.669637477912652,48.8
,,0.04483858930708118,0.00937566779765504,0.001119824841900213,0.055334081946636436,5.342412601664824,0.8103249883195497,0.16943748712948428,-4.669637477912652,48.9
,,0.04483858930708118,0.00937566779765504,0.001119824841900213,0.055334081946636436,5.323823931735703,0.8103249883195497,0.16943748712948428,-4.669637477912652,49.0
,,0.04483858930708118,0.00937566779765504,0.001119824841900213,0.055334081946636436,5.305569005283078,0.8103249883195497,0.16943748712948428,-4.669637477912652,49.1
,,0.04739865328502439,0.009537156688548973,0.0009321958118808603,0.05786800578545422,5.289396871369681,0.8190821964861726,0.16480880167027018,-4.652559878977599,49.2
,,0.04739865328502439,0.009537156688548973,0.0009321958118808603,0.05786800578545422,5.272469501619928,0.8190821964861726,0.16480880167027018,-4.652559878977599,49.3
,,0.046806103180530696,0.009481226346210382,0.0011181382584694412,0.057405467785210516,5.255173470866139,0.815359668449378,0.1651624263682605,-4.658441609667076,49.4
,,0.046806103180530696,0.009481226346210382,0.0011181382584694412,0.057405467785210516,5.23787744011235,0.815359668449378,0.1651624263682605,-4.658441609667076,49.5
,,0.046806103180530696,0.009481226346210382,0.0011181382584694412,0.057405467785210516,5.220581409358561,0.815359668449378,0.1651624263682605,-4.658441609667076,49.6
,,0.046806103180530696,0.009481226346210382,0.0011181382584694412,0.057405467785210516,5.203285378604773,0.815359668449378,0.1651624263682605,-4.658441609667076,49.7
,,0.046806103180530696,0.009481226346210382,0.0011181382584694412,0.057405467785210516,5.186521201379614,0.815359668449378,0.1651624263682605,-4.658441609667076,49.8
,,0.04491037929128346,0.008703924319267344,0.0008375731110893081,0.05445187672164011,5.172165711871295,0.824771926978144,0.15984617690519845,-4.743981283843468,49.9
,,0.04481773447493698,0.008686667343641019,0.0010318946583609818,0.05453629647693898,5.157875494385174,0.8217964432896253,0.1592823111359282,-4.7459659180209695,50.0
,,0.04491037929128346,0.008703924319267344,0.0008375731110893081,0.05445187672164011,5.143623661001685,0.824771926978144,0.15984617690519845,-4.743981283843468,50.1
,,0.04486508889719593,0.008684921537613978,0.001018640889777933,0.054568651324587845,5.129439326310451,0.8221769790557454,0.15915587662143077,-4.746166913571216,50.2
,,0.04486508889719593,0.008684921537613978,0.001018640889777933,0.054568651324587845,5.115254991619216,0.8221769790557454,0.15915587662143077,-4.746166913571216,50.3
,,0.04486508889719593,0.008684921537613978,0.001018640889777933,0.054568651324587845,5.101070656927982,0.8221769790557454,0.15915587662143077,-4.746166913571216,50.4
,,0.04486508889719593,0.008684921537613978,0.001018640889777933,0.054568651324587845,5.087652965851219,0.8221769790557454,0.15915587662143077,-4.746166913571216,50.5
,,0.04345644825008927,0.00799561089072445,0.0007725470874331451,0.05222460622824686,5.0772261402080066,0.8321067670699807,0.15310045337210876,-4.828862526519004,50.6
,,0.04345644825008927,0.00799561089072445,0.0007725470874331451,0.05222460622824686,5.066799314564794,0.8321067670699807,0.15310045337210876,-4.828862526519004,50.7
,,0.04345644825008927,0.00799561089072445,0.0007725470874331451,0.05222460622824686,5.057281598376285,0.8321067670699807,0.15310045337210876,-4.828862526519004,50.8
,,0.0438942319600407,0.00799978466588349,0.000952093042033339,0.052846109667957525,5.048340424211648,0.8306047925918628,0.15137887568541386,-4.828340654429128,50.9
,,0.0438942319600407,0.00799978466588349,0.000952093042033339,0.052846109667957525,5.03939925004701,0.8306047925918628,0.15137887568541386,-4.828340654429128,51.0
,,0.0438942319600407,0.00799978466588349,0.000952093042033339,0.052846109667957525,5.030458075882373,0.8306047925918628,0.15137887568541386,-4.828340654429128,51.1
,,0.0438942319600407,0.00799978466588349,0.000952093042033339,0.052846109667957525,5.021516901717736,0.8306047925918628,0.15137887568541386,-4.828340654429128,51.2
,,0.04272675100062551,0.00735640322764947,0.0007312355481196268,0.0508143897763946,5.0171750297327184,0.840839596591473,0.14477007910595485,-4.912184157585607,51.3
,,0.04272675100062551,0.00735640322764947,0.0007312355481196268,0.0508143897763946,5.012833157747702,0.840839596591473,0.14477007910595485,-4.912184157585607,51.4
,,0.04272675100062551,0.00735640322764947,0.0007312355481196268,0.0508143897763946,5.008491285762684,0.840839596591473,0.14477007910595485,-4.912184157585607,51.5
,,0.04272675100062551,0.00735640322764947,0.0007312355481196268,0.0508143897763946,5.005851381999476,0.840839596591473,0.14477007910595485,-4.912184157585607,51.6
,,0.04826208842295567,0.008276297251455634,0.0009113714624254251,0.057449757136836734,5.003469910719703,0.8400747162081572,0.14406148370205868,-4.7943596024582495,51.7
,,0.04826208842295567,0.008276297251455634,0.0009113714624254251,0.057449757136836734,5.00108843943993,0.8400747162081572,0.14406148370205868,-4.7943596024582495,51.8
,,0.04826208842295567,0.008276297251455634,0.0009113714624254251,0.057449757136836734,4.998706968160158,0.8400747162081572,0.14406148370205868,-4.7943596024582495,51.9
,,0.04826208842295567,0.008276297251455634,0.0009113714624254251,0.057449757136836734,4.997485579213476,0.8400747162081572,0.14406148370205868,-4.7943596024582495,52.0
,,0.04258898695446962,0.006768411689704594,0.0007105573121938477,0.05006795595636806,5.001385900105536,0.8506236402297704,0.13518450195176643,-4.995488829671153,52.1
,,0.04258898695446962,0.006768411689704594,0.0007105573121938477,0.05006795595636806,5.005286220997597,0.8506236402297704,0.13518450195176643,-4.995488829671153,52.2
,,0.04258898695446962,0.006768411689704594,0.0007105573121938477,0.05006795595636806,5.011501971761478,0.8506236402297704,0.13518450195176643,-4.995488829671153,52.3
,,0.0438955309620067,0.006818287906803525,0.0009035504131001388,0.051617369281910366,5.019335442217985,0.8504023272141101,0.13209289821736492,-4.98814687870073,52.4
,,0.0438955309620067,0.006818287906803525,0.0009035504131001388,0.051617369281910366,5.027168912674491,0.8504023272141101,0.13209289821736492,-4.98814687870073,52.5
,,0.0438955309620067,0.006818287906803525,0.0009035504131001388,0.051617369281910366,5.0350023831309985,0.8504023272141101,0.13209289821736492,-4.98814687870073,52.6
,,0.0438955309620067,0.006818287906803525,0.0009035504131001388,0.051617369281910366,5.043877929139178,0.8504023272141101,0.13209289821736492,-4.98814687870073,52.7
,,0.045010085499420656,0.006671848455560876,0.0007789187082610246,0.05246085266324255,5.056179676563955,0.857974722377275,0.1271776594709373,-5.009858327678719,52.8
,,0.045010085499420656,0.006671848455560876,0.0007789187082610246,0.05246085266324255,5.068481423988731,0.857974722377275,0.1271776594709373,-5.009858327678719,52.9
,,0.045010085499420656,0.006671848455560876,0.0007789187082610246,0.05246085266324255,5.080783171413507,0.857974722377275,0.1271776594709373,-5.009858327678719,53.0
,,0.045010085499420656,0.006671848455560876,0.0007789187082610246,0.05246085266324255,5.0956115083443105,0.857974722377275,0.1271776594709373,-5.009858327678719,53.1
,,0.042904270196416745,0.006051250133337683,0.0008823434788375763,0.049837863808592,5.114260741738728,0.8608769902577583,0.12141873007595588,-5.1074903946756365,53.2
,,0.042904270196416745,0.006051250133337683,0.0008823434788375763,0.049837863808592,5.133749756374498,0.8608769902577583,0.12141873007595588,-5.1074903946756365,53.3
,,0.042904270196416745,0.006051250133337683,0.0008823434788375763,0.049837863808592,5.153238771010266,0.8608769902577583,0.12141873007595588,-5.1074903946756365,53.4
,,0.04234618876487465,0.005551003004573473,0.0007133589632923854,0.04861055073274051,5.178710179315526,0.8711316396658999,0.11419337820492381,-5.193776646007195,53.5
,,0.04234618876487465,0.005551003004573473,0.0007133589632923854,0.04861055073274051,5.204181587620784,0.8711316396658999,0.11419337820492381,-5.193776646007195,53.6
,,0.04234618876487465,0.005551003004573473,0.0007133589632923854,0.04861055073274051,5.2296529959260445,0.8711316396658999,0.11419337820492381,-5.193776646007195,53.7
,,0.04234618876487465,0.005551003004573473,0.0007133589632923854,0.04861055073274051,5.255124404231303,0.8711316396658999,0.11419337820492381,-5.193776646007195,53.8
,,0.04202740750755713,0.005340241849327857,0.0008785751303167515,0.04824622448720174,5.294753123484888,0.8711025153627456,0.1106872487140307,-5.232484336899298,53.9
,,0.04202740750755713,0.005340241849327857,0.0008785751303167515,0.04824622448720174,5.3258574636841125,0.8711025153627456,0.1106872487140307,-5.232484336899298,54.0
,,0.04202740750755713,0.005340241849327857,0.0008785751303167515,0.04824622448720174,5.356961803883336,0.8711025153627456,0.1106872487140307,-5.232484336899298,54.1
,,0.04202740750755713,0.005340241849327857,0.0008785751303167515,0.04824622448720174,5.3880661440825595,0.8711025153627456,0.1106872487140307,-5.232484336899298,54.2
,,0.04154401317109627,0.00489356346736883,0.0007224007858609909,0.04715997742432609,5.426054674104738,0.8809167315179207,0.10376517832777056,-5.319834515453512,54.3
,,0.04154401317109627,0.00489356346736883,0.0007224007858609909,0.04715997742432609,5.4640432041269165,0.8809167315179207,0.10376517832777056,-5.319834515453512,54.4
,,0.04121875207486258,0.004727360766527154,0.0008917747602936946,0.04683788760168343,5.5045835933981175,0.880030124872265,0.10093027266151186,-5.354388209684062,54.5
,,0.04154401317109627,0.00489356346736883,0.0007224007858609909,0.04715997742432609,5.551636934917217,0.8809167315179207,0.10376517832777056,-5.319834515453512,54.6
,,0.041276814301474944,0.00472039687919022,0.0008928934757133298,0.046890104656378495,5.5947090338894006,0.8802883807566855,0.10066936113242607,-5.3558623983453835,54.7
,,0.041276814301474944,0.00472039687919022,0.0008928934757133298,0.046890104656378495,5.637781132861584,0.8802883807566855,0.10066936113242607,-5.3558623983453835,54.8
,,0.041276814301474944,0.00472039687919022,0.0008928934757133298,0.046890104656378495,5.680853231833768,0.8802883807566855,0.10066936113242607,-5.3558623983453835,54.9
,,0.04095218540801186,0.004349901907130304,0.0007491740148489101,0.04605126132999108,5.73137150062225,0.8892739140098553,0.09445782333647855,-5.437601984220789,55.0
,,0.04095218540801186,0.004349901907130304,0.0007491740148489101,0.04605126132999108,5.781889769410731,0.8892739140098553,0.09445782333647855,-5.437601984220789,55.1
,,0.04095218540801186,0.004349901907130304,0.0007491740148489101,0.04605126132999108,5.832408038199213,0.8892739140098553,0.09445782333647855,-5.437601984220789,55.2
,,0.040626077836201584,0.004223479485336544,0.0009189729792814075,0.04576853030081954,5.885199570343996,0.8876421761673682,0.09227911531301493,-5.467095968074639,55.3
,,0.04067376084879232,0.00421917738846347,0.0009231394845276342,0.04581607772178342,5.939618933212671,0.8877617393567024,0.09208944977971012,-5.468115101579587,55.4
,,0.04067376084879232,0.00421917738846347,0.0009231394845276342,0.04581607772178342,5.994038296081346,0.8877617393567024,0.09208944977971012,-5.468115101579587,55.5
,,0.04067376084879232,0.00421917738846347,0.0009231394845276342,0.04581607772178342,6.048457658950021,0.8877617393567024,0.09208944977971012,-5.468115101579587,55.6
,,0.04067376084879232,0.00421917738846347,0.0009231394845276342,0.04581607772178342,6.1028770218186965,0.8877617393567024,0.09208944977971012,-5.468115101579587,55.7
,,0.040539025731786534,0.003921526697245675,0.0007880131982735585,0.04524856562730577,6.165044728643131,0.8959184710006098,0.0866663206419782,-5.541274237417941,55.8
,,0.040539025731786534,0.003921526697245675,0.0007880131982735585,0.04524856562730577,6.227212435467566,0.8959184710006098,0.0866663206419782,-5.541274237417941,55.9
,,0.040539025731786534,0.003921526697245675,0.0007880131982735585,0.04524856562730577,6.290763398534514,0.8959184710006098,0.0866663206419782,-5.541274237417941,56.0
,,0.040539025731786534,0.003921526697245675,0.0007880131982735585,0.04524856562730577,6.35596176085417,0.8959184710006098,0.0866663206419782,-5.541274237417941,56.1
,,0.04025550403417261,0.0038477605391693185,0.0009656290304838316,0.04506889360382576,6.436544643985616,0.8931992959054011,0.08537508315586194,-5.560263978060644,56.2
,,0.04025550403417261,0.0038477605391693185,0.0009656290304838316,0.04506889360382576,6.517127527117066,0.8931992959054011,0.08537508315586194,-5.560263978060644,56.3
,,0.04025550403417261,0.0038477605391693185,0.0009656290304838316,0.04506889360382576,6.597710410248513,0.8931992959054011,0.08537508315586194,-5.560263978060644,56.4
,,0.04032385128601921,0.003627646787996309,0.0008350903369479565,0.04478658841096348,6.685556007872779,0.9003555018749358,0.08099850684559584,-5.619171108691396,56.5
,,0.04032385128601921,0.003627646787996309,0.0008350903369479565,0.04478658841096348,6.773401605497046,0.9003555018749358,0.08099850684559584,-5.619171108691396,56.6
,,0.04032385128601921,0.003627646787996309,0.0008350903369479565,0.04478658841096348,6.861247203121312,0.9003555018749358,0.08099850684559584,-5.619171108691396,56.7
,,0.04032385128601921,0.003627646787996309,0.0008350903369479565,0.04478658841096348,6.931404306202793,0.9003555018749358,0.08099850684559584,-5.619171108691396,56.8
,,0.04032385128601921,0.003627646787996309,0.0008350903369479565,0.04478658841096348,7.0043768903698,0.9003555018749358,0.08099850684559584,-5.619171108691396,56.9
,,0.04000670269871026,0.0036121089005337935,0.0010172627615582374,0.044636074360802296,7.0769051849449065,0.896286317101457,0.08092353443397367,-5.623463494232445,57.0
,,0.04000670269871026,0.0036121089005337935,0.0010172627615582374,0.044636074360802296,7.149433479520015,0.896286317101457,0.08092353443397367,-5.623463494232445,57.1
,,0.04000670269871026,0.0036121089005337935,0.0010172627615582374,0.044636074360802296,7.221961774095122,0.896286317101457,0.08092353443397367,-5.623463494232445,57.2
,,0.04032017733646831,0.0034815787107072616,0.0008870928193440935,0.044688848866519665,7.300104349081141,0.9022424689635649,0.07790710208504872,-5.660269435562854,57.3
,,0.04032017733646831,0.0034815787107072616,0.0008870928193440935,0.044688848866519665,7.37824692406716,0.9022424689635649,0.07790710208504872,-5.660269435562854,57.4
,,0.04032017733646831,0.0034815787107072616,0.0008870928193440935,0.044688848866519665,7.470514109820014,0.9022424689635649,0.07790710208504872,-5.660269435562854,57.5
,,0.04032017733646831,0.0034815787107072616,0.0008870928193440935,0.044688848866519665,7.545302225642513,0.9022424689635649,0.07790710208504872,-5.660269435562854,57.6
,,0.03854381756111007,0.00394773223209852,0.0015105527085109143,0.0440021025017195,7.600647689240388,0.8759539969619375,0.08971690004913405,-5.5346139833942845,57.7
,,0.03854381756111007,0.00394773223209852,0.0015105527085109143,0.0440021025017195,7.655993152838263,0.8759539969619375,0.08971690004913405,-5.5346139833942845,57.8
,,0.03854381756111007,0.00394773223209852,0.0015105527085109143,0.0440021025017195,7.711338616436138,0.8759539969619375,0.08971690004913405,-5.5346139833942845,57.9
,,0.03854381756111007,0.00394773223209852,0.0015105527085109143,0.0440021025017195,7.766684080034013,0.8759539969619375,0.08971690004913405,-5.5346139833942845,58.0
,,0.04053879630952608,0.0034912490044205027,0.0009383537980601794,0.04496839911200676,7.842563004478579,0.9014952079693237,0.07763783175212756,-5.657495725869124,58.1
,,0.04053879630952608,0.0034912490044205027,0.0009383537980601794,0.04496839911200676,7.916359136383915,0.9014952079693237,0.07763783175212756,-5.657495725869124,58.2
,,0.04053879630952608,0.0034912490044205027,0.0009383537980601794,0.04496839911200676,7.990155268289251,0.9014952079693237,0.07763783175212756,-5.657495725869124,58.3
,,0.04053879630952608,0.0034912490044205027,0.0009383537980601794,0.04496839911200676,8.064320061198622,0.9014952079693237,0.07763783175212756,-5.657495725869124,58.4
,,0.03874792504461091,0.003997489142537105,0.0016118791240969153,0.04435729331124493,8.11716841344197,0.8735412409572789,0.09012022249616636,-5.522088829323117,58.5
,,0.03874792504461091,0.003997489142537105,0.0016118791240969153,0.04435729331124493,8.170016765685316,0.8735412409572789,0.09012022249616636,-5.522088829323117,58.6
,,0.03874792504461091,0.003997489142537105,0.0016118791240969153,0.04435729331124493,8.222865117928663,0.8735412409572789,0.09012022249616636,-5.522088829323117,58.7
,,0.04089962750993171,0.0036321972114882173,0.0009813384936247455,0.04551316321504467,8.293127175782635,0.8986329365130146,0.07980542231983495,-5.61791752139995,58.8
,,0.04089962750993171,0.0036321972114882173,0.0009813384936247455,0.04551316321504467,8.360910665903441,0.8986329365130146,0.07980542231983495,-5.61791752139995,58.9
,,0.04089962750993171,0.0036321972114882173,0.0009813384936247455,0.04551316321504467,8.428698764018375,0.8986329365130146,0.07980542231983495,-5.61791752139995,59.0
,,0.04089962750993171,0.0036321972114882173,0.0009813384936247455,0.04551316321504467,8.496482254139181,0.8986329365130146,0.07980542231983495,-5.61791752139995,59.1
,,0.037492243718435334,0.003975221812959052,0.0016089981184351251,0.043076463649829505,8.543878084011038,0.8703649404280597,0.09228291916610906,-5.527674730430438,59.2
,,0.037492243718435334,0.003975221812959052,0.0016089981184351251,0.043076463649829505,8.591273913882892,0.8703649404280597,0.09228291916610906,-5.527674730430438,59.3
,,0.037492243718435334,0.003975221812959052,0.0016089981184351251,0.043076463649829505,8.638669743754749,0.8703649404280597,0.09228291916610906,-5.527674730430438,59.4
,,0.037492243718435334,0.003975221812959052,0.0016089981184351251,0.043076463649829505,8.686065573626605,0.8703649404280597,0.09228291916610906,-5.527674730430438,59.5
,,0.04128439810638592,0.0038752967197977915,0.0010073447282844309,0.046167039554468145,8.744045402184547,0.894239667624309,0.08394076720526326,-5.553133046257335,59.6
,,0.04128439810638592,0.0038752967197977915,0.0010073447282844309,0.046167039554468145,8.80202523074249,0.894239667624309,0.08394076720526326,-5.553133046257335,59.7
,,0.041021242835834804,0.00402084593049233,0.0012117652963488847,0.04625385406267602,8.854993058718524,0.8868718870485733,0.08692996533962134,-5.516262968017864,59.8
,,0.04128439810638592,0.0038752967197977915,0.0010073447282844309,0.046167039554468145,8.912396345252596,0.894239667624309,0.08394076720526326,-5.553133046257335,59.9
,,0.03585613958066566,0.003937079049161748,0.0015389688613326666,0.04133218749116007,8.952622657719912,0.8675112970571518,0.09525455312530438,-5.5373161886948665,60.0
,,0.03585613958066566,0.003937079049161748,0.0015389688613326666,0.04133218749116007,8.99284897018723,0.8675112970571518,0.09525455312530438,-5.5373161886948665,60.1
,,0.03585613958066566,0.003937079049161748,0.0015389688613326666,0.04133218749116007,9.03307528265455,0.8675112970571518,0.09525455312530438,-5.5373161886948665,60.2
,,0.04169089273917281,0.004171691980262431,0.0010169305755736886,0.04687951529500893,9.079582589040625,0.8893200468651491,0.08898752374060007,-5.4794335748035135,60.3
,,0.04169089273917281,0.004171691980262431,0.0010169305755736886,0.04687951529500893,9.126089895426698,0.8893200468651491,0.08898752374060007,-5.4794335748035135,60.4
,,0.04169089273917281,0.004171691980262431,0.0010169305755736886,0.04687951529500893,9.172597201812774,0.8893200468651491,0.08898752374060007,-5.4794335748035135,60.5
,,0.04142488102919509,0.004343776152807654,0.0012256203322372598,0.046994277514240006,9.21402500610081,0.8814877729877366,0.09243202327116151,-5.439011227879045,60.6
,,0.034519347295461605,0.003915152820315565,0.0014394327170152285,0.0398739328327924,9.24719718203311,0.8657121292804313,0.0981882784608529,-5.542900915737836,60.7
,,0.034519347295461605,0.003915152820315565,0.0014394327170152285,0.0398739328327924,9.280369357965412,0.8657121292804313,0.0981882784608529,-5.542900915737836,60.8
,,0.034519347295461605,0.003915152820315565,0.0014394327170152285,0.0398739328327924,9.313541533897713,0.8657121292804313,0.0981882784608529,-5.542900915737836,60.9
,,0.034519347295461605,0.003915152820315565,0.0014394327170152285,0.0398739328327924,9.346713709830015,0.8657121292804313,0.0981882784608529,-5.542900915737836,61.0
,,0.024000638037986296,0.004407548667938236,0.0009822928309957842,0.029390479536920318,9.337302955665772,0.816612672407631,0.14996518387532512,-5.424436601679874,61.1
,,0.024000638037986296,0.004407548667938236,0.0009822928309957842,0.029390479536920318,9.327892201501527,0.816612672407631,0.14996518387532512,-5.424436601679874,61.2
,,0.024000638037986296,0.004407548667938236,0.0009822928309957842,0.029390479536920318,9.318481447337284,0.816612672407631,0.14996518387532512,-5.424436601679874,61.3
,,0.024000638037986296,0.004407548667938236,0.0009822928309957842,0.029390479536920318,9.307452973480416,0.816612672407631,0.14996518387532512,-5.424436601679874,61.4
,,0.04118475695133492,0.004633306536970529,0.0011922268866527241,0.047010290374958165,9.334685604990915,0.8760796119922194,0.09855941114200473,-5.37448451091798,61.5
,,0.04118475695133492,0.004633306536970529,0.0011922268866527241,0.047010290374958165,9.361918236501413,0.8760796119922194,0.09855941114200473,-5.37448451091798,61.6
,,0.04118475695133492,0.004633306536970529,0.0011922268866527241,0.047010290374958165,9.389150868011912,0.8760796119922194,0.09855941114200473,-5.37448451091798,61.7
,,0.039693437326575744,0.004518652845541475,0.0009163596441692721,0.04512844981628649,9.411796233268749,0.8795657171510177,0.10012869628663225,-5.399541372583443,61.8
,,0.039693437326575744,0.004518652845541475,0.0009163596441692721,0.04512844981628649,9.43444159852559,0.8795657171510177,0.10012869628663225,-5.399541372583443,61.9
,,0.039693437326575744,0.004518652845541475,0.0009163596441692721,0.04512844981628649,9.457086963782428,0.8795657171510177,0.10012869628663225,-5.399541372583443,62.0
,,0.039693437326575744,0.004518652845541475,0.0009163596441692721,0.04512844981628649,9.479732329039269,0.8795657171510177,0.10012869628663225,-5.399541372583443,62.1
,,0.03977429270971643,0.004720540761842637,0.0011173703182362864,0.04561220378979535,9.494572793007189,0.8720098878146068,0.10349293324210627,-5.355831917760107,62.2
,,0.03977429270971643,0.004720540761842637,0.0011173703182362864,0.04561220378979535,9.50941325697511,0.8720098878146068,0.10349293324210627,-5.355831917760107,62.3
,,0.03977429270971643,0.004720540761842637,0.0011173703182362864,0.04561220378979535,9.52425372094303,0.8720098878146068,0.10349293324210627,-5.355831917760107,62.4
,,0.03977429270971643,0.004720540761842637,0.0011173703182362864,0.04561220378979535,9.533111791241458,0.8720098878146068,0.10349293324210627,-5.355831917760107,62.5
,,0.03842680643799568,0.004595950420415119,0.0008434436897244313,0.04386620054813523,9.5412501119247,0.876000336428253,0.10477201952724156,-5.382579706604919,62.6
,,0.03842680643799568,0.004595950420415119,0.0008434436897244313,0.04386620054813523,9.549388432607943,0.876000336428253,0.10477201952724156,-5.382579706604919,62.7
,,0.03842680643799568,0.004595950420415119,0.0008434436897244313,0.04386620054813523,9.557526753291189,0.876000336428253,0.10477201952724156,-5.382579706604919,62.8
,,0.03842680643799568,0.004595950420415119,0.0008434436897244313,0.04386620054813523,9.562983081474252,0.876000336428253,0.10477201952724156,-5.382579706604919,62.9
,,0.03862042595986866,0.004765623086046921,0.0010398983202012369,0.04442594736611682,9.565583269122826,0.869321381975166,0.10727116400632145,-5.346326987350862,63.0
,,0.03862042595986866,0.004765623086046921,0.0010398983202012369,0.04442594736611682,9.568183456771397,0.869321381975166,0.10727116400632145,-5.346326987350862,63.1
,,0.03862042595986866,0.004765623086046921,0.0010398983202012369,0.04442594736611682,9.570783644419972,0.869321381975166,0.10727116400632145,-5.346326987350862,63.2
,,0.0373819995557831,0.0046440217613957935,0.0007703569492086642,0.042796378266387554,9.565894386319888,0.8734851188364009,0.10851436382043633,-5.372174529241064,63.3
,,0.0373819995557831,0.0046440217613957935,0.0007703569492086642,0.042796378266387554,9.561005128219806,0.8734851188364009,0.10851436382043633,-5.372174529241064,63.4
,,0.0373819995557831,0.0046440217613957935,0.0007703569492086642,0.042796378266387554,9.5535640108707,0.8734851188364009,0.10851436382043633,-5.372174529241064,63.5
,,0.0373819995557831,0.0046440217613957935,0.0007703569492086642,0.042796378266387554,9.548674752770618,0.8734851188364009,0.10851436382043633,-5.372174529241064,63.6
,,0.037747615613943054,0.004775922424228381,0.0009638865030159865,0.043487424541187425,9.539334535856426,0.868012213006357,0.10982306895882168,-5.344168145857006,63.7
,,0.037747615613943054,0.004775922424228381,0.0009638865030159865,0.043487424541187425,9.529994318942235,0.868012213006357,0.10982306895882168,-5.344168145857006,63.8
,,0.037747615613943054,0.004775922424228381,0.0009638865030159865,0.043487424541187425,9.520654102028045,0.868012213006357,0.10982306895882168,-5.344168145857006,63.9
,,0.037747615613943054,0.004775922424228381,0.0009638865030159865,0.043487424541187425,9.503867715297556,0.868012213006357,0.10982306895882168,-5.344168145857006,64.0
,,0.03672267460850297,0.0046548403433157816,0.0007047061569027211,0.042082221108721465,9.486919154325424,0.8726410736170068,0.11061299096570437,-5.36984766673264,64.1
,,0.03672267460850297,0.0046548403433157816,0.0007047061569027211,0.042082221108721465,9.46997059335329,0.8726410736170068,0.11061299096570437,-5.36984766673264,64.2
,,0.03672267460850297,0.0046548403433157816,0.0007047061569027211,0.042082221108721465,9.450748769024854,0.8726410736170068,0.11061299096570437,-5.36984766673264,64.3
,,0.03672267460850297,0.0046548403433157816,0.0007047061569027211,0.042082221108721465,9.431292393132194,0.8726410736170068,0.11061299096570437,-5.36984766673264,64.4
,,0.03732075895897132,0.004747489981797725,0.0008969910887507653,0.04296524002951981,9.411525112905695,0.8686268000208918,0.11049606562271971,-5.35013922548591,64.5
,,0.03732075895897132,0.004747489981797725,0.0008969910887507653,0.04296524002951981,9.391757832679197,0.8686268000208918,0.11049606562271971,-5.35013922548591,64.6
,,0.03732075895897132,0.004747489981797725,0.0008969910887507653,0.04296524002951981,9.371990552452695,0.8686268000208918,0.11049606562271971,-5.35013922548591,64.7
,,0.03732075895897132,0.004747489981797725,0.0008969910887507653,0.04296524002951981,9.344474928270436,0.8686268000208918,0.11049606562271971,-5.35013922548591,64.8
,,0.036566387031683134,0.004649178129073882,0.0006490372296930802,0.0418646023904501,9.317003452573259,0.8734440301294834,0.11105272386713089,-5.371064821440088,64.9
,,0.036566387031683134,0.004649178129073882,0.0006490372296930802,0.0418646023904501,9.28953197687608,0.8734440301294834,0.11105272386713089,-5.371064821440088,65.0
,,0.036566387031683134,0.004649178129073882,0.0006490372296930802,0.0418646023904501,9.262060501178903,0.8734440301294834,0.11105272386713089,-5.371064821440088,65.1
,,0.03739652703477565,0.004702740523112572,0.0008443533226614405,0.04294362088054966,9.234171728741723,0.8708284552622241,0.1095096414015375,-5.359609850173107,65.2
,,0.03739652703477565,0.004702740523112572,0.0008443533226614405,0.04294362088054966,9.206282956304543,0.8708284552622241,0.1095096414015375,-5.359609850173107,65.3
,,0.03739652703477565,0.004702740523112572,0.0008443533226614405,0.04294362088054966,9.178394183867363,0.8708284552622241,0.1095096414015375,-5.359609850173107,65.4
,,0.03739652703477565,0.004702740523112572,0.0008443533226614405,0.04294362088054966,9.143242696937364,0.8708284552622241,0.1095096414015375,-5.359609850173107,65.5
,,0.03486224363184842,0.003381259223693412,0.0005817106405239012,0.038825213496065734,9.134295221025784,0.8979279311723839,0.08708926285842689,-5.689507087478663,65.6
,,0.03486224363184842,0.003381259223693412,0.0005817106405239012,0.038825213496065734,9.125347745114206,0.8979279311723839,0.08708926285842689,-5.689507087478663,65.7
,,0.03486224363184842,0.003381259223693412,0.0005817106405239012,0.038825213496065734,9.116400269202629,0.8979279311723839,0.08708926285842689,-5.689507087478663,65.8
,,0.03486224363184842,0.003381259223693412,0.0005817106405239012,0.038825213496065734,9.107452793291051,0.8979279311723839,0.08708926285842689,-5.689507087478663,65.9
,,0.03799364726467006,0.004651065474248628,0.0008093828815446249,0.04345409562046332,9.075153751194103,0.8743398458114077,0.10703399548047104,-5.370658951383097,66.0
,,0.03799364726467006,0.004651065474248628,0.0008093828815446249,0.04345409562046332,9.042854709097156,0.8743398458114077,0.10703399548047104,-5.370658951383097,66.1
,,0.03799364726467006,0.004651065474248628,0.0008093828815446249,0.04345409562046332,9.010555667000208,0.8743398458114077,0.10703399548047104,-5.370658951383097,66.2
,,0.03799364726467006,0.004651065474248628,0.0008093828815446249,0.04345409562046332,8.972642344492348,0.8743398458114077,0.10703399548047104,-5.370658951383097,66.3
,,0.0377666531048288,0.004617114694075124,0.0005847713374610671,0.04296853913636499,8.934850173032713,0.8789373309847124,0.10745337837579828,-5.377985294077482,66.4
,,0.0377666531048288,0.004617114694075124,0.0005847713374610671,0.04296853913636499,8.897058001573075,0.8789373309847124,0.10745337837579828,-5.377985294077482,66.5
,,0.0377666531048288,0.004617114694075124,0.0005847713374610671,0.04296853913636499,8.85926583011344,0.8789373309847124,0.10745337837579828,-5.377985294077482,66.6
,,0.0377666531048288,0.004617114694075124,0.0005847713374610671,0.04296853913636499,8.841667771790627,0.8789373309847124,0.10745337837579828,-5.377985294077482,66.7
,,0.03914824514210737,0.0046040221730902844,0.0007958561084284448,0.0445481234236261,8.827662429644995,0.8787855050555305,0.10334940776985772,-5.380824972084948,66.8
,,0.03914824514210737,0.0046040221730902844,0.0007958561084284448,0.0445481234236261,8.813657087499367,0.8787855050555305,0.10334940776985772,-5.380824972084948,66.9
,,0.03914824514210737,0.0046040221730902844,0.0007958561084284448,0.0445481234236261,8.799651745353735,0.8787855050555305,0.10334940776985772,-5.380824972084948,67.0
,,0.03914824514210737,0.0046040221730902844,0.0007958561084284448,0.0445481234236261,8.765112942361416,0.8787855050555305,0.10334940776985772,-5.380824972084948,67.1
,,0.03916531042548221,0.004604676652623917,0.0005805753662747415,0.04435056244438086,8.730601889439528,0.8830848644726575,0.10382453792775567,-5.380682828325635,67.2
,,0.03916531042548221,0.004604676652623917,0.0005805753662747415,0.04435056244438086,8.69609083651764,0.8830848644726575,0.10382453792775567,-5.380682828325635,67.3
,,0.03916531042548221,0.004604676652623917,0.0005805753662747415,0.04435056244438086,8.661579783595755,0.8830848644726575,0.10382453792775567,-5.380682828325635,67.4
,,0.040830426423919916,0.004561341296425492,0.0008050622711259327,0.04619682999147134,8.653339140731045,0.8838361080502246,0.09873710592842815,-5.390138554754735,67.5
,,0.040830426423919916,0.004561341296425492,0.0008050622711259327,0.04619682999147134,8.645098497866332,0.8838361080502246,0.09873710592842815,-5.390138554754735,67.6
,,0.040830426423919916,0.004561341296425492,0.0008050622711259327,0.04619682999147134,8.63685785500162,0.8838361080502246,0.09873710592842815,-5.390138554754735,67.7
,,0.040830426423919916,0.004561341296425492,0.0008050622711259327,0.04619682999147134,8.611203506526286,0.8838361080502246,0.09873710592842815,-5.390138554754735,67.8
,,0.040830426423919916,0.004561341296425492,0.0008050622711259327,0.04619682999147134,8.585549158050952,0.8838361080502246,0.09873710592842815,-5.390138554754735,67.9
,,0.03888526274273088,0.0030680544306882556,0.0005078632644954136,0.04246118043791455,8.601259627406225,0.9157838369469669,0.07225551430851697,-5.786711654210692,68.0
,,0.03888526274273088,0.0030680544306882556,0.0005078632644954136,0.04246118043791455,8.616970096761495,0.9157838369469669,0.07225551430851697,-5.786711654210692,68.1
,,0.03888526274273088,0.0030680544306882556,0.0005078632644954136,0.04246118043791455,8.653000727673465,0.9157838369469669,0.07225551430851697,-5.786711654210692,68.2
,,0.04212965771091372,0.004429381450069017,0.000819760594652365,0.0473787997556351,8.653888773220432,0.8892090540116085,0.09348868001963682,-5.4194953321978465,68.3
,,0.04212965771091372,0.004429381450069017,0.000819760594652365,0.0473787997556351,8.654776818767397,0.8892090540116085,0.09348868001963682,-5.4194953321978465,68.4
,,0.04212965771091372,0.004429381450069017,0.000819760594652365,0.0473787997556351,8.655664864314362,0.8892090540116085,0.09348868001963682,-5.4194953321978465,68.5
,,0.04212965771091372,0.004429381450069017,0.000819760594652365,0.0473787997556351,8.642978045741689,0.8892090540116085,0.09348868001963682,-5.4194953321978465,68.6
,,0.041124555023337575,0.0030307943127208642,0.0005318588678604068,0.044687208203918846,8.675374499634106,0.9202757718870241,0.06782241349449704,-5.798930544403186,68.7
,,0.041124555023337575,0.0030307943127208642,0.0005318588678604068,0.044687208203918846,8.712782954108434,0.9202757718870241,0.06782241349449704,-5.798930544403186,68.8
,,0.042112506477940154,0.0041875105788750965,0.0008211952547993519,0.047121212311614605,8.70615484394497,0.8937059216441279,0.08886678362990555,-5.475648855535613,68.9
,,0.041124555023337575,0.0030307943127208642,0.0005318588678604068,0.044687208203918846,8.755728271904141,0.9202757718870241,0.06782241349449704,-5.798930544403186,69.0
,,0.04220899569213597,0.004156125215140547,0.0008266842344005383,0.04719180514167706,8.767378915701984,0.8944136713019998,0.08806879081364273,-5.483172077435652,69.1
,,0.04220899569213597,0.004156125215140547,0.0008266842344005383,0.04719180514167706,8.779029559499827,0.8944136713019998,0.08806879081364273,-5.483172077435652,69.2
,,0.04220899569213597,0.004156125215140547,0.0008266842344005383,0.04719180514167706,8.780830578608093,0.8944136713019998,0.08806879081364273,-5.483172077435652,69.3
,,0.04220899569213597,0.004156125215140547,0.0008266842344005383,0.04719180514167706,8.782631597716357,0.8944136713019998,0.08806879081364273,-5.483172077435652,69.4
,,0.04244615138532554,0.0029485194207011555,0.0005662068701237827,0.04596087767615048,8.831542597337425,0.9235278682972416,0.06415280929744231,-5.826452125907742,69.5
,,0.04244615138532554,0.0029485194207011555,0.0005662068701237827,0.04596087767615048,8.885533099056529,0.9235278682972416,0.06415280929744231,-5.826452125907742,69.6
,,0.04244615138532554,0.0029485194207011555,0.0005662068701237827,0.04596087767615048,8.947520796647938,0.9235278682972416,0.06415280929744231,-5.826452125907742,69.7
,,0.042264542970663725,0.0039030740516463854,0.000848316343698566,0.04701593336600868,8.969872672693558,0.8989408471728845,0.08301598569280363,-5.5459908179566275,69.8
,,0.042264542970663725,0.0039030740516463854,0.000848316343698566,0.04701593336600868,8.992224548739179,0.8989408471728845,0.08301598569280363,-5.5459908179566275,69.9
,,0.042264542970663725,0.0039030740516463854,0.000848316343698566,0.04701593336600868,9.014576424784801,0.8989408471728845,0.08301598569280363,-5.5459908179566275,70.0
,,0.042264542970663725,0.0039030740516463854,0.000848316343698566,0.04701593336600868,9.074389521088223,0.8989408471728845,0.08301598569280363,-5.5459908179566275,70.1
,,0.04250430340527209,0.0028336761674254375,0.0006013277476350926,0.04593930732033261,9.180549026552958,0.9252273463526908,0.061683040792634244,-5.866180411206116,70.2
,,0.04250430340527209,0.0028336761674254375,0.0006013277476350926,0.04593930732033261,9.286708532017693,0.9252273463526908,0.061683040792634244,-5.866180411206116,70.3
,,0.04221788587594405,0.0037269497032247534,0.0008751715064202773,0.04682000708558908,9.35206834532854,0.9017060975400506,0.0796016475694188,-5.592165153820308,70.4
,,0.04250430340527209,0.0028336761674254375,0.0006013277476350926,0.04593930732033261,9.41996674542591,0.9252273463526908,0.061683040792634244,-5.866180411206116,70.5
,,0.042271766479044216,0.0036963561281818233,0.0008816090883717316,0.04684973169559777,9.448269150546897,0.9022840675737803,0.07889812800206816,-5.600407774816997,70.6
,,0.042271766479044216,0.0036963561281818233,0.0008816090883717316,0.04684973169559777,9.476571555667883,0.9022840675737803,0.07889812800206816,-5.600407774816997,70.7
,,0.042271766479044216,0.0036963561281818233,0.0008816090883717316,0.04684973169559777,9.506035025625934,0.9022840675737803,0.07889812800206816,-5.600407774816997,70.8
,,0.042271766479044216,0.0036963561281818233,0.0008816090883717316,0.04684973169559777,9.535498495583983,0.9022840675737803,0.07889812800206816,-5.600407774816997,70.9
,,0.04221540084443077,0.003765593740804254,0.0007101009485919194,0.04669109553382694,9.562459272045782,0.9041424357637184,0.08064907661196646,-5.581849730082819,71.0
,,0.04221540084443077,0.003765593740804254,0.0007101009485919194,0.04669109553382694,9.589420048507579,0.9041424357637184,0.08064907661196646,-5.581849730082819,71.1
,,0.04221540084443077,0.003765593740804254,0.0007101009485919194,0.04669109553382694,9.620364829794685,0.9041424357637184,0.08064907661196646,-5.581849730082819,71.2
