time,ecg,hr,rr,marker,norm_time
1715672090889242874,0.05,,,,0.0
1715672090896937172,0.024,,,,0.007694298
1715672090904631470,0.052,,,,0.015388596
1715672090912325768,0.069,,,,0.023082894
1715672090920020066,0.052,,,,0.030777192
1715672090927714364,0.062,,,,0.03847149
1715672090935408662,0.064,,,,0.046165788
1715672090943102960,0.055,,,,0.053860086
1715672090950797258,0.069,,,,0.061554384
1715672090958491556,0.064,,,,0.069248682
1715672090966185854,0.05,,,,0.07694298
1715672090973880152,0.05,,,,0.084637278
1715672090981574450,0.05,,,,0.092331576
1715672090989268748,0.052,,,,0.100025874
1715672090996963046,0.052,,,,0.107720172
1715672091004657344,0.04,,,,0.11541447
1715672091012351642,0.036,,,,0.123108768
1715672091020045940,0.043,,,,0.130803066
1715672091027740238,0.038,,,,0.138497364
1715672091035434536,0.019,,,,0.146191662
1715672091043128834,0.016,,,,0.15388596
1715672091050823132,0.024,,,,0.161580258
1715672091058517430,0.021,,,,0.169274556
1715672091066211728,0.026,,,,0.176968854
1715672091073906026,0.05,,,,0.184663152
1715672091081600324,0.079,,,,0.19235745
1715672091089294622,0.069,,,,0.200051748
1715672091096988920,0.026,,,,0.207746046
1715672091104683218,0.019,,,,0.215440344
1715672091112377516,0.043,,,,0.223134642
1715672091120071814,0.033,,,,0.23082894
1715672091127766112,0.007,,,,0.238523238
1715672091135460410,0.024,,,,0.246217536
1715672091143154708,0.048,,,,0.253911834
1715672091150849006,0.043,,,,0.261606132
1715672091158543304,0.074,,,,0.26930043
1715672091166237602,0.341,,,,0.276994728
1715672091173931900,0.925,,,,0.284689026
1715672091181626198,1.522,,,,0.292383324
1715672091189320496,1.459,,,,0.300077622
1715672091197014794,0.442,,,,0.30777192
1715672091204709092,-0.384,,,,0.315466218
1715672091212403390,-0.158,,,,0.323160516
1715672091220097688,0.084,,,,0.330854814
1715672091227791986,-0.139,,,,0.338549112
1715672091235486284,-0.146,,,,0.34624341
1715672091243180582,-0.016,,,,0.353937708
1715672091250874880,-0.081,,,,0.361632006
1715672091258569178,-0.115,,,,0.369326304
1715672091266263476,-0.038,,,,0.377020602
1715672091273957774,-0.028,,,,0.3847149
1715672091281652072,-0.048,,,,0.392409198
1715672091289346370,-0.024,,,,0.400103496
1715672091297040668,0.0,,,,0.407797794
1715672091304734966,0.002,,,,0.415492092
1715672091312429264,0.0,,,,0.42318639
1715672091320123562,0.012,,,,0.430880688
1715672091327817860,0.043,,,,0.438574986
1715672091335512158,0.057,,,,0.446269284
1715672091343206456,0.06,,,,0.453963582
1715672091350900754,0.074,,,,0.46165788
1715672091358595052,0.098,,,,0.469352178
1715672091366289350,0.105,,,,0.477046476
1715672091373983648,0.108,,,,0.484740774
1715672091381677946,0.115,,,,0.492435072
1715672091389372244,0.096,,,,0.50012937
1715672091397066542,0.088,,,,0.507823668
1715672091404760840,0.117,,,,0.515517966
1715672091412455138,0.127,,,,0.523212264
1715672091420149436,0.115,,,,0.530906562
1715672091427843734,0.105,,,,0.53860086
1715672091435538032,0.086,,,,0.546295158
1715672091443232330,0.067,,,,0.553989456
1715672091450926664,0.057,91.0,611.0,,0.56168379
1715672091458620683,0.045,,597.0,,0.569377809
1715672091466314702,0.031,,,,0.577071828
1715672091474008721,0.028,,,,0.584765847
1715672091481702740,0.033,,,,0.592459866
1715672091489396759,0.038,,,,0.600153885
1715672091497090778,0.043,,,,0.607847904
1715672091504784797,0.05,,,,0.615541923
1715672091512478816,0.05,,,,0.623235942
1715672091520172835,0.052,,,,0.630929961
1715672091527866854,0.064,,,,0.63862398
1715672091535560873,0.064,,,,0.646317999
1715672091543254892,0.055,,,,0.654012018
1715672091550948911,0.045,,,,0.661706037
1715672091558642930,0.062,,,,0.669400056
1715672091566336949,0.084,,,,0.677094075
1715672091574030968,0.062,,,,0.684788094
1715672091581724987,0.031,,,,0.692482113
1715672091589419006,0.043,,,,0.700176132
1715672091597113025,0.057,,,,0.707870151
1715672091604807044,0.036,,,,0.71556417
1715672091612501063,0.026,,,,0.723258189
1715672091620195082,0.04,,,,0.730952208
1715672091627889101,0.048,,,,0.738646227
1715672091635583120,0.038,,,,0.746340246
1715672091643277139,0.024,,,,0.754034265
1715672091650971158,0.021,,,,0.761728284
1715672091658665177,0.033,,,,0.769422303
1715672091666359196,0.06,,,,0.777116322
1715672091674053215,0.079,,,,0.784810341
1715672091681747234,0.069,,,,0.79250436
1715672091689441253,0.06,,,,0.800198379
1715672091697135272,0.055,,,,0.807892398
1715672091704829291,0.04,,,,0.815586417
1715672091712523310,0.038,,,,0.823280436
1715672091720217329,0.05,,,,0.830974455
1715672091727911348,0.062,,,,0.838668474
1715672091735605367,0.074,,,,0.846362493
1715672091743299386,0.088,,,,0.854056512
1715672091750993405,0.093,,,,0.861750531
1715672091758687424,0.235,,,,0.86944455
1715672091766381443,0.716,,,,0.877138569
1715672091774075462,1.356,,,,0.884832588
1715672091781769481,1.613,,,,0.892526607
1715672091789463500,0.904,,,,0.900220626
1715672091797157519,-0.173,,,,0.907914645
1715672091804851538,-0.281,,,,0.915608664
1715672091812545557,0.103,,,,0.923302683
1715672091820239576,0.002,,,,0.930996702
1715672091827933595,-0.127,,,,0.938690721
1715672091835627614,-0.002,,,,0.94638474
1715672091843321633,0.009,,,,0.954078759
1715672091851015652,-0.06,,,,0.961772778
1715672091858709671,-0.016,,,,0.969466797
1715672091866403690,0.012,,,,0.977160816
1715672091874097709,-0.016,,,,0.984854835
1715672091881791728,0.0,,,,0.992548854
1715672091889485747,0.043,,,,1.000242873
1715672091897179766,0.043,,,,1.007936892
1715672091904873785,0.048,,,,1.015630911
1715672091912567804,0.074,,,,1.02332493
1715672091920261823,0.084,,,,1.031018949
1715672091927955842,0.079,,,,1.038712968
1715672091935649861,0.079,,,,1.046406987
1715672091943343880,0.093,,,,1.054101006
1715672091951037899,0.115,,,,1.061795025
1715672091958731918,0.137,,,,1.069489044
1715672091966425937,0.146,,,,1.077183063
1715672091974119956,0.132,,,,1.084877082
1715672091981813975,0.129,,,,1.092571101
1715672091989507994,0.144,,,,1.10026512
1715672091997202013,0.144,,,,1.107959139
1715672092004896032,0.141,,,,1.115653158
1715672092012590108,0.144,,,,1.123347234
1715672092020284058,0.132,,,,1.131041184
1715672092027978008,0.12,,,,1.138735134
1715672092035671958,0.12,,,,1.146429084
1715672092043365908,0.103,,,,1.154123034
1715672092051059858,0.067,,,,1.161816984
1715672092058753808,0.057,,,,1.169510934
1715672092066447758,0.069,,,,1.177204884
1715672092074141708,0.067,,,,1.184898834
1715672092081835658,0.055,,,,1.192592784
1715672092089529608,0.057,,,,1.200286734
1715672092097223558,0.06,,,,1.207980684
1715672092104917508,0.052,,,,1.215674634
1715672092112611458,0.055,,,,1.223368584
1715672092120305408,0.064,,,,1.231062534
1715672092127999358,0.067,,,,1.238756484
1715672092135693308,0.072,,,,1.246450434
1715672092143387258,0.076,,,,1.254144384
1715672092151081208,0.064,,,,1.261838334
1715672092158775158,0.052,,,,1.269532284
1715672092166469108,0.064,,,,1.277226234
1715672092174163058,0.076,,,,1.284920184
1715672092181857008,0.064,,,,1.292614134
1715672092189550958,0.05,,,,1.300308084
1715672092197244908,0.06,,,,1.308002034
1715672092204938858,0.072,,,,1.315695984
1715672092212632808,0.048,,,,1.323389934
1715672092220326758,0.038,,,,1.331083884
1715672092228020708,0.064,,,,1.338777834
1715672092235714658,0.067,,,,1.346471784
1715672092243408608,0.057,,,,1.354165734
1715672092251102558,0.055,,,,1.361859684
1715672092258796508,0.04,,,,1.369553634
1715672092266490458,0.043,,,,1.377247584
1715672092274184408,0.067,,,,1.384941534
1715672092281878358,0.076,,,,1.392635484
1715672092289572308,0.091,,,,1.400329434
1715672092297266258,0.103,,,,1.408023384
1715672092304960208,0.081,,,,1.415717334
1715672092312654158,0.069,,,,1.423411284
1715672092320348108,0.079,,,,1.431105234
1715672092328042058,0.072,,,,1.438799184
1715672092335736008,0.064,,,,1.446493134
1715672092343429958,0.076,,,,1.454187084
1715672092351123908,0.079,,,,1.461881034
1715672092358817858,0.081,,,,1.469574984
1715672092366511808,0.096,,,,1.477268934
1715672092374205758,0.137,,,,1.484962884
1715672092381899708,0.331,,,,1.492656834
1715672092389593658,0.8270000000000001,,,,1.500350784
1715672092397287608,1.493,,,,1.508044734
1715672092404981558,1.755,,,,1.515738684
1715672092412675508,0.961,,,,1.523432634
1715672092420369458,-0.18,,,,1.531126584
1715672092428063408,-0.288,,,,1.538820534
1715672092435757358,0.091,,,,1.546514484
1715672092443451308,-0.033,,,,1.554208434
1715672092451145258,-0.168,,,,1.561902384
1715672092458839208,-0.033,,,,1.569596334
1715672092466533158,-0.012,,,,1.577290284
1715672092474227108,-0.072,,,,1.584984234
1715672092481921058,-0.036,,,,1.592678184
1715672092489615008,-0.007,,,,1.600372134
1715672092497308958,-0.021,,,,1.608066084
1715672092505002908,-0.007,,,,1.615760034
1715672092512696858,0.014,,,,1.623453984
1715672092520390808,0.021,,,,1.631147934
1715672092528084758,0.028,,,,1.638841884
1715672092535778708,0.036,,,,1.646535834
1715672092543472658,0.052,,,,1.654229784
1715672092551166608,0.072,,,,1.661923734
1715672092558860558,0.084,,,,1.669617684
1715672092566554508,0.098,,,,1.677311634
1715672092574248466,0.113,92.0,608.0,,1.685005592
1715672092581942834,0.125,,,,1.69269996
1715672092589637202,0.127,,,,1.700394328
1715672092597331570,0.129,,,,1.708088696
1715672092605025938,0.137,,,,1.715783064
1715672092612720306,0.12,,,,1.723477432
1715672092620414674,0.103,,,,1.7311718
1715672092628109042,0.117,,,,1.738866168
1715672092635803410,0.122,,,,1.746560536
1715672092643497778,0.11,,,,1.754254904
1715672092651192146,0.105,,,,1.761949272
1715672092658886514,0.091,,,,1.76964364
1715672092666580882,0.067,,,,1.777338008
1715672092674275250,0.05,,,,1.785032376
1715672092681969618,0.048,,,,1.792726744
1715672092689663986,0.05,,,,1.800421112
1715672092697358354,0.036,,,,1.80811548
1715672092705052722,0.021,,,,1.815809848
1715672092712747090,0.055,,,,1.823504216
1715672092720441458,0.079,,,,1.831198584
1715672092728135826,0.052,,,,1.838892952
1715672092735830194,0.048,,,,1.84658732
1715672092743524562,0.079,,,,1.854281688
1715672092751218930,0.081,,,,1.861976056
1715672092758913298,0.057,,,,1.869670424
1715672092766607666,0.052,,,,1.877364792
1715672092774302034,0.072,,,,1.88505916
1715672092781996402,0.076,,,,1.892753528
1715672092789690770,0.072,,,,1.900447896
1715672092797385138,0.074,,,,1.908142264
1715672092805079506,0.067,,,,1.915836632
1715672092812773874,0.062,,,,1.923531
1715672092820468242,0.072,,,,1.931225368
1715672092828162610,0.076,,,,1.938919736
1715672092835856978,0.064,,,,1.946614104
1715672092843551346,0.06,,,,1.954308472
1715672092851245714,0.072,,,,1.96200284
1715672092858940082,0.079,,,,1.969697208
1715672092866634450,0.074,,,,1.977391576
1715672092874328818,0.067,,,,1.985085944
1715672092882023186,0.064,,,,1.992780312
1715672092889717554,0.067,,,,2.00047468
1715672092897411922,0.057,,,,2.008169048
1715672092905106290,0.048,,,,2.015863416
1715672092912800658,0.06,,,,2.023557784
1715672092920495026,0.079,,,,2.031252152
1715672092928189394,0.096,,,,2.03894652
1715672092935883762,0.093,,,,2.046640888
1715672092943578130,0.076,,,,2.054335256
1715672092951272498,0.067,,,,2.062029624
1715672092958966866,0.06,,,,2.069723992
1715672092966661234,0.072,,,,2.07741836
1715672092974355602,0.086,,,,2.085112728
1715672092982049970,0.069,,,,2.092807096
1715672092989744338,0.057,,,,2.100501464
1715672092997438706,0.079,,,,2.108195832
1715672093005133074,0.113,,,,2.1158902
1715672093012827442,0.199,,,,2.123584568
1715672093020521810,0.514,,,,2.131278936
1715672093028216178,1.113,,,,2.138973304
1715672093035910546,1.656,,,,2.146667672
1715672093043604914,1.397,,,,2.15436204
1715672093051299282,0.259,,,,2.162056408
1715672093058993650,-0.372,,,,2.169750776
1715672093066688018,-0.055,,,,2.177445144
1715672093074382386,0.048,,,,2.185139512
1715672093082076754,-0.156,,,,2.19283388
1715672093089771122,-0.091,,,,2.200528248
1715672093097465490,0.0,,,,2.208222616
1715672093105159858,-0.05,,,,2.215916984
1715672093112854226,-0.055,,,,2.223611352
1715672093120548594,-0.019,,,,2.23130572
1715672093128242962,-0.021,,,,2.239000088
1715672093135937342,-0.021,94.0,598.0,,2.246694468
1715672093143631292,-0.007,,595.0,,2.254388418
1715672093151325242,0.004,,,,2.262082368
1715672093159019192,0.007,,,,2.269776318
1715672093166713142,0.016,,,,2.277470268
1715672093174407092,0.031,,,,2.285164218
1715672093182101042,0.043,,,,2.292858168
1715672093189794992,0.06,,,,2.300552118
1715672093197488942,0.081,,,,2.308246068
1715672093205182892,0.093,,,,2.315940018
1715672093212876842,0.105,,,,2.323633968
1715672093220570792,0.117,,,,2.331327918
1715672093228264742,0.117,,,,2.339021868
1715672093235958692,0.115,,,,2.346715818
1715672093243652642,0.127,,,,2.354409768
1715672093251346592,0.141,,,,2.362103718
1715672093259040542,0.132,,,,2.369797668
1715672093266734492,0.103,,,,2.377491618
1715672093274428442,0.088,,,,2.385185568
1715672093282122392,0.091,,,,2.392879518
1715672093289816342,0.088,,,,2.400573468
1715672093297510292,0.069,,,,2.408267418
1715672093305204242,0.062,,,,2.415961368
1715672093312898192,0.064,,,,2.423655318
1715672093320592142,0.052,,,,2.431349268
1715672093328286092,0.036,,,,2.439043218
1715672093335980042,0.04,,,,2.446737168
1715672093343673992,0.043,,,,2.454431118
1715672093351367942,0.033,,,,2.462125068
1715672093359061892,0.043,,,,2.469819018
1715672093366755842,0.062,,,,2.477512968
1715672093374449792,0.06,,,,2.485206918
1715672093382143742,0.045,,,,2.492900868
1715672093389837692,0.055,,,,2.500594818
1715672093397531642,0.064,,,,2.508288768
1715672093405225592,0.055,,,,2.515982718
1715672093412919542,0.048,,,,2.523676668
1715672093420613492,0.057,,,,2.531370618
1715672093428307442,0.072,,,,2.539064568
1715672093436001392,0.074,,,,2.546758518
1715672093443695342,0.067,,,,2.554452468
1715672093451389292,0.064,,,,2.562146418
1715672093459083242,0.067,,,,2.569840368
1715672093466777192,0.062,,,,2.577534318
1715672093474471142,0.057,,,,2.585228268
1715672093482165092,0.062,,,,2.592922218
1715672093489859042,0.057,,,,2.600616168
1715672093497552992,0.05,,,,2.608310118
1715672093505246942,0.064,,,,2.616004068
1715672093512940892,0.076,,,,2.623698018
1715672093520634842,0.062,,,,2.631391968
1715672093528328792,0.048,,,,2.639085918
1715672093536022742,0.036,,,,2.646779868
1715672093543716692,0.026,,,,2.654473818
1715672093551410642,0.036,,,,2.662167768
1715672093559104592,0.057,,,,2.669861718
1715672093566798542,0.062,,,,2.677555668
1715672093574492492,0.069,,,,2.685249618
1715672093582186442,0.074,,,,2.692943568
1715672093589880392,0.055,,,,2.700637518
1715672093597574342,0.045,,,,2.708331468
1715672093605268292,0.064,,,,2.716025418
1715672093612962242,0.074,,,,2.723719368
1715672093620656192,0.072,,,,2.731413318
1715672093628350142,0.072,,,,2.739107268
1715672093636044092,0.062,,,,2.746801218
1715672093643738042,0.076,,,,2.754495168
1715672093651431992,0.18,,,,2.762189118
1715672093659125942,0.507,,,,2.769883068
1715672093666819892,1.106,,,,2.777577018
1715672093674513842,1.632,,,,2.785270968
1715672093682207792,1.373,,,,2.792964918
1715672093689901742,0.274,,,,2.800658868
1715672093697595700,-0.353,,,,2.808352826
1715672093705290068,-0.06,,,,2.816047194
1715672093712984436,0.086,,,,2.823741562
1715672093720678804,-0.091,,,,2.83143593
1715672093728373172,-0.069,,,,2.839130298
1715672093736067540,0.004,,,,2.846824666
1715672093743761908,-0.043,,,,2.854519034
1715672093751456276,-0.04,,,,2.862213402
1715672093759150644,-0.004,,,,2.86990777
1715672093766845012,-0.021,,,,2.877602138
1715672093774539380,-0.007,,,,2.885296506
1715672093782233748,0.033,,,,2.892990874
1715672093789928116,0.028,,,,2.900685242
1715672093797622484,0.004,,,,2.90837961
1715672093805316852,0.021,,,,2.916073978
1715672093813011220,0.081,,,,2.923768346
1715672093820705588,0.12,,,,2.931462714
1715672093828399956,0.115,,,,2.939157082
1715672093836094324,0.108,,,,2.94685145
1715672093843788692,0.134,,,,2.954545818
1715672093851483060,0.153,,,,2.962240186
1715672093859177428,0.137,,,,2.969934554
1715672093866871796,0.132,,,,2.977628922
1715672093874566164,0.151,,,,2.98532329
1715672093882260532,0.163,,,,2.993017658
1715672093889954900,0.173,,,,3.000712026
1715672093897649268,0.165,,,,3.008406394
1715672093905343636,0.163,,,,3.016100762
1715672093913038004,0.175,,,,3.02379513
1715672093920732372,0.158,,,,3.031489498
1715672093928426740,0.122,,,,3.039183866
1715672093936121108,0.11,,,,3.046878234
1715672093943815476,0.103,,,,3.054572602
1715672093951509844,0.081,,,,3.06226697
1715672093959204212,0.067,,,,3.069961338
1715672093966898580,0.069,,,,3.077655706
1715672093974592948,0.069,,,,3.085350074
1715672093982287316,0.067,,,,3.093044442
1715672093989981684,0.064,,,,3.10073881
1715672093997676052,0.067,,,,3.108433178
1715672094005370420,0.081,,,,3.116127546
1715672094013064788,0.098,,,,3.123821914
1715672094020759156,0.098,,,,3.131516282
1715672094028453524,0.091,,,,3.13921065
1715672094036147892,0.103,,,,3.146905018
1715672094043842260,0.11,,,,3.154599386
1715672094051536628,0.101,,,,3.162293754
1715672094059230996,0.091,,,,3.169988122
1715672094066925364,0.086,,,,3.17768249
1715672094074619732,0.086,,,,3.185376858
1715672094082314100,0.088,,,,3.193071226
1715672094090008468,0.088,,,,3.200765594
1715672094097702836,0.081,,,,3.208459962
1715672094105397204,0.076,,,,3.21615433
1715672094113091572,0.079,,,,3.223848698
1715672094120785940,0.076,,,,3.231543066
1715672094128480308,0.064,,,,3.239237434
1715672094136174676,0.057,,,,3.246931802
1715672094143869044,0.05,,,,3.25462617
1715672094151563412,0.04,,,,3.262320538
1715672094159257780,0.038,,,,3.270014906
1715672094166952148,0.04,,,,3.277709274
1715672094174646516,0.038,,,,3.285403642
1715672094182340884,0.04,,,,3.29309801
1715672094190035252,0.055,,,,3.300792378
1715672094197729620,0.067,,,,3.308486746
1715672094205423988,0.079,,,,3.316181114
1715672094213118356,0.079,,,,3.323875482
1715672094220812724,0.072,,,,3.33156985
1715672094228507092,0.074,,,,3.339264218
1715672094236201460,0.079,,,,3.346958586
1715672094243895828,0.076,,,,3.354652954
1715672094251590196,0.081,,,,3.362347322
1715672094259284576,0.091,96.0,623.0,,3.370041702
1715672094266978526,0.101,,635.0,,3.377735652
1715672094274672476,0.115,,,,3.385429602
1715672094282366426,0.177,,,,3.393123552
1715672094290060376,0.444,,,,3.400817502
1715672094297754326,0.99,,,,3.408511452
1715672094305448276,1.531,,,,3.416205402
1715672094313142226,1.421,,,,3.423899352
1715672094320836176,0.43,,,,3.431593302
1715672094328530126,-0.312,,,,3.439287252
1715672094336224076,-0.108,,,,3.446981202
1715672094343918026,0.091,,,,3.454675152
1715672094351611976,-0.079,,,,3.462369102
1715672094359305926,-0.091,,,,3.470063052
1715672094366999876,-0.007,,,,3.477757002
1715672094374693826,-0.043,,,,3.485450952
1715672094382387776,-0.057,,,,3.493144902
1715672094390081726,-0.016,,,,3.500838852
1715672094397775676,-0.019,,,,3.508532802
1715672094405469626,-0.024,,,,3.516226752
1715672094413163576,0.0,,,,3.523920702
1715672094420857526,0.009,,,,3.531614652
1715672094428551476,0.014,,,,3.539308602
1715672094436245426,0.026,,,,3.547002552
1715672094443939376,0.038,,,,3.554696502
1715672094451633326,0.048,,,,3.562390452
1715672094459327276,0.06,,,,3.570084402
1715672094467021226,0.069,,,,3.577778352
1715672094474715176,0.084,,,,3.585472302
1715672094482409126,0.096,,,,3.593166252
1715672094490103076,0.105,,,,3.600860202
1715672094497797026,0.113,,,,3.608554152
1715672094505490976,0.122,,,,3.616248102
1715672094513184926,0.139,,,,3.623942052
1715672094520878876,0.144,,,,3.631636002
1715672094528572826,0.149,,,,3.639329952
1715672094536266776,0.156,,,,3.647023902
1715672094543960726,0.156,,,,3.654717852
1715672094551654676,0.141,,,,3.662411802
1715672094559348626,0.115,,,,3.670105752
1715672094567042576,0.096,,,,3.677799702
1715672094574736526,0.081,,,,3.685493652
1715672094582430476,0.062,,,,3.693187602
1715672094590124426,0.033,,,,3.700881552
1715672094597818376,0.021,,,,3.708575502
1715672094605512326,0.019,,,,3.716269452
1715672094613206276,0.019,,,,3.723963402
1715672094620900226,0.021,,,,3.731657352
1715672094628594176,0.021,,,,3.739351302
1715672094636288126,0.026,,,,3.747045252
1715672094643982076,0.026,,,,3.754739202
1715672094651676026,0.026,,,,3.762433152
1715672094659369976,0.031,,,,3.770127102
1715672094667063926,0.045,,,,3.777821052
1715672094674757876,0.052,,,,3.785515002
1715672094682451826,0.045,,,,3.793208952
1715672094690145776,0.043,,,,3.800902902
1715672094697839726,0.048,,,,3.808596852
1715672094705533676,0.05,,,,3.816290802
1715672094713227626,0.06,,,,3.823984752
1715672094720921576,0.055,,,,3.831678702
1715672094728615526,0.036,,,,3.839372652
1715672094736309476,0.028,,,,3.847066602
1715672094744003426,0.028,,,,3.854760552
1715672094751697376,0.019,,,,3.862454502
1715672094759391326,0.009,,,,3.870148452
1715672094767085276,0.0,,,,3.877842402
1715672094774779226,0.0,,,,3.885536352
1715672094782473176,0.007,,,,3.893230302
1715672094790167126,0.019,,,,3.900924252
1715672094797861076,0.028,,,,3.908618202
1715672094805555026,0.031,,,,3.916312152
1715672094813248976,0.024,,,,3.924006102
1715672094820942936,0.024,,,,3.931700062
1715672094828637304,0.028,,,,3.93939443
1715672094836331672,0.031,,,,3.947088798
1715672094844026040,0.036,,,,3.954783166
1715672094851720408,0.036,,,,3.962477534
1715672094859414776,0.043,,,,3.970171902
1715672094867109144,0.064,,,,3.97786627
1715672094874803512,0.086,,,,3.985560638
1715672094882497880,0.235,,,,3.993255006
1715672094890192248,0.666,,,,4.000949374
1715672094897886616,1.226,,,,4.008643742
1715672094905580984,1.394,,,,4.01633811
1715672094913275352,0.67,,,,4.024032478
1715672094920969720,-0.254,,,,4.031726846
1715672094928664088,-0.262,,,,4.039421214
1715672094936358456,0.057,,,,4.047115582
1715672094944052824,-0.057,,,,4.05480995
1715672094951747192,-0.137,,,,4.062504318
1715672094959441560,-0.031,,,,4.070198686
1715672094967135928,-0.036,,,,4.077893054
1715672094974830296,-0.072,,,,4.085587422
1715672094982524664,-0.028,,,,4.09328179
1715672094990219032,-0.009,,,,4.100976158
1715672094997913400,-0.019,,,,4.108670526
1715672095005607768,0.0,,,,4.116364894
1715672095013302136,0.021,,,,4.124059262
1715672095020996504,0.024,,,,4.13175363
1715672095028690872,0.026,,,,4.139447998
1715672095036385240,0.04,,,,4.147142366
1715672095044079608,0.062,,,,4.154836734
1715672095051773976,0.074,,,,4.162531102
1715672095059468344,0.074,,,,4.17022547
1715672095067162712,0.101,,,,4.177919838
1715672095074857080,0.139,,,,4.185614206
1715672095082551448,0.139,,,,4.193308574
1715672095090245816,0.127,,,,4.201002942
1715672095097940184,0.146,,,,4.20869731
1715672095105634552,0.163,,,,4.216391678
1715672095113328920,0.153,,,,4.224086046
1715672095121023288,0.149,,,,4.231780414
1715672095128717656,0.151,,,,4.239474782
1715672095136412024,0.144,,,,4.24716915
1715672095144106392,0.117,,,,4.254863518
1715672095151800760,0.088,,,,4.262557886
1715672095159495128,0.064,,,,4.270252254
1715672095167189496,0.045,,,,4.277946622
1715672095174883864,0.033,,,,4.28564099
1715672095182578232,0.019,,,,4.293335358
1715672095190272600,0.007,,,,4.301029726
1715672095197966968,0.0,,,,4.308724094
1715672095205661336,0.002,,,,4.316418462
1715672095213355704,0.002,,,,4.32411283
1715672095221050072,0.007,,,,4.331807198
1715672095228744440,0.016,,,,4.339501566
1715672095236438808,0.019,,,,4.347195934
1715672095244133176,0.019,,,,4.354890302
1715672095251827544,0.028,,,,4.36258467
1715672095259521912,0.031,,,,4.370279038
1715672095267216280,0.028,,,,4.377973406
1715672095274910648,0.031,,,,4.385667774
1715672095282605016,0.033,,,,4.393362142
1715672095290299384,0.031,,,,4.40105651
1715672095297993752,0.026,,,,4.408750878
1715672095305688120,0.026,,,,4.416445246
1715672095313382488,0.026,,,,4.424139614
1715672095321076856,0.021,,,,4.431833982
1715672095328771224,0.016,,,,4.43952835
1715672095336465592,0.004,,,,4.447222718
1715672095344159960,-0.007,,,,4.454917086
1715672095351854328,-0.007,,,,4.462611454
1715672095359548696,-0.007,,,,4.470305822
1715672095367243064,-0.016,,,,4.47800019
1715672095374937432,-0.016,,,,4.485694558
1715672095382631812,-0.007,96.0,639.0,,4.493388938
1715672095390325762,0.009,,,,4.501082888
1715672095398019712,0.019,,,,4.508776838
1715672095405713662,0.016,,,,4.516470788
1715672095413407612,0.009,,,,4.524164738
1715672095421101562,0.0,,,,4.531858688
1715672095428795512,-0.002,,,,4.539552638
1715672095436489462,0.007,,,,4.547246588
1715672095444183412,0.004,,,,4.554940538
1715672095451877362,-0.002,,,,4.562634488
1715672095459571312,0.0,,,,4.570328438
1715672095467265262,0.009,,,,4.578022388
1715672095474959212,0.081,,,,4.585716338
1715672095482653162,0.377,,,,4.593410288
1715672095490347112,0.911,,,,4.601104238
1715672095498041062,1.365,,,,4.608798188
1715672095505735012,1.132,,,,4.616492138
1715672095513428962,0.161,,,,4.624186088
1715672095521122912,-0.404,,,,4.631880038
1715672095528816862,-0.144,,,,4.639573988
1715672095536510812,-0.014,,,,4.647267938
1715672095544204762,-0.177,,,,4.654961888
1715672095551898712,-0.149,,,,4.662655838
1715672095559592662,-0.069,,,,4.670349788
1715672095567286612,-0.108,,,,4.678043738
1715672095574980562,-0.113,,,,4.685737688
1715672095582674512,-0.074,,,,4.693431638
1715672095590368462,-0.069,,,,4.701125588
1715672095598062412,-0.069,,,,4.708819538
1715672095605756362,-0.052,,,,4.716513488
1715672095613450312,-0.04,,,,4.724207438
1715672095621144262,-0.036,,,,4.731901388
1715672095628838212,-0.031,,,,4.739595338
1715672095636532162,-0.021,,,,4.747289288
1715672095644226112,-0.012,,,,4.754983238
1715672095651920062,0.0,,,,4.762677188
1715672095659614012,0.014,,,,4.770371138
1715672095667307962,0.024,,,,4.778065088
1715672095675001912,0.043,,,,4.785759038
1715672095682695862,0.062,,,,4.793452988
1715672095690389812,0.069,,,,4.801146938
1715672095698083762,0.072,,,,4.808840888
1715672095705777712,0.081,,,,4.816534838
1715672095713471662,0.086,,,,4.824228788
1715672095721165612,0.084,,,,4.831922738
1715672095728859562,0.091,,,,4.839616688
1715672095736553512,0.088,,,,4.847310638
1715672095744247462,0.074,,,,4.855004588
1715672095751941412,0.064,,,,4.862698538
1715672095759635362,0.045,,,,4.870392488
1715672095767329312,0.019,,,,4.878086438
1715672095775023262,0.002,,,,4.885780388
1715672095782717212,-0.002,,,,4.893474338
1715672095790411162,-0.009,,,,4.901168288
1715672095798105112,-0.016,,,,4.908862238
1715672095805799062,-0.014,,,,4.916556188
1715672095813493012,-0.004,,,,4.924250138
1715672095821186962,0.002,,,,4.931944088
1715672095828880912,0.004,,,,4.939638038
1715672095836574862,0.009,,,,4.947331988
1715672095844268812,0.016,,,,4.955025938
1715672095851962762,0.024,,,,4.962719888
1715672095859656712,0.031,,,,4.970413838
1715672095867350662,0.026,,,,4.978107788
1715672095875044612,0.019,,,,4.985801738
1715672095882738562,0.024,,,,4.993495688
1715672095890432512,0.024,,,,5.001189638
1715672095898126462,0.016,,,,5.008883588
1715672095905820412,0.019,,,,5.016577538
1715672095913514362,0.019,,,,5.024271488
1715672095921208312,0.016,,,,5.031965438
1715672095928902262,0.016,,,,5.039659388
1715672095936596212,0.012,,,,5.047353338
1715672095944290170,0.002,,,,5.055047296
1715672095951984538,-0.007,,,,5.062741664
1715672095959678906,-0.014,,,,5.070436032
1715672095967373274,-0.009,,,,5.0781304
1715672095975067642,0.014,,,,5.085824768
1715672095982762010,0.031,,,,5.093519136
1715672095990456378,0.024,,,,5.101213504
1715672095998150746,0.012,,,,5.108907872
1715672096005845114,0.016,,,,5.11660224
1715672096013539482,0.019,,,,5.124296608
1715672096021233850,0.014,,,,5.131990976
1715672096028928218,0.016,,,,5.139685344
1715672096036622586,0.028,,,,5.147379712
1715672096044316954,0.033,,,,5.15507408
1715672096052011322,0.038,,,,5.162768448
1715672096059705690,0.036,,,,5.170462816
1715672096067400058,0.084,,,,5.178157184
1715672096075094426,0.348,,,,5.185851552
1715672096082788794,0.875,,,,5.19354592
1715672096090483162,1.389,,,,5.201240288
1715672096098177530,1.303,,,,5.208934656
1715672096105871898,0.391,,,,5.216629024
1715672096113566266,-0.329,,,,5.224323392
1715672096121260634,-0.168,,,,5.23201776
1715672096128955002,0.031,,,,5.239712128
1715672096136649370,-0.122,,,,5.247406496
1715672096144343738,-0.146,,,,5.255100864
1715672096152038106,-0.062,,,,5.262795232
1715672096159732474,-0.074,,,,5.2704896
1715672096167426842,-0.091,,,,5.278183968
1715672096175121210,-0.06,,,,5.285878336
1715672096182815578,-0.043,,,,5.293572704
1715672096190509946,-0.043,,,,5.301267072
1715672096198204314,-0.028,,,,5.30896144
1715672096205898682,-0.016,,,,5.316655808
1715672096213593050,-0.009,,,,5.324350176
1715672096221287418,0.002,,,,5.332044544
1715672096228981786,0.012,,,,5.339738912
1715672096236676154,0.021,,,,5.34743328
1715672096244370522,0.045,,,,5.355127648
1715672096252064890,0.062,,,,5.362822016
1715672096259759258,0.064,,,,5.370516384
1715672096267453626,0.081,,,,5.378210752
1715672096275147994,0.103,,,,5.38590512
1715672096282842362,0.113,,,,5.393599488
1715672096290536730,0.113,,,,5.401293856
1715672096298231098,0.122,,,,5.408988224
1715672096305925466,0.132,,,,5.416682592
1715672096313619834,0.129,,,,5.42437696
1715672096321314202,0.129,,,,5.432071328
1715672096329008570,0.134,,,,5.439765696
1715672096336702938,0.127,,,,5.447460064
1715672096344397306,0.098,,,,5.455154432
1715672096352091674,0.084,,,,5.4628488
1715672096359786042,0.072,,,,5.470543168
1715672096367480410,0.043,,,,5.478237536
1715672096375174778,0.028,,,,5.485931904
1715672096382869146,0.033,,,,5.493626272
1715672096390563514,0.038,,,,5.50132064
1715672096398257882,0.038,,,,5.509015008
1715672096405952250,0.04,,,,5.516709376
1715672096413646618,0.045,,,,5.524403744
1715672096421340986,0.05,,,,5.532098112
1715672096429035354,0.052,,,,5.53979248
1715672096436729722,0.057,,,,5.547486848
1715672096444424090,0.062,,,,5.555181216
1715672096452118458,0.062,,,,5.562875584
1715672096459812826,0.062,,,,5.570569952
1715672096467507194,0.067,,,,5.57826432
1715672096475201562,0.067,,,,5.585958688
1715672096482895930,0.064,,,,5.593653056
1715672096490590298,0.062,,,,5.601347424
1715672096498284666,0.057,,,,5.609041792
1715672096505979046,0.055,95.0,632.0,,5.616736172
1715672096513672996,0.055,,595.0,,5.624430122
1715672096521366946,0.057,,,,5.632124072
1715672096529060896,0.057,,,,5.639818022
1715672096536754846,0.055,,,,5.647511972
1715672096544448796,0.05,,,,5.655205922
1715672096552142746,0.038,,,,5.662899872
1715672096559836696,0.026,,,,5.670593822
1715672096567530646,0.028,,,,5.678287772
1715672096575224596,0.048,,,,5.685981722
1715672096582918546,0.067,,,,5.693675672
1715672096590612496,0.064,,,,5.701369622
1715672096598306446,0.048,,,,5.709063572
1715672096606000396,0.036,,,,5.716757522
1715672096613694346,0.031,,,,5.724451472
1715672096621388296,0.026,,,,5.732145422
1715672096629082246,0.026,,,,5.739839372
1715672096636776196,0.031,,,,5.747533322
1715672096644470146,0.024,,,,5.755227272
1715672096652164096,0.019,,,,5.762921222
1715672096659858046,0.026,,,,5.770615172
1715672096667551996,0.074,,,,5.778309122
1715672096675245946,0.303,,,,5.786003072
1715672096682939896,0.8150000000000001,,,,5.793697022
1715672096690633846,1.392,,,,5.801390972
1715672096698327796,1.428,,,,5.809084922
1715672096706021746,0.5720000000000001,,,,5.816778872
1715672096713715696,-0.274,,,,5.824472822
1715672096721409646,-0.211,,,,5.832166772
1715672096729103596,0.036,,,,5.839860722
1715672096736797546,-0.093,,,,5.847554672
1715672096744491496,-0.139,,,,5.855248622
1715672096752185446,-0.04,,,,5.862942572
1715672096759879396,-0.05,,,,5.870636522
1715672096767573346,-0.076,,,,5.878330472
1715672096775267296,-0.04,,,,5.886024422
1715672096782961246,-0.031,,,,5.893718372
1715672096790655196,-0.033,,,,5.901412322
1715672096798349146,-0.014,,,,5.909106272
1715672096806043096,0.0,,,,5.916800222
1715672096813737046,0.002,,,,5.924494172
1715672096821430996,0.014,,,,5.932188122
1715672096829124946,0.028,,,,5.939882072
1715672096836818896,0.04,,,,5.947576022
1715672096844512846,0.052,,,,5.955269972
1715672096852206796,0.069,,,,5.962963922
1715672096859900746,0.074,,,,5.970657872
1715672096867594696,0.081,,,,5.978351822
1715672096875288646,0.103,,,,5.986045772
1715672096882982596,0.122,,,,5.993739722
1715672096890676546,0.127,,,,6.001433672
1715672096898370496,0.127,,,,6.009127622
1715672096906064446,0.137,,,,6.016821572
1715672096913758396,0.144,,,,6.024515522
1715672096921452346,0.149,,,,6.032209472
1715672096929146296,0.146,,,,6.039903422
1715672096936840246,0.129,,,,6.047597372
1715672096944534196,0.108,,,,6.055291322
1715672096952228146,0.091,,,,6.062985272
1715672096959922096,0.086,,,,6.070679222
1715672096967616046,0.086,,,,6.078373172
1715672096975309996,0.081,,,,6.086067122
1715672096983003946,0.067,,,,6.093761072
1715672096990697896,0.062,,,,6.101455022
1715672096998391846,0.067,,,,6.109148972
1715672097006085796,0.072,,,,6.116842922
1715672097013779746,0.072,,,,6.124536872
1715672097021473696,0.076,,,,6.132230822
1715672097029167646,0.088,,,,6.139924772
1715672097036861596,0.093,,,,6.147618722
1715672097044555546,0.091,,,,6.155312672
1715672097052249496,0.088,,,,6.163006622
1715672097059943446,0.091,,,,6.170700572
1715672097067637404,0.091,,,,6.17839453
1715672097075331772,0.091,,,,6.186088898
1715672097083026140,0.091,,,,6.193783266
1715672097090720508,0.084,,,,6.201477634
1715672097098414876,0.074,,,,6.209172002
1715672097106109244,0.069,,,,6.21686637
1715672097113803612,0.072,,,,6.224560738
1715672097121497980,0.072,,,,6.232255106
1715672097129192348,0.06,,,,6.239949474
1715672097136886716,0.04,,,,6.247643842
1715672097144581084,0.031,,,,6.25533821
1715672097152275452,0.028,,,,6.263032578
1715672097159969820,0.033,,,,6.270726946
1715672097167664188,0.057,,,,6.278421314
1715672097175358556,0.084,,,,6.286115682
1715672097183052924,0.081,,,,6.29381005
1715672097190747292,0.072,,,,6.301504418
1715672097198441660,0.072,,,,6.309198786
1715672097206136028,0.074,,,,6.316893154
1715672097213830396,0.072,,,,6.324587522
1715672097221524764,0.072,,,,6.33228189
1715672097229219132,0.079,,,,6.339976258
1715672097236913500,0.079,,,,6.347670626
1715672097244607868,0.079,,,,6.355364994
1715672097252302236,0.076,,,,6.363059362
1715672097259996604,0.168,,,,6.37075373
1715672097267690972,0.529,,,,6.378448098
1715672097275385340,1.127,,,,6.386142466
1715672097283079708,1.57,,,,6.393836834
1715672097290774076,1.214,,,,6.401531202
1715672097298468444,0.158,,,,6.40922557
1715672097306162812,-0.324,,,,6.416919938
1715672097313857180,-0.012,,,,6.424614306
1715672097321551548,0.06,,,,6.432308674
1715672097329245916,-0.115,,,,6.440003042
1715672097336940284,-0.064,,,,6.44769741
1715672097344634652,0.002,,,,6.455391778
1715672097352329020,-0.048,,,,6.463086146
1715672097360023388,-0.043,,,,6.470780514
1715672097367717756,0.0,,,,6.478474882
1715672097375412124,-0.004,,,,6.48616925
1715672097383106492,-0.002,,,,6.493863618
1715672097390800860,0.019,,,,6.501557986
1715672097398495228,0.026,,,,6.509252354
1715672097406189596,0.031,,,,6.516946722
1715672097413883964,0.045,,,,6.52464109
1715672097421578332,0.06,,,,6.532335458
1715672097429272700,0.064,,,,6.540029826
1715672097436967068,0.076,,,,6.547724194
1715672097444661436,0.098,,,,6.555418562
1715672097452355804,0.115,,,,6.56311293
1715672097460050172,0.122,,,,6.570807298
1715672097467744540,0.132,,,,6.578501666
1715672097475438908,0.144,,,,6.586196034
1715672097483133276,0.149,,,,6.593890402
1715672097490827644,0.151,,,,6.60158477
1715672097498522012,0.156,,,,6.609279138
1715672097506216380,0.158,,,,6.616973506
1715672097513910748,0.153,,,,6.624667874
1715672097521605116,0.144,,,,6.632362242
1715672097529299484,0.134,,,,6.64005661
1715672097536993852,0.12,,,,6.647750978
1715672097544688220,0.103,,,,6.655445346
1715672097552382588,0.084,,,,6.663139714
1715672097560076956,0.072,,,,6.670834082
1715672097567771324,0.069,,,,6.67852845
1715672097575465692,0.069,,,,6.686222818
1715672097583160060,0.064,,,,6.693917186
1715672097590854428,0.064,,,,6.701611554
1715672097598548796,0.069,,,,6.709305922
1715672097606243164,0.074,,,,6.71700029
1715672097613937532,0.076,,,,6.724694658
1715672097621631900,0.079,,,,6.732389026
1715672097629326280,0.086,97.0,597.0,,6.740083406
1715672097637020230,0.091,,594.0,,6.747777356
1715672097644714180,0.091,,,,6.755471306
1715672097652408130,0.081,,,,6.763165256
1715672097660102080,0.074,,,,6.770859206
1715672097667796030,0.067,,,,6.778553156
1715672097675489980,0.06,,,,6.786247106
1715672097683183930,0.06,,,,6.793941056
1715672097690877880,0.055,,,,6.801635006
1715672097698571830,0.04,,,,6.809328956
1715672097706265780,0.033,,,,6.817022906
1715672097713959730,0.04,,,,6.824716856
1715672097721653680,0.048,,,,6.832410806
1715672097729347630,0.048,,,,6.840104756
1715672097737041580,0.043,,,,6.847798706
1715672097744735530,0.036,,,,6.855492656
1715672097752429480,0.026,,,,6.863186606
1715672097760123430,0.021,,,,6.870880556
1715672097767817380,0.036,,,,6.878574506
1715672097775511330,0.06,,,,6.886268456
1715672097783205280,0.074,,,,6.893962406
1715672097790899230,0.079,,,,6.901656356
1715672097798593180,0.079,,,,6.909350306
1715672097806287130,0.076,,,,6.917044256
1715672097813981080,0.072,,,,6.924738206
1715672097821675030,0.067,,,,6.932432156
1715672097829368980,0.069,,,,6.940126106
1715672097837062930,0.074,,,,6.947820056
1715672097844756880,0.069,,,,6.955514006
1715672097852450830,0.072,,,,6.963207956
1715672097860144780,0.093,,,,6.970901906
1715672097867838730,0.175,,,,6.978595856
1715672097875532680,0.478,,,,6.986289806
1715672097883226630,1.074,,,,6.993983756
1715672097890920580,1.642,,,,7.001677706
1715672097898614530,1.459,,,,7.009371656
1715672097906308480,0.384,,,,7.017065606
1715672097914002430,-0.341,,,,7.024759556
1715672097921696380,-0.115,,,,7.032453506
1715672097929390330,0.055,,,,7.040147456
1715672097937084280,-0.125,,,,7.047841406
1715672097944778230,-0.115,,,,7.055535356
1715672097952472180,-0.021,,,,7.063229306
1715672097960166130,-0.06,,,,7.070923256
1715672097967860080,-0.072,,,,7.078617206
1715672097975554030,-0.028,,,,7.086311156
1715672097983247980,-0.024,,,,7.094005106
1715672097990941930,-0.028,,,,7.101699056
1715672097998635880,-0.009,,,,7.109393006
1715672098006329830,0.0,,,,7.117086956
1715672098014023780,0.004,,,,7.124780906
1715672098021717730,0.021,,,,7.132474856
1715672098029411680,0.031,,,,7.140168806
1715672098037105630,0.036,,,,7.147862756
1715672098044799580,0.055,,,,7.155556706
1715672098052493530,0.074,,,,7.163250656
1715672098060187480,0.086,,,,7.170944606
1715672098067881430,0.098,,,,7.178638556
1715672098075575380,0.108,,,,7.186332506
1715672098083269330,0.11,,,,7.194026456
1715672098090963280,0.113,,,,7.201720406
1715672098098657230,0.122,,,,7.209414356
1715672098106351180,0.125,,,,7.217108306
1715672098114045130,0.12,,,,7.224802256
1715672098121739080,0.125,,,,7.232496206
1715672098129433030,0.129,,,,7.240190156
1715672098137126980,0.12,,,,7.247884106
1715672098144820930,0.11,,,,7.255578056
1715672098152514880,0.093,,,,7.263272006
1715672098160208830,0.067,,,,7.270965956
1715672098167902780,0.05,,,,7.278659906
1715672098175596730,0.045,,,,7.286353856
1715672098183290680,0.043,,,,7.294047806
1715672098190984640,0.048,97.0,602.0,,7.301741766
1715672098198678590,0.05,,,,7.309435716
1715672098206372540,0.057,,,,7.317129666
1715672098214066490,0.06,,,,7.324823616
1715672098221760440,0.064,,,,7.332517566
1715672098229454390,0.069,,,,7.340211516
1715672098237148340,0.076,,,,7.347905466
1715672098244842290,0.079,,,,7.355599416
1715672098252536240,0.079,,,,7.363293366
1715672098260230190,0.079,,,,7.370987316
1715672098267924140,0.074,,,,7.378681266
1715672098275618090,0.06,,,,7.386375216
1715672098283312040,0.06,,,,7.394069166
1715672098291005990,0.064,,,,7.401763116
1715672098298699940,0.057,,,,7.409457066
1715672098306393890,0.052,,,,7.417151016
1715672098314087840,0.06,,,,7.424844966
1715672098321781790,0.06,,,,7.432538916
1715672098329475740,0.055,,,,7.440232866
1715672098337169690,0.055,,,,7.447926816
1715672098344863640,0.052,,,,7.455620766
1715672098352557590,0.043,,,,7.463314716
1715672098360251540,0.038,,,,7.471008666
1715672098367945490,0.033,,,,7.478702616
1715672098375639440,0.048,,,,7.486396566
1715672098383333390,0.076,,,,7.494090516
1715672098391027340,0.088,,,,7.501784466
1715672098398721290,0.093,,,,7.509478416
1715672098406415240,0.101,,,,7.517172366
1715672098414109190,0.091,,,,7.524866316
1715672098421803140,0.079,,,,7.532560266
1715672098429497090,0.081,,,,7.540254216
1715672098437191040,0.086,,,,7.547948166
1715672098444884990,0.084,,,,7.555642116
1715672098452578940,0.086,,,,7.563336066
1715672098460272890,0.084,,,,7.571030016
1715672098467966840,0.091,,,,7.578723966
1715672098475660790,0.141,,,,7.586417916
1715672098483354740,0.365,,,,7.594111866
1715672098491048690,0.882,,,,7.601805816
1715672098498742640,1.5,,,,7.609499766
1715672098506436590,1.567,,,,7.617193716
1715672098514130540,0.663,,,,7.624887666
1715672098521824490,-0.252,,,,7.632581616
1715672098529518440,-0.185,,,,7.640275566
1715672098537212390,0.088,,,,7.647969516
1715672098544906340,-0.057,,,,7.655663466
1715672098552600290,-0.113,,,,7.663357416
1715672098560294240,-0.007,,,,7.671051366
1715672098567988190,-0.024,,,,7.678745316
1715672098575682140,-0.06,,,,7.686439266
1715672098583376090,-0.019,,,,7.694133216
1715672098591070040,-0.002,,,,7.701827166
1715672098598763990,-0.012,,,,7.709521116
1715672098606457940,0.0,,,,7.717215066
1715672098614151890,0.014,,,,7.724909016
1715672098621845840,0.019,,,,7.732602966
1715672098629539790,0.028,,,,7.740296916
1715672098637233740,0.04,,,,7.747990866
1715672098644927690,0.052,,,,7.755684816
1715672098652621640,0.064,,,,7.763378766
1715672098660315590,0.074,,,,7.771072716
1715672098668009540,0.081,,,,7.778766666
1715672098675703490,0.084,,,,7.786460616
1715672098683397440,0.093,,,,7.794154566
1715672098691091390,0.108,,,,7.801848516
1715672098698785340,0.115,,,,7.809542466
1715672098706479290,0.108,,,,7.817236416
1715672098714173240,0.105,,,,7.824930366
1715672098721867190,0.115,,,,7.832624316
1715672098729561140,0.122,,,,7.840318266
1715672098737255090,0.122,,,,7.848012216
1715672098744949040,0.12,,,,7.855706166
1715672098752642998,0.11,,,,7.863400124
1715672098760337366,0.093,,,,7.871094492
1715672098768031734,0.079,,,,7.87878886
1715672098775726102,0.072,,,,7.886483228
1715672098783420470,0.067,,,,7.894177596
1715672098791114838,0.057,,,,7.901871964
1715672098798809206,0.052,,,,7.909566332
1715672098806503574,0.055,,,,7.9172607
1715672098814197942,0.055,,,,7.924955068
1715672098821892310,0.057,,,,7.932649436
1715672098829586678,0.062,,,,7.940343804
1715672098837281046,0.067,,,,7.948038172
1715672098844975414,0.069,,,,7.95573254
1715672098852669782,0.069,,,,7.963426908
1715672098860364150,0.069,,,,7.971121276
1715672098868058518,0.067,,,,7.978815644
1715672098875752886,0.067,,,,7.986510012
1715672098883447254,0.067,,,,7.99420438
1715672098891141622,0.062,,,,8.001898748
1715672098898835990,0.055,,,,8.009593116
1715672098906530358,0.062,,,,8.017287484
1715672098914224726,0.064,,,,8.024981852
1715672098921919094,0.055,,,,8.03267622
1715672098929613462,0.055,,,,8.040370588
1715672098937307830,0.062,,,,8.048064956
1715672098945002198,0.06,,,,8.055759324
1715672098952696566,0.057,,,,8.063453692
1715672098960390934,0.062,,,,8.07114806
1715672098968085302,0.067,,,,8.078842428
1715672098975779670,0.064,,,,8.086536796
1715672098983474038,0.057,,,,8.094231164
1715672098991168406,0.045,,,,8.101925532
1715672098998862774,0.036,,,,8.1096199
1715672099006557142,0.048,,,,8.117314268
1715672099014251510,0.081,,,,8.125008636
1715672099021945878,0.105,,,,8.132703004
1715672099029640246,0.108,,,,8.140397372
1715672099037334614,0.096,,,,8.14809174
1715672099045028982,0.076,,,,8.155786108
1715672099052723350,0.069,,,,8.163480476
1715672099060417718,0.072,,,,8.171174844
1715672099068112086,0.074,,,,8.178869212
1715672099075806454,0.067,,,,8.18656358
1715672099083500822,0.067,,,,8.194257948
1715672099091195190,0.084,,,,8.201952316
1715672099098889558,0.101,,,,8.209646684
1715672099106583926,0.149,,,,8.217341052
1715672099114278294,0.391,,,,8.22503542
1715672099121972662,0.923,,,,8.232729788
1715672099129667030,1.493,,,,8.240424156
1715672099137361398,1.459,,,,8.248118524
1715672099145055766,0.514,,,,8.255812892
1715672099152750134,-0.298,,,,8.26350726
1715672099160444502,-0.149,,,,8.271201628
1715672099168138870,0.079,,,,8.278895996
1715672099175833238,-0.086,,,,8.286590364
1715672099183527606,-0.115,,,,8.294284732
1715672099191221974,-0.016,,,,8.3019791
1715672099198916342,-0.036,,,,8.309673468
1715672099206610710,-0.052,,,,8.317367836
1715672099214305078,-0.016,,,,8.325062204
1715672099221999446,-0.009,,,,8.332756572
1715672099229693814,-0.014,,,,8.34045094
1715672099237388182,0.004,,,,8.348145308
1715672099245082550,0.019,,,,8.355839676
1715672099252776918,0.021,,,,8.363534044
1715672099260471286,0.031,,,,8.371228412
1715672099268165654,0.045,,,,8.37892278
1715672099275860022,0.06,,,,8.386617148
1715672099283554390,0.069,,,,8.394311516
1715672099291248758,0.084,,,,8.402005884
1715672099298943126,0.103,,,,8.409700252
1715672099306637494,0.115,,,,8.41739462
1715672099314331874,0.117,99.0,589.0,,8.425089
1715672099322025824,0.117,,609.0,,8.43278295
1715672099329719774,0.125,,,,8.4404769
1715672099337413724,0.132,,,,8.44817085
1715672099345107674,0.129,,,,8.4558648
1715672099352801624,0.127,,,,8.46355875
1715672099360495574,0.134,,,,8.4712527
1715672099368189524,0.139,,,,8.47894665
1715672099375883474,0.132,,,,8.4866406
1715672099383577424,0.117,,,,8.49433455
1715672099391271374,0.103,,,,8.5020285
1715672099398965324,0.091,,,,8.50972245
1715672099406659274,0.076,,,,8.5174164
1715672099414353224,0.057,,,,8.52511035
1715672099422047174,0.052,,,,8.5328043
1715672099429741124,0.06,,,,8.54049825
1715672099437435074,0.062,,,,8.5481922
1715672099445129024,0.06,,,,8.55588615
1715672099452822974,0.069,,,,8.5635801
1715672099460516924,0.076,,,,8.57127405
1715672099468210874,0.072,,,,8.578968
1715672099475904824,0.074,,,,8.58666195
1715672099483598774,0.084,,,,8.5943559
1715672099491292724,0.084,,,,8.60204985
1715672099498986674,0.081,,,,8.6097438
1715672099506680624,0.084,,,,8.61743775
1715672099514374574,0.081,,,,8.6251317
1715672099522068524,0.076,,,,8.63282565
1715672099529762474,0.074,,,,8.6405196
1715672099537456424,0.074,,,,8.64821355
1715672099545150374,0.072,,,,8.6559075
1715672099552844324,0.072,,,,8.66360145
1715672099560538274,0.072,,,,8.6712954
1715672099568232224,0.067,,,,8.67898935
1715672099575926174,0.069,,,,8.6866833
1715672099583620124,0.072,,,,8.69437725
1715672099591314074,0.067,,,,8.7020712
1715672099599008024,0.067,,,,8.70976515
1715672099606701974,0.069,,,,8.7174591
1715672099614395924,0.062,,,,8.72515305
1715672099622089874,0.048,,,,8.732847
1715672099629783824,0.045,,,,8.74054095
1715672099637477774,0.067,,,,8.7482349
1715672099645171724,0.084,,,,8.75592885
1715672099652865674,0.088,,,,8.7636228
1715672099660559624,0.086,,,,8.77131675
1715672099668253574,0.081,,,,8.7790107
1715672099675947524,0.064,,,,8.78670465
1715672099683641474,0.052,,,,8.7943986
1715672099691335424,0.062,,,,8.80209255
1715672099699029374,0.076,,,,8.8097865
1715672099706723324,0.074,,,,8.81748045
1715672099714417274,0.076,,,,8.8251744
1715672099722111224,0.093,,,,8.83286835
1715672099729805174,0.132,,,,8.8405623
1715672099737499124,0.278,,,,8.84825625
1715672099745193074,0.6970000000000001,,,,8.8559502
1715672099752887024,1.296,,,,8.86364415
1715672099760580974,1.572,,,,8.8713381
1715672099768274924,0.921,,,,8.87903205
1715672099775968874,-0.117,,,,8.886726
1715672099783662824,-0.271,,,,8.89441995
1715672099791356774,0.079,,,,8.9021139
1715672099799050724,0.004,,,,8.90980785
1715672099806744674,-0.125,,,,8.9175018
1715672099814438624,-0.028,,,,8.92519575
1715672099822132574,-0.007,,,,8.9328897
1715672099829826524,-0.048,,,,8.94058365
1715672099837520474,-0.019,,,,8.9482776
1715672099845214424,0.007,,,,8.95597155
1715672099852908374,-0.002,,,,8.9636655
1715672099860602324,0.007,,,,8.97135945
1715672099868296274,0.024,,,,8.9790534
1715672099875990232,0.031,,,,8.986747358
1715672099883684600,0.043,,,,8.994441726
1715672099891378968,0.052,,,,9.002136094
1715672099899073336,0.067,,,,9.009830462
1715672099906767704,0.093,,,,9.01752483
1715672099914462072,0.12,,,,9.025219198
1715672099922156440,0.117,,,,9.032913566
1715672099929850808,0.096,,,,9.040607934
1715672099937545176,0.081,,,,9.048302302
1715672099945239544,0.093,,,,9.05599667
1715672099952933912,0.113,,,,9.063691038
1715672099960628280,0.12,,,,9.071385406
1715672099968322648,0.122,,,,9.079079774
1715672099976017016,0.127,,,,9.086774142
1715672099983711384,0.129,,,,9.09446851
1715672099991405752,0.134,,,,9.102162878
1715672099999100120,0.137,,,,9.109857246
1715672100006794488,0.129,,,,9.117551614
1715672100014488856,0.108,,,,9.125245982
1715672100022183224,0.096,,,,9.13294035
1715672100029877592,0.091,,,,9.140634718
1715672100037571960,0.081,,,,9.148329086
1715672100045266328,0.069,,,,9.156023454
1715672100052960696,0.062,,,,9.163717822
1715672100060655064,0.062,,,,9.17141219
1715672100068349432,0.064,,,,9.179106558
1715672100076043800,0.072,,,,9.186800926
1715672100083738168,0.081,,,,9.194495294
1715672100091432536,0.081,,,,9.202189662
1715672100099126904,0.081,,,,9.20988403
1715672100106821272,0.088,,,,9.217578398
1715672100114515640,0.093,,,,9.225272766
1715672100122210008,0.088,,,,9.232967134
1715672100129904376,0.088,,,,9.240661502
1715672100137598744,0.088,,,,9.24835587
1715672100145293112,0.086,,,,9.256050238
1715672100152987480,0.084,,,,9.263744606
1715672100160681848,0.081,,,,9.271438974
1715672100168376216,0.081,,,,9.279133342
1715672100176070584,0.074,,,,9.28682771
1715672100183764952,0.064,,,,9.294522078
1715672100191459320,0.064,,,,9.302216446
1715672100199153688,0.064,,,,9.309910814
1715672100206848056,0.064,,,,9.317605182
1715672100214542424,0.067,,,,9.32529955
1715672100222236792,0.069,,,,9.332993918
1715672100229931160,0.067,,,,9.340688286
1715672100237625528,0.06,,,,9.348382654
1715672100245319896,0.045,,,,9.356077022
1715672100253014264,0.031,,,,9.36377139
1715672100260708632,0.036,,,,9.371465758
1715672100268403000,0.064,,,,9.379160126
1715672100276097368,0.079,,,,9.386854494
1715672100283791736,0.076,,,,9.394548862
1715672100291486104,0.079,,,,9.40224323
1715672100299180472,0.072,,,,9.409937598
1715672100306874840,0.062,,,,9.417631966
1715672100314569208,0.067,,,,9.425326334
1715672100322263576,0.074,,,,9.433020702
1715672100329957944,0.074,,,,9.44071507
1715672100337652312,0.074,,,,9.448409438
1715672100345346680,0.086,,,,9.456103806
1715672100353041048,0.113,,,,9.463798174
1715672100360735416,0.18,,,,9.471492542
1715672100368429784,0.428,,,,9.47918691
1715672100376124152,0.973,,,,9.486881278
1715672100383818520,1.587,,,,9.494575646
1715672100391512888,1.57,,,,9.502270014
1715672100399207256,0.5670000000000001,,,,9.509964382
1715672100406901624,-0.293,,,,9.51765875
1715672100414595992,-0.137,,,,9.525353118
1715672100422290360,0.098,,,,9.533047486
1715672100429984728,-0.079,,,,9.540741854
1715672100437679108,-0.108,99.0,609.0,,9.548436234
1715672100445373058,0.0,,630.0,,9.556130184
1715672100453067008,-0.028,,,,9.563824134
1715672100460760958,-0.052,,,,9.571518084
1715672100468454908,-0.009,,,,9.579212034
1715672100476148858,0.0,,,,9.586905984
1715672100483842808,-0.004,,,,9.594599934
1715672100491536758,0.012,,,,9.602293884
1715672100499230708,0.026,,,,9.609987834
1715672100506924658,0.033,,,,9.617681784
1715672100514618608,0.038,,,,9.625375734
1715672100522312558,0.04,,,,9.633069684
1715672100530006508,0.052,,,,9.640763634
1715672100537700458,0.074,,,,9.648457584
1715672100545394408,0.081,,,,9.656151534
1715672100553088358,0.086,,,,9.663845484
1715672100560782308,0.098,,,,9.671539434
1715672100568476258,0.113,,,,9.679233384
1715672100576170208,0.115,,,,9.686927334
1715672100583864158,0.113,,,,9.694621284
1715672100591558108,0.117,,,,9.702315234
1715672100599252058,0.117,,,,9.710009184
1715672100606946008,0.113,,,,9.717703134
1715672100614639958,0.122,,,,9.725397084
1715672100622333908,0.134,,,,9.733091034
1715672100630027858,0.129,,,,9.740784984
1715672100637721808,0.113,,,,9.748478934
1715672100645415758,0.101,,,,9.756172884
1715672100653109708,0.088,,,,9.763866834
1715672100660803658,0.076,,,,9.771560784
1715672100668497608,0.067,,,,9.779254734
1715672100676191558,0.062,,,,9.786948684
1715672100683885508,0.06,,,,9.794642634
1715672100691579458,0.055,,,,9.802336584
1715672100699273408,0.055,,,,9.810030534
1715672100706967358,0.064,,,,9.817724484
1715672100714661308,0.074,,,,9.825418434
1715672100722355258,0.079,,,,9.833112384
1715672100730049208,0.081,,,,9.840806334
1715672100737743158,0.084,,,,9.848500284
1715672100745437108,0.081,,,,9.856194234
1715672100753131058,0.079,,,,9.863888184
1715672100760825008,0.079,,,,9.871582134
1715672100768518958,0.081,,,,9.879276084
1715672100776212908,0.084,,,,9.886970034
1715672100783906858,0.081,,,,9.894663984
1715672100791600808,0.069,,,,9.902357934
1715672100799294758,0.064,,,,9.910051884
1715672100806988708,0.067,,,,9.917745834
1715672100814682658,0.064,,,,9.925439784
1715672100822376608,0.06,,,,9.933133734
1715672100830070558,0.062,,,,9.940827684
1715672100837764508,0.064,,,,9.948521634
1715672100845458458,0.057,,,,9.956215584
1715672100853152408,0.055,,,,9.963909534
1715672100860846358,0.06,,,,9.971603484
1715672100868540308,0.055,,,,9.979297434
1715672100876234258,0.043,,,,9.986991384
1715672100883928208,0.036,,,,9.994685334
1715672100891622158,0.045,,,,10.002379284
1715672100899316108,0.067,,,,10.010073234
1715672100907010058,0.088,,,,10.017767184
1715672100914704008,0.098,,,,10.025461134
1715672100922397958,0.093,,,,10.033155084
1715672100930091908,0.084,,,,10.040849034
1715672100937785858,0.081,,,,10.048542984
1715672100945479808,0.081,,,,10.056236934
1715672100953173758,0.081,,,,10.063930884
1715672100960867708,0.084,,,,10.071624834
1715672100968561658,0.086,,,,10.079318784
1715672100976255608,0.093,,,,10.087012734
1715672100983949558,0.11,,,,10.094706684
1715672100991643508,0.146,,,,10.102400634
1715672100999337466,0.336,,,,10.110094592
1715672101007031764,0.8150000000000001,,,,10.11778889
1715672101014726062,1.387,,,,10.125483188
1715672101022420360,1.474,,,,10.133177486
1715672101030114658,0.658,,,,10.140871784
1715672101037808956,-0.233,,,,10.148566082
1715672101045503254,-0.202,,,,10.15626038
1715672101053197552,0.076,,,,10.163954678
1715672101060891850,-0.055,,,,10.171648976
1715672101068586148,-0.127,,,,10.179343274
1715672101076280446,-0.019,,,,10.187037572
1715672101083974744,-0.024,,,,10.19473187
1715672101091669042,-0.057,,,,10.202426168
1715672101099363340,-0.019,,,,10.210120466
1715672101107057638,-0.002,,,,10.217814764
1715672101114751936,-0.012,,,,10.225509062
1715672101122446234,0.002,,,,10.23320336
1715672101130140532,0.019,,,,10.240897658
1715672101137834830,0.024,,,,10.248591956
1715672101145529128,0.036,,,,10.256286254
1715672101153223426,0.048,,,,10.263980552
1715672101160917724,0.055,,,,10.27167485
1715672101168612022,0.067,,,,10.279369148
1715672101176306320,0.084,,,,10.287063446
1715672101184000618,0.093,,,,10.294757744
1715672101191694916,0.093,,,,10.302452042
1715672101199389214,0.101,,,,10.31014634
1715672101207083512,0.113,,,,10.317840638
1715672101214777810,0.117,,,,10.325534936
1715672101222472108,0.117,,,,10.333229234
1715672101230166406,0.122,,,,10.340923532
1715672101237860704,0.125,,,,10.34861783
1715672101245555002,0.122,,,,10.356312128
1715672101253249300,0.125,,,,10.364006426
1715672101260943598,0.127,,,,10.371700724
1715672101268637896,0.117,,,,10.379395022
1715672101276332194,0.098,,,,10.38708932
1715672101284026492,0.081,,,,10.394783618
1715672101291720790,0.069,,,,10.402477916
1715672101299415088,0.052,,,,10.410172214
1715672101307109386,0.04,,,,10.417866512
1715672101314803684,0.04,,,,10.42556081
1715672101322497982,0.045,,,,10.433255108
1715672101330192280,0.05,,,,10.440949406
1715672101337886578,0.06,,,,10.448643704
1715672101345580876,0.069,,,,10.456338002
1715672101353275174,0.074,,,,10.4640323
1715672101360969472,0.074,,,,10.471726598
1715672101368663770,0.076,,,,10.479420896
1715672101376358068,0.081,,,,10.487115194
1715672101384052366,0.084,,,,10.494809492
1715672101391746664,0.086,,,,10.50250379
1715672101399440962,0.081,,,,10.510198088
1715672101407135260,0.076,,,,10.517892386
1715672101414829558,0.079,,,,10.525586684
1715672101422523856,0.079,,,,10.533280982
1715672101430218154,0.067,,,,10.54097528
1715672101437912452,0.06,,,,10.548669578
1715672101445606750,0.057,,,,10.556363876
1715672101453301048,0.055,,,,10.564058174
1715672101460995346,0.052,,,,10.571752472
1715672101468689644,0.057,,,,10.57944677
1715672101476383942,0.055,,,,10.587141068
1715672101484078240,0.052,,,,10.594835366
1715672101491772538,0.055,,,,10.602529664
1715672101499466836,0.06,,,,10.610223962
1715672101507161134,0.05,,,,10.61791826
1715672101514855432,0.038,,,,10.625612558
1715672101522549730,0.033,,,,10.633306856
1715672101530244028,0.036,,,,10.641001154
1715672101537938326,0.05,,,,10.648695452
1715672101545632624,0.076,,,,10.65638975
1715672101553326922,0.091,,,,10.664084048
1715672101561021258,0.081,98.0,626.0,,10.671778384
1715672101568715138,0.067,,,,10.679472264
1715672101576409018,0.064,,,,10.687166144
1715672101584102898,0.072,,,,10.694860024
1715672101591796778,0.076,,,,10.702553904
1715672101599490658,0.081,,,,10.710247784
1715672101607184538,0.081,,,,10.717941664
1715672101614878418,0.088,,,,10.725635544
1715672101622572298,0.101,,,,10.733329424
1715672101630266178,0.129,,,,10.741023304
1715672101637960058,0.305,,,,10.748717184
1715672101645653938,0.767,,,,10.756411064
1715672101653347818,1.353,,,,10.764104944
1715672101661041698,1.507,,,,10.771798824
1715672101668735578,0.755,,,,10.779492704
1715672101676429458,-0.182,,,,10.787186584
1715672101684123338,-0.218,,,,10.794880464
1715672101691817218,0.076,,,,10.802574344
1715672101699511098,-0.04,,,,10.810268224
1715672101707204978,-0.125,,,,10.817962104
1715672101714898858,-0.021,,,,10.825655984
1715672101722592738,-0.019,,,,10.833349864
1715672101730286618,-0.045,,,,10.841043744
1715672101737980498,-0.014,,,,10.848737624
1715672101745674378,-0.002,,,,10.856431504
1715672101753368258,-0.009,,,,10.864125384
1715672101761062138,0.004,,,,10.871819264
1715672101768756018,0.021,,,,10.879513144
1715672101776449898,0.026,,,,10.887207024
1715672101784143778,0.033,,,,10.894900904
1715672101791837658,0.048,,,,10.902594784
1715672101799531538,0.057,,,,10.910288664
1715672101807225418,0.067,,,,10.917982544
1715672101814919298,0.081,,,,10.925676424
1715672101822613178,0.098,,,,10.933370304
1715672101830307058,0.11,,,,10.941064184
1715672101838000938,0.117,,,,10.948758064
1715672101845694818,0.125,,,,10.956451944
1715672101853388698,0.134,,,,10.964145824
1715672101861082578,0.141,,,,10.971839704
1715672101868776458,0.139,,,,10.979533584
1715672101876470338,0.132,,,,10.987227464
1715672101884164218,0.134,,,,10.994921344
1715672101891858098,0.141,,,,11.002615224
1715672101899551978,0.137,,,,11.010309104
1715672101907245858,0.122,,,,11.018002984
1715672101914939738,0.11,,,,11.025696864
1715672101922633618,0.098,,,,11.033390744
1715672101930327498,0.079,,,,11.041084624
1715672101938021378,0.062,,,,11.048778504
1715672101945715258,0.05,,,,11.056472384
1715672101953409138,0.048,,,,11.064166264
1715672101961103018,0.048,,,,11.071860144
1715672101968796898,0.05,,,,11.079554024
1715672101976490778,0.06,,,,11.087247904
1715672101984184658,0.072,,,,11.094941784
1715672101991878538,0.074,,,,11.102635664
1715672101999572418,0.069,,,,11.110329544
1715672102007266298,0.076,,,,11.118023424
1715672102014960178,0.084,,,,11.125717304
1715672102022654058,0.084,,,,11.133411184
1715672102030347938,0.076,,,,11.141105064
1715672102038041818,0.072,,,,11.148798944
1715672102045735698,0.064,,,,11.156492824
1715672102053429578,0.062,,,,11.164186704
1715672102061123458,0.06,,,,11.171880584
1715672102068817338,0.055,,,,11.179574464
1715672102076511218,0.048,,,,11.187268344
1715672102084205098,0.045,,,,11.194962224
1715672102091898978,0.048,,,,11.202656104
1715672102099592858,0.048,,,,11.210349984
1715672102107286738,0.045,,,,11.218043864
1715672102114980618,0.045,,,,11.225737744
1715672102122674530,0.043,97.0,628.0,,11.233431656
1715672102130368619,0.043,,632.0,,11.241125745
1715672102138062708,0.04,,,,11.248819834
1715672102145756797,0.031,,,,11.256513923
1715672102153450886,0.024,,,,11.264208012
1715672102161144975,0.036,,,,11.271902101
1715672102168839064,0.052,,,,11.27959619
1715672102176533153,0.067,,,,11.287290279
1715672102184227242,0.076,,,,11.294984368
1715672102191921331,0.072,,,,11.302678457
1715672102199615420,0.057,,,,11.310372546
1715672102207309509,0.05,,,,11.318066635
1715672102215003598,0.057,,,,11.325760724
1715672102222697687,0.064,,,,11.333454813
1715672102230391776,0.067,,,,11.341148902
1715672102238085865,0.074,,,,11.348842991
1715672102245779954,0.081,,,,11.35653708
1715672102253474043,0.091,,,,11.364231169
1715672102261168132,0.132,,,,11.371925258
1715672102268862221,0.329,,,,11.379619347
1715672102276556310,0.808,,,,11.387313436
1715672102284250399,1.377,,,,11.395007525
1715672102291944488,1.471,,,,11.402701614
1715672102299638577,0.649,,,,11.410395703
1715672102307332666,-0.257,,,,11.418089792
1715672102315026755,-0.214,,,,11.425783881
1715672102322720844,0.072,,,,11.43347797
1715672102330414933,-0.057,,,,11.441172059
1715672102338109022,-0.117,,,,11.448866148
1715672102345803111,-0.014,,,,11.456560237
1715672102353497200,-0.024,,,,11.464254326
1715672102361191289,-0.05,,,,11.471948415
1715672102368885378,-0.014,,,,11.479642504
1715672102376579467,0.0,,,,11.487336593
1715672102384273556,-0.004,,,,11.495030682
1715672102391967645,0.014,,,,11.502724771
1715672102399661734,0.031,,,,11.51041886
1715672102407355823,0.031,,,,11.518112949
1715672102415049912,0.04,,,,11.525807038
1715672102422744001,0.057,,,,11.533501127
1715672102430438090,0.072,,,,11.541195216
1715672102438132179,0.081,,,,11.548889305
1715672102445826268,0.096,,,,11.556583394
1715672102453520357,0.113,,,,11.564277483
1715672102461214446,0.125,,,,11.571971572
1715672102468908535,0.137,,,,11.579665661
1715672102476602624,0.153,,,,11.58735975
1715672102484296713,0.163,,,,11.595053839
1715672102491990802,0.161,,,,11.602747928
1715672102499684891,0.156,,,,11.610442017
1715672102507378980,0.156,,,,11.618136106
1715672102515073069,0.156,,,,11.625830195
1715672102522767158,0.153,,,,11.633524284
1715672102530461247,0.141,,,,11.641218373
1715672102538155336,0.122,,,,11.648912462
1715672102545849425,0.103,,,,11.656606551
1715672102553543514,0.091,,,,11.66430064
1715672102561237603,0.074,,,,11.671994729
1715672102568931692,0.057,,,,11.679688818
1715672102576625781,0.052,,,,11.687382907
1715672102584319870,0.05,,,,11.695076996
1715672102592013959,0.045,,,,11.702771085
1715672102599708048,0.052,,,,11.710465174
1715672102607402137,0.062,,,,11.718159263
1715672102615096226,0.069,,,,11.725853352
1715672102622790315,0.074,,,,11.733547441
1715672102630484404,0.084,,,,11.74124153
1715672102638178493,0.086,,,,11.748935619
1715672102645872582,0.088,,,,11.756629708
1715672102653566671,0.093,,,,11.764323797
1715672102661260760,0.093,,,,11.772017886
1715672102668954849,0.091,,,,11.779711975
1715672102676648938,0.086,,,,11.787406064
1715672102684343060,0.081,,,,11.795100186
1715672102692037428,0.076,,,,11.802794554
1715672102699731796,0.067,,,,11.810488922
1715672102707426164,0.055,,,,11.81818329
1715672102715120532,0.052,,,,11.825877658
1715672102722814900,0.057,,,,11.833572026
1715672102730509268,0.05,,,,11.841266394
1715672102738203636,0.043,,,,11.848960762
1715672102745898004,0.04,,,,11.85665513
1715672102753592372,0.045,,,,11.864349498
1715672102761286740,0.04,,,,11.872043866
1715672102768981108,0.024,,,,11.879738234
1715672102776675476,0.012,,,,11.887432602
1715672102784369844,0.012,,,,11.89512697
1715672102792064212,0.012,,,,11.902821338
1715672102799758580,0.024,,,,11.910515706
1715672102807452948,0.05,,,,11.918210074
1715672102815147316,0.069,,,,11.925904442
1715672102822841684,0.067,,,,11.93359881
1715672102830536052,0.064,,,,11.941293178
1715672102838230420,0.062,,,,11.948987546
1715672102845924788,0.064,,,,11.956681914
1715672102853619156,0.069,,,,11.964376282
1715672102861313524,0.074,,,,11.97207065
1715672102869007892,0.074,,,,11.979765018
1715672102876702260,0.081,,,,11.987459386
1715672102884396628,0.093,,,,11.995153754
1715672102892090996,0.113,,,,12.002848122
1715672102899785364,0.194,,,,12.01054249
1715672102907479732,0.497,,,,12.018236858
1715672102915174100,1.086,,,,12.025931226
1715672102922868468,1.671,,,,12.033625594
1715672102930562836,1.524,,,,12.041319962
1715672102938257204,0.437,,,,12.04901433
1715672102945951572,-0.329,,,,12.056708698
1715672102953645940,-0.093,,,,12.064403066
1715672102961340308,0.093,,,,12.072097434
1715672102969034676,-0.096,,,,12.079791802
1715672102976729044,-0.088,,,,12.08748617
1715672102984423412,0.009,,,,12.095180538
1715672102992117780,-0.026,,,,12.102874906
1715672102999812148,-0.036,,,,12.110569274
1715672103007506516,0.004,,,,12.118263642
1715672103015200884,0.002,,,,12.12595801
1715672103022895252,-0.004,,,,12.133652378
1715672103030589620,0.016,,,,12.141346746
1715672103038283988,0.028,,,,12.149041114
1715672103045978356,0.031,,,,12.156735482
1715672103053672724,0.043,,,,12.16442985
1715672103061367092,0.06,,,,12.172124218
1715672103069061460,0.069,,,,12.179818586
1715672103076755828,0.079,,,,12.187512954
1715672103084450196,0.096,,,,12.195207322
1715672103092144564,0.108,,,,12.20290169
1715672103099838932,0.122,,,,12.210596058
1715672103107533300,0.137,,,,12.218290426
1715672103115227668,0.149,,,,12.225984794
1715672103122922036,0.153,,,,12.233679162
1715672103130616404,0.151,,,,12.24137353
1715672103138310772,0.146,,,,12.249067898
1715672103146005140,0.144,,,,12.256762266
1715672103153699508,0.146,,,,12.264456634
1715672103161393876,0.146,,,,12.272151002
1715672103169088244,0.137,,,,12.27984537
1715672103176782612,0.117,,,,12.287539738
1715672103184476980,0.098,,,,12.295234106
1715672103192171348,0.076,,,,12.302928474
1715672103199865716,0.052,,,,12.310622842
1715672103207560084,0.04,,,,12.31831721
1715672103215254452,0.038,,,,12.326011578
1715672103222948820,0.04,,,,12.333705946
1715672103230643188,0.043,,,,12.341400314
1715672103238337556,0.045,,,,12.349094682
1715672103246031936,0.048,97.0,640.0,,12.356789062
1715672103253725886,0.057,,,,12.364483012
1715672103261419836,0.062,,,,12.372176962
1715672103269113786,0.064,,,,12.379870912
1715672103276807736,0.064,,,,12.387564862
1715672103284501686,0.06,,,,12.395258812
1715672103292195636,0.06,,,,12.402952762
1715672103299889586,0.06,,,,12.410646712
1715672103307583536,0.052,,,,12.418340662
1715672103315277486,0.043,,,,12.426034612
1715672103322971436,0.038,,,,12.433728562
1715672103330665386,0.04,,,,12.441422512
1715672103338359336,0.04,,,,12.449116462
1715672103346053286,0.036,,,,12.456810412
1715672103353747236,0.033,,,,12.464504362
1715672103361441186,0.036,,,,12.472198312
1715672103369135136,0.036,,,,12.479892262
1715672103376829086,0.036,,,,12.487586212
1715672103384523036,0.04,,,,12.495280162
1715672103392216986,0.04,,,,12.502974112
1715672103399910936,0.043,,,,12.510668062
1715672103407604886,0.048,,,,12.518362012
1715672103415298836,0.045,,,,12.526055962
1715672103422992786,0.04,,,,12.533749912
1715672103430686736,0.036,,,,12.541443862
1715672103438380686,0.028,,,,12.549137812
1715672103446074636,0.021,,,,12.556831762
1715672103453768586,0.036,,,,12.564525712
1715672103461462536,0.064,,,,12.572219662
1715672103469156486,0.081,,,,12.579913612
1715672103476850436,0.086,,,,12.587607562
1715672103484544386,0.084,,,,12.595301512
1715672103492238336,0.074,,,,12.602995462
1715672103499932286,0.069,,,,12.610689412
1715672103507626236,0.069,,,,12.618383362
1715672103515320186,0.067,,,,12.626077312
1715672103523014136,0.072,,,,12.633771262
1715672103530708086,0.079,,,,12.641465212
1715672103538402036,0.086,,,,12.649159162
1715672103546095986,0.101,,,,12.656853112
1715672103553789936,0.151,,,,12.664547062
1715672103561483886,0.37,,,,12.672241012
1715672103569177836,0.884,,,,12.679934962
1715672103576871786,1.512,,,,12.687628912
1715672103584565736,1.63,,,,12.695322862
1715672103592259686,0.759,,,,12.703016812
1715672103599953636,-0.226,,,,12.710710762
1715672103607647586,-0.218,,,,12.718404712
1715672103615341536,0.084,,,,12.726098662
1715672103623035486,-0.048,,,,12.733792612
1715672103630729436,-0.122,,,,12.741486562
1715672103638423386,-0.012,,,,12.749180512
1715672103646117336,-0.014,,,,12.756874462
1715672103653811286,-0.052,,,,12.764568412
1715672103661505236,-0.019,,,,12.772262362
1715672103669199186,-0.002,,,,12.779956312
1715672103676893136,-0.012,,,,12.787650262
1715672103684587086,0.007,,,,12.795344212
1715672103692281036,0.024,,,,12.803038162
1715672103699974986,0.019,,,,12.810732112
1715672103707668936,0.019,,,,12.818426062
1715672103715362886,0.033,,,,12.826120012
1715672103723056836,0.048,,,,12.833813962
1715672103730750786,0.057,,,,12.841507912
1715672103738444736,0.069,,,,12.849201862
1715672103746138686,0.081,,,,12.856895812
1715672103753832636,0.088,,,,12.864589762
1715672103761526586,0.096,,,,12.872283712
1715672103769220536,0.108,,,,12.879977662
1715672103776914486,0.115,,,,12.887671612
1715672103784608436,0.113,,,,12.895365562
1715672103792302386,0.115,,,,12.903059512
1715672103799996336,0.122,,,,12.910753462
1715672103807690294,0.125,,,,12.91844742
1715672103815384244,0.117,,,,12.92614137
1715672103823078194,0.11,,,,12.93383532
1715672103830772144,0.103,,,,12.94152927
1715672103838466094,0.081,,,,12.94922322
1715672103846160044,0.057,,,,12.95691717
1715672103853853994,0.04,,,,12.96461112
1715672103861547944,0.031,,,,12.97230507
1715672103869241894,0.021,,,,12.97999902
1715672103876935844,0.009,,,,12.98769297
1715672103884629794,0.004,,,,12.99538692
1715672103892323744,0.016,,,,13.00308087
1715672103900017694,0.026,,,,13.01077482
1715672103907711644,0.028,,,,13.01846877
1715672103915405594,0.031,,,,13.02616272
1715672103923099544,0.036,,,,13.03385667
1715672103930793494,0.038,,,,13.04155062
1715672103938487444,0.036,,,,13.04924457
1715672103946181394,0.036,,,,13.05693852
1715672103953875344,0.036,,,,13.06463247
1715672103961569294,0.033,,,,13.07232642
1715672103969263244,0.028,,,,13.08002037
1715672103976957194,0.028,,,,13.08771432
1715672103984651144,0.026,,,,13.09540827
1715672103992345094,0.024,,,,13.10310222
1715672104000039044,0.021,,,,13.11079617
1715672104007732994,0.024,,,,13.11849012
1715672104015426944,0.024,,,,13.12618407
1715672104023120894,0.019,,,,13.13387802
1715672104030814844,0.019,,,,13.14157197
1715672104038508794,0.024,,,,13.14926592
1715672104046202744,0.026,,,,13.15695987
1715672104053896694,0.024,,,,13.16465382
1715672104061590644,0.021,,,,13.17234777
1715672104069284594,0.026,,,,13.18004172
1715672104076978544,0.033,,,,13.18773567
1715672104084672494,0.036,,,,13.19542962
1715672104092366444,0.031,,,,13.20312357
1715672104100060394,0.028,,,,13.21081752
1715672104107754344,0.028,,,,13.21851147
1715672104115448294,0.019,,,,13.22620542
1715672104123142244,0.007,,,,13.23389937
1715672104130836194,0.014,,,,13.24159332
1715672104138530144,0.045,,,,13.24928727
1715672104146224094,0.062,,,,13.25698122
1715672104153918044,0.064,,,,13.26467517
1715672104161611994,0.069,,,,13.27236912
1715672104169305944,0.062,,,,13.28006307
1715672104176999894,0.043,,,,13.28775702
1715672104184693844,0.043,,,,13.29545097
1715672104192387794,0.062,,,,13.30314492
1715672104200081744,0.072,,,,13.31083887
1715672104207775694,0.062,,,,13.31853282
1715672104215469644,0.057,,,,13.32622677
1715672104223163594,0.076,,,,13.33392072
1715672104230857544,0.108,,,,13.34161467
1715672104238551494,0.242,,,,13.34930862
1715672104246245444,0.656,,,,13.35700257
1715672104253939394,1.272,,,,13.36469652
1715672104261633344,1.596,,,,13.37239047
1715672104269327294,1.012,,,,13.38008442
1715672104277021244,-0.062,,,,13.38777837
1715672104284715194,-0.322,,,,13.39547232
1715672104292409144,0.033,,,,13.40316627
1715672104300103094,0.002,,,,13.41086022
1715672104307797044,-0.146,,,,13.41855417
1715672104315490994,-0.052,,,,13.42624812
1715672104323184944,-0.009,,,,13.43394207
1715672104330878894,-0.06,,,,13.44163602
1715672104338572844,-0.04,,,,13.44932997
1715672104346266794,-0.012,,,,13.45702392
1715672104353960744,-0.019,,,,13.46471787
1715672104361654694,-0.007,,,,13.47241182
1715672104369348654,0.016,96.0,630.0,,13.48010578
1715672104377043022,0.016,,637.0,,13.487800148
1715672104384737390,0.019,,,,13.495494516
1715672104392431758,0.026,,,,13.503188884
1715672104400126126,0.028,,,,13.510883252
1715672104407820494,0.04,,,,13.51857762
1715672104415514862,0.057,,,,13.526271988
1715672104423209230,0.055,,,,13.533966356
1715672104430903598,0.064,,,,13.541660724
1715672104438597966,0.091,,,,13.549355092
1715672104446292334,0.103,,,,13.55704946
1715672104453986702,0.103,,,,13.564743828
1715672104461681070,0.108,,,,13.572438196
1715672104469375438,0.113,,,,13.580132564
1715672104477069806,0.113,,,,13.587826932
1715672104484764174,0.115,,,,13.5955213
1715672104492458542,0.117,,,,13.603215668
1715672104500152910,0.108,,,,13.610910036
1715672104507847278,0.093,,,,13.618604404
1715672104515541646,0.074,,,,13.626298772
1715672104523236014,0.05,,,,13.63399314
1715672104530930382,0.036,,,,13.641687508
1715672104538624750,0.026,,,,13.649381876
1715672104546319118,0.014,,,,13.657076244
1715672104554013486,0.0,,,,13.664770612
1715672104561707854,-0.002,,,,13.67246498
1715672104569402222,-0.002,,,,13.680159348
1715672104577096590,-0.004,,,,13.687853716
1715672104584790958,0.002,,,,13.695548084
1715672104592485326,0.014,,,,13.703242452
1715672104600179694,0.019,,,,13.71093682
1715672104607874062,0.024,,,,13.718631188
1715672104615568430,0.031,,,,13.726325556
1715672104623262798,0.033,,,,13.734019924
1715672104630957166,0.033,,,,13.741714292
1715672104638651534,0.04,,,,13.74940866
1715672104646345902,0.045,,,,13.757103028
1715672104654040270,0.043,,,,13.764797396
1715672104661734638,0.033,,,,13.772491764
1715672104669429006,0.033,,,,13.780186132
1715672104677123374,0.04,,,,13.7878805
1715672104684817742,0.04,,,,13.795574868
1715672104692512110,0.036,,,,13.803269236
1715672104700206478,0.038,,,,13.810963604
1715672104707900846,0.043,,,,13.818657972
1715672104715595214,0.038,,,,13.82635234
1715672104723289582,0.026,,,,13.834046708
1715672104730983950,0.026,,,,13.841741076
1715672104738678318,0.033,,,,13.849435444
1715672104746372686,0.031,,,,13.857129812
1715672104754067054,0.028,,,,13.86482418
1715672104761761422,0.033,,,,13.872518548
1715672104769455790,0.031,,,,13.880212916
1715672104777150158,0.019,,,,13.887907284
1715672104784844526,0.019,,,,13.895601652
1715672104792538894,0.04,,,,13.90329602
1715672104800233262,0.069,,,,13.910990388
1715672104807927630,0.086,,,,13.918684756
1715672104815621998,0.086,,,,13.926379124
1715672104823316366,0.076,,,,13.934073492
1715672104831010734,0.069,,,,13.94176786
1715672104838705102,0.074,,,,13.949462228
1715672104846399470,0.076,,,,13.957156596
1715672104854093838,0.079,,,,13.964850964
1715672104861788206,0.081,,,,13.972545332
1715672104869482574,0.091,,,,13.9802397
1715672104877176942,0.105,,,,13.987934068
1715672104884871310,0.132,,,,13.995628436
1715672104892565678,0.194,,,,14.003322804
1715672104900260046,0.454,,,,14.011017172
1715672104907954414,1.005,,,,14.01871154
1715672104915648782,1.575,,,,14.026405908
1715672104923343150,1.476,,,,14.034100276
1715672104931037530,0.449,,,,14.041794656
1715672104938731480,-0.319,,,,14.049488606
1715672104946425430,-0.091,,,,14.057182556
1715672104954119380,0.117,,,,14.064876506
1715672104961813330,-0.074,,,,14.072570456
1715672104969507280,-0.079,,,,14.080264406
1715672104977201230,0.024,,,,14.087958356
1715672104984895180,-0.019,,,,14.095652306
1715672104992589130,-0.04,,,,14.103346256
1715672105000283080,0.002,,,,14.111040206
1715672105007977030,0.007,,,,14.118734156
1715672105015670980,0.002,,,,14.126428106
1715672105023364930,0.021,,,,14.134122056
1715672105031058880,0.024,,,,14.141816006
1715672105038752830,0.021,,,,14.149509956
1715672105046446780,0.036,,,,14.157203906
1715672105054140730,0.045,,,,14.164897856
1715672105061834680,0.055,,,,14.172591806
1715672105069528630,0.072,,,,14.180285756
1715672105077222580,0.086,,,,14.187979706
1715672105084916530,0.096,,,,14.195673656
1715672105092610480,0.115,,,,14.203367606
1715672105100304430,0.134,,,,14.211061556
1715672105107998380,0.141,,,,14.218755506
1715672105115692330,0.146,,,,14.226449456
1715672105123386280,0.153,,,,14.234143406
1715672105131080230,0.156,,,,14.241837356
1715672105138774180,0.153,,,,14.249531306
1715672105146468130,0.156,,,,14.257225256
1715672105154162080,0.153,,,,14.264919206
1715672105161856030,0.141,,,,14.272613156
1715672105169549980,0.12,,,,14.280307106
1715672105177243930,0.098,,,,14.288001056
1715672105184937880,0.081,,,,14.295695006
1715672105192631830,0.067,,,,14.303388956
1715672105200325780,0.052,,,,14.311082906
1715672105208019730,0.04,,,,14.318776856
1715672105215713680,0.033,,,,14.326470806
1715672105223407630,0.021,,,,14.334164756
1715672105231101580,0.019,,,,14.341858706
1715672105238795530,0.031,,,,14.349552656
1715672105246489480,0.04,,,,14.357246606
1715672105254183430,0.04,,,,14.364940556
1715672105261877380,0.048,,,,14.372634506
1715672105269571330,0.057,,,,14.380328456
1715672105277265280,0.062,,,,14.388022406
1715672105284959230,0.064,,,,14.395716356
1715672105292653180,0.064,,,,14.403410306
1715672105300347130,0.064,,,,14.411104256
1715672105308041080,0.064,,,,14.418798206
1715672105315735030,0.062,,,,14.426492156
1715672105323428980,0.064,,,,14.434186106
1715672105331122930,0.069,,,,14.441880056
1715672105338816880,0.067,,,,14.449574006
1715672105346510830,0.062,,,,14.457267956
1715672105354204780,0.064,,,,14.464961906
1715672105361898730,0.067,,,,14.472655856
1715672105369592680,0.064,,,,14.480349806
1715672105377286630,0.062,,,,14.488043756
1715672105384980580,0.067,,,,14.495737706
1715672105392674530,0.072,,,,14.503431656
1715672105400368480,0.072,,,,14.511125606
1715672105408062430,0.064,,,,14.518819556
1715672105415756380,0.06,,,,14.526513506
1715672105423450330,0.052,,,,14.534207456
1715672105431144280,0.045,,,,14.541901406
1715672105438838230,0.057,,,,14.549595356
1715672105446532180,0.086,,,,14.557289306
1715672105454226130,0.108,,,,14.564983256
1715672105461920080,0.113,,,,14.572677206
1715672105469614030,0.105,,,,14.580371156
1715672105477307980,0.088,,,,14.588065106
1715672105485001930,0.086,,,,14.595759056
1715672105492695888,0.091,96.0,656.0,,14.603453014
1715672105500390256,0.091,,,,14.611147382
1715672105508084624,0.091,,,,14.61884175
1715672105515778992,0.103,,,,14.626536118
1715672105523473360,0.11,,,,14.634230486
1715672105531167728,0.117,,,,14.641924854
1715672105538862096,0.156,,,,14.649619222
1715672105546556464,0.341,,,,14.65731359
1715672105554250832,0.8150000000000001,,,,14.665007958
1715672105561945200,1.447,,,,14.672702326
1715672105569639568,1.676,,,,14.680396694
1715672105577333936,0.911,,,,14.688091062
1715672105585028304,-0.156,,,,14.69578543
1715672105592722672,-0.259,,,,14.703479798
1715672105600417040,0.081,,,,14.711174166
1715672105608111408,-0.019,,,,14.718868534
1715672105615805776,-0.129,,,,14.726562902
1715672105623500144,-0.021,,,,14.73425727
1715672105631194512,-0.007,,,,14.741951638
1715672105638888880,-0.052,,,,14.749646006
1715672105646583248,-0.024,,,,14.757340374
1715672105654277616,0.0,,,,14.765034742
1715672105661971984,-0.014,,,,14.77272911
1715672105669666352,-0.007,,,,14.780423478
1715672105677360720,0.012,,,,14.788117846
1715672105685055088,0.014,,,,14.795812214
1715672105692749456,0.024,,,,14.803506582
1715672105700443824,0.04,,,,14.81120095
1715672105708138192,0.048,,,,14.818895318
1715672105715832560,0.055,,,,14.826589686
1715672105723526928,0.062,,,,14.834284054
1715672105731221296,0.067,,,,14.841978422
1715672105738915664,0.076,,,,14.84967279
1715672105746610032,0.096,,,,14.857367158
1715672105754304400,0.11,,,,14.865061526
1715672105761998768,0.115,,,,14.872755894
1715672105769693136,0.12,,,,14.880450262
1715672105777387504,0.12,,,,14.88814463
1715672105785081872,0.12,,,,14.895838998
1715672105792776240,0.125,,,,14.903533366
1715672105800470608,0.125,,,,14.911227734
1715672105808164976,0.115,,,,14.918922102
1715672105815859344,0.101,,,,14.92661647
1715672105823553712,0.084,,,,14.934310838
1715672105831248080,0.062,,,,14.942005206
1715672105838942448,0.045,,,,14.949699574
1715672105846636816,0.033,,,,14.957393942
1715672105854331184,0.024,,,,14.96508831
1715672105862025552,0.019,,,,14.972782678
1715672105869719920,0.019,,,,14.980477046
1715672105877414288,0.024,,,,14.988171414
1715672105885108656,0.028,,,,14.995865782
1715672105892803024,0.033,,,,15.00356015
1715672105900497392,0.043,,,,15.011254518
1715672105908191760,0.05,,,,15.018948886
1715672105915886128,0.055,,,,15.026643254
1715672105923580496,0.055,,,,15.034337622
1715672105931274864,0.06,,,,15.04203199
1715672105938969232,0.064,,,,15.049726358
1715672105946663600,0.062,,,,15.057420726
1715672105954357968,0.06,,,,15.065115094
1715672105962052336,0.062,,,,15.072809462
1715672105969746704,0.057,,,,15.08050383
1715672105977441072,0.05,,,,15.088198198
1715672105985135440,0.052,,,,15.095892566
1715672105992829808,0.055,,,,15.103586934
1715672106000524176,0.055,,,,15.111281302
1715672106008218544,0.052,,,,15.11897567
1715672106015912912,0.05,,,,15.126670038
1715672106023607280,0.055,,,,15.134364406
1715672106031301648,0.057,,,,15.142058774
1715672106038996016,0.055,,,,15.149753142
1715672106046690384,0.057,,,,15.15744751
1715672106054384764,0.06,,,,15.16514189
1715672106062078853,0.06,,,,15.172835979
1715672106069772942,0.052,,,,15.180530068
1715672106077467031,0.038,,,,15.188224157
1715672106085161120,0.031,,,,15.195918246
1715672106092855209,0.045,,,,15.203612335
1715672106100549298,0.069,,,,15.211306424
1715672106108243387,0.088,,,,15.219000513
1715672106115937476,0.098,,,,15.226694602
1715672106123631565,0.088,,,,15.234388691
1715672106131325654,0.072,,,,15.24208278
1715672106139019743,0.067,,,,15.249776869
1715672106146713832,0.069,,,,15.257470958
1715672106154407921,0.072,,,,15.265165047
1715672106162102010,0.076,,,,15.272859136
1715672106169796099,0.088,,,,15.280553225
1715672106177490188,0.093,,,,15.288247314
1715672106185184277,0.103,,,,15.295941403
1715672106192878366,0.156,,,,15.303635492
1715672106200572455,0.377,,,,15.311329581
1715672106208266544,0.887,,,,15.31902367
1715672106215960633,1.507,,,,15.326717759
1715672106223654722,1.606,,,,15.334411848
1715672106231348811,0.716,,,,15.342105937
1715672106239042900,-0.252,,,,15.349800026
1715672106246736989,-0.228,,,,15.357494115
1715672106254431078,0.064,,,,15.365188204
1715672106262125167,-0.069,,,,15.372882293
1715672106269819256,-0.141,,,,15.380576382
1715672106277513345,-0.033,,,,15.388270471
1715672106285207434,-0.04,,,,15.39596456
1715672106292901523,-0.076,,,,15.403658649
1715672106300595612,-0.043,,,,15.411352738
1715672106308289701,-0.033,,,,15.419046827
1715672106315983790,-0.048,,,,15.426740916
1715672106323677879,-0.028,,,,15.434435005
1715672106331371968,-0.007,,,,15.442129094
1715672106339066057,-0.007,,,,15.449823183
1715672106346760146,0.0,,,,15.457517272
1715672106354454235,0.014,,,,15.465211361
1715672106362148324,0.024,,,,15.47290545
1715672106369842413,0.033,,,,15.480599539
1715672106377536502,0.052,,,,15.488293628
1715672106385230591,0.067,,,,15.495987717
1715672106392924680,0.074,,,,15.503681806
1715672106400618769,0.084,,,,15.511375895
1715672106408312858,0.103,,,,15.519069984
1715672106416006947,0.113,,,,15.526764073
1715672106423701036,0.108,,,,15.534458162
1715672106431395125,0.113,,,,15.542152251
1715672106439089214,0.12,,,,15.54984634
1715672106446783303,0.117,,,,15.557540429
1715672106454477392,0.113,,,,15.565234518
1715672106462171481,0.105,,,,15.572928607
1715672106469865570,0.088,,,,15.580622696
1715672106477559659,0.067,,,,15.588316785
1715672106485253748,0.045,,,,15.596010874
1715672106492947837,0.024,,,,15.603704963
1715672106500641926,0.012,,,,15.611399052
1715672106508336015,0.004,,,,15.619093141
1715672106516030104,0.0,,,,15.62678723
1715672106523724193,0.002,,,,15.634481319
1715672106531418282,0.012,,,,15.642175408
1715672106539112371,0.016,,,,15.649869497
1715672106546806460,0.019,,,,15.657563586
1715672106554500549,0.026,,,,15.665257675
1715672106562194638,0.033,,,,15.672951764
1715672106569888727,0.033,,,,15.680645853
1715672106577582816,0.043,,,,15.688339942
1715672106585276905,0.05,,,,15.696034031
1715672106592970994,0.048,,,,15.70372812
1715672106600665083,0.05,,,,15.711422209
1715672106608359172,0.05,,,,15.719116298
1715672106616053296,0.045,94.0,679.0,,15.726810422
1715672106623747524,0.043,,658.0,,15.73450465
1715672106631441752,0.048,,,,15.742198878
1715672106639135980,0.048,,,,15.749893106
1715672106646830208,0.045,,,,15.757587334
1715672106654524436,0.048,,,,15.765281562
1715672106662218664,0.048,,,,15.77297579
1715672106669912892,0.04,,,,15.780670018
1715672106677607120,0.033,,,,15.788364246
1715672106685301348,0.033,,,,15.796058474
1715672106692995576,0.04,,,,15.803752702
1715672106700689804,0.043,,,,15.81144693
1715672106708384032,0.038,,,,15.819141158
1715672106716078260,0.036,,,,15.826835386
1715672106723772488,0.036,,,,15.834529614
1715672106731466716,0.028,,,,15.842223842
1715672106739160944,0.026,,,,15.84991807
1715672106746855172,0.019,,,,15.857612298
1715672106754549400,0.021,,,,15.865306526
1715672106762243628,0.05,,,,15.873000754
1715672106769937856,0.079,,,,15.880694982
1715672106777632084,0.076,,,,15.88838921
1715672106785326312,0.057,,,,15.896083438
1715672106793020540,0.045,,,,15.903777666
1715672106800714768,0.052,,,,15.911471894
1715672106808408996,0.06,,,,15.919166122
1715672106816103224,0.062,,,,15.92686035
1715672106823797452,0.062,,,,15.934554578
1715672106831491680,0.064,,,,15.942248806
1715672106839185908,0.081,,,,15.949943034
1715672106846880136,0.113,,,,15.957637262
1715672106854574364,0.226,,,,15.96533149
1715672106862268592,0.593,,,,15.973025718
1715672106869962820,1.202,,,,15.980719946
1715672106877657048,1.628,,,,15.988414174
1715672106885351276,1.175,,,,15.996108402
1715672106893045504,0.057,,,,16.00380263
1715672106900739732,-0.348,,,,16.011496858
1715672106908433960,0.007,,,,16.019191086
1715672106916128188,0.036,,,,16.026885314
1715672106923822416,-0.129,,,,16.034579542
1715672106931516644,-0.052,,,,16.04227377
1715672106939210872,-0.002,,,,16.049967998
1715672106946905100,-0.057,,,,16.057662226
1715672106954599328,-0.04,,,,16.065356454
1715672106962293556,-0.007,,,,16.073050682
1715672106969987784,-0.019,,,,16.08074491
1715672106977682012,-0.019,,,,16.088439138
1715672106985376240,0.007,,,,16.096133366
1715672106993070468,0.016,,,,16.103827594
1715672107000764696,0.021,,,,16.111521822
1715672107008458924,0.038,,,,16.11921605
1715672107016153152,0.048,,,,16.126910278
1715672107023847380,0.055,,,,16.134604506
1715672107031541608,0.076,,,,16.142298734
1715672107039235836,0.096,,,,16.149992962
1715672107046930064,0.108,,,,16.15768719
1715672107054624292,0.122,,,,16.165381418
1715672107062318520,0.137,,,,16.173075646
1715672107070012748,0.144,,,,16.180769874
1715672107077706976,0.146,,,,16.188464102
1715672107085401204,0.149,,,,16.19615833
1715672107093095432,0.151,,,,16.203852558
1715672107100789660,0.153,,,,16.211546786
1715672107108483888,0.151,,,,16.219241014
1715672107116178116,0.146,,,,16.226935242
1715672107123872344,0.132,,,,16.23462947
1715672107131566572,0.11,,,,16.242323698
1715672107139260800,0.079,,,,16.250017926
1715672107146955028,0.06,,,,16.257712154
1715672107154649256,0.043,,,,16.265406382
1715672107162343484,0.028,,,,16.27310061
1715672107170037712,0.024,,,,16.280794838
1715672107177731998,0.021,94.0,649.0,,16.288489124
1715672107185425948,0.019,,,,16.296183074
1715672107193119898,0.026,,,,16.303877024
1715672107200813848,0.031,,,,16.311570974
1715672107208507798,0.026,,,,16.319264924
1715672107216201748,0.028,,,,16.326958874
1715672107223895698,0.04,,,,16.334652824
1715672107231589648,0.045,,,,16.342346774
1715672107239283598,0.045,,,,16.350040724
1715672107246977548,0.043,,,,16.357734674
1715672107254671498,0.038,,,,16.365428624
1715672107262365448,0.033,,,,16.373122574
1715672107270059398,0.033,,,,16.380816524
1715672107277753348,0.038,,,,16.388510474
1715672107285447298,0.043,,,,16.396204424
1715672107293141248,0.04,,,,16.403898374
1715672107300835198,0.036,,,,16.411592324
1715672107308529148,0.036,,,,16.419286274
1715672107316223098,0.04,,,,16.426980224
1715672107323917048,0.04,,,,16.434674174
1715672107331610998,0.04,,,,16.442368124
1715672107339304948,0.043,,,,16.450062074
1715672107346998898,0.043,,,,16.457756024
1715672107354692848,0.048,,,,16.465449974
1715672107362386798,0.045,,,,16.473143924
1715672107370080748,0.038,,,,16.480837874
1715672107377774698,0.031,,,,16.488531824
1715672107385468648,0.028,,,,16.496225774
1715672107393162598,0.045,,,,16.503919724
1715672107400856548,0.076,,,,16.511613674
1715672107408550498,0.103,,,,16.519307624
1715672107416244448,0.098,,,,16.527001574
1715672107423938398,0.081,,,,16.534695524
1715672107431632348,0.074,,,,16.542389474
1715672107439326298,0.074,,,,16.550083424
1715672107447020248,0.072,,,,16.557777374
1715672107454714198,0.076,,,,16.565471324
1715672107462408148,0.084,,,,16.573165274
1715672107470102098,0.088,,,,16.580859224
1715672107477796048,0.103,,,,16.588553174
1715672107485489998,0.139,,,,16.596247124
1715672107493183948,0.3,,,,16.603941074
1715672107500877898,0.755,,,,16.611635024
1715672107508571848,1.404,,,,16.619328974
1715672107516265798,1.719,,,,16.627022924
1715672107523959748,1.041,,,,16.634716874
1715672107531653698,-0.096,,,,16.642410824
1715672107539347648,-0.3,,,,16.650104774
1715672107547041598,0.074,,,,16.657798724
1715672107554735548,0.007,,,,16.665492674
1715672107562429498,-0.132,,,,16.673186624
1715672107570123448,-0.026,,,,16.680880574
1715672107577817398,0.0,,,,16.688574524
1715672107585511348,-0.05,,,,16.696268474
1715672107593205298,-0.019,,,,16.703962424
1715672107600899248,0.012,,,,16.711656374
1715672107608593198,0.004,,,,16.719350324
1715672107616287148,0.012,,,,16.727044274
1715672107623981098,0.024,,,,16.734738224
1715672107631675048,0.026,,,,16.742432174
1715672107639368998,0.038,,,,16.750126124
1715672107647062948,0.052,,,,16.757820074
1715672107654756898,0.06,,,,16.765514024
1715672107662450848,0.067,,,,16.773207974
1715672107670144798,0.081,,,,16.780901924
1715672107677838748,0.098,,,,16.788595874
1715672107685532698,0.113,,,,16.796289824
1715672107693226648,0.125,,,,16.803983774
1715672107700920598,0.139,,,,16.811677724
1715672107708614548,0.144,,,,16.819371674
1715672107716308498,0.139,,,,16.827065624
1715672107724002448,0.141,,,,16.834759574
1715672107731696398,0.146,,,,16.842453524
1715672107739390356,0.149,,,,16.850147482
1715672107747084306,0.144,,,,16.857841432
1715672107754778256,0.132,,,,16.865535382
1715672107762472206,0.11,,,,16.873229332
1715672107770166156,0.088,,,,16.880923282
1715672107777860106,0.069,,,,16.888617232
1715672107785554056,0.048,,,,16.896311182
1715672107793248006,0.036,,,,16.904005132
1715672107800941956,0.024,,,,16.911699082
1715672107808635906,0.014,,,,16.919393032
1715672107816329856,0.012,,,,16.927086982
1715672107824023806,0.016,,,,16.934780932
1715672107831717756,0.026,,,,16.942474882
1715672107839411706,0.031,,,,16.950168832
1715672107847105656,0.036,,,,16.957862782
1715672107854799606,0.043,,,,16.965556732
1715672107862493556,0.052,,,,16.973250682
1715672107870187506,0.055,,,,16.980944632
1715672107877881456,0.057,,,,16.988638582
1715672107885575406,0.062,,,,16.996332532
1715672107893269356,0.062,,,,17.004026482
1715672107900963306,0.06,,,,17.011720432
1715672107908657256,0.062,,,,17.019414382
1715672107916351206,0.064,,,,17.027108332
1715672107924045156,0.062,,,,17.034802282
1715672107931739106,0.06,,,,17.042496232
1715672107939433056,0.055,,,,17.050190182
1715672107947127006,0.05,,,,17.057884132
1715672107954820956,0.052,,,,17.065578082
1715672107962514906,0.057,,,,17.073272032
1715672107970208856,0.055,,,,17.080965982
1715672107977902806,0.055,,,,17.088659932
1715672107985596756,0.057,,,,17.096353882
1715672107993290706,0.06,,,,17.104047832
1715672108000984656,0.062,,,,17.111741782
1715672108008678606,0.064,,,,17.119435732
1715672108016372556,0.06,,,,17.127129682
1715672108024066506,0.055,,,,17.134823632
1715672108031760456,0.048,,,,17.142517582
1715672108039454406,0.036,,,,17.150211532
1715672108047148356,0.043,,,,17.157905482
1715672108054842306,0.076,,,,17.165599432
1715672108062536256,0.11,,,,17.173293382
1715672108070230206,0.117,,,,17.180987332
1715672108077924156,0.103,,,,17.188681282
1715672108085618106,0.084,,,,17.196375232
1715672108093312056,0.081,,,,17.204069182
1715672108101006006,0.091,,,,17.211763132
1715672108108699956,0.091,,,,17.219457082
1715672108116393906,0.091,,,,17.227151032
1715672108124087856,0.096,,,,17.234844982
1715672108131781806,0.108,,,,17.242538932
1715672108139475756,0.127,,,,17.250232882
1715672108147169706,0.18,,,,17.257926832
1715672108154863656,0.416,,,,17.265620782
1715672108162557606,0.959,,,,17.273314732
1715672108170251556,1.606,,,,17.281008682
1715672108177945506,1.7,,,,17.288702632
1715672108185639456,0.752,,,,17.296396582
1715672108193333406,-0.257,,,,17.304090532
1715672108201027356,-0.211,,,,17.311784482
1715672108208721306,0.096,,,,17.319478432
1715672108216415256,-0.057,,,,17.327172382
1715672108224109206,-0.129,,,,17.334866332
1715672108231803156,-0.016,,,,17.342560282
1715672108239497106,-0.026,,,,17.350254232
1715672108247191056,-0.06,,,,17.357948182
1715672108254885006,-0.021,,,,17.365642132
1715672108262578956,-0.012,,,,17.373336082
1715672108270272906,-0.026,,,,17.381030032
1715672108277966856,-0.004,,,,17.388723982
1715672108285660806,0.009,,,,17.396417932
1715672108293354756,0.004,,,,17.404111882
1715672108301048716,0.014,93.0,653.0,,17.411805842
1715672108308743084,0.033,,657.0,,17.41950021
1715672108316437452,0.04,,,,17.427194578
1715672108324131820,0.05,,,,17.434888946
1715672108331826188,0.069,,,,17.442583314
1715672108339520556,0.084,,,,17.450277682
1715672108347214924,0.096,,,,17.45797205
1715672108354909292,0.11,,,,17.465666418
1715672108362603660,0.122,,,,17.473360786
1715672108370298028,0.125,,,,17.481055154
1715672108377992396,0.125,,,,17.488749522
1715672108385686764,0.12,,,,17.49644389
1715672108393381132,0.122,,,,17.504138258
1715672108401075500,0.125,,,,17.511832626
1715672108408769868,0.122,,,,17.519526994
1715672108416464236,0.117,,,,17.527221362
1715672108424158604,0.103,,,,17.53491573
1715672108431852972,0.081,,,,17.542610098
1715672108439547340,0.06,,,,17.550304466
1715672108447241708,0.048,,,,17.557998834
1715672108454936076,0.033,,,,17.565693202
1715672108462630444,0.019,,,,17.57338757
1715672108470324812,0.014,,,,17.581081938
1715672108478019180,0.016,,,,17.588776306
1715672108485713548,0.019,,,,17.596470674
1715672108493407916,0.024,,,,17.604165042
1715672108501102284,0.031,,,,17.61185941
1715672108508796652,0.036,,,,17.619553778
1715672108516491020,0.045,,,,17.627248146
1715672108524185388,0.05,,,,17.634942514
1715672108531879756,0.052,,,,17.642636882
1715672108539574124,0.055,,,,17.65033125
1715672108547268492,0.057,,,,17.658025618
1715672108554962860,0.057,,,,17.665719986
1715672108562657228,0.055,,,,17.673414354
1715672108570351596,0.055,,,,17.681108722
1715672108578045964,0.057,,,,17.68880309
1715672108585740332,0.052,,,,17.696497458
1715672108593434700,0.05,,,,17.704191826
1715672108601129068,0.055,,,,17.711886194
1715672108608823436,0.055,,,,17.719580562
1715672108616517804,0.052,,,,17.72727493
1715672108624212172,0.05,,,,17.734969298
1715672108631906540,0.052,,,,17.742663666
1715672108639600908,0.055,,,,17.750358034
1715672108647295276,0.052,,,,17.758052402
1715672108654989644,0.052,,,,17.76574677
1715672108662684012,0.057,,,,17.773441138
1715672108670378380,0.06,,,,17.781135506
1715672108678072748,0.057,,,,17.788829874
1715672108685767116,0.055,,,,17.796524242
1715672108693461484,0.057,,,,17.80421861
1715672108701155852,0.062,,,,17.811912978
1715672108708850220,0.062,,,,17.819607346
1715672108716544588,0.05,,,,17.827301714
1715672108724238956,0.036,,,,17.834996082
1715672108731933324,0.038,,,,17.84269045
1715672108739627692,0.06,,,,17.850384818
1715672108747322060,0.088,,,,17.858079186
1715672108755016428,0.108,,,,17.865773554
1715672108762710796,0.103,,,,17.873467922
1715672108770405164,0.076,,,,17.88116229
1715672108778099532,0.064,,,,17.888856658
1715672108785793900,0.069,,,,17.896551026
1715672108793488268,0.069,,,,17.904245394
1715672108801182636,0.069,,,,17.911939762
1715672108808877004,0.076,,,,17.91963413
1715672108816571372,0.086,,,,17.927328498
1715672108824265740,0.096,,,,17.935022866
1715672108831960108,0.12,,,,17.942717234
1715672108839654476,0.223,,,,17.950411602
1715672108847348844,0.579,,,,17.95810597
1715672108855043212,1.202,,,,17.965800338
1715672108862737592,1.712,,,,17.973494718
1715672108870431542,1.373,,,,17.981188668
1715672108878125492,0.23,,,,17.988882618
1715672108885819442,-0.351,,,,17.996576568
1715672108893513392,-0.038,,,,18.004270518
1715672108901207342,0.062,,,,18.011964468
1715672108908901292,-0.122,,,,18.019658418
1715672108916595242,-0.081,,,,18.027352368
1715672108924289192,-0.009,,,,18.035046318
1715672108931983142,-0.055,,,,18.042740268
1715672108939677092,-0.052,,,,18.050434218
1715672108947371042,-0.016,,,,18.058128168
1715672108955064992,-0.019,,,,18.065822118
1715672108962758942,-0.021,,,,18.073516068
1715672108970452892,-0.002,,,,18.081210018
1715672108978146842,0.0,,,,18.088903968
1715672108985840792,0.0,,,,18.096597918
1715672108993534742,0.019,,,,18.104291868
1715672109001228692,0.031,,,,18.111985818
1715672109008922642,0.033,,,,18.119679768
1715672109016616592,0.05,,,,18.127373718
1715672109024310542,0.074,,,,18.135067668
1715672109032004492,0.084,,,,18.142761618
1715672109039698442,0.093,,,,18.150455568
1715672109047392392,0.108,,,,18.158149518
1715672109055086342,0.117,,,,18.165843468
1715672109062780292,0.125,,,,18.173537418
1715672109070474242,0.125,,,,18.181231368
1715672109078168192,0.125,,,,18.188925318
1715672109085862142,0.127,,,,18.196619268
1715672109093556092,0.129,,,,18.204313218
1715672109101250042,0.125,,,,18.212007168
1715672109108943992,0.115,,,,18.219701118
1715672109116637942,0.101,,,,18.227395068
1715672109124331892,0.074,,,,18.235089018
1715672109132025842,0.052,,,,18.242782968
1715672109139719792,0.038,,,,18.250476918
1715672109147413742,0.028,,,,18.258170868
1715672109155107692,0.021,,,,18.265864818
1715672109162801642,0.016,,,,18.273558768
1715672109170495592,0.014,,,,18.281252718
1715672109178189542,0.016,,,,18.288946668
1715672109185883492,0.028,,,,18.296640618
1715672109193577442,0.031,,,,18.304334568
1715672109201271392,0.033,,,,18.312028518
1715672109208965342,0.048,,,,18.319722468
1715672109216659292,0.052,,,,18.327416418
1715672109224353242,0.048,,,,18.335110368
1715672109232047192,0.052,,,,18.342804318
1715672109239741142,0.057,,,,18.350498268
1715672109247435092,0.052,,,,18.358192218
1715672109255129042,0.05,,,,18.365886168
1715672109262822992,0.048,,,,18.373580118
1715672109270516942,0.04,,,,18.381274068
1715672109278210892,0.038,,,,18.388968018
1715672109285904842,0.038,,,,18.396661968
1715672109293598792,0.038,,,,18.404355918
1715672109301292742,0.036,,,,18.412049868
1715672109308986692,0.036,,,,18.419743818
1715672109316680642,0.036,,,,18.427437768
1715672109324374592,0.038,,,,18.435131718
1715672109332068542,0.043,,,,18.442825668
1715672109339762492,0.043,,,,18.450519618
1715672109347456442,0.045,,,,18.458213568
1715672109355150392,0.052,,,,18.465907518
1715672109362844342,0.057,,,,18.473601468
1715672109370538292,0.052,,,,18.481295418
1715672109378232242,0.052,,,,18.488989368
1715672109385926192,0.06,,,,18.496683318
1715672109393620142,0.062,,,,18.504377268
1715672109401314092,0.06,,,,18.512071218
1715672109409008042,0.06,,,,18.519765168
1715672109416701992,0.06,,,,18.527459118
1715672109424395950,0.057,93.0,637.0,,18.535153076
1715672109432090039,0.057,,,,18.542847165
1715672109439784128,0.048,,,,18.550541254
1715672109447478217,0.043,,,,18.558235343
1715672109455172306,0.043,,,,18.565929432
1715672109462866395,0.048,,,,18.573623521
1715672109470560484,0.064,,,,18.58131761
1715672109478254573,0.103,,,,18.589011699
1715672109485948662,0.117,,,,18.596705788
1715672109493642751,0.086,,,,18.604399877
1715672109501336840,0.062,,,,18.612093966
1715672109509030929,0.067,,,,18.619788055
1715672109516725018,0.062,,,,18.627482144
1715672109524419107,0.057,,,,18.635176233
1715672109532113196,0.067,,,,18.642870322
1715672109539807285,0.069,,,,18.650564411
1715672109547501374,0.074,,,,18.6582585
1715672109555195463,0.103,,,,18.665952589
1715672109562889552,0.23,,,,18.673646678
1715672109570583641,0.615,,,,18.681340767
1715672109578277730,1.231,,,,18.689034856
1715672109585971819,1.661,,,,18.696728945
1715672109593665908,1.207,,,,18.704423034
1715672109601359997,0.064,,,,18.712117123
1715672109609054086,-0.367,,,,18.719811212
1715672109616748175,-0.016,,,,18.727505301
1715672109624442264,0.016,,,,18.73519939
1715672109632136353,-0.161,,,,18.742893479
1715672109639830442,-0.084,,,,18.750587568
1715672109647524531,-0.021,,,,18.758281657
1715672109655218620,-0.076,,,,18.765975746
1715672109662912709,-0.074,,,,18.773669835
1715672109670606798,-0.036,,,,18.781363924
1715672109678300887,-0.033,,,,18.789058013
1715672109685994976,-0.028,,,,18.796752102
1715672109693689065,-0.012,,,,18.804446191
1715672109701383154,-0.002,,,,18.81214028
1715672109709077243,0.004,,,,18.819834369
1715672109716771332,0.016,,,,18.827528458
1715672109724465421,0.033,,,,18.835222547
1715672109732159510,0.043,,,,18.842916636
1715672109739853599,0.052,,,,18.850610725
1715672109747547688,0.067,,,,18.858304814
1715672109755241777,0.079,,,,18.865998903
1715672109762935866,0.091,,,,18.873692992
1715672109770629955,0.096,,,,18.881387081
1715672109778324044,0.093,,,,18.88908117
1715672109786018133,0.093,,,,18.896775259
1715672109793712222,0.096,,,,18.904469348
1715672109801406311,0.093,,,,18.912163437
1715672109809100400,0.101,,,,18.919857526
1715672109816794489,0.105,,,,18.927551615
1715672109824488578,0.103,,,,18.935245704
1715672109832182667,0.096,,,,18.942939793
1715672109839876756,0.081,,,,18.950633882
1715672109847570845,0.062,,,,18.958327971
1715672109855264934,0.043,,,,18.96602206
1715672109862959023,0.028,,,,18.973716149
1715672109870653112,0.016,,,,18.981410238
1715672109878347201,0.002,,,,18.989104327
1715672109886041290,-0.007,,,,18.996798416
1715672109893735379,0.002,,,,19.004492505
1715672109901429468,0.012,,,,19.012186594
1715672109909123557,0.007,,,,19.019880683
1715672109916817646,0.012,,,,19.027574772
1715672109924511735,0.026,,,,19.035268861
1715672109932205824,0.028,,,,19.04296295
1715672109939899913,0.026,,,,19.050657039
1715672109947594002,0.033,,,,19.058351128
1715672109955288091,0.04,,,,19.066045217
1715672109962982180,0.033,,,,19.073739306
1715672109970676269,0.033,,,,19.081433395
1715672109978370358,0.033,,,,19.089127484
1715672109986064482,0.033,,,,19.096821608
1715672109993758710,0.033,,,,19.104515836
1715672110001452938,0.031,,,,19.112210064
1715672110009147166,0.028,,,,19.119904292
1715672110016841394,0.028,,,,19.12759852
1715672110024535622,0.026,,,,19.135292748
1715672110032229850,0.021,,,,19.142986976
1715672110039924078,0.021,,,,19.150681204
1715672110047618306,0.021,,,,19.158375432
1715672110055312534,0.021,,,,19.16606966
1715672110063006762,0.021,,,,19.173763888
1715672110070700990,0.024,,,,19.181458116
1715672110078395218,0.028,,,,19.189152344
1715672110086089446,0.031,,,,19.196846572
1715672110093783674,0.033,,,,19.2045408
1715672110101477902,0.04,,,,19.212235028
1715672110109172130,0.043,,,,19.219929256
1715672110116866358,0.04,,,,19.227623484
1715672110124560586,0.038,,,,19.235317712
1715672110132254814,0.033,,,,19.24301194
1715672110139949042,0.026,,,,19.250706168
1715672110147643270,0.024,,,,19.258400396
1715672110155337498,0.028,,,,19.266094624
1715672110163031726,0.057,,,,19.273788852
1715672110170725954,0.091,,,,19.28148308
1715672110178420182,0.088,,,,19.289177308
1715672110186114410,0.064,,,,19.296871536
1715672110193808638,0.055,,,,19.304565764
1715672110201502866,0.057,,,,19.312259992
1715672110209197094,0.05,,,,19.31995422
1715672110216891322,0.05,,,,19.327648448
1715672110224585550,0.062,,,,19.335342676
1715672110232279778,0.069,,,,19.343036904
1715672110239974006,0.086,,,,19.350731132
1715672110247668234,0.139,,,,19.35842536
1715672110255362462,0.327,,,,19.366119588
1715672110263056690,0.8,,,,19.373813816
1715672110270750918,1.416,,,,19.381508044
1715672110278445146,1.587,,,,19.389202272
1715672110286139374,0.762,,,,19.3968965
1715672110293833602,-0.264,,,,19.404590728
1715672110301527830,-0.283,,,,19.412284956
1715672110309222058,0.055,,,,19.419979184
1715672110316916286,-0.072,,,,19.427673412
1715672110324610514,-0.163,,,,19.43536764
1715672110332304742,-0.05,,,,19.443061868
1715672110339998970,-0.05,,,,19.450756096
1715672110347693198,-0.093,,,,19.458450324
1715672110355387426,-0.052,,,,19.466144552
1715672110363081654,-0.031,,,,19.47383878
1715672110370775882,-0.043,,,,19.481533008
1715672110378470110,-0.024,,,,19.489227236
1715672110386164338,-0.007,,,,19.496921464
1715672110393858566,-0.012,,,,19.504615692
1715672110401552794,-0.009,,,,19.51230992
1715672110409247022,0.007,,,,19.520004148
1715672110416941250,0.014,,,,19.527698376
1715672110424635478,0.021,,,,19.535392604
1715672110432329706,0.033,,,,19.543086832
1715672110440023934,0.05,,,,19.55078106
1715672110447718162,0.062,,,,19.558475288
1715672110455412390,0.069,,,,19.566169516
1715672110463106618,0.081,,,,19.573863744
1715672110470800846,0.091,,,,19.581557972
1715672110478495074,0.093,,,,19.5892522
1715672110486189302,0.091,,,,19.596946428
1715672110493883530,0.093,,,,19.604640656
1715672110501577758,0.093,,,,19.612334884
1715672110509271986,0.088,,,,19.620029112
1715672110516966214,0.084,,,,19.62772334
1715672110524660442,0.074,,,,19.635417568
1715672110532354670,0.052,,,,19.643111796
1715672110540048898,0.031,,,,19.650806024
1715672110547743184,0.016,93.0,660.0,,19.65850031
1715672110555437134,0.004,,689.0,,19.66619426
1715672110563131084,-0.007,,,,19.67388821
1715672110570825034,-0.014,,,,19.68158216
1715672110578518984,-0.016,,,,19.68927611
1715672110586212934,-0.016,,,,19.69697006
1715672110593906884,-0.012,,,,19.70466401
1715672110601600834,-0.009,,,,19.71235796
1715672110609294784,-0.004,,,,19.72005191
1715672110616988734,0.004,,,,19.72774586
1715672110624682684,0.009,,,,19.73543981
1715672110632376634,0.009,,,,19.74313376
1715672110640070584,0.012,,,,19.75082771
1715672110647764534,0.012,,,,19.75852166
1715672110655458484,0.009,,,,19.76621561
1715672110663152434,0.009,,,,19.77390956
1715672110670846384,0.009,,,,19.78160351
1715672110678540334,0.007,,,,19.78929746
1715672110686234284,0.004,,,,19.79699141
1715672110693928234,0.004,,,,19.80468536
1715672110701622184,0.004,,,,19.81237931
1715672110709316134,0.007,,,,19.82007326
1715672110717010084,0.004,,,,19.82776721
1715672110724704034,0.002,,,,19.83546116
1715672110732397984,0.007,,,,19.84315511
1715672110740091934,0.012,,,,19.85084906
1715672110747785884,0.012,,,,19.85854301
1715672110755479834,0.012,,,,19.86623696
1715672110763173784,0.012,,,,19.87393091
1715672110770867734,0.014,,,,19.88162486
1715672110778561684,0.019,,,,19.88931881
1715672110786255634,0.014,,,,19.89701276
1715672110793949584,0.007,,,,19.90470671
1715672110801643534,0.012,,,,19.91240066
1715672110809337484,0.019,,,,19.92009461
1715672110817031434,0.016,,,,19.92778856
1715672110824725384,0.007,,,,19.93548251
1715672110832419334,0.0,,,,19.94317646
1715672110840113284,0.002,,,,19.95087041
1715672110847807234,0.014,,,,19.95856436
1715672110855501184,0.045,,,,19.96625831
1715672110863195134,0.074,,,,19.97395226
1715672110870889084,0.069,,,,19.98164621
1715672110878583034,0.043,,,,19.98934016
1715672110886276984,0.028,,,,19.99703411
1715672110893970934,0.024,,,,20.00472806
1715672110901664884,0.019,,,,20.01242201
1715672110909358834,0.024,,,,20.02011596
1715672110917052784,0.033,,,,20.02780991
1715672110924746734,0.043,,,,20.03550386
1715672110932440684,0.06,,,,20.04319781
1715672110940134634,0.122,,,,20.05089176
1715672110947828584,0.351,,,,20.05858571
1715672110955522534,0.872,,,,20.06627966
1715672110963216484,1.519,,,,20.07397361
1715672110970910434,1.637,,,,20.08166756
1715672110978604384,0.704,,,,20.08936151
1715672110986298334,-0.315,,,,20.09705546
1715672110993992284,-0.271,,,,20.10474941
1715672111001686234,0.04,,,,20.11244336
1715672111009380184,-0.113,,,,20.12013731
1715672111017074134,-0.185,,,,20.12783126
1715672111024768084,-0.069,,,,20.13552521
1715672111032462034,-0.076,,,,20.14321916
1715672111040155984,-0.115,,,,20.15091311
1715672111047849934,-0.074,,,,20.15860706
1715672111055543884,-0.06,,,,20.16630101
1715672111063237834,-0.069,,,,20.17399496
1715672111070931784,-0.057,,,,20.18168891
1715672111078625734,-0.045,,,,20.18938286
1715672111086319684,-0.048,,,,20.19707681
1715672111094013634,-0.036,,,,20.20477076
1715672111101707584,-0.016,,,,20.21246471
1715672111109401544,-0.009,92.0,723.0,,20.22015867
1715672111117095912,-0.002,,,,20.227853038
1715672111124790280,0.016,,,,20.235547406
1715672111132484648,0.031,,,,20.243241774
1715672111140179016,0.036,,,,20.250936142
1715672111147873384,0.045,,,,20.25863051
1715672111155567752,0.06,,,,20.266324878
1715672111163262120,0.067,,,,20.274019246
1715672111170956488,0.062,,,,20.281713614
1715672111178650856,0.057,,,,20.289407982
1715672111186345224,0.062,,,,20.29710235
1715672111194039592,0.067,,,,20.304796718
1715672111201733960,0.062,,,,20.312491086
1715672111209428328,0.06,,,,20.320185454
1715672111217122696,0.055,,,,20.327879822
1715672111224817064,0.036,,,,20.33557419
1715672111232511432,0.019,,,,20.343268558
1715672111240205800,0.009,,,,20.350962926
1715672111247900168,0.0,,,,20.358657294
1715672111255594536,-0.007,,,,20.366351662
1715672111263288904,-0.012,,,,20.37404603
1715672111270983272,-0.012,,,,20.381740398
1715672111278677640,-0.004,,,,20.389434766
1715672111286372008,-0.004,,,,20.397129134
1715672111294066376,-0.004,,,,20.404823502
1715672111301760744,0.009,,,,20.41251787
1715672111309455112,0.019,,,,20.420212238
1715672111317149480,0.019,,,,20.427906606
1715672111324843848,0.024,,,,20.435600974
1715672111332538216,0.033,,,,20.443295342
1715672111340232584,0.036,,,,20.45098971
1715672111347926952,0.033,,,,20.458684078
1715672111355621320,0.033,,,,20.466378446
1715672111363315688,0.033,,,,20.474072814
1715672111371010056,0.033,,,,20.481767182
1715672111378704424,0.031,,,,20.48946155
1715672111386398792,0.028,,,,20.497155918
1715672111394093160,0.026,,,,20.504850286
1715672111401787528,0.024,,,,20.512544654
1715672111409481896,0.026,,,,20.520239022
1715672111417176264,0.028,,,,20.52793339
1715672111424870632,0.033,,,,20.535627758
1715672111432565000,0.036,,,,20.543322126
1715672111440259368,0.036,,,,20.551016494
1715672111447953736,0.038,,,,20.558710862
1715672111455648104,0.04,,,,20.56640523
1715672111463342472,0.04,,,,20.574099598
1715672111471036840,0.043,,,,20.581793966
1715672111478731208,0.05,,,,20.589488334
1715672111486425576,0.052,,,,20.597182702
1715672111494119944,0.052,,,,20.60487707
1715672111501814312,0.052,,,,20.612571438
1715672111509508680,0.052,,,,20.620265806
1715672111517203048,0.048,,,,20.627960174
1715672111524897416,0.033,,,,20.635654542
1715672111532591784,0.038,,,,20.64334891
1715672111540286152,0.062,,,,20.651043278
1715672111547980520,0.093,,,,20.658737646
1715672111555674888,0.105,,,,20.666432014
1715672111563369256,0.093,,,,20.674126382
1715672111571063624,0.072,,,,20.68182075
1715672111578757992,0.062,,,,20.689515118
1715672111586452360,0.062,,,,20.697209486
1715672111594146728,0.062,,,,20.704903854
1715672111601841096,0.064,,,,20.712598222
1715672111609535464,0.072,,,,20.72029259
1715672111617229832,0.086,,,,20.727986958
1715672111624924200,0.108,,,,20.735681326
1715672111632618568,0.194,,,,20.743375694
1715672111640312936,0.505,,,,20.751070062
1715672111648007304,1.091,,,,20.75876443
1715672111655701672,1.62,,,,20.766458798
1715672111663396040,1.382,,,,20.774153166
1715672111671090420,0.283,,,,20.781847546
1715672111678784370,-0.375,,,,20.789541496
1715672111686478320,-0.093,,,,20.797235446
1715672111694172270,0.057,,,,20.804929396
1715672111701866220,-0.132,,,,20.812623346
1715672111709560170,-0.113,,,,20.820317296
1715672111717254120,-0.028,,,,20.828011246
1715672111724948070,-0.072,,,,20.835705196
1715672111732642020,-0.084,,,,20.843399146
1715672111740335970,-0.05,,,,20.851093096
1715672111748029920,-0.05,,,,20.858787046
1715672111755723870,-0.05,,,,20.866480996
1715672111763417820,-0.028,,,,20.874174946
1715672111771111770,-0.021,,,,20.881868896
1715672111778805720,-0.019,,,,20.889562846
1715672111786499670,-0.002,,,,20.897256796
1715672111794193620,0.004,,,,20.904950746
1715672111801887570,0.004,,,,20.912644696
1715672111809581520,0.021,,,,20.920338646
1715672111817275470,0.04,,,,20.928032596
1715672111824969420,0.05,,,,20.935726546
1715672111832663370,0.064,,,,20.943420496
1715672111840357320,0.081,,,,20.951114446
1715672111848051270,0.091,,,,20.958808396
1715672111855745220,0.096,,,,20.966502346
1715672111863439170,0.096,,,,20.974196296
1715672111871133120,0.093,,,,20.981890246
1715672111878827070,0.091,,,,20.989584196
1715672111886521020,0.093,,,,20.997278146
1715672111894214970,0.096,,,,21.004972096
1715672111901908920,0.093,,,,21.012666046
1715672111909602870,0.081,,,,21.020359996
1715672111917296820,0.062,,,,21.028053946
1715672111924990770,0.048,,,,21.035747896
1715672111932684720,0.038,,,,21.043441846
1715672111940378670,0.024,,,,21.051135796
1715672111948072620,0.012,,,,21.058829746
1715672111955766570,0.009,,,,21.066523696
1715672111963460520,0.012,,,,21.074217646
1715672111971154470,0.014,,,,21.081911596
1715672111978848420,0.024,,,,21.089605546
1715672111986542370,0.033,,,,21.097299496
1715672111994236320,0.04,,,,21.104993446
1715672112001930270,0.045,,,,21.112687396
1715672112009624220,0.045,,,,21.120381346
1715672112017318170,0.05,,,,21.128075296
1715672112025012120,0.06,,,,21.135769246
1715672112032706070,0.06,,,,21.143463196
1715672112040400020,0.057,,,,21.151157146
1715672112048093970,0.057,,,,21.158851096
1715672112055787920,0.062,,,,21.166545046
1715672112063481870,0.06,,,,21.174238996
1715672112071175820,0.057,,,,21.181932946
1715672112078869770,0.055,,,,21.189626896
1715672112086563720,0.062,,,,21.197320846
1715672112094257670,0.072,,,,21.205014796
1715672112101951620,0.062,,,,21.212708746
1715672112109645570,0.05,,,,21.220402696
1715672112117339520,0.052,,,,21.228096646
1715672112125033470,0.052,,,,21.235790596
1715672112132727420,0.05,,,,21.243484546
1715672112140421370,0.055,,,,21.251178496
1715672112148115320,0.057,,,,21.258872446
1715672112155809270,0.055,,,,21.266566396
1715672112163503220,0.057,,,,21.274260346
1715672112171197170,0.064,,,,21.281954296
1715672112178891120,0.069,,,,21.289648246
1715672112186585070,0.067,,,,21.297342196
1715672112194279020,0.06,,,,21.305036146
1715672112201972970,0.052,,,,21.312730096
1715672112209666920,0.055,,,,21.320424046
1715672112217360870,0.062,,,,21.328117996
1715672112225054820,0.086,,,,21.335811946
1715672112232748778,0.113,90.0,689.0,,21.343505904
1715672112240443146,0.105,,692.0,,21.351200272
1715672112248137514,0.081,,,,21.35889464
1715672112255831882,0.072,,,,21.366589008
1715672112263526250,0.069,,,,21.374283376
1715672112271220618,0.064,,,,21.381977744
1715672112278914986,0.067,,,,21.389672112
1715672112286609354,0.074,,,,21.39736648
1715672112294303722,0.076,,,,21.405060848
1715672112301998090,0.084,,,,21.412755216
1715672112309692458,0.129,,,,21.420449584
1715672112317386826,0.322,,,,21.428143952
1715672112325081194,0.786,,,,21.43583832
1715672112332775562,1.346,,,,21.443532688
1715672112340469930,1.447,,,,21.451227056
1715672112348164298,0.644,,,,21.458921424
1715672112355858666,-0.264,,,,21.466615792
1715672112363553034,-0.24,,,,21.47431016
1715672112371247402,0.057,,,,21.482004528
1715672112378941770,-0.067,,,,21.489698896
1715672112386636138,-0.137,,,,21.497393264
1715672112394330506,-0.033,,,,21.505087632
1715672112402024874,-0.048,,,,21.512782
1715672112409719242,-0.086,,,,21.520476368
1715672112417413610,-0.043,,,,21.528170736
1715672112425107978,-0.026,,,,21.535865104
1715672112432802346,-0.04,,,,21.543559472
1715672112440496714,-0.024,,,,21.55125384
1715672112448191082,0.0,,,,21.558948208
1715672112455885450,0.002,,,,21.566642576
1715672112463579818,0.007,,,,21.574336944
1715672112471274186,0.021,,,,21.582031312
1715672112478968554,0.038,,,,21.58972568
1715672112486662922,0.05,,,,21.597420048
1715672112494357290,0.062,,,,21.605114416
1715672112502051658,0.076,,,,21.612808784
1715672112509746026,0.093,,,,21.620503152
1715672112517440394,0.103,,,,21.62819752
1715672112525134762,0.108,,,,21.635891888
1715672112532829130,0.125,,,,21.643586256
1715672112540523498,0.139,,,,21.651280624
1715672112548217866,0.134,,,,21.658974992
1715672112555912234,0.127,,,,21.66666936
1715672112563606602,0.129,,,,21.674363728
1715672112571300970,0.137,,,,21.682058096
1715672112578995338,0.132,,,,21.689752464
1715672112586689706,0.117,,,,21.697446832
1715672112594384074,0.103,,,,21.7051412
1715672112602078442,0.079,,,,21.712835568
1715672112609772810,0.05,,,,21.720529936
1715672112617467178,0.033,,,,21.728224304
1715672112625161546,0.024,,,,21.735918672
1715672112632855914,0.014,,,,21.74361304
1715672112640550282,0.012,,,,21.751307408
1715672112648244650,0.014,,,,21.759001776
1715672112655939018,0.019,,,,21.766696144
1715672112663633386,0.031,,,,21.774390512
1715672112671327754,0.038,,,,21.78208488
1715672112679022122,0.04,,,,21.789779248
1715672112686716490,0.052,,,,21.797473616
1715672112694410858,0.06,,,,21.805167984
1715672112702105226,0.057,,,,21.812862352
1715672112709799594,0.06,,,,21.82055672
1715672112717493962,0.067,,,,21.828251088
1715672112725188330,0.064,,,,21.835945456
1715672112732882698,0.064,,,,21.843639824
1715672112740577066,0.064,,,,21.851334192
1715672112748271434,0.064,,,,21.85902856
1715672112755965802,0.064,,,,21.866722928
1715672112763660170,0.062,,,,21.874417296
1715672112771354538,0.062,,,,21.882111664
1715672112779048906,0.062,,,,21.889806032
1715672112786743274,0.064,,,,21.8975004
1715672112794437654,0.062,,,,21.90519478
1715672112802131604,0.055,,,,21.91288873
1715672112809825554,0.052,,,,21.92058268
1715672112817519504,0.052,,,,21.92827663
1715672112825213454,0.052,,,,21.93597058
1715672112832907404,0.055,,,,21.94366453
1715672112840601354,0.055,,,,21.95135848
1715672112848295304,0.043,,,,21.95905243
1715672112855989254,0.024,,,,21.96674638
1715672112863683204,0.021,,,,21.97444033
1715672112871377154,0.04,,,,21.98213428
1715672112879071104,0.072,,,,21.98982823
1715672112886765054,0.098,,,,21.99752218
1715672112894459004,0.096,,,,22.00521613
1715672112902152954,0.072,,,,22.01291008
1715672112909846904,0.062,,,,22.02060403
1715672112917540854,0.064,,,,22.02829798
1715672112925234804,0.067,,,,22.03599193
1715672112932928754,0.074,,,,22.04368588
1715672112940622704,0.079,,,,22.05137983
1715672112948316654,0.086,,,,22.05907378
1715672112956010604,0.11,,,,22.06676773
1715672112963704554,0.177,,,,22.07446168
1715672112971398504,0.447,,,,22.08215563
1715672112979092454,1.005,,,,22.08984958
1715672112986786404,1.577,,,,22.09754353
1715672112994480354,1.474,,,,22.10523748
1715672113002174304,0.43,,,,22.11293143
1715672113009868254,-0.351,,,,22.12062538
1715672113017562204,-0.12,,,,22.12831933
1715672113025256154,0.088,,,,22.13601328
1715672113032950104,-0.103,,,,22.14370723
1715672113040644054,-0.105,,,,22.15140118
1715672113048338004,-0.002,,,,22.15909513
1715672113056031954,-0.038,,,,22.16678908
1715672113063725904,-0.052,,,,22.17448303
1715672113071419854,-0.009,,,,22.18217698
1715672113079113804,-0.009,,,,22.18987093
1715672113086807754,-0.016,,,,22.19756488
1715672113094501704,0.007,,,,22.20525883
1715672113102195654,0.016,,,,22.21295278
1715672113109889604,0.016,,,,22.22064673
1715672113117583554,0.021,,,,22.22834068
1715672113125277504,0.031,,,,22.23603463
