time,ecg,hr,rr,marker,norm_time
1715672295330507190,0.024,98.0,654.0,,0.0
1715672295338201140,0.019,,683.0,,0.00769395
1715672295345895090,0.019,,,,0.0153879
1715672295353589040,0.038,,,,0.02308185
1715672295361282990,0.052,,,,0.0307758
1715672295368976940,0.062,,,,0.03846975
1715672295376670890,0.079,,,,0.0461637
1715672295384364840,0.096,,,,0.05385765
1715672295392058790,0.103,,,,0.0615516
1715672295399752740,0.11,,,,0.06924555
1715672295407446690,0.122,,,,0.0769395
1715672295415140640,0.122,,,,0.08463345
1715672295422834590,0.115,,,,0.0923274
1715672295430528540,0.11,,,,0.10002135
1715672295438222490,0.113,,,,0.1077153
1715672295445916440,0.115,,,,0.11540925
1715672295453610390,0.113,,,,0.1231032
1715672295461304340,0.103,,,,0.13079715
1715672295468998290,0.088,,,,0.1384911
1715672295476692240,0.069,,,,0.14618505
1715672295484386190,0.04,,,,0.153879
1715672295492080140,0.024,,,,0.16157295
1715672295499774090,0.021,,,,0.1692669
1715672295507468040,0.012,,,,0.17696085
1715672295515161990,0.002,,,,0.1846548
1715672295522855940,0.002,,,,0.19234875
1715672295530549890,0.012,,,,0.2000427
1715672295538243840,0.012,,,,0.20773665
1715672295545937790,0.012,,,,0.2154306
1715672295553631740,0.021,,,,0.22312455
1715672295561325690,0.031,,,,0.2308185
1715672295569019640,0.031,,,,0.23851245
1715672295576713590,0.031,,,,0.2462064
1715672295584407540,0.038,,,,0.25390035
1715672295592101490,0.038,,,,0.2615943
1715672295599795440,0.036,,,,0.26928825
1715672295607489390,0.038,,,,0.2769822
1715672295615183340,0.038,,,,0.28467615
1715672295622877290,0.036,,,,0.2923701
1715672295630571240,0.036,,,,0.30006405
1715672295638265190,0.038,,,,0.307758
1715672295645959140,0.036,,,,0.31545195
1715672295653653090,0.036,,,,0.3231459
1715672295661347040,0.036,,,,0.33083985
1715672295669040990,0.031,,,,0.3385338
1715672295676734940,0.033,,,,0.34622775
1715672295684428890,0.036,,,,0.3539217
1715672295692122840,0.024,,,,0.36161565
1715672295699816790,0.019,,,,0.3693096
1715672295707510740,0.026,,,,0.37700355
1715672295715204690,0.021,,,,0.3846975
1715672295722898640,0.012,,,,0.39239145
1715672295730592590,0.026,,,,0.4000854
1715672295738286540,0.048,,,,0.40777935
1715672295745980490,0.067,,,,0.4154733
1715672295753674440,0.069,,,,0.42316725
1715672295761368390,0.057,,,,0.4308612
1715672295769062340,0.055,,,,0.43855515
1715672295776756290,0.057,,,,0.4462491
1715672295784450240,0.057,,,,0.45394305
1715672295792144190,0.062,,,,0.461637
1715672295799838140,0.067,,,,0.46933095
1715672295807532090,0.072,,,,0.4770249
1715672295815226040,0.086,,,,0.48471885
1715672295822919990,0.12,,,,0.4924128
1715672295830613940,0.23,,,,0.50010675
1715672295838307890,0.584,,,,0.5078007
1715672295846001840,1.19,,,,0.51549465
1715672295853695790,1.685,,,,0.5231886
1715672295861389740,1.327,,,,0.53088255
1715672295869083690,0.161,,,,0.5385765
1715672295876777640,-0.379,,,,0.54627045
1715672295884471590,-0.016,,,,0.5539644
1715672295892165548,0.064,,,,0.561658358
1715672295899859707,-0.139,,,,0.569352517
1715672295907553866,-0.081,,,,0.577046676
1715672295915248025,-0.007,,,,0.584740835
1715672295922942184,-0.052,,,,0.592434994
1715672295930636343,-0.043,,,,0.600129153
1715672295938330502,-0.009,,,,0.607823312
1715672295946024661,-0.014,,,,0.615517471
1715672295953718820,-0.009,,,,0.62321163
1715672295961412979,0.007,,,,0.630905789
1715672295969107138,0.009,,,,0.638599948
1715672295976801297,0.019,,,,0.646294107
1715672295984495456,0.036,,,,0.653988266
1715672295992189615,0.048,,,,0.661682425
1715672295999883774,0.057,,,,0.669376584
1715672296007577933,0.074,,,,0.677070743
1715672296015272092,0.088,,,,0.684764902
1715672296022966251,0.101,,,,0.692459061
1715672296030660410,0.113,,,,0.70015322
1715672296038354569,0.122,,,,0.707847379
1715672296046048728,0.129,,,,0.715541538
1715672296053742887,0.127,,,,0.723235697
1715672296061437046,0.122,,,,0.730929856
1715672296069131205,0.127,,,,0.738624015
1715672296076825364,0.129,,,,0.746318174
1715672296084519523,0.12,,,,0.754012333
1715672296092213682,0.115,,,,0.761706492
1715672296099907841,0.11,,,,0.769400651
1715672296107602000,0.093,,,,0.77709481
1715672296115296159,0.072,,,,0.784788969
1715672296122990318,0.052,,,,0.792483128
1715672296130684477,0.038,,,,0.800177287
1715672296138378636,0.026,,,,0.807871446
1715672296146072795,0.019,,,,0.815565605
1715672296153766954,0.019,,,,0.823259764
1715672296161461113,0.019,,,,0.830953923
1715672296169155272,0.021,,,,0.838648082
1715672296176849431,0.031,,,,0.846342241
1715672296184543590,0.038,,,,0.8540364
1715672296192237749,0.036,,,,0.861730559
1715672296199931908,0.031,,,,0.869424718
1715672296207626067,0.033,,,,0.877118877
1715672296215320226,0.038,,,,0.884813036
1715672296223014385,0.04,,,,0.892507195
1715672296230708544,0.038,,,,0.900201354
1715672296238402703,0.038,,,,0.907895513
1715672296246096862,0.043,,,,0.915589672
1715672296253791021,0.043,,,,0.923283831
1715672296261485180,0.031,,,,0.93097799
1715672296269179339,0.028,,,,0.938672149
1715672296276873498,0.038,,,,0.946366308
1715672296284567657,0.043,,,,0.954060467
1715672296292261816,0.043,,,,0.961754626
1715672296299955975,0.043,,,,0.969448785
1715672296307650134,0.04,,,,0.977142944
1715672296315344293,0.04,,,,0.984837103
1715672296323038452,0.045,,,,0.992531262
1715672296330732611,0.048,,,,1.000225421
1715672296338426770,0.048,,,,1.00791958
1715672296346120929,0.048,,,,1.015613739
1715672296353815088,0.048,,,,1.023307898
1715672296361509247,0.043,,,,1.031002057
1715672296369203406,0.031,,,,1.038696216
1715672296376897565,0.043,,,,1.046390375
1715672296384591724,0.076,,,,1.054084534
1715672296392285883,0.098,,,,1.061778693
1715672296399980042,0.098,,,,1.069472852
1715672296407674201,0.084,,,,1.077167011
1715672296415368360,0.069,,,,1.08486117
1715672296423062519,0.067,,,,1.092555329
1715672296430756678,0.074,,,,1.100249488
1715672296438450837,0.076,,,,1.107943647
1715672296446144996,0.076,,,,1.115637806
1715672296453839166,0.081,96.0,654.0,,1.123331976
1715672296461533325,0.091,,,,1.131026135
1715672296469227484,0.115,,,,1.138720294
1715672296476921643,0.17,,,,1.146414453
1715672296484615802,0.387,,,,1.154108612
1715672296492309961,0.894,,,,1.161802771
1715672296500004120,1.507,,,,1.16949693
1715672296507698279,1.594,,,,1.177191089
1715672296515392438,0.678,,,,1.184885248
1715672296523086597,-0.288,,,,1.192579407
1715672296530780756,-0.202,,,,1.200273566
1715672296538474915,0.105,,,,1.207967725
1715672296546169074,-0.064,,,,1.215661884
1715672296553863233,-0.127,,,,1.223356043
1715672296561557392,-0.004,,,,1.231050202
1715672296569251551,-0.024,,,,1.238744361
1715672296576945710,-0.057,,,,1.24643852
1715672296584639869,-0.012,,,,1.254132679
1715672296592334028,0.004,,,,1.261826838
1715672296600028187,-0.007,,,,1.269520997
1715672296607722346,0.009,,,,1.277215156
1715672296615416505,0.024,,,,1.284909315
1715672296623110664,0.024,,,,1.292603474
1715672296630804823,0.033,,,,1.300297633
1715672296638498982,0.045,,,,1.307991792
1715672296646193141,0.055,,,,1.315685951
1715672296653887300,0.064,,,,1.32338011
1715672296661581459,0.079,,,,1.331074269
1715672296669275618,0.098,,,,1.338768428
1715672296676969777,0.11,,,,1.346462587
1715672296684663936,0.117,,,,1.354156746
1715672296692358095,0.122,,,,1.361850905
1715672296700052254,0.122,,,,1.369545064
1715672296707746413,0.117,,,,1.377239223
1715672296715440572,0.117,,,,1.384933382
1715672296723134731,0.122,,,,1.392627541
1715672296730828890,0.122,,,,1.4003217
1715672296738523049,0.125,,,,1.408015859
1715672296746217208,0.122,,,,1.415710018
1715672296753911367,0.108,,,,1.423404177
1715672296761605526,0.088,,,,1.431098336
1715672296769299685,0.072,,,,1.438792495
1715672296776993844,0.057,,,,1.446486654
1715672296784688003,0.045,,,,1.454180813
1715672296792382162,0.036,,,,1.461874972
1715672296800076321,0.026,,,,1.469569131
1715672296807770480,0.028,,,,1.47726329
1715672296815464639,0.038,,,,1.484957449
1715672296823158798,0.043,,,,1.492651608
1715672296830852957,0.048,,,,1.500345767
1715672296838547116,0.055,,,,1.508039926
1715672296846241275,0.06,,,,1.515734085
1715672296853935434,0.062,,,,1.523428244
1715672296861629593,0.062,,,,1.531122403
1715672296869323752,0.06,,,,1.538816562
1715672296877017911,0.064,,,,1.546510721
1715672296884712070,0.064,,,,1.55420488
1715672296892406229,0.057,,,,1.561899039
1715672296900100388,0.055,,,,1.569593198
1715672296907794547,0.055,,,,1.577287357
1715672296915488706,0.05,,,,1.584981516
1715672296923182865,0.05,,,,1.592675675
1715672296930877024,0.05,,,,1.600369834
1715672296938571183,0.05,,,,1.608063993
1715672296946265342,0.052,,,,1.615758152
1715672296953959501,0.052,,,,1.623452311
1715672296961653660,0.052,,,,1.63114647
1715672296969347819,0.055,,,,1.638840629
1715672296977041978,0.055,,,,1.646534788
1715672296984736137,0.05,,,,1.654228947
1715672296992430296,0.048,,,,1.661923106
1715672297000124455,0.043,,,,1.669617265
1715672297007818614,0.045,,,,1.677311424
1715672297015512782,0.06,,,,1.685005592
1715672297023206732,0.088,,,,1.692699542
1715672297030900682,0.11,,,,1.700393492
1715672297038594632,0.108,,,,1.708087442
1715672297046288582,0.084,,,,1.715781392
1715672297053982532,0.069,,,,1.723475342
1715672297061676482,0.072,,,,1.731169292
1715672297069370432,0.076,,,,1.738863242
1715672297077064382,0.079,,,,1.746557192
1715672297084758332,0.086,,,,1.754251142
1715672297092452282,0.096,,,,1.761945092
1715672297100146232,0.108,,,,1.769639042
1715672297107840182,0.137,,,,1.777332992
1715672297115534132,0.29,,,,1.785026942
1715672297123228082,0.743,,,,1.792720892
1715672297130922032,1.363,,,,1.800414842
1715672297138615982,1.594,,,,1.808108792
1715672297146309932,0.858,,,,1.815802742
1715672297154003882,-0.187,,,,1.823496692
1715672297161697832,-0.274,,,,1.831190642
1715672297169391782,0.084,,,,1.838884592
1715672297177085732,-0.016,,,,1.846578542
1715672297184779682,-0.129,,,,1.854272492
1715672297192473632,-0.019,,,,1.861966442
1715672297200167582,-0.014,,,,1.869660392
1715672297207861532,-0.072,,,,1.877354342
1715672297215555482,-0.038,,,,1.885048292
1715672297223249432,-0.009,,,,1.892742242
1715672297230943382,-0.021,,,,1.900436192
1715672297238637332,-0.012,,,,1.908130142
1715672297246331282,0.004,,,,1.915824092
1715672297254025232,0.009,,,,1.923518042
1715672297261719182,0.024,,,,1.931211992
1715672297269413132,0.04,,,,1.938905942
1715672297277107082,0.052,,,,1.946599892
1715672297284801032,0.057,,,,1.954293842
1715672297292494982,0.067,,,,1.961987792
1715672297300188932,0.076,,,,1.969681742
1715672297307882882,0.091,,,,1.977375692
1715672297315576832,0.105,,,,1.985069642
1715672297323270782,0.113,,,,1.992763592
1715672297330964732,0.115,,,,2.000457542
1715672297338658682,0.117,,,,2.008151492
1715672297346352632,0.117,,,,2.015845442
1715672297354046582,0.122,,,,2.023539392
1715672297361740532,0.127,,,,2.031233342
1715672297369434482,0.125,,,,2.038927292
1715672297377128432,0.12,,,,2.046621242
1715672297384822382,0.11,,,,2.054315192
1715672297392516332,0.084,,,,2.062009142
1715672297400210282,0.057,,,,2.069703092
1715672297407904232,0.05,,,,2.077397042
1715672297415598182,0.045,,,,2.085090992
1715672297423292132,0.036,,,,2.092784942
1715672297430986082,0.033,,,,2.100478892
1715672297438680032,0.036,,,,2.108172842
1715672297446373982,0.04,,,,2.115866792
1715672297454067932,0.048,,,,2.123560742
1715672297461761882,0.055,,,,2.131254692
1715672297469455832,0.06,,,,2.138948642
1715672297477149782,0.062,,,,2.146642592
1715672297484843732,0.062,,,,2.154336542
1715672297492537682,0.06,,,,2.162030492
1715672297500231632,0.062,,,,2.169724442
1715672297507925582,0.072,,,,2.177418392
1715672297515619532,0.072,,,,2.185112342
1715672297523313482,0.06,,,,2.192806292
1715672297531007432,0.057,,,,2.200500242
1715672297538701382,0.062,,,,2.208194192
1715672297546395332,0.067,,,,2.215888142
1715672297554089282,0.064,,,,2.223582092
1715672297561783232,0.055,,,,2.231276042
1715672297569477182,0.05,,,,2.238969992
1715672297577171140,0.055,95.0,632.0,,2.24666395
1715672297584865090,0.057,,635.0,,2.2543579
1715672297592559040,0.05,,,,2.26205185
1715672297600252990,0.045,,,,2.2697458
1715672297607946940,0.038,,,,2.27743975
1715672297615640890,0.038,,,,2.2851337
1715672297623334840,0.057,,,,2.29282765
1715672297631028790,0.079,,,,2.3005216
1715672297638722740,0.076,,,,2.30821555
1715672297646416690,0.064,,,,2.3159095
1715672297654110640,0.064,,,,2.32360345
1715672297661804590,0.072,,,,2.3312974
1715672297669498540,0.072,,,,2.33899135
1715672297677192490,0.072,,,,2.3466853
1715672297684886440,0.076,,,,2.35437925
1715672297692580390,0.086,,,,2.3620732
1715672297700274340,0.096,,,,2.36976715
1715672297707968290,0.108,,,,2.3774611
1715672297715662240,0.173,,,,2.38515505
1715672297723356190,0.456,,,,2.392849
1715672297731050140,1.002,,,,2.40054295
1715672297738744090,1.481,,,,2.4082369
1715672297746438040,1.224,,,,2.41593085
1715672297754131990,0.192,,,,2.4236248
1715672297761825940,-0.336,,,,2.43131875
1715672297769519890,-0.012,,,,2.4390127
1715672297777213840,0.098,,,,2.44670665
1715672297784907790,-0.084,,,,2.4544006
1715672297792601740,-0.045,,,,2.46209455
1715672297800295690,0.031,,,,2.4697885
1715672297807989640,-0.009,,,,2.47748245
1715672297815683590,-0.009,,,,2.4851764
1715672297823377540,0.026,,,,2.49287035
1715672297831071490,0.028,,,,2.5005643
1715672297838765440,0.026,,,,2.50825825
1715672297846459390,0.043,,,,2.5159522
1715672297854153340,0.052,,,,2.52364615
1715672297861847290,0.062,,,,2.5313401
1715672297869541240,0.079,,,,2.53903405
1715672297877235190,0.088,,,,2.546728
1715672297884929140,0.098,,,,2.55442195
1715672297892623090,0.113,,,,2.5621159
1715672297900317040,0.129,,,,2.56980985
1715672297908010990,0.144,,,,2.5775038
1715672297915704940,0.161,,,,2.58519775
1715672297923398890,0.168,,,,2.5928917
1715672297931092840,0.168,,,,2.60058565
1715672297938786790,0.17,,,,2.6082796
1715672297946480740,0.173,,,,2.61597355
1715672297954174690,0.168,,,,2.6236675
1715672297961868640,0.17,,,,2.63136145
1715672297969562590,0.168,,,,2.6390554
1715672297977256540,0.156,,,,2.64674935
1715672297984950490,0.141,,,,2.6544433
1715672297992644440,0.125,,,,2.66213725
1715672298000338390,0.098,,,,2.6698312
1715672298008032340,0.081,,,,2.67752515
1715672298015726290,0.069,,,,2.6852191
1715672298023420240,0.055,,,,2.69291305
1715672298031114190,0.05,,,,2.700607
1715672298038808140,0.055,,,,2.70830095
1715672298046502090,0.057,,,,2.7159949
1715672298054196040,0.064,,,,2.72368885
1715672298061889990,0.069,,,,2.7313828
1715672298069583940,0.076,,,,2.73907675
1715672298077277890,0.084,,,,2.7467707
1715672298084971840,0.091,,,,2.75446465
1715672298092665790,0.091,,,,2.7621586
1715672298100359740,0.091,,,,2.76985255
1715672298108053690,0.091,,,,2.7775465
1715672298115747640,0.091,,,,2.78524045
1715672298123441590,0.086,,,,2.7929344
1715672298131135540,0.081,,,,2.80062835
1715672298138829498,0.074,94.0,649.0,,2.808322308
1715672298146523448,0.074,,632.0,,2.816016258
1715672298154217398,0.074,,,,2.823710208
1715672298161911348,0.067,,,,2.831404158
1715672298169605298,0.06,,,,2.839098108
1715672298177299248,0.064,,,,2.846792058
1715672298184993198,0.067,,,,2.854486008
1715672298192687148,0.062,,,,2.862179958
1715672298200381098,0.057,,,,2.869873908
1715672298208075048,0.048,,,,2.877567858
1715672298215768998,0.033,,,,2.885261808
1715672298223462948,0.033,,,,2.892955758
1715672298231156898,0.05,,,,2.900649708
1715672298238850848,0.064,,,,2.908343658
1715672298246544798,0.069,,,,2.916037608
1715672298254238748,0.064,,,,2.923731558
1715672298261932698,0.06,,,,2.931425508
1715672298269626648,0.057,,,,2.939119458
1715672298277320598,0.06,,,,2.946813408
1715672298285014548,0.064,,,,2.954507358
1715672298292708498,0.069,,,,2.962201308
1715672298300402448,0.076,,,,2.969895258
1715672298308096398,0.081,,,,2.977589208
1715672298315790348,0.086,,,,2.985283158
1715672298323484298,0.125,,,,2.992977108
1715672298331178248,0.322,,,,3.000671058
1715672298338872198,0.812,,,,3.008365008
1715672298346566148,1.45,,,,3.016058958
1715672298354260098,1.623,,,,3.023752908
1715672298361954048,0.776,,,,3.031446858
1715672298369647998,-0.247,,,,3.039140808
1715672298377341948,-0.242,,,,3.046834758
1715672298385035898,0.091,,,,3.054528708
1715672298392729848,-0.048,,,,3.062222658
1715672298400423798,-0.137,,,,3.069916608
1715672298408117748,-0.014,,,,3.077610558
1715672298415811698,-0.014,,,,3.085304508
1715672298423505648,-0.057,,,,3.092998458
1715672298431199598,-0.021,,,,3.100692408
1715672298438893548,0.0,,,,3.108386358
1715672298446587498,-0.007,,,,3.116080308
1715672298454281448,0.002,,,,3.123774258
1715672298461975398,0.016,,,,3.131468208
1715672298469669348,0.026,,,,3.139162158
1715672298477363298,0.033,,,,3.146856108
1715672298485057248,0.045,,,,3.154550058
1715672298492751198,0.06,,,,3.162244008
1715672298500445148,0.079,,,,3.169937958
1715672298508139098,0.096,,,,3.177631908
1715672298515833048,0.105,,,,3.185325858
1715672298523526998,0.113,,,,3.193019808
1715672298531220948,0.12,,,,3.200713758
1715672298538914898,0.125,,,,3.208407708
1715672298546608848,0.134,,,,3.216101658
1715672298554302798,0.137,,,,3.223795608
1715672298561996748,0.137,,,,3.231489558
1715672298569690698,0.134,,,,3.239183508
1715672298577384648,0.132,,,,3.246877458
1715672298585078598,0.129,,,,3.254571408
1715672298592772548,0.125,,,,3.262265358
1715672298600466498,0.11,,,,3.269959308
1715672298608160448,0.091,,,,3.277653258
1715672298615854398,0.067,,,,3.285347208
1715672298623548348,0.045,,,,3.293041158
1715672298631242298,0.04,,,,3.300735108
1715672298638936248,0.036,,,,3.308429058
1715672298646630198,0.036,,,,3.316123008
1715672298654324148,0.045,,,,3.323816958
1715672298662018098,0.05,,,,3.331510908
1715672298669712048,0.048,,,,3.339204858
1715672298677405998,0.057,,,,3.346898808
1715672298685099948,0.067,,,,3.354592758
1715672298692793898,0.069,,,,3.362286708
1715672298700487858,0.074,,,,3.369980668
1715672298708182086,0.074,,,,3.377674896
1715672298715876314,0.064,,,,3.385369124
1715672298723570542,0.062,,,,3.393063352
1715672298731264770,0.067,,,,3.40075758
1715672298738958998,0.062,,,,3.408451808
1715672298746653226,0.052,,,,3.416146036
1715672298754347454,0.05,,,,3.423840264
1715672298762041682,0.045,,,,3.431534492
1715672298769735910,0.04,,,,3.43922872
1715672298777430138,0.04,,,,3.446922948
1715672298785124366,0.031,,,,3.454617176
1715672298792818594,0.024,,,,3.462311404
1715672298800512822,0.021,,,,3.470005632
1715672298808207050,0.014,,,,3.47769986
1715672298815901278,0.004,,,,3.485394088
1715672298823595506,0.007,,,,3.493088316
1715672298831289734,0.026,,,,3.500782544
1715672298838983962,0.052,,,,3.508476772
1715672298846678190,0.064,,,,3.516171
1715672298854372418,0.057,,,,3.523865228
1715672298862066646,0.043,,,,3.531559456
1715672298869760874,0.04,,,,3.539253684
1715672298877455102,0.045,,,,3.546947912
1715672298885149330,0.05,,,,3.55464214
1715672298892843558,0.06,,,,3.562336368
1715672298900537786,0.064,,,,3.570030596
1715672298908232014,0.064,,,,3.577724824
1715672298915926242,0.069,,,,3.585419052
1715672298923620470,0.084,,,,3.59311328
1715672298931314698,0.194,,,,3.600807508
1715672298939008926,0.584,,,,3.608501736
1715672298946703154,1.202,,,,3.616195964
1715672298954397382,1.572,,,,3.623890192
1715672298962091610,1.053,,,,3.63158442
1715672298969785838,-0.007,,,,3.639278648
1715672298977480066,-0.312,,,,3.646972876
1715672298985174294,0.033,,,,3.654667104
1715672298992868522,0.026,,,,3.662361332
1715672299000562750,-0.127,,,,3.67005556
1715672299008256978,-0.04,,,,3.677749788
1715672299015951206,0.004,,,,3.685444016
1715672299023645434,-0.045,,,,3.693138244
1715672299031339662,-0.028,,,,3.700832472
1715672299039033890,0.007,,,,3.7085267
1715672299046728118,0.0,,,,3.716220928
1715672299054422346,0.004,,,,3.723915156
1715672299062116574,0.016,,,,3.731609384
1715672299069810802,0.026,,,,3.739303612
1715672299077505030,0.038,,,,3.74699784
1715672299085199258,0.05,,,,3.754692068
1715672299092893486,0.06,,,,3.762386296
1715672299100587714,0.076,,,,3.770080524
1715672299108281942,0.086,,,,3.777774752
1715672299115976170,0.093,,,,3.78546898
1715672299123670398,0.108,,,,3.793163208
1715672299131364626,0.12,,,,3.800857436
1715672299139058854,0.125,,,,3.808551664
1715672299146753082,0.127,,,,3.816245892
1715672299154447310,0.132,,,,3.82394012
1715672299162141538,0.132,,,,3.831634348
1715672299169835766,0.144,,,,3.839328576
1715672299177529994,0.151,,,,3.847022804
1715672299185224222,0.141,,,,3.854717032
1715672299192918450,0.132,,,,3.86241126
1715672299200612678,0.125,,,,3.870105488
1715672299208306906,0.105,,,,3.877799716
1715672299216001134,0.074,,,,3.885493944
1715672299223695362,0.048,,,,3.893188172
1715672299231389590,0.038,,,,3.9008824
1715672299239083818,0.033,,,,3.908576628
1715672299246778046,0.036,,,,3.916270856
1715672299254472274,0.043,,,,3.923965084
1715672299262166562,0.045,94.0,604.0,,3.931659372
1715672299269860651,0.048,,,,3.939353461
1715672299277554740,0.055,,,,3.94704755
1715672299285248829,0.062,,,,3.954741639
1715672299292942918,0.069,,,,3.962435728
1715672299300637007,0.072,,,,3.970129817
1715672299308331096,0.064,,,,3.977823906
1715672299316025185,0.062,,,,3.985517995
1715672299323719274,0.067,,,,3.993212084
1715672299331413363,0.069,,,,4.000906173
1715672299339107452,0.064,,,,4.008600262
1715672299346801541,0.064,,,,4.016294351
1715672299354495630,0.064,,,,4.02398844
1715672299362189719,0.062,,,,4.031682529
1715672299369883808,0.055,,,,4.039376618
1715672299377577897,0.052,,,,4.047070707
1715672299385271986,0.052,,,,4.054764796
1715672299392966075,0.045,,,,4.062458885
1715672299400660164,0.04,,,,4.070152974
1715672299408354253,0.038,,,,4.077847063
1715672299416048342,0.031,,,,4.085541152
1715672299423742431,0.024,,,,4.093235241
1715672299431436520,0.024,,,,4.10092933
1715672299439130609,0.016,,,,4.108623419
1715672299446824698,0.002,,,,4.116317508
1715672299454518787,0.016,,,,4.124011597
1715672299462212876,0.048,,,,4.131705686
1715672299469906965,0.06,,,,4.139399775
1715672299477601054,0.05,,,,4.147093864
1715672299485295143,0.043,,,,4.154787953
1715672299492989232,0.048,,,,4.162482042
1715672299500683321,0.045,,,,4.170176131
1715672299508377410,0.043,,,,4.17787022
1715672299516071499,0.05,,,,4.185564309
1715672299523765588,0.055,,,,4.193258398
1715672299531459677,0.055,,,,4.200952487
1715672299539153766,0.062,,,,4.208646576
1715672299546847855,0.081,,,,4.216340665
1715672299554541944,0.187,,,,4.224034754
1715672299562236033,0.545,,,,4.231728843
1715672299569930122,1.115,,,,4.239422932
1715672299577624211,1.483,,,,4.247117021
1715672299585318300,1.026,,,,4.25481111
1715672299593012389,-0.009,,,,4.262505199
1715672299600706478,-0.341,,,,4.270199288
1715672299608400567,0.002,,,,4.277893377
1715672299616094656,0.012,,,,4.285587466
1715672299623788745,-0.139,,,,4.293281555
1715672299631482834,-0.062,,,,4.300975644
1715672299639176923,-0.012,,,,4.308669733
1715672299646871012,-0.06,,,,4.316363822
1715672299654565101,-0.045,,,,4.324057911
1715672299662259190,-0.009,,,,4.331752
1715672299669953279,-0.012,,,,4.339446089
1715672299677647368,-0.009,,,,4.347140178
1715672299685341457,0.004,,,,4.354834267
1715672299693035546,0.016,,,,4.362528356
1715672299700729635,0.031,,,,4.370222445
1715672299708423724,0.043,,,,4.377916534
1715672299716117813,0.045,,,,4.385610623
1715672299723811902,0.055,,,,4.393304712
1715672299731505991,0.072,,,,4.400998801
1715672299739200080,0.086,,,,4.40869289
1715672299746894169,0.096,,,,4.416386979
1715672299754588258,0.11,,,,4.424081068
1715672299762282347,0.132,,,,4.431775157
1715672299769976436,0.139,,,,4.439469246
1715672299777670525,0.139,,,,4.447163335
1715672299785364614,0.146,,,,4.454857424
1715672299793058703,0.153,,,,4.462551513
1715672299800752792,0.153,,,,4.470245602
1715672299808446881,0.153,,,,4.477939691
1715672299816140970,0.144,,,,4.48563378
1715672299823835092,0.127,,,,4.493327902
1715672299831529042,0.108,,,,4.501021852
1715672299839222992,0.088,,,,4.508715802
1715672299846916942,0.067,,,,4.516409752
1715672299854610892,0.048,,,,4.524103702
1715672299862304842,0.036,,,,4.531797652
1715672299869998792,0.031,,,,4.539491602
1715672299877692742,0.033,,,,4.547185552
1715672299885386692,0.033,,,,4.554879502
1715672299893080642,0.031,,,,4.562573452
1715672299900774592,0.036,,,,4.570267402
1715672299908468542,0.048,,,,4.577961352
1715672299916162492,0.048,,,,4.585655302
1715672299923856442,0.055,,,,4.593349252
1715672299931550392,0.064,,,,4.601043202
1715672299939244342,0.069,,,,4.608737152
1715672299946938292,0.074,,,,4.616431102
1715672299954632242,0.074,,,,4.624125052
1715672299962326192,0.067,,,,4.631819002
1715672299970020142,0.067,,,,4.639512952
1715672299977714092,0.072,,,,4.647206902
1715672299985408042,0.064,,,,4.654900852
1715672299993101992,0.057,,,,4.662594802
1715672300000795942,0.052,,,,4.670288752
1715672300008489892,0.043,,,,4.677982702
1715672300016183842,0.036,,,,4.685676652
1715672300023877792,0.038,,,,4.693370602
1715672300031571742,0.055,,,,4.701064552
1715672300039265692,0.074,,,,4.708758502
1715672300046959642,0.074,,,,4.716452452
1715672300054653592,0.064,,,,4.724146402
1715672300062347542,0.06,,,,4.731840352
1715672300070041492,0.06,,,,4.739534302
1715672300077735442,0.057,,,,4.747228252
1715672300085429392,0.062,,,,4.754922202
1715672300093123342,0.064,,,,4.762616152
1715672300100817292,0.06,,,,4.770310102
1715672300108511242,0.067,,,,4.778004052
1715672300116205192,0.074,,,,4.785698002
1715672300123899142,0.093,,,,4.793391952
1715672300131593092,0.303,,,,4.801085902
1715672300139287042,0.856,,,,4.808779852
1715672300146980992,1.517,,,,4.816473802
1715672300154674942,1.603,,,,4.824167752
1715672300162368892,0.675,,,,4.831861702
1715672300170062842,-0.271,,,,4.839555652
1715672300177756792,-0.182,,,,4.847249602
1715672300185450742,0.098,,,,4.854943552
1715672300193144692,-0.072,,,,4.862637502
1715672300200838642,-0.127,,,,4.870331452
1715672300208532592,-0.007,,,,4.878025402
1715672300216226542,-0.026,,,,4.885719352
1715672300223920492,-0.069,,,,4.893413302
1715672300231614442,-0.028,,,,4.901107252
1715672300239308392,-0.009,,,,4.908801202
1715672300247002342,-0.014,,,,4.916495152
1715672300254696292,0.0,,,,4.924189102
1715672300262390242,0.014,,,,4.931883052
1715672300270084192,0.024,,,,4.939577002
1715672300277778142,0.036,,,,4.947270952
1715672300285472092,0.045,,,,4.954964902
1715672300293166042,0.055,,,,4.962658852
1715672300300859992,0.074,,,,4.970352802
1715672300308553942,0.093,,,,4.978046752
1715672300316247892,0.101,,,,4.985740702
1715672300323941842,0.113,,,,4.993434652
1715672300331635792,0.132,,,,5.001128602
1715672300339329742,0.139,,,,5.008822552
1715672300347023692,0.141,,,,5.016516502
1715672300354717642,0.146,,,,5.024210452
1715672300362411592,0.151,,,,5.031904402
1715672300370105542,0.153,,,,5.039598352
1715672300377799492,0.156,,,,5.047292302
1715672300385493450,0.153,95.0,611.0,,5.05498626
1715672300393187818,0.139,,603.0,,5.062680628
1715672300400882186,0.113,,,,5.070374996
1715672300408576554,0.096,,,,5.078069364
1715672300416270922,0.088,,,,5.085763732
1715672300423965290,0.074,,,,5.0934581
1715672300431659658,0.06,,,,5.101152468
1715672300439354026,0.057,,,,5.108846836
1715672300447048394,0.069,,,,5.116541204
1715672300454742762,0.072,,,,5.124235572
1715672300462437130,0.064,,,,5.13192994
1715672300470131498,0.072,,,,5.139624308
1715672300477825866,0.084,,,,5.147318676
1715672300485520234,0.091,,,,5.155013044
1715672300493214602,0.091,,,,5.162707412
1715672300500908970,0.091,,,,5.17040178
1715672300508603338,0.086,,,,5.178096148
1715672300516297706,0.084,,,,5.185790516
1715672300523992074,0.088,,,,5.193484884
1715672300531686442,0.093,,,,5.201179252
1715672300539380810,0.091,,,,5.20887362
1715672300547075178,0.086,,,,5.216567988
1715672300554769546,0.086,,,,5.224262356
1715672300562463914,0.081,,,,5.231956724
1715672300570158282,0.079,,,,5.239651092
1715672300577852650,0.081,,,,5.24734546
1715672300585547018,0.086,,,,5.255039828
1715672300593241386,0.086,,,,5.262734196
1715672300600935754,0.076,,,,5.270428564
1715672300608630122,0.069,,,,5.278122932
1715672300616324490,0.067,,,,5.2858173
1715672300624018858,0.064,,,,5.293511668
1715672300631713226,0.062,,,,5.301206036
1715672300639407594,0.081,,,,5.308900404
1715672300647101962,0.11,,,,5.316594772
1715672300654796330,0.122,,,,5.32428914
1715672300662490698,0.113,,,,5.331983508
1715672300670185066,0.096,,,,5.339677876
1715672300677879434,0.093,,,,5.347372244
1715672300685573802,0.096,,,,5.355066612
1715672300693268170,0.093,,,,5.36276098
1715672300700962538,0.093,,,,5.370455348
1715672300708656906,0.096,,,,5.378149716
1715672300716351274,0.098,,,,5.385844084
1715672300724045642,0.098,,,,5.393538452
1715672300731740010,0.108,,,,5.40123282
1715672300739434378,0.226,,,,5.408927188
1715672300747128746,0.62,,,,5.416621556
1715672300754823114,1.248,,,,5.424315924
1715672300762517482,1.644,,,,5.432010292
1715672300770211850,1.135,,,,5.43970466
1715672300777906218,0.031,,,,5.447399028
1715672300785600586,-0.319,,,,5.455093396
1715672300793294954,0.024,,,,5.462787764
1715672300800989322,0.031,,,,5.470482132
1715672300808683690,-0.122,,,,5.4781765
1715672300816378058,-0.04,,,,5.485870868
1715672300824072426,0.004,,,,5.493565236
1715672300831766794,-0.043,,,,5.501259604
1715672300839461162,-0.028,,,,5.508953972
1715672300847155530,0.0,,,,5.51664834
1715672300854849898,-0.007,,,,5.524342708
1715672300862544266,0.0,,,,5.532037076
1715672300870238634,0.021,,,,5.539731444
1715672300877933002,0.028,,,,5.547425812
1715672300885627370,0.033,,,,5.55512018
1715672300893321738,0.048,,,,5.562814548
1715672300901016106,0.064,,,,5.570508916
1715672300908710474,0.076,,,,5.578203284
1715672300916404842,0.091,,,,5.585897652
1715672300924099210,0.108,,,,5.59359202
1715672300931793578,0.12,,,,5.601286388
1715672300939487946,0.129,,,,5.608980756
1715672300947182326,0.141,,,,5.616675136
1715672300954876276,0.149,,,,5.624369086
1715672300962570226,0.149,,,,5.632063036
1715672300970264176,0.153,,,,5.639756986
1715672300977958126,0.158,,,,5.647450936
1715672300985652076,0.163,,,,5.655144886
1715672300993346026,0.163,,,,5.662838836
1715672301001039976,0.149,,,,5.670532786
1715672301008733926,0.125,,,,5.678226736
1715672301016427876,0.113,,,,5.685920686
1715672301024121826,0.096,,,,5.693614636
1715672301031815776,0.072,,,,5.701308586
1715672301039509726,0.064,,,,5.709002536
1715672301047203676,0.069,,,,5.716696486
1715672301054897626,0.062,,,,5.724390436
1715672301062591576,0.057,,,,5.732084386
1715672301070285526,0.064,,,,5.739778336
1715672301077979476,0.069,,,,5.747472286
1715672301085673426,0.069,,,,5.755166236
1715672301093367376,0.069,,,,5.762860186
1715672301101061326,0.069,,,,5.770554136
1715672301108755276,0.076,,,,5.778248086
1715672301116449226,0.079,,,,5.785942036
1715672301124143176,0.076,,,,5.793635986
1715672301131837126,0.074,,,,5.801329936
1715672301139531076,0.076,,,,5.809023886
1715672301147225026,0.081,,,,5.816717836
1715672301154918976,0.079,,,,5.824411786
1715672301162612926,0.072,,,,5.832105736
1715672301170306876,0.067,,,,5.839799686
1715672301178000826,0.064,,,,5.847493636
1715672301185694776,0.064,,,,5.855187586
1715672301193388726,0.069,,,,5.862881536
1715672301201082676,0.069,,,,5.870575486
1715672301208776626,0.057,,,,5.878269436
1715672301216470576,0.052,,,,5.885963386
1715672301224164526,0.055,,,,5.893657336
1715672301231858476,0.028,,,,5.901351286
1715672301239552426,-0.002,,,,5.909045236
1715672301247246376,0.019,,,,5.916739186
1715672301254940326,0.057,,,,5.924433136
1715672301262634276,0.067,,,,5.932127086
1715672301270328226,0.057,,,,5.939821036
1715672301278022176,0.048,,,,5.947514986
1715672301285716126,0.036,,,,5.955208936
1715672301293410076,0.031,,,,5.962902886
1715672301301104026,0.031,,,,5.970596836
1715672301308797976,0.031,,,,5.978290786
1715672301316491926,0.033,,,,5.985984736
1715672301324185876,0.036,,,,5.993678686
1715672301331879826,0.038,,,,6.001372636
1715672301339573776,0.045,,,,6.009066586
1715672301347267726,0.074,,,,6.016760536
1715672301354961676,0.23,,,,6.024454486
1715672301362655626,0.668,,,,6.032148436
1715672301370349576,1.284,,,,6.039842386
1715672301378043526,1.546,,,,6.047536336
1715672301385737476,0.872,,,,6.055230286
1715672301393431426,-0.163,,,,6.062924236
1715672301401125376,-0.312,,,,6.070618186
1715672301408819326,0.036,,,,6.078312136
1715672301416513276,-0.036,,,,6.086006086
1715672301424207226,-0.158,,,,6.093700036
1715672301431901176,-0.057,,,,6.101393986
1715672301439595126,-0.036,,,,6.109087936
1715672301447289076,-0.079,,,,6.116781886
1715672301454983026,-0.05,,,,6.124475836
1715672301462676976,-0.026,,,,6.132169786
1715672301470370926,-0.028,,,,6.139863736
1715672301478064876,-0.019,,,,6.147557686
1715672301485758826,-0.007,,,,6.155251636
1715672301493452776,-0.002,,,,6.162945586
1715672301501146726,0.012,,,,6.170639536
1715672301508840684,0.026,96.0,623.0,,6.178333494
1715672301516534634,0.033,,574.0,,6.186027444
1715672301524228584,0.043,,,,6.193721394
1715672301531922534,0.06,,,,6.201415344
1715672301539616484,0.067,,,,6.209109294
1715672301547310434,0.072,,,,6.216803244
1715672301555004384,0.091,,,,6.224497194
1715672301562698334,0.105,,,,6.232191144
1715672301570392284,0.103,,,,6.239885094
1715672301578086234,0.098,,,,6.247579044
1715672301585780184,0.103,,,,6.255272994
1715672301593474134,0.113,,,,6.262966944
1715672301601168084,0.11,,,,6.270660894
1715672301608862034,0.108,,,,6.278354844
1715672301616555984,0.11,,,,6.286048794
1715672301624249934,0.093,,,,6.293742744
1715672301631943884,0.067,,,,6.301436694
1715672301639637834,0.055,,,,6.309130644
1715672301647331784,0.048,,,,6.316824594
1715672301655025734,0.033,,,,6.324518544
1715672301662719684,0.021,,,,6.332212494
1715672301670413634,0.019,,,,6.339906444
1715672301678107584,0.026,,,,6.347600394
1715672301685801534,0.033,,,,6.355294344
1715672301693495484,0.04,,,,6.362988294
1715672301701189434,0.048,,,,6.370682244
1715672301708883384,0.05,,,,6.378376194
1715672301716577334,0.052,,,,6.386070144
1715672301724271284,0.05,,,,6.393764094
1715672301731965234,0.048,,,,6.401458044
1715672301739659184,0.055,,,,6.409151994
1715672301747353134,0.055,,,,6.416845944
1715672301755047084,0.043,,,,6.424539894
1715672301762741034,0.04,,,,6.432233844
1715672301770434984,0.043,,,,6.439927794
1715672301778128934,0.038,,,,6.447621744
1715672301785822884,0.04,,,,6.455315694
1715672301793516834,0.043,,,,6.463009644
1715672301801210784,0.033,,,,6.470703594
1715672301808904734,0.028,,,,6.478397544
1715672301816598684,0.033,,,,6.486091494
1715672301824292634,0.028,,,,6.493785444
1715672301831986584,0.019,,,,6.501479394
1715672301839680534,0.009,,,,6.509173344
1715672301847374484,0.009,,,,6.516867294
1715672301855068434,0.028,,,,6.524561244
1715672301862762384,0.052,,,,6.532255194
1715672301870456334,0.064,,,,6.539949144
1715672301878150284,0.062,,,,6.547643094
1715672301885844234,0.052,,,,6.555337044
1715672301893538184,0.04,,,,6.563030994
1715672301901232134,0.031,,,,6.570724944
1715672301908926084,0.033,,,,6.578418894
1715672301916620034,0.045,,,,6.586112844
1715672301924313984,0.048,,,,6.593806794
1715672301932007934,0.048,,,,6.601500744
1715672301939701884,0.057,,,,6.609194694
1715672301947395834,0.069,,,,6.616888644
1715672301955089784,0.139,,,,6.624582594
1715672301962783734,0.449,,,,6.632276544
1715672301970477684,1.024,,,,6.639970494
1715672301978171634,1.522,,,,6.647664444
1715672301985865584,1.25,,,,6.655358394
1715672301993559534,0.189,,,,6.663052344
1715672302001253484,-0.36,,,,6.670746294
1715672302008947434,-0.043,,,,6.678440244
1715672302016641384,0.06,,,,6.686134194
1715672302024335334,-0.125,,,,6.693828144
1715672302032029284,-0.074,,,,6.701522094
1715672302039723234,0.009,,,,6.709216044
1715672302047417184,-0.033,,,,6.716909994
1715672302055111134,-0.031,,,,6.724603944
1715672302062805084,0.002,,,,6.732297894
1715672302070499044,-0.002,,,,6.739991854
1715672302078192994,-0.002,,,,6.747685804
1715672302085886944,0.014,,,,6.755379754
1715672302093580894,0.028,,,,6.763073704
1715672302101274844,0.04,,,,6.770767654
1715672302108968794,0.048,,,,6.778461604
1715672302116662744,0.055,,,,6.786155554
1715672302124356694,0.072,,,,6.793849504
1715672302132050644,0.084,,,,6.801543454
1715672302139744594,0.086,,,,6.809237404
1715672302147438544,0.093,,,,6.816931354
1715672302155132494,0.11,,,,6.824625304
1715672302162826444,0.122,,,,6.832319254
1715672302170520394,0.12,,,,6.840013204
1715672302178214344,0.12,,,,6.847707154
1715672302185908294,0.132,,,,6.855401104
1715672302193602244,0.132,,,,6.863095054
1715672302201296194,0.122,,,,6.870789004
1715672302208990144,0.12,,,,6.878482954
1715672302216684094,0.113,,,,6.886176904
1715672302224378044,0.096,,,,6.893870854
1715672302232071994,0.067,,,,6.901564804
1715672302239765944,0.038,,,,6.909258754
1715672302247459894,0.021,,,,6.916952704
1715672302255153844,0.012,,,,6.924646654
1715672302262847794,0.0,,,,6.932340604
1715672302270541744,-0.004,,,,6.940034554
1715672302278235694,0.002,,,,6.947728504
1715672302285929644,0.009,,,,6.955422454
1715672302293623594,0.014,,,,6.963116404
1715672302301317544,0.019,,,,6.970810354
1715672302309011494,0.024,,,,6.978504304
1715672302316705444,0.026,,,,6.986198254
1715672302324399394,0.028,,,,6.993892204
1715672302332093344,0.036,,,,7.001586154
1715672302339787294,0.04,,,,7.009280104
1715672302347481244,0.036,,,,7.016974054
1715672302355175194,0.033,,,,7.024668004
1715672302362869144,0.036,,,,7.032361954
1715672302370563094,0.038,,,,7.040055904
1715672302378257044,0.038,,,,7.047749854
1715672302385950994,0.036,,,,7.055443804
1715672302393644944,0.036,,,,7.063137754
1715672302401338894,0.038,,,,7.070831704
1715672302409032844,0.036,,,,7.078525654
1715672302416726794,0.028,,,,7.086219604
1715672302424420744,0.024,,,,7.093913554
1715672302432114694,0.024,,,,7.101607504
1715672302439808644,0.024,,,,7.109301454
1715672302447502594,0.026,,,,7.116995404
1715672302455196544,0.04,,,,7.124689354
1715672302462890494,0.064,,,,7.132383304
1715672302470584444,0.076,,,,7.140077254
1715672302478278394,0.057,,,,7.147771204
1715672302485972344,0.048,,,,7.155465154
1715672302493666294,0.055,,,,7.163159104
1715672302501360244,0.052,,,,7.170853054
1715672302509054194,0.05,,,,7.178547004
1715672302516748144,0.057,,,,7.186240954
1715672302524442094,0.064,,,,7.193934904
1715672302532136044,0.067,,,,7.201628854
1715672302539829994,0.079,,,,7.209322804
1715672302547523944,0.175,,,,7.217016754
1715672302555217894,0.541,,,,7.224710704
1715672302562911844,1.173,,,,7.232404654
1715672302570605794,1.654,,,,7.240098604
1715672302578299744,1.25,,,,7.247792554
1715672302585993694,0.101,,,,7.255486504
1715672302593687644,-0.37,,,,7.263180454
1715672302601381594,-0.007,,,,7.270874404
1715672302609075544,0.043,,,,7.278568354
1715672302616769494,-0.146,,,,7.286262304
1715672302624463444,-0.076,,,,7.293956254
1715672302632157402,-0.004,97.0,611.0,,7.301650212
1715672302639851561,-0.057,,,,7.309344371
1715672302647545720,-0.052,,,,7.31703853
1715672302655239879,-0.012,,,,7.324732689
1715672302662934038,-0.014,,,,7.332426848
1715672302670628197,-0.012,,,,7.340121007
1715672302678322356,0.004,,,,7.347815166
1715672302686016515,0.007,,,,7.355509325
1715672302693710674,0.014,,,,7.363203484
1715672302701404833,0.038,,,,7.370897643
1715672302709098992,0.048,,,,7.378591802
1715672302716793151,0.052,,,,7.386285961
1715672302724487310,0.067,,,,7.39398012
1715672302732181469,0.079,,,,7.401674279
1715672302739875628,0.072,,,,7.409368438
1715672302747569787,0.074,,,,7.417062597
1715672302755263946,0.091,,,,7.424756756
1715672302762958105,0.103,,,,7.432450915
1715672302770652264,0.103,,,,7.440145074
1715672302778346423,0.105,,,,7.447839233
1715672302786040582,0.11,,,,7.455533392
1715672302793734741,0.113,,,,7.463227551
1715672302801428900,0.11,,,,7.47092171
1715672302809123059,0.098,,,,7.478615869
1715672302816817218,0.081,,,,7.486310028
1715672302824511377,0.062,,,,7.494004187
1715672302832205536,0.045,,,,7.501698346
1715672302839899695,0.033,,,,7.509392505
1715672302847593854,0.024,,,,7.517086664
1715672302855288013,0.019,,,,7.524780823
1715672302862982172,0.019,,,,7.532474982
1715672302870676331,0.024,,,,7.540169141
1715672302878370490,0.036,,,,7.5478633
1715672302886064649,0.043,,,,7.555557459
1715672302893758808,0.045,,,,7.563251618
1715672302901452967,0.052,,,,7.570945777
1715672302909147126,0.064,,,,7.578639936
1715672302916841285,0.067,,,,7.586334095
1715672302924535444,0.067,,,,7.594028254
1715672302932229603,0.072,,,,7.601722413
1715672302939923762,0.072,,,,7.609416572
1715672302947617921,0.069,,,,7.617110731
1715672302955312080,0.067,,,,7.62480489
1715672302963006239,0.064,,,,7.632499049
1715672302970700398,0.067,,,,7.640193208
1715672302978394557,0.064,,,,7.647887367
1715672302986088716,0.062,,,,7.655581526
1715672302993782875,0.062,,,,7.663275685
1715672303001477034,0.06,,,,7.670969844
1715672303009171193,0.05,,,,7.678664003
1715672303016865352,0.048,,,,7.686358162
1715672303024559511,0.043,,,,7.694052321
1715672303032253670,0.045,,,,7.70174648
1715672303039947829,0.06,,,,7.709440639
1715672303047641988,0.076,,,,7.717134798
1715672303055336147,0.081,,,,7.724828957
1715672303063030306,0.074,,,,7.732523116
1715672303070724465,0.067,,,,7.740217275
1715672303078418624,0.069,,,,7.747911434
1715672303086112783,0.074,,,,7.755605593
1715672303093806942,0.079,,,,7.763299752
1715672303101501101,0.079,,,,7.770993911
1715672303109195260,0.079,,,,7.77868807
1715672303116889419,0.086,,,,7.786382229
1715672303124583578,0.091,,,,7.794076388
1715672303132277737,0.122,,,,7.801770547
1715672303139971896,0.343,,,,7.809464706
1715672303147666055,0.894,,,,7.817158865
1715672303155360214,1.56,,,,7.824853024
1715672303163054373,1.649,,,,7.832547183
1715672303170748532,0.6920000000000001,,,,7.840241342
1715672303178442691,-0.281,,,,7.847935501
1715672303186136850,-0.192,,,,7.85562966
1715672303193831020,0.101,98.0,614.0,,7.86332383
1715672303201525179,-0.069,,604.0,,7.871017989
1715672303209219338,-0.127,,,,7.878712148
1715672303216913497,-0.009,,,,7.886406307
1715672303224607656,-0.028,,,,7.894100466
1715672303232301815,-0.062,,,,7.901794625
1715672303239995974,-0.028,,,,7.909488784
1715672303247690133,-0.026,,,,7.917182943
1715672303255384292,-0.036,,,,7.924877102
1715672303263078451,-0.016,,,,7.932571261
1715672303270772610,0.0,,,,7.94026542
1715672303278466769,0.002,,,,7.947959579
1715672303286160928,0.009,,,,7.955653738
1715672303293855087,0.028,,,,7.963347897
1715672303301549246,0.038,,,,7.971042056
1715672303309243405,0.043,,,,7.978736215
1715672303316937564,0.055,,,,7.986430374
1715672303324631723,0.074,,,,7.994124533
1715672303332325882,0.088,,,,8.001818692
1715672303340020041,0.096,,,,8.009512851
1715672303347714200,0.098,,,,8.01720701
1715672303355408359,0.103,,,,8.024901169
1715672303363102518,0.108,,,,8.032595328
1715672303370796677,0.105,,,,8.040289487
1715672303378490836,0.103,,,,8.047983646
1715672303386184995,0.11,,,,8.055677805
1715672303393879154,0.11,,,,8.063371964
1715672303401573313,0.098,,,,8.071066123
1715672303409267472,0.076,,,,8.078760282
1715672303416961631,0.062,,,,8.086454441
1715672303424655790,0.052,,,,8.0941486
1715672303432349949,0.04,,,,8.101842759
1715672303440044108,0.033,,,,8.109536918
1715672303447738267,0.036,,,,8.117231077
1715672303455432426,0.038,,,,8.124925236
1715672303463126585,0.04,,,,8.132619395
1715672303470820744,0.05,,,,8.140313554
1715672303478514903,0.06,,,,8.148007713
1715672303486209062,0.064,,,,8.155701872
1715672303493903221,0.067,,,,8.163396031
1715672303501597380,0.076,,,,8.17109019
1715672303509291539,0.081,,,,8.178784349
1715672303516985698,0.076,,,,8.186478508
1715672303524679857,0.076,,,,8.194172667
1715672303532374016,0.079,,,,8.201866826
1715672303540068175,0.076,,,,8.209560985
1715672303547762334,0.072,,,,8.217255144
1715672303555456493,0.067,,,,8.224949303
1715672303563150652,0.064,,,,8.232643462
1715672303570844811,0.064,,,,8.240337621
1715672303578538970,0.062,,,,8.24803178
1715672303586233129,0.064,,,,8.255725939
1715672303593927288,0.067,,,,8.263420098
1715672303601621447,0.062,,,,8.271114257
1715672303609315606,0.06,,,,8.278808416
1715672303617009765,0.06,,,,8.286502575
1715672303624703924,0.057,,,,8.294196734
1715672303632398083,0.05,,,,8.301890893
1715672303640092242,0.048,,,,8.309585052
1715672303647786401,0.057,,,,8.317279211
1715672303655480560,0.079,,,,8.32497337
1715672303663174719,0.096,,,,8.332667529
1715672303670868878,0.101,,,,8.340361688
1715672303678563037,0.086,,,,8.348055847
1715672303686257196,0.074,,,,8.355750006
1715672303693951355,0.072,,,,8.363444165
1715672303701645514,0.072,,,,8.371138324
1715672303709339673,0.076,,,,8.378832483
1715672303717033832,0.081,,,,8.386526642
1715672303724727991,0.084,,,,8.394220801
1715672303732422150,0.093,,,,8.40191496
1715672303740116309,0.108,,,,8.409609119
1715672303747810468,0.202,,,,8.417303278
1715672303755504636,0.562,,,,8.424997446
1715672303763198586,1.192,,,,8.432691396
1715672303770892536,1.683,,,,8.440385346
1715672303778586486,1.286,,,,8.448079296
1715672303786280436,0.12,,,,8.455773246
1715672303793974386,-0.379,,,,8.463467196
1715672303801668336,-0.019,,,,8.471161146
1715672303809362286,0.043,,,,8.478855096
1715672303817056236,-0.153,,,,8.486549046
1715672303824750186,-0.081,,,,8.494242996
1715672303832444136,-0.004,,,,8.501936946
1715672303840138086,-0.062,,,,8.509630896
1715672303847832036,-0.05,,,,8.517324846
1715672303855525986,-0.014,,,,8.525018796
1715672303863219936,-0.024,,,,8.532712746
1715672303870913886,-0.019,,,,8.540406696
1715672303878607836,0.004,,,,8.548100646
1715672303886301786,0.004,,,,8.555794596
1715672303893995736,0.007,,,,8.563488546
1715672303901689686,0.021,,,,8.571182496
1715672303909383636,0.033,,,,8.578876446
1715672303917077586,0.043,,,,8.586570396
1715672303924771536,0.057,,,,8.594264346
1715672303932465486,0.074,,,,8.601958296
1715672303940159436,0.084,,,,8.609652246
1715672303947853386,0.096,,,,8.617346196
1715672303955547336,0.108,,,,8.625040146
1715672303963241286,0.115,,,,8.632734096
1715672303970935236,0.113,,,,8.640428046
1715672303978629186,0.115,,,,8.648121996
1715672303986323136,0.125,,,,8.655815946
1715672303994017086,0.129,,,,8.663509896
1715672304001711036,0.129,,,,8.671203846
1715672304009404986,0.125,,,,8.678897796
1715672304017098936,0.115,,,,8.686591746
1715672304024792886,0.101,,,,8.694285696
1715672304032486836,0.086,,,,8.701979646
1715672304040180786,0.072,,,,8.709673596
1715672304047874736,0.06,,,,8.717367546
1715672304055568686,0.057,,,,8.725061496
1715672304063262636,0.057,,,,8.732755446
1715672304070956586,0.055,,,,8.740449396
1715672304078650536,0.06,,,,8.748143346
1715672304086344486,0.074,,,,8.755837296
1715672304094038436,0.074,,,,8.763531246
1715672304101732386,0.076,,,,8.771225196
1715672304109426336,0.086,,,,8.778919146
1715672304117120286,0.091,,,,8.786613096
1715672304124814236,0.081,,,,8.794307046
1715672304132508186,0.081,,,,8.802000996
1715672304140202136,0.086,,,,8.809694946
1715672304147896086,0.088,,,,8.817388896
1715672304155590036,0.084,,,,8.825082846
1715672304163283986,0.076,,,,8.832776796
1715672304170977936,0.079,,,,8.840470746
1715672304178671886,0.086,,,,8.848164696
1715672304186365836,0.076,,,,8.855858646
1715672304194059786,0.069,,,,8.863552596
1715672304201753736,0.076,,,,8.871246546
1715672304209447686,0.074,,,,8.878940496
1715672304217141636,0.072,,,,8.886634446
1715672304224835586,0.076,,,,8.894328396
1715672304232529536,0.079,,,,8.902022346
1715672304240223486,0.072,,,,8.909716296
1715672304247917436,0.062,,,,8.917410246
1715672304255611386,0.052,,,,8.925104196
1715672304263305336,0.05,,,,8.932798146
1715672304270999286,0.074,,,,8.940492096
1715672304278693236,0.101,,,,8.948186046
1715672304286387186,0.105,,,,8.955879996
1715672304294081136,0.098,,,,8.963573946
1715672304301775086,0.084,,,,8.971267896
1715672304309469036,0.069,,,,8.978961846
1715672304317162994,0.069,99.0,592.0,,8.986655804
1715672304324857362,0.076,,588.0,,8.994350172
1715672304332551730,0.079,,,,9.00204454
1715672304340246098,0.074,,,,9.009738908
1715672304347940466,0.076,,,,9.017433276
1715672304355634834,0.088,,,,9.025127644
1715672304363329202,0.103,,,,9.032822012
1715672304371023570,0.175,,,,9.04051638
1715672304378717938,0.476,,,,9.048210748
1715672304386412306,1.043,,,,9.055905116
1715672304394106674,1.548,,,,9.063599484
1715672304401801042,1.315,,,,9.071293852
1715672304409495410,0.274,,,,9.07898822
1715672304417189778,-0.343,,,,9.086682588
1715672304424884146,-0.076,,,,9.094376956
1715672304432578514,0.06,,,,9.102071324
1715672304440272882,-0.117,,,,9.109765692
1715672304447967250,-0.088,,,,9.11746006
1715672304455661618,-0.007,,,,9.125154428
1715672304463355986,-0.052,,,,9.132848796
1715672304471050354,-0.05,,,,9.140543164
1715672304478744722,-0.009,,,,9.148237532
1715672304486439090,-0.016,,,,9.1559319
1715672304494133458,-0.019,,,,9.163626268
1715672304501827826,0.004,,,,9.171320636
1715672304509522194,0.014,,,,9.179015004
1715672304517216562,0.019,,,,9.186709372
1715672304524910930,0.031,,,,9.19440374
1715672304532605298,0.031,,,,9.202098108
1715672304540299666,0.033,,,,9.209792476
1715672304547994034,0.055,,,,9.217486844
1715672304555688402,0.074,,,,9.225181212
1715672304563382770,0.084,,,,9.23287558
1715672304571077138,0.093,,,,9.240569948
1715672304578771506,0.103,,,,9.248264316
1715672304586465874,0.108,,,,9.255958684
1715672304594160242,0.105,,,,9.263653052
1715672304601854610,0.108,,,,9.27134742
1715672304609548978,0.115,,,,9.279041788
1715672304617243346,0.117,,,,9.286736156
1715672304624937714,0.122,,,,9.294430524
1715672304632632082,0.132,,,,9.302124892
1715672304640326450,0.129,,,,9.30981926
1715672304648020818,0.115,,,,9.317513628
1715672304655715186,0.103,,,,9.325207996
1715672304663409554,0.091,,,,9.332902364
1715672304671103922,0.076,,,,9.340596732
1715672304678798290,0.064,,,,9.3482911
1715672304686492658,0.06,,,,9.355985468
1715672304694187026,0.06,,,,9.363679836
1715672304701881394,0.067,,,,9.371374204
1715672304709575762,0.072,,,,9.379068572
1715672304717270130,0.074,,,,9.38676294
1715672304724964498,0.074,,,,9.394457308
1715672304732658866,0.074,,,,9.402151676
1715672304740353234,0.069,,,,9.409846044
1715672304748047602,0.067,,,,9.417540412
1715672304755741970,0.067,,,,9.42523478
1715672304763436338,0.06,,,,9.432929148
1715672304771130706,0.048,,,,9.440623516
1715672304778825074,0.04,,,,9.448317884
1715672304786519442,0.036,,,,9.456012252
1715672304794213810,0.038,,,,9.46370662
1715672304801908178,0.033,,,,9.471400988
1715672304809602546,0.026,,,,9.479095356
1715672304817296914,0.021,,,,9.486789724
1715672304824991282,0.026,,,,9.494484092
1715672304832685650,0.028,,,,9.50217846
1715672304840380018,0.021,,,,9.509872828
1715672304848074386,0.021,,,,9.517567196
1715672304855768754,0.026,,,,9.525261564
1715672304863463122,0.028,,,,9.532955932
1715672304871157490,0.024,,,,9.5406503
1715672304878851870,0.019,,,,9.54834468
1715672304886545750,0.019,,,,9.55603856
1715672304894239630,0.012,,,,9.56373244
1715672304901933510,0.0,,,,9.57142632
1715672304909627390,0.016,,,,9.5791202
1715672304917321270,0.043,,,,9.58681408
1715672304925015150,0.043,,,,9.59450796
1715672304932709030,0.033,,,,9.60220184
1715672304940402910,0.028,,,,9.60989572
1715672304948096790,0.019,,,,9.6175896
1715672304955790670,0.019,,,,9.62528348
1715672304963484550,0.026,,,,9.63297736
1715672304971178430,0.028,,,,9.64067124
1715672304978872310,0.033,,,,9.64836512
1715672304986566190,0.038,,,,9.656059
1715672304994260070,0.05,,,,9.66375288
1715672305001953950,0.086,,,,9.67144676
1715672305009647830,0.238,,,,9.67914064
1715672305017341710,0.639,,,,9.68683452
1715672305025035590,1.192,,,,9.6945284
1715672305032729470,1.445,,,,9.70222228
1715672305040423350,0.8220000000000001,,,,9.70991616
1715672305048117230,-0.18,,,,9.71761004
1715672305055811110,-0.322,,,,9.72530392
1715672305063504990,0.036,,,,9.7329978
1715672305071198870,-0.026,,,,9.74069168
1715672305078892750,-0.151,,,,9.74838556
1715672305086586630,-0.055,,,,9.75607944
1715672305094280510,-0.031,,,,9.76377332
1715672305101974390,-0.072,,,,9.7714672
1715672305109668270,-0.043,,,,9.77916108
1715672305117362150,-0.016,,,,9.78685496
1715672305125056030,-0.021,,,,9.79454884
1715672305132749910,-0.009,,,,9.80224272
1715672305140443790,0.004,,,,9.8099366
1715672305148137670,0.014,,,,9.81763048
1715672305155831550,0.026,,,,9.82532436
1715672305163525430,0.04,,,,9.83301824
1715672305171219310,0.05,,,,9.84071212
1715672305178913190,0.062,,,,9.848406
1715672305186607070,0.074,,,,9.85609988
1715672305194300950,0.088,,,,9.86379376
1715672305201994830,0.101,,,,9.87148764
1715672305209688710,0.11,,,,9.87918152
1715672305217382590,0.12,,,,9.8868754
1715672305225076470,0.127,,,,9.89456928
1715672305232770350,0.125,,,,9.90226316
1715672305240464230,0.122,,,,9.90995704
1715672305248158110,0.129,,,,9.91765092
1715672305255851990,0.132,,,,9.9253448
1715672305263545870,0.12,,,,9.93303868
1715672305271239750,0.105,,,,9.94073256
1715672305278933630,0.096,,,,9.94842644
1715672305286627510,0.081,,,,9.95612032
1715672305294321390,0.062,,,,9.9638142
1715672305302015270,0.045,,,,9.97150808
1715672305309709150,0.036,,,,9.97920196
1715672305317403030,0.028,,,,9.98689584
1715672305325096910,0.019,,,,9.99458972
1715672305332790790,0.024,,,,10.0022836
1715672305340484670,0.031,,,,10.00997748
1715672305348178550,0.033,,,,10.01767136
1715672305355872430,0.033,,,,10.02536524
1715672305363566310,0.04,,,,10.03305912
1715672305371260190,0.052,,,,10.040753
1715672305378954070,0.057,,,,10.04844688
1715672305386647950,0.06,,,,10.05614076
1715672305394341830,0.064,,,,10.06383464
1715672305402035710,0.062,,,,10.07152852
1715672305409729590,0.057,,,,10.0792224
1715672305417423470,0.062,,,,10.08691628
1715672305425117350,0.069,,,,10.09461016
1715672305432811230,0.067,,,,10.10230404
1715672305440505144,0.062,99.0,612.0,,10.109997954
1715672305448199163,0.062,,,,10.117691973
1715672305455893182,0.064,,,,10.125385992
1715672305463587201,0.064,,,,10.133080011
1715672305471281220,0.062,,,,10.14077403
1715672305478975239,0.064,,,,10.148468049
1715672305486669258,0.067,,,,10.156162068
1715672305494363277,0.06,,,,10.163856087
1715672305502057296,0.045,,,,10.171550106
1715672305509751315,0.036,,,,10.179244125
1715672305517445334,0.031,,,,10.186938144
1715672305525139353,0.04,,,,10.194632163
1715672305532833372,0.06,,,,10.202326182
1715672305540527391,0.074,,,,10.210020201
1715672305548221410,0.074,,,,10.21771422
1715672305555915429,0.062,,,,10.225408239
1715672305563609448,0.052,,,,10.233102258
1715672305571303467,0.052,,,,10.240796277
1715672305578997486,0.057,,,,10.248490296
1715672305586691505,0.064,,,,10.256184315
1715672305594385524,0.067,,,,10.263878334
1715672305602079543,0.074,,,,10.271572353
1715672305609773562,0.093,,,,10.279266372
1715672305617467581,0.127,,,,10.286960391
1715672305625161600,0.271,,,,10.29465441
1715672305632855619,0.6970000000000001,,,,10.302348429
1715672305640549638,1.334,,,,10.310042448
1715672305648243657,1.659,,,,10.317736467
1715672305655937676,1.01,,,,10.325430486
1715672305663631695,-0.103,,,,10.333124505
1715672305671325714,-0.3,,,,10.340818524
1715672305679019733,0.079,,,,10.348512543
1715672305686713752,0.004,,,,10.356206562
1715672305694407771,-0.141,,,,10.363900581
1715672305702101790,-0.028,,,,10.3715946
1715672305709795809,0.004,,,,10.379288619
1715672305717489828,-0.048,,,,10.386982638
1715672305725183847,-0.021,,,,10.394676657
1715672305732877866,0.007,,,,10.402370676
1715672305740571885,-0.004,,,,10.410064695
1715672305748265904,0.004,,,,10.417758714
1715672305755959923,0.021,,,,10.425452733
1715672305763653942,0.019,,,,10.433146752
1715672305771347961,0.012,,,,10.440840771
1715672305779041980,0.024,,,,10.44853479
1715672305786735999,0.04,,,,10.456228809
1715672305794430018,0.055,,,,10.463922828
1715672305802124037,0.067,,,,10.471616847
1715672305809818056,0.081,,,,10.479310866
1715672305817512075,0.096,,,,10.487004885
1715672305825206094,0.103,,,,10.494698904
1715672305832900113,0.108,,,,10.502392923
1715672305840594132,0.117,,,,10.510086942
1715672305848288151,0.125,,,,10.517780961
1715672305855982170,0.127,,,,10.52547498
1715672305863676189,0.125,,,,10.533168999
1715672305871370208,0.129,,,,10.540863018
1715672305879064227,0.132,,,,10.548557037
1715672305886758246,0.125,,,,10.556251056
1715672305894452265,0.113,,,,10.563945075
1715672305902146284,0.101,,,,10.571639094
1715672305909840303,0.084,,,,10.579333113
1715672305917534322,0.069,,,,10.587027132
1715672305925228341,0.062,,,,10.594721151
1715672305932922360,0.052,,,,10.60241517
1715672305940616379,0.05,,,,10.610109189
1715672305948310398,0.055,,,,10.617803208
1715672305956004417,0.057,,,,10.625497227
1715672305963698436,0.062,,,,10.633191246
1715672305971392455,0.074,,,,10.640885265
1715672305979086474,0.079,,,,10.648579284
1715672305986780493,0.076,,,,10.656273303
1715672305994474512,0.081,,,,10.663967322
1715672306002168588,0.088,,,,10.671661398
1715672306009862747,0.081,,,,10.679355557
1715672306017556906,0.072,,,,10.687049716
1715672306025251065,0.072,,,,10.694743875
1715672306032945224,0.074,,,,10.702438034
1715672306040639383,0.072,,,,10.710132193
1715672306048333542,0.069,,,,10.717826352
1715672306056027701,0.064,,,,10.725520511
1715672306063721860,0.064,,,,10.73321467
1715672306071416019,0.062,,,,10.740908829
1715672306079110178,0.052,,,,10.748602988
1715672306086804337,0.05,,,,10.756297147
1715672306094498496,0.045,,,,10.763991306
1715672306102192655,0.033,,,,10.771685465
1715672306109886814,0.026,,,,10.779379624
1715672306117580973,0.038,,,,10.787073783
1715672306125275132,0.062,,,,10.794767942
1715672306132969291,0.074,,,,10.802462101
1715672306140663450,0.072,,,,10.81015626
1715672306148357609,0.064,,,,10.817850419
1715672306156051768,0.06,,,,10.825544578
1715672306163745927,0.057,,,,10.833238737
1715672306171440086,0.062,,,,10.840932896
1715672306179134245,0.074,,,,10.848627055
1715672306186828404,0.076,,,,10.856321214
1715672306194522563,0.074,,,,10.864015373
1715672306202216722,0.084,,,,10.871709532
1715672306209910881,0.096,,,,10.879403691
1715672306217605040,0.197,,,,10.88709785
1715672306225299199,0.586,,,,10.894792009
1715672306232993358,1.216,,,,10.902486168
1715672306240687517,1.606,,,,10.910180327
1715672306248381676,1.072,,,,10.917874486
1715672306256075835,-0.024,,,,10.925568645
1715672306263769994,-0.315,,,,10.933262804
1715672306271464153,0.048,,,,10.940956963
1715672306279158312,0.016,,,,10.948651122
1715672306286852471,-0.144,,,,10.956345281
1715672306294546630,-0.048,,,,10.96403944
1715672306302240789,-0.002,,,,10.971733599
1715672306309934948,-0.055,,,,10.979427758
1715672306317629107,-0.028,,,,10.987121917
1715672306325323266,0.0,,,,10.994816076
1715672306333017425,-0.012,,,,11.002510235
1715672306340711584,-0.002,,,,11.010204394
1715672306348405743,0.021,,,,11.017898553
1715672306356099902,0.026,,,,11.025592712
1715672306363794061,0.031,,,,11.033286871
1715672306371488220,0.045,,,,11.04098103
1715672306379182379,0.057,,,,11.048675189
1715672306386876538,0.069,,,,11.056369348
1715672306394570697,0.084,,,,11.064063507
1715672306402264856,0.098,,,,11.071757666
1715672306409959015,0.11,,,,11.079451825
1715672306417653174,0.12,,,,11.087145984
1715672306425347333,0.127,,,,11.094840143
1715672306433041492,0.132,,,,11.102534302
1715672306440735651,0.132,,,,11.110228461
1715672306448429810,0.134,,,,11.11792262
1715672306456123969,0.137,,,,11.125616779
1715672306463818128,0.139,,,,11.133310938
1715672306471512287,0.141,,,,11.141005097
1715672306479206446,0.137,,,,11.148699256
1715672306486900605,0.125,,,,11.156393415
1715672306494594764,0.113,,,,11.164087574
1715672306502288923,0.093,,,,11.171781733
1715672306509983082,0.074,,,,11.179475892
1715672306517677241,0.064,,,,11.187170051
1715672306525371400,0.057,,,,11.19486421
1715672306533065559,0.057,,,,11.202558369
1715672306540759718,0.064,,,,11.210252528
1715672306548453877,0.067,,,,11.217946687
1715672306556148036,0.069,,,,11.225640846
1715672306563842206,0.076,99.0,624.0,,11.233335016
1715672306571536365,0.081,,635.0,,11.241029175
1715672306579230524,0.086,,,,11.248723334
1715672306586924683,0.088,,,,11.256417493
1715672306594618842,0.091,,,,11.264111652
1715672306602313001,0.088,,,,11.271805811
1715672306610007160,0.079,,,,11.27949997
1715672306617701319,0.069,,,,11.287194129
1715672306625395478,0.072,,,,11.294888288
1715672306633089637,0.076,,,,11.302582447
1715672306640783796,0.069,,,,11.310276606
1715672306648477955,0.064,,,,11.317970765
1715672306656172114,0.067,,,,11.325664924
1715672306663866273,0.069,,,,11.333359083
1715672306671560432,0.064,,,,11.341053242
1715672306679254591,0.064,,,,11.348747401
1715672306686948750,0.067,,,,11.35644156
1715672306694642909,0.06,,,,11.364135719
1715672306702337068,0.052,,,,11.371829878
1715672306710031227,0.05,,,,11.379524037
1715672306717725386,0.05,,,,11.387218196
1715672306725419545,0.038,,,,11.394912355
1715672306733113704,0.024,,,,11.402606514
1715672306740807863,0.028,,,,11.410300673
1715672306748502022,0.048,,,,11.417994832
1715672306756196181,0.069,,,,11.425688991
1715672306763890340,0.081,,,,11.43338315
1715672306771584499,0.069,,,,11.441077309
1715672306779278658,0.048,,,,11.448771468
1715672306786972817,0.045,,,,11.456465627
1715672306794666976,0.048,,,,11.464159786
1715672306802361135,0.05,,,,11.471853945
1715672306810055294,0.055,,,,11.479548104
1715672306817749453,0.062,,,,11.487242263
1715672306825443612,0.069,,,,11.494936422
1715672306833137771,0.081,,,,11.502630581
1715672306840831930,0.117,,,,11.51032474
1715672306848526089,0.29,,,,11.518018899
1715672306856220248,0.752,,,,11.525713058
1715672306863914407,1.37,,,,11.533407217
1715672306871608566,1.565,,,,11.541101376
1715672306879302725,0.791,,,,11.548795535
1715672306886996884,-0.209,,,,11.556489694
1715672306894691043,-0.242,,,,11.564183853
1715672306902385202,0.088,,,,11.571878012
1715672306910079361,-0.031,,,,11.579572171
1715672306917773520,-0.127,,,,11.58726633
1715672306925467679,-0.014,,,,11.594960489
1715672306933161838,-0.009,,,,11.602654648
1715672306940855997,-0.05,,,,11.610348807
1715672306948550156,-0.014,,,,11.618042966
1715672306956244315,0.007,,,,11.625737125
1715672306963938474,-0.002,,,,11.633431284
1715672306971632633,0.004,,,,11.641125443
1715672306979326792,0.019,,,,11.648819602
1715672306987020951,0.026,,,,11.656513761
1715672306994715110,0.033,,,,11.66420792
1715672307002409269,0.038,,,,11.671902079
1715672307010103428,0.052,,,,11.679596238
1715672307017797587,0.067,,,,11.687290397
1715672307025491746,0.074,,,,11.694984556
1715672307033185905,0.084,,,,11.702678715
1715672307040880064,0.096,,,,11.710372874
1715672307048574223,0.105,,,,11.718067033
1715672307056268382,0.113,,,,11.725761192
1715672307063962541,0.115,,,,11.733455351
1715672307071656700,0.117,,,,11.74114951
1715672307079350859,0.122,,,,11.748843669
1715672307087045018,0.122,,,,11.756537828
1715672307094739177,0.122,,,,11.764231987
1715672307102433336,0.127,,,,11.771926146
1715672307110127495,0.125,,,,11.779620305
1715672307117821654,0.113,,,,11.787314464
1715672307125515822,0.093,,,,11.795008632
1715672307133209841,0.076,,,,11.802702651
1715672307140903860,0.062,,,,11.81039667
1715672307148597879,0.05,,,,11.818090689
1715672307156291898,0.04,,,,11.825784708
1715672307163985917,0.036,,,,11.833478727
1715672307171679936,0.036,,,,11.841172746
1715672307179373955,0.04,,,,11.848866765
1715672307187067974,0.048,,,,11.856560784
1715672307194761993,0.057,,,,11.864254803
1715672307202456012,0.06,,,,11.871948822
1715672307210150031,0.055,,,,11.879642841
1715672307217844050,0.05,,,,11.88733686
1715672307225538069,0.052,,,,11.895030879
1715672307233232088,0.057,,,,11.902724898
1715672307240926107,0.05,,,,11.910418917
1715672307248620126,0.036,,,,11.918112936
1715672307256314145,0.036,,,,11.925806955
1715672307264008164,0.04,,,,11.933500974
1715672307271702183,0.031,,,,11.941194993
1715672307279396202,0.019,,,,11.948889012
1715672307287090221,0.021,,,,11.956583031
1715672307294784240,0.026,,,,11.96427705
1715672307302478259,0.012,,,,11.971971069
1715672307310172278,0.0,,,,11.979665088
1715672307317866297,0.004,,,,11.987359107
1715672307325560316,0.007,,,,11.995053126
1715672307333254335,-0.002,,,,12.002747145
1715672307340948354,-0.009,,,,12.010441164
1715672307348642373,-0.014,,,,12.018135183
1715672307356336392,-0.009,,,,12.025829202
1715672307364030411,0.007,,,,12.033523221
1715672307371724430,0.031,,,,12.04121724
1715672307379418449,0.045,,,,12.048911259
1715672307387112468,0.04,,,,12.056605278
1715672307394806487,0.028,,,,12.064299297
1715672307402500506,0.024,,,,12.071993316
1715672307410194525,0.028,,,,12.079687335
1715672307417888544,0.033,,,,12.087381354
1715672307425582563,0.033,,,,12.095075373
1715672307433276582,0.036,,,,12.102769392
1715672307440970601,0.045,,,,12.110463411
1715672307448664620,0.057,,,,12.11815743
1715672307456358639,0.076,,,,12.125851449
1715672307464052658,0.175,,,,12.133545468
1715672307471746677,0.531,,,,12.141239487
1715672307479440696,1.111,,,,12.148933506
1715672307487134715,1.5,,,,12.156627525
1715672307494828734,1.05,,,,12.164321544
1715672307502522753,-0.007,,,,12.172015563
1715672307510216772,-0.351,,,,12.179709582
1715672307517910791,0.007,,,,12.187403601
1715672307525604810,0.021,,,,12.19509762
1715672307533298829,-0.141,,,,12.202791639
1715672307540992848,-0.067,,,,12.210485658
1715672307548686867,-0.014,,,,12.218179677
1715672307556380886,-0.057,,,,12.225873696
1715672307564074905,-0.045,,,,12.233567715
1715672307571768924,-0.014,,,,12.241261734
1715672307579462943,-0.014,,,,12.248955753
1715672307587156962,-0.012,,,,12.256649772
1715672307594850981,0.007,,,,12.264343791
1715672307602545000,0.014,,,,12.27203781
1715672307610239019,0.021,,,,12.279731829
1715672307617933038,0.038,,,,12.287425848
1715672307625627057,0.052,,,,12.295119867
1715672307633321076,0.06,,,,12.302813886
1715672307641015095,0.074,,,,12.310507905
1715672307648709114,0.088,,,,12.318201924
1715672307656403133,0.101,,,,12.325895943
1715672307664097152,0.113,,,,12.333589962
1715672307671791171,0.12,,,,12.341283981
1715672307679485190,0.12,,,,12.348978
1715672307687179268,0.12,98.0,616.0,,12.356672078
1715672307694873566,0.125,,,,12.364366376
1715672307702567864,0.127,,,,12.372060674
1715672307710262162,0.129,,,,12.379754972
1715672307717956460,0.134,,,,12.38744927
1715672307725650758,0.125,,,,12.395143568
1715672307733345056,0.105,,,,12.402837866
1715672307741039354,0.084,,,,12.410532164
1715672307748733652,0.064,,,,12.418226462
1715672307756427950,0.038,,,,12.42592076
1715672307764122248,0.014,,,,12.433615058
1715672307771816546,0.012,,,,12.441309356
1715672307779510844,0.007,,,,12.449003654
1715672307787205142,0.0,,,,12.456697952
1715672307794899440,0.007,,,,12.46439225
1715672307802593738,0.016,,,,12.472086548
1715672307810288036,0.014,,,,12.479780846
1715672307817982334,0.019,,,,12.487475144
1715672307825676632,0.033,,,,12.495169442
1715672307833370930,0.043,,,,12.50286374
1715672307841065228,0.04,,,,12.510558038
1715672307848759526,0.038,,,,12.518252336
1715672307856453824,0.045,,,,12.525946634
1715672307864148122,0.045,,,,12.533640932
1715672307871842420,0.04,,,,12.54133523
1715672307879536718,0.04,,,,12.549029528
1715672307887231016,0.045,,,,12.556723826
1715672307894925314,0.04,,,,12.564418124
1715672307902619612,0.036,,,,12.572112422
1715672307910313910,0.04,,,,12.57980672
1715672307918008208,0.04,,,,12.587501018
1715672307925702506,0.033,,,,12.595195316
1715672307933396804,0.024,,,,12.602889614
1715672307941091102,0.012,,,,12.610583912
1715672307948785400,0.007,,,,12.61827821
1715672307956479698,0.019,,,,12.625972508
1715672307964173996,0.038,,,,12.633666806
1715672307971868294,0.055,,,,12.641361104
1715672307979562592,0.057,,,,12.649055402
1715672307987256890,0.043,,,,12.6567497
1715672307994951188,0.036,,,,12.664443998
1715672308002645486,0.04,,,,12.672138296
1715672308010339784,0.045,,,,12.679832594
1715672308018034082,0.05,,,,12.687526892
1715672308025728380,0.055,,,,12.69522119
1715672308033422678,0.057,,,,12.702915488
1715672308041116976,0.067,,,,12.710609786
1715672308048811274,0.076,,,,12.718304084
1715672308056505572,0.173,,,,12.725998382
1715672308064199870,0.548,,,,12.73369268
1715672308071894168,1.178,,,,12.741386978
1715672308079588466,1.608,,,,12.749081276
1715672308087282764,1.118,,,,12.756775574
1715672308094977062,-0.002,,,,12.764469872
1715672308102671360,-0.336,,,,12.77216417
1715672308110365658,0.04,,,,12.779858468
1715672308118059956,0.028,,,,12.787552766
1715672308125754254,-0.141,,,,12.795247064
1715672308133448552,-0.048,,,,12.802941362
1715672308141142850,0.0,,,,12.81063566
1715672308148837148,-0.055,,,,12.818329958
1715672308156531446,-0.031,,,,12.826024256
1715672308164225744,0.004,,,,12.833718554
1715672308171920042,-0.007,,,,12.841412852
1715672308179614340,-0.002,,,,12.84910715
1715672308187308638,0.019,,,,12.856801448
1715672308195002936,0.026,,,,12.864495746
1715672308202697234,0.033,,,,12.872190044
1715672308210391532,0.048,,,,12.879884342
1715672308218085830,0.057,,,,12.88757864
1715672308225780128,0.064,,,,12.895272938
1715672308233474426,0.074,,,,12.902967236
1715672308241168724,0.091,,,,12.910661534
1715672308248863056,0.101,98.0,593.0,,12.918355866
1715672308256557006,0.11,,629.0,,12.926049816
1715672308264250956,0.117,,,,12.933743766
1715672308271944906,0.12,,,,12.941437716
1715672308279638856,0.125,,,,12.949131666
1715672308287332806,0.122,,,,12.956825616
1715672308295026756,0.115,,,,12.964519566
1715672308302720706,0.115,,,,12.972213516
1715672308310414656,0.12,,,,12.979907466
1715672308318108606,0.108,,,,12.987601416
1715672308325802556,0.084,,,,12.995295366
1715672308333496506,0.069,,,,13.002989316
1715672308341190456,0.064,,,,13.010683266
1715672308348884406,0.045,,,,13.018377216
1715672308356578356,0.021,,,,13.026071166
1715672308364272306,0.016,,,,13.033765116
1715672308371966256,0.024,,,,13.041459066
1715672308379660206,0.026,,,,13.049153016
1715672308387354156,0.021,,,,13.056846966
1715672308395048106,0.028,,,,13.064540916
1715672308402742056,0.04,,,,13.072234866
1715672308410436006,0.045,,,,13.079928816
1715672308418129956,0.05,,,,13.087622766
1715672308425823906,0.057,,,,13.095316716
1715672308433517856,0.062,,,,13.103010666
1715672308441211806,0.055,,,,13.110704616
1715672308448905756,0.05,,,,13.118398566
1715672308456599706,0.052,,,,13.126092516
1715672308464293656,0.052,,,,13.133786466
1715672308471987606,0.043,,,,13.141480416
1715672308479681556,0.038,,,,13.149174366
1715672308487375506,0.043,,,,13.156868316
1715672308495069456,0.048,,,,13.164562266
1715672308502763406,0.043,,,,13.172256216
1715672308510457356,0.045,,,,13.179950166
1715672308518151306,0.052,,,,13.187644116
1715672308525845256,0.052,,,,13.195338066
1715672308533539206,0.052,,,,13.203032016
1715672308541233156,0.05,,,,13.210725966
1715672308548927106,0.043,,,,13.218419916
1715672308556621056,0.038,,,,13.226113866
1715672308564315006,0.026,,,,13.233807816
1715672308572008956,0.026,,,,13.241501766
1715672308579702906,0.048,,,,13.249195716
1715672308587396856,0.067,,,,13.256889666
1715672308595090806,0.079,,,,13.264583616
1715672308602784756,0.081,,,,13.272277566
1715672308610478706,0.072,,,,13.279971516
1715672308618172656,0.062,,,,13.287665466
1715672308625866606,0.062,,,,13.295359416
1715672308633560556,0.067,,,,13.303053366
1715672308641254506,0.072,,,,13.310747316
1715672308648948456,0.076,,,,13.318441266
1715672308656642406,0.081,,,,13.326135216
1715672308664336356,0.098,,,,13.333829166
1715672308672030306,0.134,,,,13.341523116
1715672308679724256,0.266,,,,13.349217066
1715672308687418206,0.675,,,,13.356911016
1715672308695112156,1.346,,,,13.364604966
1715672308702806106,1.789,,,,13.372298916
1715672308710500056,1.231,,,,13.379992866
1715672308718194006,0.028,,,,13.387686816
1715672308725887956,-0.341,,,,13.395380766
1715672308733581906,0.031,,,,13.403074716
1715672308741275856,0.016,,,,13.410768666
1715672308748969806,-0.156,,,,13.418462616
1715672308756663756,-0.057,,,,13.426156566
1715672308764357706,-0.009,,,,13.433850516
1715672308772051656,-0.069,,,,13.441544466
1715672308779745606,-0.048,,,,13.449238416
1715672308787439556,-0.012,,,,13.456932366
1715672308795133506,-0.031,,,,13.464626316
1715672308802827456,-0.031,,,,13.472320266
1715672308810521416,-0.002,,,,13.480014226
1715672308818215784,0.007,,,,13.487708594
1715672308825910152,0.007,,,,13.495402962
1715672308833604520,0.021,,,,13.50309733
1715672308841298888,0.04,,,,13.510791698
1715672308848993256,0.05,,,,13.518486066
1715672308856687624,0.06,,,,13.526180434
1715672308864381992,0.072,,,,13.533874802
1715672308872076360,0.086,,,,13.54156917
1715672308879770728,0.096,,,,13.549263538
1715672308887465096,0.098,,,,13.556957906
1715672308895159464,0.096,,,,13.564652274
1715672308902853832,0.093,,,,13.572346642
1715672308910548200,0.096,,,,13.58004101
1715672308918242568,0.098,,,,13.587735378
1715672308925936936,0.088,,,,13.595429746
1715672308933631304,0.086,,,,13.603124114
1715672308941325672,0.093,,,,13.610818482
1715672308949020040,0.086,,,,13.61851285
1715672308956714408,0.067,,,,13.626207218
1715672308964408776,0.052,,,,13.633901586
1715672308972103144,0.045,,,,13.641595954
1715672308979797512,0.036,,,,13.649290322
1715672308987491880,0.033,,,,13.65698469
1715672308995186248,0.04,,,,13.664679058
1715672309002880616,0.038,,,,13.672373426
1715672309010574984,0.033,,,,13.680067794
1715672309018269352,0.045,,,,13.687762162
1715672309025963720,0.055,,,,13.69545653
1715672309033658088,0.057,,,,13.703150898
1715672309041352456,0.062,,,,13.710845266
1715672309049046824,0.064,,,,13.718539634
1715672309056741192,0.067,,,,13.726234002
1715672309064435560,0.069,,,,13.73392837
1715672309072129928,0.074,,,,13.741622738
1715672309079824296,0.069,,,,13.749317106
1715672309087518664,0.069,,,,13.757011474
1715672309095213032,0.072,,,,13.764705842
1715672309102907400,0.067,,,,13.77240021
1715672309110601768,0.067,,,,13.780094578
1715672309118296136,0.069,,,,13.787788946
1715672309125990504,0.069,,,,13.795483314
1715672309133684872,0.069,,,,13.803177682
1715672309141379240,0.069,,,,13.81087205
1715672309149073608,0.069,,,,13.818566418
1715672309156767976,0.069,,,,13.826260786
1715672309164462344,0.072,,,,13.833955154
1715672309172156712,0.069,,,,13.841649522
1715672309179851080,0.06,,,,13.84934389
1715672309187545448,0.048,,,,13.857038258
1715672309195239816,0.033,,,,13.864732626
1715672309202934184,0.033,,,,13.872426994
1715672309210628552,0.06,,,,13.880121362
1715672309218322920,0.091,,,,13.88781573
1715672309226017288,0.103,,,,13.895510098
1715672309233711656,0.093,,,,13.903204466
1715672309241406024,0.072,,,,13.910898834
1715672309249100392,0.06,,,,13.918593202
1715672309256794760,0.064,,,,13.92628757
1715672309264489128,0.067,,,,13.933981938
1715672309272183496,0.069,,,,13.941676306
1715672309279877864,0.074,,,,13.949370674
1715672309287572232,0.076,,,,13.957065042
1715672309295266600,0.086,,,,13.96475941
1715672309302960968,0.117,,,,13.972453778
1715672309310655336,0.286,,,,13.980148146
1715672309318349704,0.755,,,,13.987842514
1715672309326044072,1.406,,,,13.995536882
1715672309333738440,1.671,,,,14.00323125
1715672309341432808,0.928,,,,14.010925618
1715672309349127176,-0.163,,,,14.018619986
1715672309356821544,-0.288,,,,14.026314354
1715672309364515912,0.067,,,,14.034008722
1715672309372210292,-0.031,98.0,618.0,,14.041703102
1715672309379904242,-0.151,,593.0,,14.049397052
1715672309387598192,-0.038,,,,14.057091002
1715672309395292142,-0.021,,,,14.064784952
1715672309402986092,-0.067,,,,14.072478902
1715672309410680042,-0.031,,,,14.080172852
1715672309418373992,-0.007,,,,14.087866802
1715672309426067942,-0.019,,,,14.095560752
1715672309433761892,-0.004,,,,14.103254702
1715672309441455842,0.014,,,,14.110948652
1715672309449149792,0.016,,,,14.118642602
1715672309456843742,0.021,,,,14.126336552
1715672309464537692,0.033,,,,14.134030502
1715672309472231642,0.043,,,,14.141724452
1715672309479925592,0.06,,,,14.149418402
1715672309487619542,0.072,,,,14.157112352
1715672309495313492,0.081,,,,14.164806302
1715672309503007442,0.093,,,,14.172500252
1715672309510701392,0.101,,,,14.180194202
1715672309518395342,0.098,,,,14.187888152
1715672309526089292,0.096,,,,14.195582102
1715672309533783242,0.098,,,,14.203276052
1715672309541477192,0.101,,,,14.210970002
1715672309549171142,0.098,,,,14.218663952
1715672309556865092,0.093,,,,14.226357902
1715672309564559042,0.093,,,,14.234051852
1715672309572252992,0.096,,,,14.241745802
1715672309579946942,0.091,,,,14.249439752
1715672309587640892,0.074,,,,14.257133702
1715672309595334842,0.062,,,,14.264827652
1715672309603028792,0.048,,,,14.272521602
1715672309610722742,0.033,,,,14.280215552
1715672309618416692,0.031,,,,14.287909502
1715672309626110642,0.033,,,,14.295603452
1715672309633804592,0.036,,,,14.303297402
1715672309641498542,0.04,,,,14.310991352
1715672309649192492,0.048,,,,14.318685302
1715672309656886442,0.055,,,,14.326379252
1715672309664580392,0.062,,,,14.334073202
1715672309672274342,0.067,,,,14.341767152
1715672309679968292,0.069,,,,14.349461102
1715672309687662242,0.072,,,,14.357155052
1715672309695356192,0.072,,,,14.364849002
1715672309703050142,0.067,,,,14.372542952
1715672309710744092,0.064,,,,14.380236902
1715672309718438042,0.069,,,,14.387930852
1715672309726131992,0.072,,,,14.395624802
1715672309733825942,0.064,,,,14.403318752
1715672309741519892,0.06,,,,14.411012702
1715672309749213842,0.06,,,,14.418706652
1715672309756907792,0.057,,,,14.426400602
1715672309764601742,0.055,,,,14.434094552
1715672309772295692,0.052,,,,14.441788502
1715672309779989642,0.052,,,,14.449482452
1715672309787683592,0.052,,,,14.457176402
1715672309795377542,0.045,,,,14.464870352
1715672309803071492,0.043,,,,14.472564302
1715672309810765442,0.048,,,,14.480258252
1715672309818459392,0.043,,,,14.487952202
1715672309826153342,0.028,,,,14.495646152
1715672309833847292,0.021,,,,14.503340102
1715672309841541242,0.028,,,,14.511034052
1715672309849235192,0.055,,,,14.518728002
1715672309856929142,0.096,,,,14.526421952
1715672309864623092,0.105,,,,14.534115902
1715672309872317042,0.081,,,,14.541809852
1715672309880010992,0.062,,,,14.549503802
1715672309887704942,0.062,,,,14.557197752
1715672309895398892,0.064,,,,14.564891702
1715672309903092842,0.062,,,,14.572585652
1715672309910786792,0.062,,,,14.580279602
1715672309918480742,0.067,,,,14.587973552
1715672309926174692,0.081,,,,14.595667502
1715672309933868650,0.105,,,,14.60336146
1715672309941562739,0.202,,,,14.611055549
1715672309949256828,0.538,,,,14.618749638
1715672309956950917,1.142,,,,14.626443727
1715672309964645006,1.64,,,,14.634137816
1715672309972339095,1.303,,,,14.641831905
1715672309980033184,0.165,,,,14.649525994
1715672309987727273,-0.375,,,,14.657220083
1715672309995421362,-0.031,,,,14.664914172
1715672310003115451,0.048,,,,14.672608261
1715672310010809540,-0.153,,,,14.68030235
1715672310018503629,-0.093,,,,14.687996439
1715672310026197718,-0.019,,,,14.695690528
1715672310033891807,-0.074,,,,14.703384617
1715672310041585896,-0.064,,,,14.711078706
1715672310049279985,-0.014,,,,14.718772795
1715672310056974074,-0.019,,,,14.726466884
1715672310064668163,-0.021,,,,14.734160973
1715672310072362252,-0.004,,,,14.741855062
1715672310080056341,0.004,,,,14.749549151
1715672310087750430,0.014,,,,14.75724324
1715672310095444519,0.024,,,,14.764937329
1715672310103138608,0.031,,,,14.772631418
1715672310110832697,0.05,,,,14.780325507
1715672310118526786,0.067,,,,14.788019596
1715672310126220875,0.072,,,,14.795713685
1715672310133914964,0.086,,,,14.803407774
1715672310141609053,0.103,,,,14.811101863
1715672310149303142,0.103,,,,14.818795952
1715672310156997231,0.103,,,,14.826490041
1715672310164691320,0.105,,,,14.83418413
1715672310172385409,0.105,,,,14.841878219
1715672310180079498,0.103,,,,14.849572308
1715672310187773587,0.101,,,,14.857266397
1715672310195467676,0.105,,,,14.864960486
1715672310203161765,0.105,,,,14.872654575
1715672310210855854,0.096,,,,14.880348664
1715672310218549943,0.088,,,,14.888042753
1715672310226244032,0.069,,,,14.895736842
1715672310233938121,0.043,,,,14.903430931
1715672310241632210,0.026,,,,14.91112502
1715672310249326299,0.026,,,,14.918819109
1715672310257020388,0.024,,,,14.926513198
1715672310264714477,0.019,,,,14.934207287
1715672310272408566,0.021,,,,14.941901376
1715672310280102655,0.031,,,,14.949595465
1715672310287796744,0.038,,,,14.957289554
1715672310295490833,0.045,,,,14.964983643
1715672310303184922,0.045,,,,14.972677732
1715672310310879011,0.04,,,,14.980371821
1715672310318573100,0.045,,,,14.98806591
1715672310326267189,0.048,,,,14.995759999
1715672310333961278,0.05,,,,15.003454088
1715672310341655367,0.052,,,,15.011148177
1715672310349349456,0.048,,,,15.018842266
1715672310357043545,0.048,,,,15.026536355
1715672310364737634,0.05,,,,15.034230444
1715672310372431723,0.045,,,,15.041924533
1715672310380125812,0.043,,,,15.049618622
1715672310387819901,0.043,,,,15.057312711
1715672310395513990,0.038,,,,15.0650068
1715672310403208079,0.033,,,,15.072700889
1715672310410902168,0.036,,,,15.080394978
1715672310418596257,0.028,,,,15.088089067
1715672310426290346,0.024,,,,15.095783156
1715672310433984435,0.033,,,,15.103477245
1715672310441678524,0.031,,,,15.111171334
1715672310449372613,0.021,,,,15.118865423
1715672310457066702,0.021,,,,15.126559512
1715672310464760791,0.021,,,,15.134253601
1715672310472454880,0.014,,,,15.14194769
1715672310480148969,0.009,,,,15.149641779
1715672310487843058,0.019,,,,15.157335868
1715672310495537182,0.055,98.0,623.0,,15.165029992
1715672310503231410,0.088,,,,15.17272422
1715672310510925638,0.084,,,,15.180418448
1715672310518619866,0.06,,,,15.188112676
1715672310526314094,0.043,,,,15.195806904
1715672310534008322,0.043,,,,15.203501132
1715672310541702550,0.052,,,,15.21119536
1715672310549396778,0.055,,,,15.218889588
1715672310557091006,0.055,,,,15.226583816
1715672310564785234,0.064,,,,15.234278044
1715672310572479462,0.086,,,,15.241972272
1715672310580173690,0.149,,,,15.2496665
1715672310587867918,0.382,,,,15.257360728
1715672310595562146,0.872,,,,15.265054956
1715672310603256374,1.401,,,,15.272749184
1715672310610950602,1.358,,,,15.280443412
1715672310618644830,0.428,,,,15.28813764
1715672310626339058,-0.355,,,,15.295831868
1715672310634033286,-0.168,,,,15.303526096
1715672310641727514,0.076,,,,15.311220324
1715672310649421742,-0.093,,,,15.318914552
1715672310657115970,-0.113,,,,15.32660878
1715672310664810198,-0.012,,,,15.334303008
1715672310672504426,-0.04,,,,15.341997236
1715672310680198654,-0.06,,,,15.349691464
1715672310687892882,-0.021,,,,15.357385692
1715672310695587110,-0.016,,,,15.36507992
1715672310703281338,-0.019,,,,15.372774148
1715672310710975566,0.004,,,,15.380468376
1715672310718669794,0.019,,,,15.388162604
1715672310726364022,0.024,,,,15.395856832
1715672310734058250,0.038,,,,15.40355106
1715672310741752478,0.052,,,,15.411245288
1715672310749446706,0.064,,,,15.418939516
1715672310757140934,0.081,,,,15.426633744
1715672310764835162,0.096,,,,15.434327972
1715672310772529390,0.105,,,,15.4420222
1715672310780223618,0.117,,,,15.449716428
1715672310787917846,0.129,,,,15.457410656
1715672310795612074,0.137,,,,15.465104884
1715672310803306302,0.134,,,,15.472799112
1715672310811000530,0.117,,,,15.48049334
1715672310818694758,0.113,,,,15.488187568
1715672310826388986,0.125,,,,15.495881796
1715672310834083214,0.134,,,,15.503576024
1715672310841777442,0.127,,,,15.511270252
1715672310849471670,0.115,,,,15.51896448
1715672310857165898,0.098,,,,15.526658708
1715672310864860126,0.079,,,,15.534352936
1715672310872554354,0.06,,,,15.542047164
1715672310880248582,0.048,,,,15.549741392
1715672310887942810,0.036,,,,15.55743562
1715672310895637038,0.024,,,,15.565129848
1715672310903331266,0.012,,,,15.572824076
1715672310911025494,0.014,,,,15.580518304
1715672310918719722,0.033,,,,15.588212532
1715672310926413950,0.04,,,,15.59590676
1715672310934108178,0.043,,,,15.603600988
1715672310941802406,0.055,,,,15.611295216
1715672310949496634,0.064,,,,15.618989444
1715672310957190862,0.067,,,,15.626683672
1715672310964885090,0.067,,,,15.6343779
1715672310972579318,0.074,,,,15.642072128
1715672310980273546,0.084,,,,15.649766356
1715672310987967774,0.081,,,,15.657460584
1715672310995662002,0.076,,,,15.665154812
1715672311003356230,0.076,,,,15.67284904
1715672311011050458,0.072,,,,15.680543268
1715672311018744686,0.064,,,,15.688237496
1715672311026438914,0.057,,,,15.695931724
1715672311034133142,0.052,,,,15.703625952
1715672311041827370,0.05,,,,15.71132018
1715672311049521598,0.048,,,,15.719014408
1715672311057215884,0.045,,,,15.726708694
1715672311064909834,0.045,,,,15.734402644
1715672311072603784,0.048,,,,15.742096594
1715672311080297734,0.048,,,,15.749790544
1715672311087991684,0.033,,,,15.757484494
1715672311095685634,0.021,,,,15.765178444
1715672311103379584,0.031,,,,15.772872394
1715672311111073534,0.05,,,,15.780566344
1715672311118767484,0.072,,,,15.788260294
1715672311126461434,0.084,,,,15.795954244
1715672311134155384,0.072,,,,15.803648194
1715672311141849334,0.052,,,,15.811342144
1715672311149543284,0.05,,,,15.819036094
1715672311157237234,0.057,,,,15.826730044
1715672311164931184,0.06,,,,15.834423994
1715672311172625134,0.06,,,,15.842117944
1715672311180319084,0.06,,,,15.849811894
1715672311188013034,0.064,,,,15.857505844
1715672311195706984,0.091,,,,15.865199794
1715672311203400934,0.161,,,,15.872893744
1715672311211094884,0.418,,,,15.880587694
1715672311218788834,0.983,,,,15.888281644
1715672311226482784,1.601,,,,15.895975594
1715672311234176734,1.539,,,,15.903669544
1715672311241870684,0.473,,,,15.911363494
1715672311249564634,-0.36,,,,15.919057444
1715672311257258584,-0.139,,,,15.926751394
1715672311264952534,0.084,,,,15.934445344
1715672311272646484,-0.12,,,,15.942139294
1715672311280340434,-0.127,,,,15.949833244
1715672311288034384,-0.014,,,,15.957527194
1715672311295728334,-0.055,,,,15.965221144
1715672311303422284,-0.074,,,,15.972915094
1715672311311116234,-0.026,,,,15.980609044
1715672311318810184,-0.033,,,,15.988302994
1715672311326504134,-0.045,,,,15.995996944
1715672311334198084,-0.019,,,,16.003690894
1715672311341892034,-0.002,,,,16.011384844
1715672311349585984,-0.002,,,,16.019078794
1715672311357279934,0.012,,,,16.026772744
1715672311364973884,0.026,,,,16.034466694
1715672311372667834,0.036,,,,16.042160644
1715672311380361784,0.048,,,,16.049854594
1715672311388055734,0.06,,,,16.057548544
1715672311395749684,0.076,,,,16.065242494
1715672311403443634,0.088,,,,16.072936444
1715672311411137584,0.091,,,,16.080630394
1715672311418831534,0.096,,,,16.088324344
1715672311426525484,0.098,,,,16.096018294
1715672311434219434,0.091,,,,16.103712244
1715672311441913384,0.084,,,,16.111406194
1715672311449607334,0.084,,,,16.119100144
1715672311457301284,0.088,,,,16.126794094
1715672311464995234,0.088,,,,16.134488044
1715672311472689184,0.079,,,,16.142181994
1715672311480383134,0.064,,,,16.149875944
1715672311488077084,0.052,,,,16.157569894
1715672311495771034,0.038,,,,16.165263844
1715672311503464984,0.021,,,,16.172957794
1715672311511158934,0.014,,,,16.180651744
1715672311518852884,0.014,,,,16.188345694
1715672311526546834,0.019,,,,16.196039644
1715672311534240784,0.021,,,,16.203733594
1715672311541934734,0.026,,,,16.211427544
1715672311549628684,0.036,,,,16.219121494
1715672311557322634,0.043,,,,16.226815444
1715672311565016584,0.048,,,,16.234509394
1715672311572710534,0.055,,,,16.242203344
1715672311580404484,0.06,,,,16.249897294
1715672311588098434,0.057,,,,16.257591244
1715672311595792384,0.052,,,,16.265285194
1715672311603486334,0.052,,,,16.272979144
1715672311611180284,0.052,,,,16.280673094
1715672311618874242,0.05,98.0,629.0,,16.288367052
1715672311626568540,0.043,,634.0,,16.29606135
1715672311634262838,0.038,,,,16.303755648
1715672311641957136,0.038,,,,16.311449946
1715672311649651434,0.031,,,,16.319144244
1715672311657345732,0.021,,,,16.326838542
1715672311665040030,0.021,,,,16.33453284
1715672311672734328,0.019,,,,16.342227138
1715672311680428626,0.012,,,,16.349921436
1715672311688122924,0.016,,,,16.357615734
1715672311695817222,0.019,,,,16.365310032
1715672311703511520,0.014,,,,16.37300433
1715672311711205818,0.004,,,,16.380698628
1715672311718900116,-0.004,,,,16.388392926
1715672311726594414,-0.002,,,,16.396087224
1715672311734288712,0.026,,,,16.403781522
1715672311741983010,0.057,,,,16.41147582
1715672311749677308,0.069,,,,16.419170118
1715672311757371606,0.06,,,,16.426864416
1715672311765065904,0.045,,,,16.434558714
1715672311772760202,0.036,,,,16.442253012
1715672311780454500,0.038,,,,16.44994731
1715672311788148798,0.045,,,,16.457641608
1715672311795843096,0.05,,,,16.465335906
1715672311803537394,0.05,,,,16.473030204
1715672311811231692,0.057,,,,16.480724502
1715672311818925990,0.072,,,,16.4884188
1715672311826620288,0.115,,,,16.496113098
1715672311834314586,0.348,,,,16.503807396
1715672311842008884,0.899,,,,16.511501694
1715672311849703182,1.539,,,,16.519195992
1715672311857397480,1.582,,,,16.52689029
1715672311865091778,0.598,,,,16.534584588
1715672311872786076,-0.339,,,,16.542278886
1715672311880480374,-0.209,,,,16.549973184
1715672311888174672,0.069,,,,16.557667482
1715672311895868970,-0.115,,,,16.56536178
1715672311903563268,-0.158,,,,16.573056078
1715672311911257566,-0.038,,,,16.580750376
1715672311918951864,-0.067,,,,16.588444674
1715672311926646162,-0.098,,,,16.596138972
1715672311934340460,-0.045,,,,16.60383327
1715672311942034758,-0.031,,,,16.611527568
1715672311949729056,-0.043,,,,16.619221866
1715672311957423354,-0.026,,,,16.626916164
1715672311965117652,-0.014,,,,16.634610462
1715672311972811950,-0.009,,,,16.64230476
1715672311980506248,0.007,,,,16.649999058
1715672311988200546,0.024,,,,16.657693356
1715672311995894844,0.033,,,,16.665387654
1715672312003589142,0.043,,,,16.673081952
1715672312011283440,0.055,,,,16.68077625
1715672312018977738,0.067,,,,16.688470548
1715672312026672036,0.084,,,,16.696164846
1715672312034366334,0.093,,,,16.703859144
1715672312042060632,0.096,,,,16.711553442
1715672312049754930,0.101,,,,16.71924774
1715672312057449228,0.101,,,,16.726942038
1715672312065143526,0.091,,,,16.734636336
1715672312072837824,0.086,,,,16.742330634
1715672312080532122,0.096,,,,16.750024932
1715672312088226420,0.101,,,,16.75771923
1715672312095920718,0.091,,,,16.765413528
1715672312103615016,0.074,,,,16.773107826
1715672312111309314,0.06,,,,16.780802124
1715672312119003612,0.05,,,,16.788496422
1715672312126697910,0.036,,,,16.79619072
1715672312134392208,0.021,,,,16.803885018
1715672312142086506,0.019,,,,16.811579316
1715672312149780804,0.021,,,,16.819273614
1715672312157475102,0.021,,,,16.826967912
1715672312165169400,0.026,,,,16.83466221
1715672312172863698,0.031,,,,16.842356508
1715672312180558034,0.038,97.0,641.0,,16.850050844
1715672312188252053,0.043,,,,16.857744863
1715672312195946072,0.043,,,,16.865438882
1715672312203640091,0.048,,,,16.873132901
1715672312211334110,0.057,,,,16.88082692
1715672312219028129,0.052,,,,16.888520939
1715672312226722148,0.043,,,,16.896214958
1715672312234416167,0.043,,,,16.903908977
1715672312242110186,0.04,,,,16.911602996
1715672312249804205,0.028,,,,16.919297015
1715672312257498224,0.019,,,,16.926991034
1715672312265192243,0.021,,,,16.934685053
1715672312272886262,0.021,,,,16.942379072
1715672312280580281,0.016,,,,16.950073091
1715672312288274300,0.014,,,,16.95776711
1715672312295968319,0.016,,,,16.965461129
1715672312303662338,0.019,,,,16.973155148
1715672312311356357,0.019,,,,16.980849167
1715672312319050376,0.012,,,,16.988543186
1715672312326744395,0.0,,,,16.996237205
1715672312334438414,-0.009,,,,17.003931224
1715672312342132433,-0.016,,,,17.011625243
1715672312349826452,0.0,,,,17.019319262
1715672312357520471,0.033,,,,17.027013281
1715672312365214490,0.052,,,,17.0347073
1715672312372908509,0.05,,,,17.042401319
1715672312380602528,0.043,,,,17.050095338
1715672312388296547,0.036,,,,17.057789357
1715672312395990566,0.033,,,,17.065483376
1715672312403684585,0.033,,,,17.073177395
1715672312411378604,0.036,,,,17.080871414
1715672312419072623,0.038,,,,17.088565433
1715672312426766642,0.038,,,,17.096259452
1715672312434460661,0.048,,,,17.103953471
1715672312442154680,0.069,,,,17.11164749
1715672312449848699,0.139,,,,17.119341509
1715672312457542718,0.413,,,,17.127035528
1715672312465236737,0.985,,,,17.134729547
1715672312472930756,1.567,,,,17.142423566
1715672312480624775,1.433,,,,17.150117585
1715672312488318794,0.37,,,,17.157811604
1715672312496012813,-0.37,,,,17.165505623
1715672312503706832,-0.122,,,,17.173199642
1715672312511400851,0.064,,,,17.180893661
1715672312519094870,-0.127,,,,17.18858768
1715672312526788889,-0.122,,,,17.196281699
1715672312534482908,-0.021,,,,17.203975718
1715672312542176927,-0.052,,,,17.211669737
1715672312549870946,-0.064,,,,17.219363756
1715672312557564965,-0.031,,,,17.227057775
1715672312565258984,-0.033,,,,17.234751794
1715672312572953003,-0.033,,,,17.242445813
1715672312580647022,-0.012,,,,17.250139832
1715672312588341041,0.0,,,,17.257833851
1715672312596035060,0.009,,,,17.26552787
1715672312603729079,0.024,,,,17.273221889
1715672312611423098,0.033,,,,17.280915908
1715672312619117117,0.043,,,,17.288609927
1715672312626811136,0.055,,,,17.296303946
1715672312634505155,0.067,,,,17.303997965
1715672312642199174,0.079,,,,17.311691984
1715672312649893193,0.086,,,,17.319386003
1715672312657587212,0.086,,,,17.327080022
1715672312665281231,0.091,,,,17.334774041
1715672312672975250,0.093,,,,17.34246806
1715672312680669269,0.096,,,,17.350162079
1715672312688363288,0.093,,,,17.357856098
1715672312696057307,0.088,,,,17.365550117
1715672312703751326,0.093,,,,17.373244136
1715672312711445345,0.096,,,,17.380938155
1715672312719139364,0.086,,,,17.388632174
1715672312726833383,0.076,,,,17.396326193
1715672312734527402,0.06,,,,17.404020212
1715672312742221478,0.038,,,,17.411714288
1715672312749915428,0.026,,,,17.419408238
1715672312757609378,0.016,,,,17.427102188
1715672312765303328,0.009,,,,17.434796138
1715672312772997278,0.014,,,,17.442490088
1715672312780691228,0.021,,,,17.450184038
1715672312788385178,0.021,,,,17.457877988
1715672312796079128,0.028,,,,17.465571938
1715672312803773078,0.04,,,,17.473265888
1715672312811467028,0.045,,,,17.480959838
1715672312819160978,0.05,,,,17.488653788
1715672312826854928,0.05,,,,17.496347738
1715672312834548878,0.04,,,,17.504041688
1715672312842242828,0.04,,,,17.511735638
1715672312849936778,0.033,,,,17.519429588
1715672312857630728,0.024,,,,17.527123538
1715672312865324678,0.026,,,,17.534817488
1715672312873018628,0.024,,,,17.542511438
1715672312880712578,0.004,,,,17.550205388
1715672312888406528,-0.004,,,,17.557899338
1715672312896100478,0.002,,,,17.565593288
1715672312903794428,0.004,,,,17.573287238
1715672312911488378,-0.004,,,,17.580981188
1715672312919182328,-0.002,,,,17.588675138
1715672312926876278,0.002,,,,17.596369088
1715672312934570228,-0.002,,,,17.604063038
1715672312942264178,-0.004,,,,17.611756988
1715672312949958128,-0.009,,,,17.619450938
1715672312957652078,-0.019,,,,17.627144888
1715672312965346028,-0.007,,,,17.634838838
1715672312973039978,0.021,,,,17.642532788
1715672312980733928,0.036,,,,17.650226738
1715672312988427878,0.045,,,,17.657920688
1715672312996121828,0.045,,,,17.665614638
1715672313003815778,0.028,,,,17.673308588
1715672313011509728,0.026,,,,17.681002538
1715672313019203678,0.033,,,,17.688696488
1715672313026897628,0.031,,,,17.696390438
1715672313034591578,0.031,,,,17.704084388
1715672313042285528,0.045,,,,17.711778338
1715672313049979478,0.064,,,,17.719472288
1715672313057673428,0.084,,,,17.727166238
1715672313065367378,0.127,,,,17.734860188
1715672313073061328,0.324,,,,17.742554138
1715672313080755278,0.798,,,,17.750248088
1715672313088449228,1.349,,,,17.757942038
1715672313096143178,1.37,,,,17.765635988
1715672313103837128,0.488,,,,17.773329938
1715672313111531078,-0.322,,,,17.781023888
1715672313119225028,-0.165,,,,17.788717838
1715672313126918978,0.091,,,,17.796411788
1715672313134612928,-0.076,,,,17.804105738
1715672313142306878,-0.11,,,,17.811799688
1715672313150000828,-0.007,,,,17.819493638
1715672313157694778,-0.031,,,,17.827187588
1715672313165388728,-0.055,,,,17.834881538
1715672313173082678,-0.012,,,,17.842575488
1715672313180776628,0.0,,,,17.850269438
1715672313188470578,-0.012,,,,17.857963388
1715672313196164528,0.004,,,,17.865657338
1715672313203858478,0.026,,,,17.873351288
1715672313211552428,0.031,,,,17.881045238
1715672313219246378,0.045,,,,17.888739188
1715672313226940328,0.062,,,,17.896433138
1715672313234634278,0.069,,,,17.904127088
1715672313242328228,0.076,,,,17.911821038
1715672313250022178,0.088,,,,17.919514988
1715672313257716128,0.105,,,,17.927208938
1715672313265410078,0.12,,,,17.934902888
1715672313273104028,0.129,,,,17.942596838
1715672313280797978,0.139,,,,17.950290788
1715672313288491928,0.144,,,,17.957984738
1715672313296185878,0.141,,,,17.965678688
1715672313303879836,0.141,96.0,623.0,,17.973372646
1715672313311573925,0.144,,624.0,,17.981066735
1715672313319268014,0.146,,,,17.988760824
1715672313326962103,0.139,,,,17.996454913
1715672313334656192,0.12,,,,18.004149002
1715672313342350281,0.093,,,,18.011843091
1715672313350044370,0.067,,,,18.01953718
1715672313357738459,0.052,,,,18.027231269
1715672313365432548,0.033,,,,18.034925358
1715672313373126637,0.019,,,,18.042619447
1715672313380820726,0.021,,,,18.050313536
1715672313388514815,0.014,,,,18.058007625
1715672313396208904,0.004,,,,18.065701714
1715672313403902993,0.012,,,,18.073395803
1715672313411597082,0.026,,,,18.081089892
1715672313419291171,0.033,,,,18.088783981
1715672313426985260,0.04,,,,18.09647807
1715672313434679349,0.043,,,,18.104172159
1715672313442373438,0.048,,,,18.111866248
1715672313450067527,0.055,,,,18.119560337
1715672313457761616,0.06,,,,18.127254426
1715672313465455705,0.06,,,,18.134948515
1715672313473149794,0.062,,,,18.142642604
1715672313480843883,0.057,,,,18.150336693
1715672313488537972,0.052,,,,18.158030782
1715672313496232061,0.048,,,,18.165724871
1715672313503926150,0.045,,,,18.17341896
1715672313511620239,0.04,,,,18.181113049
1715672313519314328,0.038,,,,18.188807138
1715672313527008417,0.033,,,,18.196501227
1715672313534702506,0.024,,,,18.204195316
1715672313542396595,0.024,,,,18.211889405
1715672313550090684,0.036,,,,18.219583494
1715672313557784773,0.057,,,,18.227277583
1715672313565478862,0.062,,,,18.234971672
1715672313573172951,0.052,,,,18.242665761
1715672313580867040,0.048,,,,18.25035985
1715672313588561129,0.052,,,,18.258053939
1715672313596255218,0.06,,,,18.265748028
1715672313603949307,0.062,,,,18.273442117
1715672313611643396,0.064,,,,18.281136206
1715672313619337485,0.069,,,,18.288830295
1715672313627031574,0.081,,,,18.296524384
1715672313634725663,0.096,,,,18.304218473
1715672313642419752,0.134,,,,18.311912562
1715672313650113841,0.367,,,,18.319606651
1715672313657807930,0.88,,,,18.32730074
1715672313665502019,1.409,,,,18.334994829
1715672313673196108,1.308,,,,18.342688918
1715672313680890197,0.343,,,,18.350383007
1715672313688584286,-0.331,,,,18.358077096
1715672313696278375,-0.072,,,,18.365771185
1715672313703972464,0.105,,,,18.373465274
1715672313711666553,-0.086,,,,18.381159363
1715672313719360642,-0.076,,,,18.388853452
1715672313727054731,0.019,,,,18.396547541
1715672313734748820,-0.019,,,,18.40424163
1715672313742442909,-0.033,,,,18.411935719
1715672313750136998,0.009,,,,18.419629808
1715672313757831087,0.012,,,,18.427323897
1715672313765525176,0.004,,,,18.435017986
1715672313773219265,0.028,,,,18.442712075
1715672313780913354,0.045,,,,18.450406164
1715672313788607443,0.048,,,,18.458100253
1715672313796301532,0.062,,,,18.465794342
1715672313803995621,0.079,,,,18.473488431
1715672313811689710,0.081,,,,18.48118252
1715672313819383799,0.093,,,,18.488876609
1715672313827077888,0.117,,,,18.496570698
1715672313834771977,0.125,,,,18.504264787
1715672313842466066,0.117,,,,18.511958876
1715672313850160155,0.122,,,,18.519652965
1715672313857854244,0.134,,,,18.527347054
1715672313865548368,0.137,,,,18.535041178
1715672313873242596,0.132,,,,18.542735406
1715672313880936824,0.132,,,,18.550429634
1715672313888631052,0.132,,,,18.558123862
1715672313896325280,0.125,,,,18.56581809
1715672313904019508,0.115,,,,18.573512318
1715672313911713736,0.105,,,,18.581206546
1715672313919407964,0.091,,,,18.588900774
1715672313927102192,0.069,,,,18.596595002
1715672313934796420,0.048,,,,18.60428923
1715672313942490648,0.036,,,,18.611983458
1715672313950184876,0.036,,,,18.619677686
1715672313957879104,0.031,,,,18.627371914
1715672313965573332,0.016,,,,18.635066142
1715672313973267560,0.019,,,,18.64276037
1715672313980961788,0.033,,,,18.650454598
1715672313988656016,0.038,,,,18.658148826
1715672313996350244,0.038,,,,18.665843054
1715672314004044472,0.048,,,,18.673537282
1715672314011738700,0.055,,,,18.68123151
1715672314019432928,0.06,,,,18.688925738
1715672314027127156,0.067,,,,18.696619966
1715672314034821384,0.064,,,,18.704314194
1715672314042515612,0.064,,,,18.712008422
1715672314050209840,0.067,,,,18.71970265
1715672314057904068,0.067,,,,18.727396878
1715672314065598296,0.067,,,,18.735091106
1715672314073292524,0.069,,,,18.742785334
1715672314080986752,0.067,,,,18.750479562
1715672314088680980,0.06,,,,18.75817379
1715672314096375208,0.06,,,,18.765868018
1715672314104069436,0.06,,,,18.773562246
1715672314111763664,0.052,,,,18.781256474
1715672314119457892,0.052,,,,18.788950702
1715672314127152120,0.069,,,,18.79664493
1715672314134846348,0.079,,,,18.804339158
1715672314142540576,0.084,,,,18.812033386
1715672314150234804,0.079,,,,18.819727614
1715672314157929032,0.067,,,,18.827421842
1715672314165623260,0.064,,,,18.83511607
1715672314173317488,0.069,,,,18.842810298
1715672314181011716,0.074,,,,18.850504526
1715672314188705944,0.079,,,,18.858198754
1715672314196400172,0.086,,,,18.865892982
1715672314204094400,0.091,,,,18.87358721
1715672314211788628,0.098,,,,18.881281438
1715672314219482856,0.158,,,,18.888975666
1715672314227177084,0.449,,,,18.896669894
1715672314234871312,1.046,,,,18.904364122
1715672314242565540,1.606,,,,18.91205835
1715672314250259768,1.387,,,,18.919752578
1715672314257953996,0.286,,,,18.927446806
1715672314265648224,-0.339,,,,18.935141034
1715672314273342452,-0.019,,,,18.942835262
1715672314281036680,0.105,,,,18.95052949
1715672314288730908,-0.101,,,,18.958223718
1715672314296425136,-0.062,,,,18.965917946
1715672314304119364,0.031,,,,18.973612174
1715672314311813592,-0.019,,,,18.981306402
1715672314319507820,-0.024,,,,18.98900063
1715672314327202048,0.019,,,,18.996694858
1715672314334896276,0.014,,,,19.004389086
1715672314342590504,0.007,,,,19.012083314
1715672314350284732,0.019,,,,19.019777542
1715672314357978960,0.031,,,,19.02747177
1715672314365673188,0.038,,,,19.035165998
1715672314373367416,0.05,,,,19.042860226
1715672314381061644,0.06,,,,19.050554454
1715672314388755872,0.072,,,,19.058248682
1715672314396450100,0.086,,,,19.06594291
1715672314404144328,0.098,,,,19.073637138
1715672314411838556,0.108,,,,19.081331366
1715672314419532784,0.117,,,,19.089025594
1715672314427227070,0.127,96.0,622.0,,19.09671988
1715672314434921020,0.134,,616.0,,19.10441383
1715672314442614970,0.132,,,,19.11210778
1715672314450308920,0.127,,,,19.11980173
1715672314458002870,0.127,,,,19.12749568
1715672314465696820,0.132,,,,19.13518963
1715672314473390770,0.127,,,,19.14288358
1715672314481084720,0.12,,,,19.15057753
1715672314488778670,0.11,,,,19.15827148
1715672314496472620,0.098,,,,19.16596543
1715672314504166570,0.079,,,,19.17365938
1715672314511860520,0.069,,,,19.18135333
1715672314519554470,0.067,,,,19.18904728
1715672314527248420,0.062,,,,19.19674123
1715672314534942370,0.057,,,,19.20443518
1715672314542636320,0.06,,,,19.21212913
1715672314550330270,0.062,,,,19.21982308
1715672314558024220,0.072,,,,19.22751703
1715672314565718170,0.081,,,,19.23521098
1715672314573412120,0.088,,,,19.24290493
1715672314581106070,0.093,,,,19.25059888
1715672314588800020,0.096,,,,19.25829283
1715672314596493970,0.091,,,,19.26598678
1715672314604187920,0.091,,,,19.27368073
1715672314611881870,0.096,,,,19.28137468
1715672314619575820,0.101,,,,19.28906863
1715672314627269770,0.093,,,,19.29676258
1715672314634963720,0.086,,,,19.30445653
1715672314642657670,0.086,,,,19.31215048
1715672314650351620,0.086,,,,19.31984443
1715672314658045570,0.081,,,,19.32753838
1715672314665739520,0.079,,,,19.33523233
1715672314673433470,0.076,,,,19.34292628
1715672314681127420,0.067,,,,19.35062023
1715672314688821370,0.06,,,,19.35831418
1715672314696515320,0.06,,,,19.36600813
1715672314704209270,0.072,,,,19.37370208
1715672314711903220,0.091,,,,19.38139603
1715672314719597170,0.108,,,,19.38908998
1715672314727291120,0.108,,,,19.39678393
1715672314734985070,0.096,,,,19.40447788
1715672314742679020,0.091,,,,19.41217183
1715672314750372970,0.088,,,,19.41986578
1715672314758066920,0.086,,,,19.42755973
1715672314765760870,0.091,,,,19.43525368
1715672314773454820,0.093,,,,19.44294763
1715672314781148770,0.088,,,,19.45064158
1715672314788842720,0.096,,,,19.45833553
1715672314796536670,0.115,,,,19.46602948
1715672314804230620,0.271,,,,19.47372343
1715672314811924570,0.759,,,,19.48141738
1715672314819618520,1.462,,,,19.48911133
1715672314827312470,1.741,,,,19.49680528
1715672314835006420,0.94,,,,19.50449923
1715672314842700370,-0.173,,,,19.51219318
1715672314850394320,-0.257,,,,19.51988713
1715672314858088270,0.091,,,,19.52758108
1715672314865782220,-0.045,,,,19.53527503
1715672314873476170,-0.161,,,,19.54296898
1715672314881170120,-0.038,,,,19.55066293
1715672314888864070,-0.031,,,,19.55835688
1715672314896558020,-0.081,,,,19.56605083
1715672314904251970,-0.04,,,,19.57374478
1715672314911945920,-0.016,,,,19.58143873
1715672314919639870,-0.031,,,,19.58913268
1715672314927333820,-0.016,,,,19.59682663
1715672314935027770,0.004,,,,19.60452058
1715672314942721720,0.009,,,,19.61221453
1715672314950415670,0.014,,,,19.61990848
1715672314958109620,0.024,,,,19.62760243
1715672314965803570,0.036,,,,19.63529638
1715672314973497520,0.052,,,,19.64299033
1715672314981191470,0.064,,,,19.65068428
1715672314988885430,0.069,,,,19.65837824
1715672314996579798,0.081,,,,19.666072608
1715672315004274166,0.091,,,,19.673766976
1715672315011968534,0.091,,,,19.681461344
1715672315019662902,0.091,,,,19.689155712
1715672315027357270,0.093,,,,19.69685008
1715672315035051638,0.091,,,,19.704544448
1715672315042746006,0.086,,,,19.712238816
1715672315050440374,0.086,,,,19.719933184
1715672315058134742,0.088,,,,19.727627552
1715672315065829110,0.084,,,,19.73532192
1715672315073523478,0.057,,,,19.743016288
1715672315081217846,0.04,,,,19.750710656
1715672315088912214,0.033,,,,19.758405024
1715672315096606582,0.021,,,,19.766099392
1715672315104300950,0.007,,,,19.77379376
1715672315111995318,0.004,,,,19.781488128
1715672315119689686,0.007,,,,19.789182496
1715672315127384054,0.004,,,,19.796876864
1715672315135078422,0.007,,,,19.804571232
1715672315142772790,0.014,,,,19.8122656
1715672315150467158,0.021,,,,19.819959968
1715672315158161526,0.026,,,,19.827654336
1715672315165855894,0.033,,,,19.835348704
1715672315173550262,0.043,,,,19.843043072
1715672315181244630,0.05,,,,19.85073744
1715672315188938998,0.048,,,,19.858431808
1715672315196633366,0.043,,,,19.866126176
1715672315204327734,0.045,,,,19.873820544
1715672315212022102,0.048,,,,19.881514912
1715672315219716470,0.04,,,,19.88920928
1715672315227410838,0.033,,,,19.896903648
1715672315235105206,0.036,,,,19.904598016
1715672315242799574,0.036,,,,19.912292384
1715672315250493942,0.033,,,,19.919986752
1715672315258188310,0.033,,,,19.92768112
1715672315265882678,0.036,,,,19.935375488
1715672315273577046,0.038,,,,19.943069856
1715672315281271414,0.038,,,,19.950764224
1715672315288965782,0.04,,,,19.958458592
1715672315296660150,0.04,,,,19.96615296
1715672315304354518,0.043,,,,19.973847328
1715672315312048886,0.043,,,,19.981541696
1715672315319743254,0.043,,,,19.989236064
1715672315327437622,0.04,,,,19.996930432
1715672315335131990,0.031,,,,20.0046248
1715672315342826358,0.016,,,,20.012319168
1715672315350520726,0.021,,,,20.020013536
1715672315358215094,0.043,,,,20.027707904
1715672315365909462,0.064,,,,20.035402272
1715672315373603830,0.072,,,,20.04309664
1715672315381298198,0.057,,,,20.050791008
1715672315388992566,0.036,,,,20.058485376
1715672315396686934,0.028,,,,20.066179744
1715672315404381302,0.031,,,,20.073874112
1715672315412075670,0.036,,,,20.08156848
1715672315419770038,0.038,,,,20.089262848
1715672315427464406,0.04,,,,20.096957216
1715672315435158774,0.05,,,,20.104651584
1715672315442853142,0.069,,,,20.112345952
1715672315450547510,0.115,,,,20.12004032
1715672315458241878,0.305,,,,20.127734688
1715672315465936246,0.791,,,,20.135429056
1715672315473630614,1.459,,,,20.143123424
1715672315481324982,1.707,,,,20.150817792
1715672315489019350,0.896,,,,20.15851216
1715672315496713718,-0.223,,,,20.166206528
1715672315504408086,-0.31,,,,20.173900896
1715672315512102454,0.057,,,,20.181595264
1715672315519796822,-0.064,,,,20.189289632
1715672315527491190,-0.18,,,,20.196984
1715672315535185558,-0.055,,,,20.204678368
1715672315542879926,-0.043,,,,20.212372736
1715672315550574306,-0.088,96.0,576.0,,20.220067116
1715672315558268256,-0.055,,,,20.227761066
1715672315565962206,-0.036,,,,20.235455016
1715672315573656156,-0.043,,,,20.243148966
1715672315581350106,-0.028,,,,20.250842916
1715672315589044056,-0.014,,,,20.258536866
1715672315596738006,-0.007,,,,20.266230816
1715672315604431956,0.004,,,,20.273924766
1715672315612125906,0.014,,,,20.281618716
1715672315619819856,0.019,,,,20.289312666
1715672315627513806,0.033,,,,20.297006616
1715672315635207756,0.052,,,,20.304700566
1715672315642901706,0.064,,,,20.312394516
1715672315650595656,0.074,,,,20.320088466
1715672315658289606,0.084,,,,20.327782416
1715672315665983556,0.086,,,,20.335476366
1715672315673677506,0.081,,,,20.343170316
1715672315681371456,0.081,,,,20.350864266
1715672315689065406,0.084,,,,20.358558216
1715672315696759356,0.086,,,,20.366252166
1715672315704453306,0.081,,,,20.373946116
1715672315712147256,0.081,,,,20.381640066
1715672315719841206,0.086,,,,20.389334016
1715672315727535156,0.074,,,,20.397027966
1715672315735229106,0.048,,,,20.404721916
1715672315742923056,0.033,,,,20.412415866
1715672315750617006,0.026,,,,20.420109816
1715672315758310956,0.016,,,,20.427803766
1715672315766004906,0.012,,,,20.435497716
1715672315773698856,0.014,,,,20.443191666
1715672315781392806,0.021,,,,20.450885616
1715672315789086756,0.026,,,,20.458579566
1715672315796780706,0.031,,,,20.466273516
1715672315804474656,0.04,,,,20.473967466
1715672315812168606,0.048,,,,20.481661416
1715672315819862556,0.055,,,,20.489355366
1715672315827556506,0.062,,,,20.497049316
1715672315835250456,0.06,,,,20.504743266
1715672315842944406,0.057,,,,20.512437216
1715672315850638356,0.057,,,,20.520131166
1715672315858332306,0.055,,,,20.527825116
1715672315866026256,0.04,,,,20.535519066
1715672315873720206,0.033,,,,20.543213016
1715672315881414156,0.033,,,,20.550906966
1715672315889108106,0.036,,,,20.558600916
1715672315896802056,0.036,,,,20.566294866
1715672315904496006,0.036,,,,20.573988816
1715672315912189956,0.033,,,,20.581682766
1715672315919883906,0.033,,,,20.589376716
1715672315927577856,0.038,,,,20.597070666
1715672315935271806,0.04,,,,20.604764616
1715672315942965756,0.038,,,,20.612458566
1715672315950659706,0.04,,,,20.620152516
1715672315958353656,0.05,,,,20.627846466
1715672315966047606,0.057,,,,20.635540416
1715672315973741556,0.052,,,,20.643234366
1715672315981435506,0.048,,,,20.650928316
1715672315989129456,0.05,,,,20.658622266
1715672315996823406,0.05,,,,20.666316216
1715672316004517356,0.033,,,,20.674010166
1715672316012211306,0.021,,,,20.681704116
1715672316019905256,0.031,,,,20.689398066
1715672316027599206,0.057,,,,20.697092016
1715672316035293156,0.081,,,,20.704785966
1715672316042987106,0.093,,,,20.712479916
1715672316050681056,0.084,,,,20.720173866
1715672316058375006,0.06,,,,20.727867816
1715672316066068956,0.052,,,,20.735561766
1715672316073762906,0.06,,,,20.743255716
1715672316081456856,0.067,,,,20.750949666
1715672316089150806,0.072,,,,20.758643616
1715672316096844756,0.069,,,,20.766337566
1715672316104538706,0.074,,,,20.774031516
1715672316112232664,0.093,,,,20.781725474
1715672316119926823,0.146,,,,20.789419633
1715672316127620982,0.36,,,,20.797113792
1715672316135315141,0.877,,,,20.804807951
1715672316143009300,1.529,,,,20.81250211
1715672316150703459,1.656,,,,20.820196269
1715672316158397618,0.74,,,,20.827890428
1715672316166091777,-0.281,,,,20.835584587
1715672316173785936,-0.235,,,,20.843278746
1715672316181480095,0.088,,,,20.850972905
1715672316189174254,-0.072,,,,20.858667064
1715672316196868413,-0.146,,,,20.866361223
1715672316204562572,-0.026,,,,20.874055382
1715672316212256731,-0.048,,,,20.881749541
1715672316219950890,-0.091,,,,20.8894437
1715672316227645049,-0.04,,,,20.897137859
1715672316235339208,-0.019,,,,20.904832018
1715672316243033367,-0.038,,,,20.912526177
1715672316250727526,-0.031,,,,20.920220336
1715672316258421685,-0.012,,,,20.927914495
1715672316266115844,-0.002,,,,20.935608654
1715672316273810003,0.007,,,,20.943302813
1715672316281504162,0.021,,,,20.950996972
1715672316289198321,0.036,,,,20.958691131
1715672316296892480,0.048,,,,20.96638529
1715672316304586639,0.06,,,,20.974079449
1715672316312280798,0.074,,,,20.981773608
1715672316319974957,0.093,,,,20.989467767
1715672316327669116,0.098,,,,20.997161926
1715672316335363275,0.098,,,,21.004856085
1715672316343057434,0.098,,,,21.012550244
1715672316350751593,0.098,,,,21.020244403
1715672316358445752,0.098,,,,21.027938562
1715672316366139911,0.093,,,,21.035632721
1715672316373834070,0.088,,,,21.04332688
1715672316381528229,0.093,,,,21.051021039
1715672316389222388,0.093,,,,21.058715198
1715672316396916547,0.074,,,,21.066409357
1715672316404610706,0.06,,,,21.074103516
1715672316412304865,0.05,,,,21.081797675
1715672316419999024,0.036,,,,21.089491834
1715672316427693183,0.026,,,,21.097185993
1715672316435387342,0.021,,,,21.104880152
1715672316443081501,0.016,,,,21.112574311
1715672316450775660,0.016,,,,21.12026847
1715672316458469819,0.024,,,,21.127962629
1715672316466163978,0.033,,,,21.135656788
1715672316473858137,0.038,,,,21.143350947
1715672316481552296,0.043,,,,21.151045106
1715672316489246455,0.045,,,,21.158739265
1715672316496940614,0.048,,,,21.166433424
1715672316504634773,0.052,,,,21.174127583
1715672316512328932,0.06,,,,21.181821742
1715672316520023091,0.062,,,,21.189515901
1715672316527717250,0.064,,,,21.19721006
1715672316535411409,0.06,,,,21.204904219
1715672316543105568,0.052,,,,21.212598378
1715672316550799727,0.055,,,,21.220292537
1715672316558493886,0.052,,,,21.227986696
1715672316566188045,0.048,,,,21.235680855
1715672316573882204,0.055,,,,21.243375014
1715672316581576363,0.06,,,,21.251069173
1715672316589270522,0.048,,,,21.258763332
1715672316596964681,0.043,,,,21.266457491
1715672316604658840,0.05,,,,21.27415165
1715672316612352999,0.048,,,,21.281845809
1715672316620047158,0.04,,,,21.289539968
1715672316627741317,0.048,,,,21.297234127
1715672316635435476,0.045,,,,21.304928286
1715672316643129635,0.038,,,,21.312622445
1715672316650823794,0.045,,,,21.320316604
1715672316658517953,0.048,,,,21.328010763
1715672316666212112,0.033,,,,21.335704922
1715672316673906282,0.019,98.0,576.0,,21.343399092
1715672316681600441,0.024,,581.0,,21.351093251
1715672316689294600,0.04,,,,21.35878741
1715672316696988759,0.064,,,,21.366481569
1715672316704682918,0.086,,,,21.374175728
1715672316712377077,0.091,,,,21.381869887
1715672316720071236,0.067,,,,21.389564046
1715672316727765395,0.043,,,,21.397258205
1715672316735459554,0.048,,,,21.404952364
1715672316743153713,0.064,,,,21.412646523
1715672316750847872,0.062,,,,21.420340682
1715672316758542031,0.057,,,,21.428034841
1715672316766236190,0.064,,,,21.435729
1715672316773930349,0.086,,,,21.443423159
1715672316781624508,0.122,,,,21.451117318
1715672316789318667,0.247,,,,21.458811477
1715672316797012826,0.627,,,,21.466505636
1715672316804706985,1.214,,,,21.474199795
1715672316812401144,1.567,,,,21.481893954
1715672316820095303,1.05,,,,21.489588113
1715672316827789462,-0.033,,,,21.497282272
1715672316835483621,-0.334,,,,21.504976431
1715672316843177780,0.038,,,,21.51267059
1715672316850871939,0.028,,,,21.520364749
1715672316858566098,-0.132,,,,21.528058908
1715672316866260257,-0.038,,,,21.535753067
1715672316873954416,0.0,,,,21.543447226
1715672316881648575,-0.057,,,,21.551141385
1715672316889342734,-0.033,,,,21.558835544
1715672316897036893,0.002,,,,21.566529703
1715672316904731052,-0.007,,,,21.574223862
1715672316912425211,0.0,,,,21.581918021
1715672316920119370,0.028,,,,21.58961218
1715672316927813529,0.036,,,,21.597306339
1715672316935507688,0.04,,,,21.605000498
1715672316943201847,0.057,,,,21.612694657
1715672316950896006,0.072,,,,21.620388816
1715672316958590165,0.081,,,,21.628082975
1715672316966284324,0.096,,,,21.635777134
1715672316973978483,0.113,,,,21.643471293
1715672316981672642,0.125,,,,21.651165452
1715672316989366801,0.137,,,,21.658859611
1715672316997060960,0.144,,,,21.66655377
1715672317004755119,0.149,,,,21.674247929
1715672317012449278,0.153,,,,21.681942088
1715672317020143437,0.151,,,,21.689636247
1715672317027837596,0.144,,,,21.697330406
1715672317035531755,0.141,,,,21.705024565
1715672317043225914,0.146,,,,21.712718724
1715672317050920073,0.144,,,,21.720412883
1715672317058614232,0.125,,,,21.728107042
1715672317066308391,0.105,,,,21.735801201
1715672317074002550,0.091,,,,21.74349536
1715672317081696709,0.072,,,,21.751189519
1715672317089390868,0.048,,,,21.758883678
1715672317097085027,0.036,,,,21.766577837
1715672317104779186,0.036,,,,21.774271996
1715672317112473345,0.036,,,,21.781966155
1715672317120167504,0.038,,,,21.789660314
1715672317127861663,0.048,,,,21.797354473
1715672317135555822,0.057,,,,21.805048632
1715672317143249981,0.064,,,,21.812742791
1715672317150944140,0.072,,,,21.82043695
1715672317158638299,0.079,,,,21.828131109
1715672317166332458,0.084,,,,21.835825268
1715672317174026617,0.084,,,,21.843519427
1715672317181720776,0.084,,,,21.851213586
1715672317189414935,0.086,,,,21.858907745
1715672317197109094,0.081,,,,21.866601904
1715672317204803253,0.074,,,,21.874296063
1715672317212497412,0.072,,,,21.881990222
1715672317220191571,0.069,,,,21.889684381
1715672317227885730,0.064,,,,21.89737854
1715672317235579898,0.057,99.0,653.0,,21.905072708
1715672317243273917,0.057,,,,21.912766727
1715672317250967936,0.06,,,,21.920460746
1715672317258661955,0.057,,,,21.928154765
1715672317266355974,0.055,,,,21.935848784
1715672317274049993,0.057,,,,21.943542803
1715672317281744012,0.055,,,,21.951236822
1715672317289438031,0.05,,,,21.958930841
1715672317297132050,0.045,,,,21.96662486
1715672317304826069,0.048,,,,21.974318879
1715672317312520088,0.045,,,,21.982012898
1715672317320214107,0.026,,,,21.989706917
1715672317327908126,0.014,,,,21.997400936
1715672317335602145,0.033,,,,22.005094955
1715672317343296164,0.064,,,,22.012788974
1715672317350990183,0.084,,,,22.020482993
1715672317358684202,0.084,,,,22.028177012
1715672317366378221,0.064,,,,22.035871031
1715672317374072240,0.052,,,,22.04356505
1715672317381766259,0.05,,,,22.051259069
1715672317389460278,0.048,,,,22.058953088
1715672317397154297,0.055,,,,22.066647107
1715672317404848316,0.062,,,,22.074341126
1715672317412542335,0.062,,,,22.082035145
1715672317420236354,0.084,,,,22.089729164
1715672317427930373,0.139,,,,22.097423183
1715672317435624392,0.322,,,,22.105117202
1715672317443318411,0.793,,,,22.112811221
1715672317451012430,1.452,,,,22.12050524
1715672317458706449,1.704,,,,22.128199259
1715672317466400468,0.901,,,,22.135893278
1715672317474094487,-0.209,,,,22.143587297
1715672317481788506,-0.283,,,,22.151281316
1715672317489482525,0.091,,,,22.158975335
1715672317497176544,-0.031,,,,22.166669354
1715672317504870563,-0.153,,,,22.174363373
1715672317512564582,-0.026,,,,22.182057392
1715672317520258601,-0.012,,,,22.189751411
1715672317527952620,-0.064,,,,22.19744543
1715672317535646639,-0.028,,,,22.205139449
1715672317543340658,-0.002,,,,22.212833468
1715672317551034677,-0.009,,,,22.220527487
1715672317558728696,0.007,,,,22.228221506
1715672317566422715,0.021,,,,22.235915525
1715672317574116734,0.026,,,,22.243609544
1715672317581810753,0.036,,,,22.251303563
1715672317589504772,0.04,,,,22.258997582
