time,ecg,hr,rr,marker,norm_time
1716193405085259102,0.053,78.0,798.0,,0.0
1716193405092953888,0.046,,,,0.007694786
1716193405100648674,0.046,,,,0.015389572
1716193405108343460,0.053,,,,0.023084358
1716193405116038246,0.056,,,,0.030779144
1716193405123733032,0.046,,,,0.03847393
1716193405131427818,0.039,,,,0.046168716
1716193405139122604,0.058,,,,0.053863502
1716193405146817390,0.1,,,,0.061558288
1716193405154512176,0.126,,,,0.069253074
1716193405162206962,0.119,,,,0.07694786
1716193405169901748,0.09,,,,0.084642646
1716193405177596534,0.073,,,,0.092337432
1716193405185291320,0.073,,,,0.100032218
1716193405192986106,0.065,,,,0.107727004
1716193405200680892,0.051,,,,0.11542179
1716193405208375678,0.039,,,,0.123116576
1716193405216070464,0.036,,,,0.130811362
1716193405223765250,0.041,,,,0.138506148
1716193405231460036,0.043,,,,0.146200934
1716193405239154822,0.039,,,,0.15389572
1716193405246849608,0.002,,,,0.161590506
1716193405254544394,-0.014,,,,0.169285292
1716193405262239180,0.241,,,,0.176980078
1716193405269933966,0.937,,,,0.184674864
1716193405277628752,1.728,,,,0.19236965
1716193405285323538,2.119,,,,0.200064436
1716193405293018324,1.799,,,,0.207759222
1716193405300713110,0.62,,,,0.215454008
1716193405308407896,-0.349,,,,0.223148794
1716193405316102682,-0.112,,,,0.23084358
1716193405323797468,0.212,,,,0.238538366
1716193405331492254,-0.075,,,,0.246233152
1716193405339187040,-0.173,,,,0.253927938
1716193405346881826,-0.024,,,,0.261622724
1716193405354576612,-0.063,,,,0.26931751
1716193405362271398,-0.117,,,,0.277012296
1716193405369966184,-0.056,,,,0.284707082
1716193405377660970,-0.036,,,,0.292401868
1716193405385355756,-0.048,,,,0.300096654
1716193405393050542,-0.021,,,,0.30779144
1716193405400745328,-0.002,,,,0.315486226
1716193405408440114,0.0,,,,0.323181012
1716193405416134900,0.019,,,,0.330875798
1716193405423829686,0.036,,,,0.338570584
1716193405431524472,0.053,,,,0.34626537
1716193405439219258,0.075,,,,0.353960156
1716193405446914044,0.095,,,,0.361654942
1716193405454608830,0.107,,,,0.369349728
1716193405462303616,0.124,,,,0.377044514
1716193405469998402,0.144,,,,0.3847393
1716193405477693188,0.163,,,,0.392434086
1716193405485387974,0.178,,,,0.400128872
1716193405493082760,0.187,,,,0.407823658
1716193405500777546,0.2,,,,0.415518444
1716193405508472332,0.207,,,,0.42321323
1716193405516167118,0.207,,,,0.430908016
1716193405523861904,0.207,,,,0.438602802
1716193405531556690,0.2,,,,0.446297588
1716193405539251476,0.18,,,,0.453992374
1716193405546946262,0.153,,,,0.46168716
1716193405554641048,0.122,,,,0.469381946
1716193405562335834,0.083,,,,0.477076732
1716193405570030620,0.041,,,,0.484771518
1716193405577725406,0.009,,,,0.492466304
1716193405585420192,-0.009,,,,0.50016109
1716193405593114978,-0.026,,,,0.507855876
1716193405600809764,-0.046,,,,0.515550662
1716193405608504550,-0.048,,,,0.523245448
1716193405616199336,-0.039,,,,0.530940234
1716193405623894122,-0.029,,,,0.53863502
1716193405631588908,-0.024,,,,0.546329806
1716193405639283694,-0.021,,,,0.554024592
1716193405646978496,-0.014,,,,0.561719394
1716193405654673700,-0.009,,,,0.569414598
1716193405662368904,0.0,,,,0.577109802
1716193405670064108,0.012,,,,0.584805006
1716193405677759312,0.021,,,,0.59250021
1716193405685454516,0.026,,,,0.600195414
1716193405693149720,0.019,,,,0.607890618
1716193405700844924,0.009,,,,0.615585822
1716193405708540128,0.012,,,,0.623281026
1716193405716235332,0.014,,,,0.63097623
1716193405723930536,0.014,,,,0.638671434
1716193405731625740,0.017,,,,0.646366638
1716193405739320944,0.019,,,,0.654061842
1716193405747016148,0.024,,,,0.661757046
1716193405754711352,0.029,,,,0.66945225
1716193405762406556,0.026,,,,0.677147454
1716193405770101760,0.024,,,,0.684842658
1716193405777796964,0.021,,,,0.692537862
1716193405785492168,0.019,,,,0.700233066
1716193405793187372,0.021,,,,0.70792827
1716193405800882576,0.026,,,,0.715623474
1716193405808577780,0.026,,,,0.723318678
1716193405816272984,0.021,,,,0.731013882
1716193405823968188,0.024,,,,0.738709086
1716193405831663392,0.034,,,,0.74640429
1716193405839358596,0.036,,,,0.754099494
1716193405847053800,0.036,,,,0.761794698
1716193405854749004,0.034,,,,0.769489902
1716193405862444208,0.036,,,,0.777185106
1716193405870139412,0.039,,,,0.78488031
1716193405877834616,0.036,,,,0.792575514
1716193405885529820,0.039,,,,0.800270718
1716193405893225024,0.041,,,,0.807965922
1716193405900920228,0.034,,,,0.815661126
1716193405908615432,0.034,,,,0.82335633
1716193405916310636,0.056,,,,0.831051534
1716193405924005840,0.102,,,,0.838746738
1716193405931701044,0.129,,,,0.846441942
1716193405939396248,0.107,,,,0.854137146
1716193405947091452,0.07,,,,0.86183235
1716193405954786656,0.063,,,,0.869527554
1716193405962481860,0.073,,,,0.877222758
1716193405970177064,0.063,,,,0.884917962
1716193405977872268,0.041,,,,0.892613166
1716193405985567472,0.031,,,,0.90030837
1716193405993262676,0.034,,,,0.908003574
1716193406000957880,0.034,,,,0.915698778
1716193406008653084,0.034,,,,0.923393982
1716193406016348288,0.021,,,,0.931089186
1716193406024043492,-0.012,,,,0.93878439
1716193406031738696,0.014,,,,0.946479594
1716193406039433900,0.375,,,,0.954174798
1716193406047129104,1.184,,,,0.961870002
1716193406054824308,1.979,,,,0.969565206
1716193406062519512,2.204,,,,0.97726041
1716193406070214716,1.572,,,,0.984955614
1716193406077909920,0.263,,,,0.992650818
1716193406085605124,-0.449,,,,1.000346022
1716193406093300328,-0.039,,,,1.008041226
1716193406100995532,0.161,,,,1.01573643
1716193406108690736,-0.148,,,,1.023431634
1716193406116385940,-0.158,,,,1.031126838
1716193406124081144,-0.031,,,,1.038822042
1716193406131776348,-0.1,,,,1.046517246
1716193406139471552,-0.129,,,,1.05421245
1716193406147166756,-0.07,,,,1.061907654
1716193406154861960,-0.063,,,,1.069602858
1716193406162557164,-0.065,,,,1.077298062
1716193406170252368,-0.034,,,,1.084993266
1716193406177947572,-0.017,,,,1.09268847
1716193406185642776,-0.009,,,,1.100383674
1716193406193337980,0.009,,,,1.108078878
1716193406201033184,0.029,,,,1.115774082
1716193406208728408,0.046,77.0,775.0,,1.123469306
1716193406216423194,0.068,,796.0,,1.131164092
1716193406224117980,0.09,,,,1.138858878
1716193406231812766,0.104,,,,1.146553664
1716193406239507552,0.119,,,,1.15424845
1716193406247202338,0.141,,,,1.161943236
1716193406254897124,0.158,,,,1.169638022
1716193406262591910,0.166,,,,1.177332808
1716193406270286696,0.17,,,,1.185027594
1716193406277981482,0.183,,,,1.19272238
1716193406285676268,0.185,,,,1.200417166
1716193406293371054,0.178,,,,1.208111952
1716193406301065840,0.17,,,,1.215806738
1716193406308760626,0.158,,,,1.223501524
1716193406316455412,0.131,,,,1.23119631
1716193406324150198,0.095,,,,1.238891096
1716193406331844984,0.061,,,,1.246585882
1716193406339539770,0.029,,,,1.254280668
1716193406347234556,0.002,,,,1.261975454
1716193406354929342,-0.026,,,,1.26967024
1716193406362624128,-0.048,,,,1.277365026
1716193406370318914,-0.061,,,,1.285059812
1716193406378013700,-0.063,,,,1.292754598
1716193406385708486,-0.061,,,,1.300449384
1716193406393403272,-0.063,,,,1.30814417
1716193406401098058,-0.056,,,,1.315838956
1716193406408792844,-0.041,,,,1.323533742
1716193406416487630,-0.034,,,,1.331228528
1716193406424182416,-0.026,,,,1.338923314
1716193406431877202,-0.014,,,,1.3466181
1716193406439571988,-0.004,,,,1.354312886
1716193406447266774,0.0,,,,1.362007672
1716193406454961560,0.004,,,,1.369702458
1716193406462656346,0.012,,,,1.377397244
1716193406470351132,0.012,,,,1.38509203
1716193406478045918,0.009,,,,1.392786816
1716193406485740704,0.014,,,,1.400481602
1716193406493435490,0.019,,,,1.408176388
1716193406501130276,0.017,,,,1.415871174
1716193406508825062,0.012,,,,1.42356596
1716193406516519848,0.009,,,,1.431260746
1716193406524214634,0.012,,,,1.438955532
1716193406531909420,0.012,,,,1.446650318
1716193406539604206,0.012,,,,1.454345104
1716193406547298992,0.012,,,,1.46203989
1716193406554993778,0.009,,,,1.469734676
1716193406562688564,0.009,,,,1.477429462
1716193406570383350,0.017,,,,1.485124248
1716193406578078136,0.014,,,,1.492819034
1716193406585772922,0.009,,,,1.50051382
1716193406593467708,0.012,,,,1.508208606
1716193406601162494,0.009,,,,1.515903392
1716193406608857280,0.002,,,,1.523598178
1716193406616552066,0.004,,,,1.531292964
1716193406624246852,0.007,,,,1.53898775
1716193406631941638,0.004,,,,1.546682536
1716193406639636424,0.007,,,,1.554377322
1716193406647331210,0.014,,,,1.562072108
1716193406655025996,0.004,,,,1.569766894
1716193406662720782,0.0,,,,1.57746168
1716193406670415568,0.026,,,,1.585156466
1716193406678110354,0.078,,,,1.592851252
1716193406685805140,0.107,,,,1.600546038
1716193406693499926,0.085,,,,1.608240824
1716193406701194712,0.051,,,,1.61593561
1716193406708889498,0.056,,,,1.623630396
1716193406716584284,0.07,,,,1.631325182
1716193406724279070,0.063,,,,1.639019968
1716193406731973856,0.043,,,,1.646714754
1716193406739668642,0.024,,,,1.65440954
1716193406747363428,0.012,,,,1.662104326
1716193406755058214,0.017,,,,1.669799112
1716193406762753000,0.019,,,,1.677493898
1716193406770447802,-0.007,77.0,791.0,,1.6851887
1716193406778142588,-0.063,,,,1.692883486
1716193406785837374,-0.009,,,,1.700578272
1716193406793532160,0.434,,,,1.708273058
1716193406801226946,1.25,,,,1.715967844
1716193406808921732,1.95,,,,1.72366263
1716193406816616518,2.1750000000000003,,,,1.731357416
1716193406824311304,1.545,,,,1.739052202
1716193406832006090,0.163,,,,1.746746988
1716193406839700876,-0.466,,,,1.754441774
1716193406847395662,0.021,,,,1.76213656
1716193406855090448,0.109,,,,1.769831346
1716193406862785234,-0.236,,,,1.777526132
1716193406870480020,-0.185,,,,1.785220918
1716193406878174806,-0.073,,,,1.792915704
1716193406885869592,-0.166,,,,1.80061049
1716193406893564378,-0.166,,,,1.808305276
1716193406901259164,-0.1,,,,1.816000062
1716193406908953950,-0.104,,,,1.823694848
1716193406916648736,-0.107,,,,1.831389634
1716193406924343522,-0.075,,,,1.83908442
1716193406932038308,-0.061,,,,1.846779206
1716193406939733094,-0.048,,,,1.854473992
1716193406947427880,-0.021,,,,1.862168778
1716193406955122666,-0.007,,,,1.869863564
1716193406962817452,0.007,,,,1.87755835
1716193406970512238,0.026,,,,1.885253136
1716193406978207024,0.046,,,,1.892947922
1716193406985901810,0.068,,,,1.900642708
1716193406993596596,0.09,,,,1.908337494
1716193407001291382,0.107,,,,1.91603228
1716193407008986168,0.131,,,,1.923727066
1716193407016680954,0.148,,,,1.931421852
1716193407024375740,0.161,,,,1.939116638
1716193407032070526,0.175,,,,1.946811424
1716193407039765312,0.183,,,,1.95450621
1716193407047460098,0.18,,,,1.962200996
1716193407055154884,0.178,,,,1.969895782
1716193407062849670,0.168,,,,1.977590568
1716193407070544456,0.139,,,,1.985285354
1716193407078239242,0.1,,,,1.99298014
1716193407085934028,0.063,,,,2.000674926
1716193407093628814,0.029,,,,2.008369712
1716193407101323600,-0.007,,,,2.016064498
1716193407109018386,-0.046,,,,2.023759284
1716193407116713172,-0.068,,,,2.03145407
1716193407124407958,-0.078,,,,2.039148856
1716193407132102744,-0.085,,,,2.046843642
1716193407139797530,-0.08,,,,2.054538428
1716193407147492316,-0.068,,,,2.062233214
1716193407155187102,-0.063,,,,2.069928
1716193407162881888,-0.058,,,,2.077622786
1716193407170576674,-0.048,,,,2.085317572
1716193407178271460,-0.036,,,,2.093012358
1716193407185966246,-0.026,,,,2.100707144
1716193407193661032,-0.019,,,,2.10840193
1716193407201355818,-0.012,,,,2.116096716
1716193407209050604,-0.004,,,,2.123791502
1716193407216745390,0.0,,,,2.131486288
1716193407224440176,0.0,,,,2.139181074
1716193407232134962,0.0,,,,2.14687586
1716193407239829748,0.007,,,,2.154570646
1716193407247524534,0.009,,,,2.162265432
1716193407255219320,0.007,,,,2.169960218
1716193407262914106,0.007,,,,2.177655004
1716193407270608892,0.012,,,,2.18534979
1716193407278303678,0.014,,,,2.193044576
1716193407285998464,0.012,,,,2.200739362
1716193407293693250,0.014,,,,2.208434148
1716193407301388036,0.017,,,,2.216128934
1716193407309082822,0.019,,,,2.22382372
1716193407316777608,0.019,,,,2.231518506
1716193407324472394,0.021,,,,2.239213292
1716193407332167198,0.026,,,,2.246908096
1716193407339861984,0.029,,,,2.254602882
1716193407347556770,0.029,,,,2.262297668
1716193407355251556,0.031,,,,2.269992454
1716193407362946342,0.034,,,,2.27768724
1716193407370641128,0.024,,,,2.285382026
1716193407378335914,0.019,,,,2.293076812
1716193407386030700,0.024,,,,2.300771598
1716193407393725486,0.021,,,,2.308466384
1716193407401420272,0.004,,,,2.31616117
1716193407409115058,0.0,,,,2.323855956
1716193407416809844,0.029,,,,2.331550742
1716193407424504630,0.078,,,,2.339245528
1716193407432199416,0.102,,,,2.346940314
1716193407439894202,0.08,,,,2.3546351
1716193407447588988,0.048,,,,2.362329886
1716193407455283774,0.053,,,,2.370024672
1716193407462978560,0.065,,,,2.377719458
1716193407470673346,0.051,,,,2.385414244
1716193407478368132,0.036,,,,2.39310903
1716193407486062918,0.026,,,,2.400803816
1716193407493757704,0.021,,,,2.408498602
1716193407501452490,0.026,,,,2.416193388
1716193407509147276,0.029,,,,2.423888174
1716193407516842062,0.014,,,,2.43158296
1716193407524536848,-0.031,,,,2.439277746
1716193407532231634,-0.012,,,,2.446972532
1716193407539926420,0.346,,,,2.454667318
1716193407547621206,1.118,,,,2.462362104
1716193407555315992,1.845,,,,2.47005689
1716193407563010778,2.089,,,,2.477751676
1716193407570705564,1.53,,,,2.485446462
1716193407578400350,0.249,,,,2.493141248
1716193407586095136,-0.439,,,,2.500836034
1716193407593789922,-0.024,,,,2.50853082
1716193407601484708,0.131,,,,2.516225606
1716193407609179494,-0.202,,,,2.523920392
1716193407616874280,-0.207,,,,2.531615178
1716193407624569066,-0.087,,,,2.539309964
1716193407632263852,-0.153,,,,2.54700475
1716193407639958638,-0.168,,,,2.554699536
1716193407647653424,-0.104,,,,2.562394322
1716193407655348210,-0.1,,,,2.570089108
1716193407663042996,-0.102,,,,2.577783894
1716193407670737782,-0.075,,,,2.58547868
1716193407678432568,-0.061,,,,2.593173466
1716193407686127354,-0.051,,,,2.600868252
1716193407693822140,-0.026,,,,2.608563038
1716193407701516926,-0.009,,,,2.616257824
1716193407709211712,0.002,,,,2.62395261
1716193407716906498,0.019,,,,2.631647396
1716193407724601284,0.043,,,,2.639342182
1716193407732296070,0.063,,,,2.647036968
1716193407739990856,0.08,,,,2.654731754
1716193407747685642,0.1,,,,2.66242654
1716193407755380428,0.122,,,,2.670121326
1716193407763075214,0.136,,,,2.677816112
1716193407770770000,0.151,,,,2.685510898
1716193407778464786,0.163,,,,2.693205684
1716193407786159572,0.168,,,,2.70090047
1716193407793854358,0.166,,,,2.708595256
1716193407801549144,0.161,,,,2.716290042
1716193407809243930,0.151,,,,2.723984828
1716193407816938716,0.129,,,,2.731679614
1716193407824633502,0.092,,,,2.7393744
1716193407832328288,0.056,,,,2.747069186
1716193407840023074,0.021,,,,2.754763972
1716193407847717860,-0.014,,,,2.762458758
1716193407855412646,-0.046,,,,2.770153544
1716193407863107432,-0.068,,,,2.77784833
1716193407870802218,-0.075,,,,2.785543116
1716193407878497004,-0.078,,,,2.793237902
1716193407886191790,-0.078,,,,2.800932688
1716193407893886592,-0.07,77.0,774.0,,2.80862749
1716193407901581796,-0.061,,,,2.816322694
1716193407909277000,-0.046,,,,2.824017898
1716193407916972204,-0.036,,,,2.831713102
1716193407924667408,-0.026,,,,2.839408306
1716193407932362612,-0.014,,,,2.84710351
1716193407940057816,-0.004,,,,2.854798714
1716193407947753020,0.002,,,,2.862493918
1716193407955448224,0.009,,,,2.870189122
1716193407963143428,0.017,,,,2.877884326
1716193407970838632,0.019,,,,2.88557953
1716193407978533836,0.014,,,,2.893274734
1716193407986229040,0.017,,,,2.900969938
1716193407993924244,0.029,,,,2.908665142
1716193408001619448,0.031,,,,2.916360346
1716193408009314652,0.026,,,,2.92405555
1716193408017009856,0.031,,,,2.931750754
1716193408024705060,0.039,,,,2.939445958
1716193408032400264,0.039,,,,2.947141162
1716193408040095468,0.039,,,,2.954836366
1716193408047790672,0.043,,,,2.96253157
1716193408055485876,0.048,,,,2.970226774
1716193408063181080,0.051,,,,2.977921978
1716193408070876284,0.053,,,,2.985617182
1716193408078571488,0.058,,,,2.993312386
1716193408086266692,0.061,,,,3.00100759
1716193408093961896,0.061,,,,3.008702794
1716193408101657100,0.063,,,,3.016397998
1716193408109352304,0.058,,,,3.024093202
1716193408117047508,0.053,,,,3.031788406
1716193408124742712,0.061,,,,3.03948361
1716193408132437916,0.063,,,,3.047178814
1716193408140133120,0.056,,,,3.054874018
1716193408147828324,0.053,,,,3.062569222
1716193408155523528,0.07,,,,3.070264426
1716193408163218732,0.112,,,,3.07795963
1716193408170913936,0.148,,,,3.085654834
1716193408178609140,0.126,,,,3.093350038
1716193408186304344,0.09,,,,3.101045242
1716193408193999548,0.095,,,,3.108740446
1716193408201694752,0.109,,,,3.11643565
1716193408209389956,0.095,,,,3.124130854
1716193408217085160,0.073,,,,3.131826058
1716193408224780364,0.063,,,,3.139521262
1716193408232475568,0.063,,,,3.147216466
1716193408240170772,0.063,,,,3.15491167
1716193408247865976,0.063,,,,3.162606874
1716193408255561180,0.048,,,,3.170302078
1716193408263256384,0.0,,,,3.177997282
1716193408270951588,0.007,,,,3.185692486
1716193408278646792,0.346,,,,3.19338769
1716193408286341996,1.127,,,,3.201082894
1716193408294037200,1.909,,,,3.208778098
1716193408301732404,2.221,,,,3.216473302
1716193408309427608,1.706,,,,3.224168506
1716193408317122812,0.383,,,,3.23186371
1716193408324818016,-0.397,,,,3.239558914
1716193408332513220,-0.002,,,,3.247254118
1716193408340208424,0.185,,,,3.254949322
1716193408347903628,-0.151,,,,3.262644526
1716193408355598832,-0.168,,,,3.27033973
1716193408363294036,-0.039,,,,3.278034934
1716193408370989240,-0.107,,,,3.285730138
1716193408378684444,-0.124,,,,3.293425342
1716193408386379648,-0.058,,,,3.301120546
1716193408394074852,-0.061,,,,3.30881575
1716193408401770056,-0.065,,,,3.316510954
1716193408409465260,-0.031,,,,3.324206158
1716193408417160464,-0.012,,,,3.331901362
1716193408424855668,-0.007,,,,3.339596566
1716193408432550872,0.009,,,,3.34729177
1716193408440246076,0.029,,,,3.354986974
1716193408447941280,0.041,,,,3.362682178
1716193408455636504,0.056,,,,3.370377402
1716193408463331290,0.078,,,,3.378072188
1716193408471026076,0.102,,,,3.385766974
1716193408478720862,0.122,,,,3.39346176
1716193408486415648,0.141,,,,3.401156546
1716193408494110434,0.163,,,,3.408851332
1716193408501805220,0.183,,,,3.416546118
1716193408509500006,0.192,,,,3.424240904
1716193408517194792,0.19,,,,3.43193569
1716193408524889578,0.192,,,,3.439630476
1716193408532584364,0.2,,,,3.447325262
1716193408540279150,0.195,,,,3.455020048
1716193408547973936,0.183,,,,3.462714834
1716193408555668722,0.161,,,,3.47040962
1716193408563363508,0.124,,,,3.478104406
1716193408571058294,0.085,,,,3.485799192
1716193408578753080,0.048,,,,3.493493978
1716193408586447866,0.017,,,,3.501188764
1716193408594142652,-0.012,,,,3.50888355
1716193408601837438,-0.039,,,,3.516578336
1716193408609532224,-0.061,,,,3.524273122
1716193408617227010,-0.073,,,,3.531967908
1716193408624921796,-0.07,,,,3.539662694
1716193408632616582,-0.068,,,,3.54735748
1716193408640311368,-0.063,,,,3.555052266
1716193408648006154,-0.048,,,,3.562747052
1716193408655700940,-0.036,,,,3.570441838
1716193408663395726,-0.031,,,,3.578136624
1716193408671090512,-0.024,,,,3.58583141
1716193408678785298,-0.009,,,,3.593526196
1716193408686480084,-0.004,,,,3.601220982
1716193408694174870,-0.007,,,,3.608915768
1716193408701869656,0.002,,,,3.616610554
1716193408709564442,0.012,,,,3.62430534
1716193408717259228,0.012,,,,3.632000126
1716193408724954014,0.009,,,,3.639694912
1716193408732648800,0.007,,,,3.647389698
1716193408740343586,0.012,,,,3.655084484
1716193408748038372,0.017,,,,3.66277927
1716193408755733158,0.017,,,,3.670474056
1716193408763427944,0.017,,,,3.678168842
1716193408771122730,0.019,,,,3.685863628
1716193408778817516,0.019,,,,3.693558414
1716193408786512302,0.019,,,,3.7012532
1716193408794207088,0.021,,,,3.708947986
1716193408801901874,0.026,,,,3.716642772
1716193408809596660,0.029,,,,3.724337558
1716193408817291446,0.026,,,,3.732032344
1716193408824986232,0.031,,,,3.73972713
1716193408832681018,0.036,,,,3.747421916
1716193408840375804,0.036,,,,3.755116702
1716193408848070590,0.034,,,,3.762811488
1716193408855765376,0.039,,,,3.770506274
1716193408863460162,0.041,,,,3.77820106
1716193408871154948,0.041,,,,3.785895846
1716193408878849734,0.046,,,,3.793590632
1716193408886544520,0.053,,,,3.801285418
1716193408894239306,0.043,,,,3.808980204
1716193408901934092,0.039,,,,3.81667499
1716193408909628878,0.056,,,,3.824369776
1716193408917323664,0.097,,,,3.832064562
1716193408925018450,0.139,,,,3.839759348
1716193408932713236,0.134,,,,3.847454134
1716193408940408022,0.095,,,,3.85514892
1716193408948102808,0.085,,,,3.862843706
1716193408955797594,0.095,,,,3.870538492
1716193408963492380,0.09,,,,3.878233278
1716193408971187166,0.068,,,,3.885928064
1716193408978881952,0.051,,,,3.89362285
1716193408986576738,0.046,,,,3.901317636
1716193408994271524,0.051,,,,3.909012422
1716193409001966310,0.053,,,,3.916707208
1716193409009661096,0.046,,,,3.924401994
1716193409017355898,0.004,77.0,754.0,,3.932096796
1716193409025050684,-0.017,,747.0,,3.939791582
1716193409032745470,0.212,,,,3.947486368
1716193409040440256,0.908,,,,3.955181154
1716193409048135042,1.76,,,,3.96287594
1716193409055829828,2.202,,,,3.970570726
1716193409063524614,1.884,,,,3.978265512
1716193409071219400,0.6900000000000001,,,,3.985960298
1716193409078914186,-0.361,,,,3.993655084
1716193409086608972,-0.18,,,,4.00134987
1716193409094303758,0.197,,,,4.009044656
1716193409101998544,-0.073,,,,4.016739442
1716193409109693330,-0.212,,,,4.024434228
1716193409117388116,-0.068,,,,4.032129014
1716193409125082902,-0.097,,,,4.0398238
1716193409132777688,-0.161,,,,4.047518586
1716193409140472474,-0.102,,,,4.055213372
1716193409148167260,-0.08,,,,4.062908158
1716193409155862046,-0.095,,,,4.070602944
1716193409163556832,-0.063,,,,4.07829773
1716193409171251618,-0.041,,,,4.085992516
1716193409178946404,-0.043,,,,4.093687302
1716193409186641190,-0.024,,,,4.101382088
1716193409194335976,-0.002,,,,4.109076874
1716193409202030762,0.009,,,,4.11677166
1716193409209725548,0.029,,,,4.124466446
1716193409217420334,0.053,,,,4.132161232
1716193409225115120,0.07,,,,4.139856018
1716193409232809906,0.085,,,,4.147550804
1716193409240504692,0.107,,,,4.15524559
1716193409248199478,0.129,,,,4.162940376
1716193409255894264,0.146,,,,4.170635162
1716193409263589050,0.163,,,,4.178329948
1716193409271283836,0.178,,,,4.186024734
1716193409278978622,0.183,,,,4.19371952
1716193409286673408,0.178,,,,4.201414306
1716193409294368194,0.168,,,,4.209109092
1716193409302062980,0.163,,,,4.216803878
1716193409309757766,0.153,,,,4.224498664
1716193409317452552,0.119,,,,4.23219345
1716193409325147338,0.075,,,,4.239888236
1716193409332842124,0.036,,,,4.247583022
1716193409340536910,0.0,,,,4.255277808
1716193409348231696,-0.031,,,,4.262972594
1716193409355926482,-0.053,,,,4.27066738
1716193409363621268,-0.065,,,,4.278362166
1716193409371316054,-0.073,,,,4.286056952
1716193409379010840,-0.075,,,,4.293751738
1716193409386705626,-0.068,,,,4.301446524
1716193409394400412,-0.061,,,,4.30914131
1716193409402095198,-0.053,,,,4.316836096
1716193409409789984,-0.046,,,,4.324530882
1716193409417484770,-0.041,,,,4.332225668
1716193409425179556,-0.031,,,,4.339920454
1716193409432874342,-0.024,,,,4.34761524
1716193409440569128,-0.017,,,,4.355310026
1716193409448263914,-0.012,,,,4.363004812
1716193409455958700,-0.009,,,,4.370699598
1716193409463653486,-0.004,,,,4.378394384
1716193409471348272,-0.004,,,,4.38608917
1716193409479043058,-0.007,,,,4.393783956
1716193409486737844,-0.002,,,,4.401478742
1716193409494432630,0.0,,,,4.409173528
1716193409502127416,-0.004,,,,4.416868314
1716193409509822202,-0.007,,,,4.4245631
1716193409517516988,-0.007,,,,4.432257886
1716193409525211774,-0.004,,,,4.439952672
1716193409532906560,-0.004,,,,4.447647458
1716193409540601346,-0.009,,,,4.455342244
1716193409548296132,-0.009,,,,4.46303703
1716193409555990918,-0.007,,,,4.470731816
1716193409563685704,-0.002,,,,4.478426602
1716193409571380490,0.0,,,,4.486121388
1716193409579075292,-0.007,,,,4.49381619
1716193409586770496,-0.017,,,,4.501511394
1716193409594465700,-0.012,,,,4.509206598
1716193409602160904,-0.007,,,,4.516901802
1716193409609856108,-0.012,,,,4.524597006
1716193409617551312,-0.012,,,,4.53229221
1716193409625246516,-0.014,,,,4.539987414
1716193409632941720,-0.017,,,,4.547682618
1716193409640636924,-0.014,,,,4.555377822
1716193409648332128,-0.017,,,,4.563073026
1716193409656027332,-0.021,,,,4.57076823
1716193409663722536,0.0,,,,4.578463434
1716193409671417740,0.041,,,,4.586158638
1716193409679112944,0.075,,,,4.593853842
1716193409686808148,0.068,,,,4.601549046
1716193409694503352,0.029,,,,4.60924425
1716193409702198556,0.021,,,,4.616939454
1716193409709893760,0.043,,,,4.624634658
1716193409717588964,0.036,,,,4.632329862
1716193409725284168,0.012,,,,4.640025066
1716193409732979372,0.0,,,,4.64772027
1716193409740674576,-0.009,,,,4.655415474
1716193409748369780,-0.021,,,,4.663110678
1716193409756064984,-0.019,,,,4.670805882
1716193409763760188,-0.019,,,,4.678501086
1716193409771455392,-0.061,,,,4.68619629
1716193409779150596,-0.08,,,,4.693891494
1716193409786845800,0.18,,,,4.701586698
1716193409794541004,0.871,,,,4.709281902
1716193409802236208,1.655,,,,4.716977106
1716193409809931412,2.072,,,,4.72467231
1716193409817626616,1.779,,,,4.732367514
1716193409825321820,0.581,,,,4.740062718
1716193409833017024,-0.41,,,,4.747757922
1716193409840712228,-0.178,,,,4.755453126
1716193409848407432,0.134,,,,4.76314833
1716193409856102636,-0.161,,,,4.770843534
1716193409863797840,-0.251,,,,4.778538738
1716193409871493044,-0.102,,,,4.786233942
1716193409879188248,-0.144,,,,4.793929146
1716193409886883452,-0.195,,,,4.80162435
1716193409894578656,-0.141,,,,4.809319554
1716193409902273860,-0.129,,,,4.817014758
1716193409909969064,-0.139,,,,4.824709962
1716193409917664268,-0.112,,,,4.832405166
1716193409925359472,-0.1,,,,4.84010037
1716193409933054676,-0.1,,,,4.847795574
1716193409940749880,-0.078,,,,4.855490778
1716193409948445084,-0.053,,,,4.863185982
1716193409956140288,-0.041,,,,4.870881186
1716193409963835492,-0.026,,,,4.87857639
1716193409971530696,-0.007,,,,4.886271594
1716193409979225900,0.009,,,,4.893966798
1716193409986921104,0.026,,,,4.901662002
1716193409994616308,0.048,,,,4.909357206
1716193410002311512,0.073,,,,4.91705241
1716193410010006716,0.09,,,,4.924747614
1716193410017701920,0.107,,,,4.932442818
1716193410025397124,0.119,,,,4.940138022
1716193410033092328,0.126,,,,4.947833226
1716193410040787532,0.131,,,,4.95552843
1716193410048482736,0.136,,,,4.963223634
1716193410056177940,0.129,,,,4.970918838
1716193410063873144,0.109,,,,4.978614042
1716193410071568348,0.078,,,,4.986309246
1716193410079263552,0.041,,,,4.99400445
1716193410086958756,0.004,,,,5.001699654
1716193410094653960,-0.029,,,,5.009394858
1716193410102349164,-0.053,,,,5.017090062
1716193410110044368,-0.078,,,,5.024785266
1716193410117739572,-0.102,,,,5.03248047
1716193410125434776,-0.112,,,,5.040175674
1716193410133129980,-0.109,,,,5.047870878
1716193410140825204,-0.102,78.0,739.0,,5.055566102
1716193410148519990,-0.095,,,,5.063260888
1716193410156214776,-0.092,,,,5.070955674
1716193410163909562,-0.085,,,,5.07865046
1716193410171604348,-0.075,,,,5.086345246
1716193410179299134,-0.068,,,,5.094040032
1716193410186993920,-0.058,,,,5.101734818
1716193410194688706,-0.051,,,,5.109429604
1716193410202383492,-0.043,,,,5.11712439
1716193410210078278,-0.036,,,,5.124819176
1716193410217773064,-0.031,,,,5.132513962
1716193410225467850,-0.024,,,,5.140208748
1716193410233162636,-0.021,,,,5.147903534
1716193410240857422,-0.017,,,,5.15559832
1716193410248552208,-0.014,,,,5.163293106
1716193410256246994,-0.014,,,,5.170987892
1716193410263941780,-0.009,,,,5.178682678
1716193410271636566,-0.002,,,,5.186377464
1716193410279331352,0.0,,,,5.19407225
1716193410287026138,0.002,,,,5.201767036
1716193410294720924,0.007,,,,5.209461822
1716193410302415710,0.012,,,,5.217156608
1716193410310110496,0.012,,,,5.224851394
1716193410317805282,0.012,,,,5.23254618
1716193410325500068,0.012,,,,5.240240966
1716193410333194854,0.009,,,,5.247935752
1716193410340889640,0.014,,,,5.255630538
1716193410348584426,0.019,,,,5.263325324
1716193410356279212,0.024,,,,5.27102011
1716193410363973998,0.034,,,,5.278714896
1716193410371668784,0.036,,,,5.286409682
1716193410379363570,0.031,,,,5.294104468
1716193410387058356,0.039,,,,5.301799254
1716193410394753142,0.051,,,,5.30949404
1716193410402447928,0.048,,,,5.317188826
1716193410410142714,0.041,,,,5.324883612
1716193410417837500,0.046,,,,5.332578398
1716193410425532286,0.07,,,,5.340273184
1716193410433227072,0.112,,,,5.34796797
1716193410440921858,0.144,,,,5.355662756
1716193410448616644,0.129,,,,5.363357542
1716193410456311430,0.095,,,,5.371052328
1716193410464006216,0.092,,,,5.378747114
1716193410471701002,0.109,,,,5.3864419
1716193410479395788,0.102,,,,5.394136686
1716193410487090574,0.083,,,,5.401831472
1716193410494785360,0.068,,,,5.409526258
1716193410502480146,0.063,,,,5.417221044
1716193410510174932,0.068,,,,5.42491583
1716193410517869718,0.065,,,,5.432610616
1716193410525564504,0.048,,,,5.440305402
1716193410533259290,0.007,,,,5.448000188
1716193410540954076,-0.002,,,,5.455694974
1716193410548648862,0.256,,,,5.46338976
1716193410556343648,0.947,,,,5.471084546
1716193410564038434,1.73,,,,5.478779332
1716193410571733220,2.116,,,,5.486474118
1716193410579428006,1.76,,,,5.494168904
1716193410587122792,0.5660000000000001,,,,5.50186369
1716193410594817578,-0.344,,,,5.509558476
1716193410602512364,-0.087,,,,5.517253262
1716193410610207150,0.2,,,,5.524948048
1716193410617901936,-0.08,,,,5.532642834
1716193410625596722,-0.166,,,,5.54033762
1716193410633291508,-0.041,,,,5.548032406
1716193410640986294,-0.085,,,,5.555727192
1716193410648681080,-0.126,,,,5.563421978
1716193410656375866,-0.065,,,,5.571116764
1716193410664070652,-0.053,,,,5.57881155
1716193410671765438,-0.068,,,,5.586506336
1716193410679460224,-0.046,,,,5.594201122
1716193410687155010,-0.026,,,,5.601895908
1716193410694849796,-0.024,,,,5.609590694
1716193410702544600,-0.004,,,,5.617285498
1716193410710239804,0.014,,,,5.624980702
1716193410717935008,0.024,,,,5.632675906
1716193410725630212,0.041,,,,5.64037111
1716193410733325416,0.065,,,,5.648066314
1716193410741020620,0.083,,,,5.655761518
1716193410748715824,0.104,,,,5.663456722
1716193410756411028,0.122,,,,5.671151926
1716193410764106232,0.134,,,,5.67884713
1716193410771801436,0.148,,,,5.686542334
1716193410779496640,0.173,,,,5.694237538
1716193410787191844,0.187,,,,5.701932742
1716193410794887048,0.19,,,,5.709627946
1716193410802582252,0.197,,,,5.71732315
1716193410810277456,0.2,,,,5.725018354
1716193410817972660,0.187,,,,5.732713558
1716193410825667864,0.158,,,,5.740408762
1716193410833363068,0.129,,,,5.748103966
1716193410841058272,0.102,,,,5.75579917
1716193410848753476,0.063,,,,5.763494374
1716193410856448680,0.021,,,,5.771189578
1716193410864143884,-0.004,,,,5.778884782
1716193410871839088,-0.021,,,,5.786579986
1716193410879534292,-0.036,,,,5.79427519
1716193410887229496,-0.041,,,,5.801970394
1716193410894924700,-0.041,,,,5.809665598
1716193410902619904,-0.036,,,,5.817360802
1716193410910315108,-0.029,,,,5.825056006
1716193410918010312,-0.019,,,,5.83275121
1716193410925705516,-0.004,,,,5.840446414
1716193410933400720,0.007,,,,5.848141618
1716193410941095924,0.012,,,,5.855836822
1716193410948791128,0.017,,,,5.863532026
1716193410956486332,0.029,,,,5.87122723
1716193410964181536,0.039,,,,5.878922434
1716193410971876740,0.039,,,,5.886617638
1716193410979571944,0.039,,,,5.894312842
1716193410987267148,0.043,,,,5.902008046
1716193410994962352,0.046,,,,5.90970325
1716193411002657556,0.046,,,,5.917398454
1716193411010352760,0.051,,,,5.925093658
1716193411018047964,0.053,,,,5.932788862
1716193411025743168,0.058,,,,5.940484066
1716193411033438372,0.056,,,,5.94817927
1716193411041133576,0.053,,,,5.955874474
1716193411048828780,0.056,,,,5.963569678
1716193411056523984,0.053,,,,5.971264882
1716193411064219188,0.053,,,,5.978960086
1716193411071914392,0.056,,,,5.98665529
1716193411079609596,0.056,,,,5.994350494
1716193411087304800,0.053,,,,6.002045698
1716193411095000004,0.058,,,,6.009740902
1716193411102695208,0.068,,,,6.017436106
1716193411110390412,0.073,,,,6.02513131
1716193411118085616,0.068,,,,6.032826514
1716193411125780820,0.063,,,,6.040521718
1716193411133476024,0.056,,,,6.048216922
1716193411141171228,0.056,,,,6.055912126
1716193411148866432,0.061,,,,6.06360733
1716193411156561636,0.065,,,,6.071302534
1716193411164256840,0.068,,,,6.078997738
1716193411171952044,0.065,,,,6.086692942
1716193411179647248,0.063,,,,6.094388146
1716193411187342452,0.087,,,,6.10208335
1716193411195037656,0.136,,,,6.109778554
1716193411202732860,0.163,,,,6.117473758
1716193411210428064,0.141,,,,6.125168962
1716193411218123268,0.107,,,,6.132864166
1716193411225818472,0.112,,,,6.14055937
1716193411233513676,0.126,,,,6.148254574
1716193411241208880,0.114,,,,6.155949778
1716193411248904084,0.092,,,,6.163644982
1716193411256599288,0.083,,,,6.171340186
1716193411264294512,0.085,78.0,756.0,,6.17903541
1716193411271989298,0.09,,,,6.186730196
1716193411279684084,0.087,,,,6.194424982
1716193411287378870,0.07,,,,6.202119768
1716193411295073656,0.029,,,,6.209814554
1716193411302768442,0.043,,,,6.21750934
1716193411310463228,0.375,,,,6.225204126
1716193411318158014,1.135,,,,6.232898912
1716193411325852800,1.918,,,,6.240593698
1716193411333547586,2.1750000000000003,,,,6.248288484
1716193411341242372,1.577,,,,6.25598327
1716193411348937158,0.324,,,,6.263678056
1716193411356631944,-0.361,,,,6.271372842
1716193411364326730,-0.004,,,,6.279067628
1716193411372021516,0.175,,,,6.286762414
1716193411379716302,-0.112,,,,6.2944572
1716193411387411088,-0.131,,,,6.302151986
1716193411395105874,-0.017,,,,6.309846772
1716193411402800660,-0.07,,,,6.317541558
1716193411410495446,-0.092,,,,6.325236344
1716193411418190232,-0.039,,,,6.33293113
1716193411425885018,-0.039,,,,6.340625916
1716193411433579804,-0.046,,,,6.348320702
1716193411441274590,-0.014,,,,6.356015488
1716193411448969376,-0.002,,,,6.363710274
1716193411456664162,-0.004,,,,6.37140506
1716193411464358948,0.017,,,,6.379099846
1716193411472053734,0.041,,,,6.386794632
1716193411479748520,0.053,,,,6.394489418
1716193411487443306,0.063,,,,6.402184204
1716193411495138092,0.083,,,,6.40987899
1716193411502832878,0.1,,,,6.417573776
1716193411510527664,0.114,,,,6.425268562
1716193411518222450,0.134,,,,6.432963348
1716193411525917236,0.153,,,,6.440658134
1716193411533612022,0.166,,,,6.44835292
1716193411541306808,0.173,,,,6.456047706
1716193411549001594,0.178,,,,6.463742492
1716193411556696380,0.178,,,,6.471437278
1716193411564391166,0.183,,,,6.479132064
1716193411572085952,0.18,,,,6.48682685
1716193411579780738,0.163,,,,6.494521636
1716193411587475524,0.144,,,,6.502216422
1716193411595170310,0.114,,,,6.509911208
1716193411602865096,0.075,,,,6.517605994
1716193411610559882,0.043,,,,6.52530078
1716193411618254668,0.019,,,,6.532995566
1716193411625949454,-0.012,,,,6.540690352
1716193411633644240,-0.043,,,,6.548385138
1716193411641339026,-0.075,,,,6.556079924
1716193411649033812,-0.095,,,,6.56377471
1716193411656728598,-0.092,,,,6.571469496
1716193411664423384,-0.097,,,,6.579164282
1716193411672118170,-0.1,,,,6.586859068
1716193411679812956,-0.065,,,,6.594553854
1716193411687507742,-0.036,,,,6.60224864
1716193411695202528,-0.026,,,,6.609943426
1716193411702897314,-0.009,,,,6.617638212
1716193411710592100,0.004,,,,6.625332998
1716193411718286886,0.007,,,,6.633027784
1716193411725981672,0.009,,,,6.64072257
1716193411733676458,0.019,,,,6.648417356
1716193411741371244,0.026,,,,6.656112142
1716193411749066030,0.026,,,,6.663806928
1716193411756760816,0.024,,,,6.671501714
1716193411764455602,0.026,,,,6.6791965
1716193411772150388,0.026,,,,6.686891286
1716193411779845174,0.029,,,,6.694586072
1716193411787539960,0.024,,,,6.702280858
1716193411795234746,0.021,,,,6.709975644
1716193411802929532,0.026,,,,6.71767043
1716193411810624318,0.024,,,,6.725365216
1716193411818319104,0.019,,,,6.733060002
1716193411826013906,0.021,78.0,754.0,,6.740754804
1716193411833708831,0.026,,761.0,,6.748449729
1716193411841403756,0.029,,,,6.756144654
1716193411849098681,0.034,,,,6.763839579
1716193411856793606,0.041,,,,6.771534504
1716193411864488531,0.043,,,,6.779229429
1716193411872183456,0.031,,,,6.786924354
1716193411879878381,0.029,,,,6.794619279
1716193411887573306,0.039,,,,6.802314204
1716193411895268231,0.043,,,,6.810009129
1716193411902963156,0.036,,,,6.817704054
1716193411910658081,0.031,,,,6.825398979
1716193411918353006,0.051,,,,6.833093904
1716193411926047931,0.1,,,,6.840788829
1716193411933742856,0.136,,,,6.848483754
1716193411941437781,0.119,,,,6.856178679
1716193411949132706,0.087,,,,6.863873604
1716193411956827631,0.087,,,,6.871568529
1716193411964522556,0.097,,,,6.879263454
1716193411972217481,0.09,,,,6.886958379
1716193411979912406,0.078,,,,6.894653304
1716193411987607331,0.065,,,,6.902348229
1716193411995302256,0.058,,,,6.910043154
1716193412002997181,0.063,,,,6.917738079
1716193412010692106,0.063,,,,6.925433004
1716193412018387031,0.043,,,,6.933127929
1716193412026081956,-0.004,,,,6.940822854
1716193412033776881,-0.007,,,,6.948517779
1716193412041471806,0.31,,,,6.956212704
1716193412049166731,1.069,,,,6.963907629
1716193412056861656,1.877,,,,6.971602554
1716193412064556581,2.226,,,,6.979297479
1716193412072251506,1.762,,,,6.986992404
1716193412079946431,0.458,,,,6.994687329
1716193412087641356,-0.41,,,,7.002382254
1716193412095336281,-0.063,,,,7.010077179
1716193412103031206,0.187,,,,7.017772104
1716193412110726131,-0.136,,,,7.025467029
1716193412118421056,-0.18,,,,7.033161954
1716193412126115981,-0.034,,,,7.040856879
1716193412133810906,-0.09,,,,7.048551804
1716193412141505831,-0.134,,,,7.056246729
1716193412149200756,-0.08,,,,7.063941654
1716193412156895681,-0.068,,,,7.071636579
1716193412164590606,-0.075,,,,7.079331504
1716193412172285531,-0.056,,,,7.087026429
1716193412179980456,-0.039,,,,7.094721354
1716193412187675381,-0.031,,,,7.102416279
1716193412195370306,-0.021,,,,7.110111204
1716193412203065231,-0.007,,,,7.117806129
1716193412210760156,0.007,,,,7.125501054
1716193412218455081,0.026,,,,7.133195979
1716193412226150006,0.043,,,,7.140890904
1716193412233844931,0.058,,,,7.148585829
1716193412241539856,0.08,,,,7.156280754
1716193412249234781,0.102,,,,7.163975679
1716193412256929706,0.119,,,,7.171670604
1716193412264624631,0.136,,,,7.179365529
1716193412272319556,0.151,,,,7.187060454
1716193412280014481,0.158,,,,7.194755379
1716193412287709406,0.163,,,,7.202450304
1716193412295404331,0.163,,,,7.210145229
1716193412303099256,0.148,,,,7.217840154
1716193412310794181,0.136,,,,7.225535079
1716193412318489106,0.119,,,,7.233230004
1716193412326184031,0.085,,,,7.240924929
1716193412333878956,0.043,,,,7.248619854
1716193412341573881,0.009,,,,7.256314779
1716193412349268806,-0.014,,,,7.264009704
1716193412356963731,-0.041,,,,7.271704629
1716193412364658656,-0.065,,,,7.279399554
1716193412372353581,-0.075,,,,7.287094479
1716193412380048506,-0.078,,,,7.294789404
1716193412387743474,-0.075,,,,7.302484372
1716193412395438538,-0.068,,,,7.310179436
1716193412403133602,-0.058,,,,7.3178745
1716193412410828666,-0.051,,,,7.325569564
1716193412418523730,-0.043,,,,7.333264628
1716193412426218794,-0.036,,,,7.340959692
1716193412433913858,-0.029,,,,7.348654756
1716193412441608922,-0.021,,,,7.35634982
1716193412449303986,-0.014,,,,7.364044884
1716193412456999050,-0.007,,,,7.371739948
1716193412464694114,-0.004,,,,7.379435012
1716193412472389178,-0.007,,,,7.387130076
1716193412480084242,-0.012,,,,7.39482514
1716193412487779306,-0.004,,,,7.402520204
1716193412495474370,0.0,,,,7.410215268
1716193412503169434,0.002,,,,7.417910332
1716193412510864498,0.004,,,,7.425605396
1716193412518559562,0.004,,,,7.43330046
1716193412526254626,0.004,,,,7.440995524
1716193412533949690,0.004,,,,7.448690588
1716193412541644754,0.004,,,,7.456385652
1716193412549339818,0.002,,,,7.464080716
1716193412557034882,0.002,,,,7.47177578
1716193412564729946,0.004,,,,7.479470844
1716193412572425010,0.009,,,,7.487165908
1716193412580120074,0.017,,,,7.494860972
1716193412587815138,0.019,,,,7.502556036
1716193412595510202,0.021,,,,7.5102511
1716193412603205266,0.026,,,,7.517946164
1716193412610900330,0.029,,,,7.525641228
1716193412618595394,0.029,,,,7.533336292
1716193412626290458,0.029,,,,7.541031356
1716193412633985522,0.034,,,,7.54872642
1716193412641680586,0.036,,,,7.556421484
1716193412649375650,0.024,,,,7.564116548
1716193412657070714,0.014,,,,7.571811612
1716193412664765778,0.031,,,,7.579506676
1716193412672460842,0.075,,,,7.58720174
1716193412680155906,0.117,,,,7.594896804
1716193412687850970,0.112,,,,7.602591868
1716193412695546034,0.075,,,,7.610286932
1716193412703241098,0.068,,,,7.617981996
1716193412710936162,0.083,,,,7.62567706
1716193412718631226,0.083,,,,7.633372124
1716193412726326290,0.07,,,,7.641067188
1716193412734021354,0.051,,,,7.648762252
1716193412741716418,0.041,,,,7.656457316
1716193412749411482,0.043,,,,7.66415238
1716193412757106546,0.046,,,,7.671847444
1716193412764801610,0.039,,,,7.679542508
1716193412772496674,-0.002,,,,7.687237572
1716193412780191738,-0.029,,,,7.694932636
1716193412787886802,0.195,,,,7.7026277
1716193412795581866,0.864,,,,7.710322764
1716193412803276930,1.66,,,,7.718017828
1716193412810971994,2.131,,,,7.725712892
1716193412818667058,1.948,,,,7.733407956
1716193412826362122,0.803,,,,7.74110302
1716193412834057186,-0.302,,,,7.748798084
1716193412841752250,-0.163,,,,7.756493148
1716193412849447314,0.197,,,,7.764188212
1716193412857142378,-0.083,,,,7.771883276
1716193412864837442,-0.217,,,,7.77957834
1716193412872532506,-0.061,,,,7.787273404
1716193412880227570,-0.085,,,,7.794968468
1716193412887922634,-0.151,,,,7.802663532
1716193412895617698,-0.09,,,,7.810358596
1716193412903312762,-0.063,,,,7.81805366
1716193412911007826,-0.085,,,,7.825748724
1716193412918702890,-0.068,,,,7.833443788
1716193412926397954,-0.046,,,,7.841138852
1716193412934093018,-0.046,,,,7.848833916
1716193412941788082,-0.034,,,,7.85652898
1716193412949483212,-0.012,78.0,760.0,,7.86422411
1716193412957177998,-0.002,,,,7.871918896
1716193412964872784,0.014,,,,7.879613682
1716193412972567570,0.034,,,,7.887308468
1716193412980262356,0.043,,,,7.895003254
1716193412987957142,0.053,,,,7.90269804
1716193412995651928,0.078,,,,7.910392826
1716193413003346714,0.104,,,,7.918087612
1716193413011041500,0.119,,,,7.925782398
1716193413018736286,0.134,,,,7.933477184
1716193413026431072,0.148,,,,7.94117197
1716193413034125858,0.153,,,,7.948866756
1716193413041820644,0.151,,,,7.956561542
1716193413049515430,0.151,,,,7.964256328
1716193413057210216,0.146,,,,7.971951114
1716193413064905002,0.126,,,,7.9796459
1716193413072599788,0.095,,,,7.987340686
1716193413080294574,0.056,,,,7.995035472
1716193413087989360,0.019,,,,8.002730258
1716193413095684146,-0.012,,,,8.010425044
1716193413103378932,-0.039,,,,8.01811983
1716193413111073718,-0.065,,,,8.025814616
1716193413118768504,-0.08,,,,8.033509402
1716193413126463290,-0.08,,,,8.041204188
1716193413134158076,-0.078,,,,8.048898974
1716193413141852862,-0.08,,,,8.05659376
1716193413149547648,-0.083,,,,8.064288546
1716193413157242434,-0.075,,,,8.071983332
1716193413164937220,-0.065,,,,8.079678118
1716193413172632006,-0.058,,,,8.087372904
1716193413180326792,-0.046,,,,8.09506769
1716193413188021578,-0.034,,,,8.102762476
1716193413195716364,-0.029,,,,8.110457262
1716193413203411150,-0.026,,,,8.118152048
1716193413211105936,-0.019,,,,8.125846834
1716193413218800722,-0.014,,,,8.13354162
1716193413226495508,-0.012,,,,8.141236406
1716193413234190294,-0.007,,,,8.148931192
1716193413241885080,0.002,,,,8.156625978
1716193413249579866,0.002,,,,8.164320764
1716193413257274652,0.002,,,,8.17201555
1716193413264969438,0.009,,,,8.179710336
1716193413272664224,0.014,,,,8.187405122
1716193413280359010,0.007,,,,8.195099908
1716193413288053796,0.007,,,,8.202794694
1716193413295748582,0.017,,,,8.21048948
1716193413303443368,0.019,,,,8.218184266
1716193413311138154,0.019,,,,8.225879052
1716193413318832940,0.019,,,,8.233573838
1716193413326527726,0.024,,,,8.241268624
1716193413334222512,0.026,,,,8.24896341
1716193413341917298,0.029,,,,8.256658196
1716193413349612084,0.029,,,,8.264352982
1716193413357306870,0.034,,,,8.272047768
1716193413365001656,0.039,,,,8.279742554
1716193413372696442,0.036,,,,8.28743734
1716193413380391228,0.036,,,,8.295132126
1716193413388086014,0.041,,,,8.302826912
1716193413395780800,0.043,,,,8.310521698
1716193413403475586,0.039,,,,8.318216484
1716193413411170372,0.034,,,,8.32591127
1716193413418865158,0.039,,,,8.333606056
1716193413426559944,0.056,,,,8.341300842
1716193413434254730,0.087,,,,8.348995628
1716193413441949516,0.124,,,,8.356690414
1716193413449644302,0.124,,,,8.3643852
1716193413457339088,0.087,,,,8.372079986
1716193413465033874,0.075,,,,8.379774772
1716193413472728660,0.097,,,,8.387469558
1716193413480423446,0.097,,,,8.395164344
1716193413488118232,0.073,,,,8.40285913
1716193413495813018,0.053,,,,8.410553916
1716193413503507804,0.051,,,,8.418248702
1716193413511202606,0.051,,,,8.425943504
1716193413518897810,0.051,,,,8.433638708
1716193413526593014,0.043,,,,8.441333912
1716193413534288218,0.002,,,,8.449029116
1716193413541983422,-0.019,,,,8.45672432
1716193413549678626,0.202,,,,8.464419524
1716193413557373830,0.847,,,,8.472114728
1716193413565069034,1.621,,,,8.479809932
1716193413572764238,2.048,,,,8.487505136
1716193413580459442,1.787,,,,8.49520034
1716193413588154646,0.664,,,,8.502895544
1716193413595849850,-0.31,,,,8.510590748
1716193413603545054,-0.131,,,,8.518285952
1716193413611240258,0.187,,,,8.525981156
1716193413618935462,-0.078,,,,8.53367636
1716193413626630666,-0.19,,,,8.541371564
1716193413634325870,-0.051,,,,8.549066768
1716193413642021074,-0.073,,,,8.556761972
1716193413649716278,-0.126,,,,8.564457176
1716193413657411482,-0.083,,,,8.57215238
1716193413665106686,-0.065,,,,8.579847584
1716193413672801890,-0.08,,,,8.587542788
1716193413680497094,-0.063,,,,8.595237992
1716193413688192298,-0.041,,,,8.602933196
1716193413695887502,-0.036,,,,8.6106284
1716193413703582706,-0.019,,,,8.618323604
1716193413711277910,-0.004,,,,8.626018808
1716193413718973114,0.004,,,,8.633714012
1716193413726668318,0.021,,,,8.641409216
1716193413734363522,0.041,,,,8.64910442
1716193413742058726,0.058,,,,8.656799624
1716193413749753930,0.08,,,,8.664494828
1716193413757449134,0.102,,,,8.672190032
1716193413765144338,0.117,,,,8.679885236
1716193413772839542,0.126,,,,8.68758044
1716193413780534746,0.146,,,,8.695275644
1716193413788229950,0.163,,,,8.702970848
1716193413795925154,0.17,,,,8.710666052
1716193413803620358,0.175,,,,8.718361256
1716193413811315562,0.175,,,,8.72605646
1716193413819010766,0.17,,,,8.733751664
1716193413826705970,0.153,,,,8.741446868
1716193413834401174,0.126,,,,8.749142072
1716193413842096378,0.09,,,,8.756837276
1716193413849791582,0.046,,,,8.76453248
1716193413857486786,0.004,,,,8.772227684
1716193413865181990,-0.019,,,,8.779922888
1716193413872877194,-0.036,,,,8.787618092
1716193413880572398,-0.056,,,,8.795313296
1716193413888267602,-0.063,,,,8.8030085
1716193413895962806,-0.056,,,,8.810703704
1716193413903658010,-0.051,,,,8.818398908
1716193413911353214,-0.048,,,,8.826094112
1716193413919048418,-0.039,,,,8.833789316
1716193413926743622,-0.026,,,,8.84148452
1716193413934438826,-0.021,,,,8.849179724
1716193413942134030,-0.014,,,,8.856874928
1716193413949829234,-0.004,,,,8.864570132
1716193413957524438,0.004,,,,8.872265336
1716193413965219642,0.007,,,,8.87996054
1716193413972914846,0.007,,,,8.887655744
1716193413980610050,0.017,,,,8.895350948
1716193413988305254,0.019,,,,8.903046152
1716193413996000458,0.017,,,,8.910741356
1716193414003695662,0.017,,,,8.91843656
1716193414011390866,0.019,,,,8.926131764
1716193414019086070,0.019,,,,8.933826968
1716193414026781274,0.017,,,,8.941522172
1716193414034476478,0.014,,,,8.949217376
1716193414042171682,0.017,,,,8.95691258
1716193414049866886,0.021,,,,8.964607784
1716193414057562090,0.026,,,,8.972302988
1716193414065257294,0.026,,,,8.979998192
1716193414072952520,0.029,78.0,732.0,,8.987693418
1716193414080647306,0.031,,,,8.995388204
1716193414088342092,0.029,,,,9.00308299
1716193414096036878,0.029,,,,9.010777776
1716193414103731664,0.039,,,,9.018472562
1716193414111426450,0.043,,,,9.026167348
1716193414119121236,0.043,,,,9.033862134
1716193414126816022,0.043,,,,9.04155692
1716193414134510808,0.046,,,,9.049251706
1716193414142205594,0.048,,,,9.056946492
1716193414149900380,0.051,,,,9.064641278
1716193414157595166,0.046,,,,9.072336064
1716193414165289952,0.041,,,,9.08003085
1716193414172984738,0.043,,,,9.087725636
1716193414180679524,0.036,,,,9.095420422
1716193414188374310,0.026,,,,9.103115208
1716193414196069096,0.041,,,,9.110809994
1716193414203763882,0.085,,,,9.11850478
1716193414211458668,0.124,,,,9.126199566
1716193414219153454,0.124,,,,9.133894352
1716193414226848240,0.085,,,,9.141589138
1716193414234543026,0.068,,,,9.149283924
1716193414242237812,0.08,,,,9.15697871
1716193414249932598,0.085,,,,9.164673496
1716193414257627384,0.07,,,,9.172368282
1716193414265322170,0.046,,,,9.180063068
1716193414273016956,0.026,,,,9.187757854
1716193414280711742,0.031,,,,9.19545264
1716193414288406528,0.043,,,,9.203147426
1716193414296101314,0.039,,,,9.210842212
1716193414303796100,0.0,,,,9.218536998
1716193414311490886,-0.021,,,,9.226231784
1716193414319185672,0.185,,,,9.23392657
1716193414326880458,0.8200000000000001,,,,9.241621356
1716193414334575244,1.604,,,,9.249316142
1716193414342270030,2.05,,,,9.257010928
1716193414349964816,1.809,,,,9.264705714
1716193414357659602,0.705,,,,9.2724005
1716193414365354388,-0.292,,,,9.280095286
1716193414373049174,-0.139,,,,9.287790072
1716193414380743960,0.205,,,,9.295484858
1716193414388438746,-0.056,,,,9.303179644
1716193414396133532,-0.183,,,,9.31087443
1716193414403828318,-0.041,,,,9.318569216
1716193414411523104,-0.061,,,,9.326264002
1716193414419217890,-0.112,,,,9.333958788
1716193414426912676,-0.063,,,,9.341653574
1716193414434607462,-0.048,,,,9.34934836
1716193414442302248,-0.061,,,,9.357043146
1716193414449997034,-0.046,,,,9.364737932
1716193414457691820,-0.029,,,,9.372432718
1716193414465386606,-0.017,,,,9.380127504
1716193414473081392,-0.004,,,,9.38782229
1716193414480776178,0.007,,,,9.395517076
1716193414488470964,0.021,,,,9.403211862
1716193414496165750,0.039,,,,9.410906648
1716193414503860536,0.056,,,,9.418601434
1716193414511555322,0.065,,,,9.42629622
1716193414519250108,0.078,,,,9.433991006
1716193414526944894,0.104,,,,9.441685792
1716193414534639680,0.129,,,,9.449380578
1716193414542334466,0.141,,,,9.457075364
1716193414550029252,0.151,,,,9.46477015
1716193414557724038,0.163,,,,9.472464936
1716193414565418824,0.168,,,,9.480159722
1716193414573113610,0.17,,,,9.487854508
1716193414580808396,0.17,,,,9.495549294
1716193414588503182,0.166,,,,9.50324408
1716193414596197968,0.148,,,,9.510938866
1716193414603892754,0.126,,,,9.518633652
1716193414611587540,0.095,,,,9.526328438
1716193414619282326,0.063,,,,9.534023224
1716193414626977112,0.024,,,,9.54171801
1716193414634671914,-0.017,,,,9.549412812
1716193414642366700,-0.041,,,,9.557107598
1716193414650061486,-0.048,,,,9.564802384
1716193414657756272,-0.053,,,,9.57249717
1716193414665451058,-0.063,,,,9.580191956
1716193414673145844,-0.065,,,,9.587886742
1716193414680840630,-0.053,,,,9.595581528
1716193414688535416,-0.046,,,,9.603276314
1716193414696230202,-0.051,,,,9.6109711
1716193414703924988,-0.046,,,,9.618665886
1716193414711619774,-0.034,,,,9.626360672
1716193414719314560,-0.024,,,,9.634055458
1716193414727009346,-0.021,,,,9.641750244
1716193414734704132,-0.017,,,,9.64944503
1716193414742398918,-0.004,,,,9.657139816
1716193414750093704,0.0,,,,9.664834602
1716193414757788490,-0.007,,,,9.672529388
1716193414765483276,-0.009,,,,9.680224174
1716193414773178062,-0.002,,,,9.68791896
1716193414780872848,-0.002,,,,9.695613746
1716193414788567634,-0.007,,,,9.703308532
1716193414796262420,0.0,,,,9.711003318
1716193414803957206,0.002,,,,9.718698104
1716193414811651992,0.002,,,,9.72639289
1716193414819346778,0.004,,,,9.734087676
1716193414827041564,0.012,,,,9.741782462
1716193414834736350,0.012,,,,9.749477248
1716193414842431136,0.009,,,,9.757172034
1716193414850125922,0.009,,,,9.76486682
1716193414857820708,0.019,,,,9.772561606
1716193414865515494,0.024,,,,9.780256392
1716193414873210280,0.024,,,,9.787951178
1716193414880905066,0.021,,,,9.795645964
1716193414888599852,0.026,,,,9.80334075
1716193414896294638,0.031,,,,9.811035536
1716193414903989424,0.031,,,,9.818730322
1716193414911684210,0.026,,,,9.826425108
1716193414919378996,0.029,,,,9.834119894
1716193414927073782,0.039,,,,9.84181468
1716193414934768568,0.041,,,,9.849509466
1716193414942463354,0.034,,,,9.857204252
1716193414950158140,0.031,,,,9.864899038
1716193414957852926,0.058,,,,9.872593824
1716193414965547712,0.1,,,,9.88028861
1716193414973242498,0.122,,,,9.887983396
1716193414980937284,0.107,,,,9.895678182
1716193414988632070,0.075,,,,9.903372968
1716193414996326856,0.075,,,,9.911067754
1716193415004021642,0.08,,,,9.91876254
1716193415011716428,0.065,,,,9.926457326
1716193415019411214,0.046,,,,9.934152112
1716193415027106000,0.031,,,,9.941846898
1716193415034800786,0.026,,,,9.949541684
1716193415042495572,0.034,,,,9.95723647
1716193415050190358,0.034,,,,9.964931256
1716193415057885144,0.004,,,,9.972626042
1716193415065579930,-0.034,,,,9.980320828
1716193415073274716,0.073,,,,9.988015614
1716193415080969502,0.583,,,,9.9957104
1716193415088664288,1.43,,,,10.003405186
1716193415096359074,2.08,,,,10.011099972
1716193415104053860,2.053,,,,10.018794758
1716193415111748646,1.13,,,,10.026489544
1716193415119443432,-0.095,,,,10.03418433
1716193415127138218,-0.354,,,,10.041879116
1716193415134833004,0.104,,,,10.049573902
1716193415142527790,0.056,,,,10.057268688
1716193415150222576,-0.202,,,,10.064963474
1716193415157917362,-0.107,,,,10.07265826
1716193415165612148,-0.048,,,,10.080353046
1716193415173306934,-0.136,,,,10.088047832
1716193415181001720,-0.124,,,,10.095742618
1716193415188696506,-0.075,,,,10.103437404
1716193415196391308,-0.083,79.0,748.0,,10.111132206
1716193415204086512,-0.085,,,,10.11882741
1716193415211781716,-0.061,,,,10.126522614
1716193415219476920,-0.043,,,,10.134217818
1716193415227172124,-0.034,,,,10.141913022
1716193415234867328,-0.019,,,,10.149608226
1716193415242562532,-0.004,,,,10.15730343
1716193415250257736,0.007,,,,10.164998634
1716193415257952940,0.017,,,,10.172693838
1716193415265648144,0.026,,,,10.180389042
1716193415273343348,0.046,,,,10.188084246
1716193415281038552,0.065,,,,10.19577945
1716193415288733756,0.083,,,,10.203474654
1716193415296428960,0.1,,,,10.211169858
1716193415304124164,0.119,,,,10.218865062
1716193415311819368,0.129,,,,10.226560266
1716193415319514572,0.131,,,,10.23425547
1716193415327209776,0.129,,,,10.241950674
1716193415334904980,0.126,,,,10.249645878
1716193415342600184,0.122,,,,10.257341082
1716193415350295388,0.109,,,,10.265036286
1716193415357990592,0.092,,,,10.27273149
1716193415365685796,0.063,,,,10.280426694
1716193415373381000,0.029,,,,10.288121898
1716193415381076204,0.0,,,,10.295817102
1716193415388771408,-0.029,,,,10.303512306
1716193415396466612,-0.051,,,,10.31120751
1716193415404161816,-0.063,,,,10.318902714
1716193415411857020,-0.075,,,,10.326597918
1716193415419552224,-0.08,,,,10.334293122
1716193415427247428,-0.075,,,,10.341988326
1716193415434942632,-0.063,,,,10.34968353
1716193415442637836,-0.051,,,,10.357378734
1716193415450333040,-0.046,,,,10.365073938
1716193415458028244,-0.034,,,,10.372769142
1716193415465723448,-0.019,,,,10.380464346
1716193415473418652,-0.012,,,,10.38815955
1716193415481113856,-0.007,,,,10.395854754
1716193415488809060,0.004,,,,10.403549958
1716193415496504264,0.007,,,,10.411245162
1716193415504199468,0.002,,,,10.418940366
1716193415511894672,0.004,,,,10.42663557
1716193415519589876,0.014,,,,10.434330774
1716193415527285080,0.014,,,,10.442025978
1716193415534980284,0.014,,,,10.449721182
1716193415542675488,0.017,,,,10.457416386
1716193415550370692,0.017,,,,10.46511159
1716193415558065896,0.014,,,,10.472806794
1716193415565761100,0.017,,,,10.480501998
1716193415573456304,0.021,,,,10.488197202
1716193415581151508,0.024,,,,10.495892406
1716193415588846712,0.024,,,,10.50358761
1716193415596541916,0.026,,,,10.511282814
1716193415604237120,0.029,,,,10.518978018
1716193415611932324,0.034,,,,10.526673222
1716193415619627528,0.039,,,,10.534368426
1716193415627322732,0.041,,,,10.54206363
1716193415635017936,0.041,,,,10.549758834
1716193415642713140,0.046,,,,10.557454038
1716193415650408344,0.048,,,,10.565149242
1716193415658103548,0.043,,,,10.572844446
1716193415665798752,0.043,,,,10.58053965
1716193415673493956,0.041,,,,10.588234854
1716193415681189160,0.036,,,,10.595930058
1716193415688884364,0.058,,,,10.603625262
1716193415696579568,0.112,,,,10.611320466
1716193415704274772,0.126,,,,10.61901567
1716193415711969976,0.085,,,,10.626710874
1716193415719665180,0.065,,,,10.634406078
1716193415727360384,0.085,,,,10.642101282
1716193415735055588,0.083,,,,10.649796486
1716193415742750792,0.056,,,,10.65749169
1716193415750445996,0.039,,,,10.665186894
1716193415758141220,0.034,,,,10.672882118
1716193415765836006,0.039,,,,10.680576904
1716193415773530792,0.043,,,,10.68827169
1716193415781225578,0.031,,,,10.695966476
1716193415788920364,-0.019,,,,10.703661262
1716193415796615150,-0.048,,,,10.711356048
1716193415804309936,0.17,,,,10.719050834
1716193415812004722,0.852,,,,10.72674562
1716193415819699508,1.696,,,,10.734440406
1716193415827394294,2.1750000000000003,,,,10.742135192
1716193415835089080,1.931,,,,10.749829978
1716193415842783866,0.744,,,,10.757524764
1716193415850478652,-0.354,,,,10.76521955
1716193415858173438,-0.192,,,,10.772914336
1716193415865868224,0.185,,,,10.780609122
1716193415873563010,-0.087,,,,10.788303908
1716193415881257796,-0.224,,,,10.795998694
1716193415888952582,-0.073,,,,10.80369348
1716193415896647368,-0.092,,,,10.811388266
1716193415904342154,-0.148,,,,10.819083052
1716193415912036940,-0.092,,,,10.826777838
1716193415919731726,-0.07,,,,10.834472624
1716193415927426512,-0.087,,,,10.84216741
1716193415935121298,-0.068,,,,10.849862196
1716193415942816084,-0.046,,,,10.857556982
1716193415950510870,-0.041,,,,10.865251768
1716193415958205656,-0.031,,,,10.872946554
1716193415965900442,-0.009,,,,10.88064134
1716193415973595228,0.004,,,,10.888336126
1716193415981290014,0.014,,,,10.896030912
1716193415988984800,0.026,,,,10.903725698
1716193415996679586,0.046,,,,10.911420484
1716193416004374372,0.065,,,,10.91911527
1716193416012069158,0.083,,,,10.926810056
1716193416019763944,0.1,,,,10.934504842
1716193416027458730,0.119,,,,10.942199628
1716193416035153516,0.134,,,,10.949894414
1716193416042848302,0.139,,,,10.9575892
1716193416050543088,0.146,,,,10.965283986
1716193416058237874,0.151,,,,10.972978772
1716193416065932660,0.144,,,,10.980673558
1716193416073627446,0.131,,,,10.988368344
1716193416081322232,0.112,,,,10.99606313
1716193416089017018,0.085,,,,11.003757916
1716193416096711804,0.056,,,,11.011452702
1716193416104406590,0.019,,,,11.019147488
1716193416112101376,-0.014,,,,11.026842274
1716193416119796162,-0.041,,,,11.03453706
1716193416127490948,-0.061,,,,11.042231846
1716193416135185734,-0.07,,,,11.049926632
1716193416142880520,-0.07,,,,11.057621418
1716193416150575306,-0.068,,,,11.065316204
1716193416158270092,-0.063,,,,11.07301099
1716193416165964878,-0.056,,,,11.080705776
1716193416173659664,-0.048,,,,11.088400562
1716193416181354450,-0.043,,,,11.096095348
1716193416189049236,-0.043,,,,11.103790134
1716193416196744022,-0.034,,,,11.11148492
1716193416204438808,-0.026,,,,11.119179706
1716193416212133594,-0.021,,,,11.126874492
1716193416219828380,-0.017,,,,11.134569278
1716193416227523166,-0.017,,,,11.142264064
1716193416235217952,-0.017,,,,11.14995885
1716193416242912738,-0.012,,,,11.157653636
1716193416250607524,-0.009,,,,11.165348422
1716193416258302310,-0.012,,,,11.173043208
1716193416265997096,-0.009,,,,11.180737994
1716193416273691882,-0.007,,,,11.18843278
1716193416281386668,-0.007,,,,11.196127566
1716193416289081454,-0.002,,,,11.203822352
1716193416296776240,0.0,,,,11.211517138
1716193416304471026,-0.002,,,,11.219211924
1716193416312165812,-0.002,,,,11.22690671
1716193416319860614,0.002,79.0,761.0,,11.234601512
1716193416327555818,0.004,,770.0,,11.242296716
1716193416335251022,0.007,,,,11.24999192
1716193416342946226,0.009,,,,11.257687124
1716193416350641430,0.012,,,,11.265382328
1716193416358336634,0.012,,,,11.273077532
1716193416366031838,0.012,,,,11.280772736
1716193416373727042,0.007,,,,11.28846794
1716193416381422246,0.002,,,,11.296163144
1716193416389117450,0.007,,,,11.303858348
1716193416396812654,0.012,,,,11.311553552
1716193416404507858,0.002,,,,11.319248756
1716193416412203062,0.0,,,,11.32694396
1716193416419898266,0.031,,,,11.334639164
1716193416427593470,0.085,,,,11.342334368
1716193416435288674,0.107,,,,11.350029572
1716193416442983878,0.075,,,,11.357724776
1716193416450679082,0.051,,,,11.36541998
1716193416458374286,0.061,,,,11.373115184
1716193416466069490,0.063,,,,11.380810388
1716193416473764694,0.046,,,,11.388505592
1716193416481459898,0.024,,,,11.396200796
1716193416489155102,0.009,,,,11.403896
1716193416496850306,0.014,,,,11.411591204
1716193416504545510,0.024,,,,11.419286408
1716193416512240714,0.019,,,,11.426981612
1716193416519935918,-0.012,,,,11.434676816
1716193416527631122,-0.063,,,,11.44237202
1716193416535326326,0.034,,,,11.450067224
1716193416543021530,0.551,,,,11.457762428
1716193416550716734,1.369,,,,11.465457632
1716193416558411938,1.994,,,,11.473152836
1716193416566107142,2.099,,,,11.48084804
1716193416573802346,1.281,,,,11.488543244
1716193416581497550,-0.043,,,,11.496238448
1716193416589192754,-0.366,,,,11.503933652
1716193416596887958,0.122,,,,11.511628856
1716193416604583162,0.041,,,,11.51932406
1716193416612278366,-0.246,,,,11.527019264
1716193416619973570,-0.131,,,,11.534714468
1716193416627668774,-0.07,,,,11.542409672
1716193416635363978,-0.153,,,,11.550104876
1716193416643059182,-0.126,,,,11.55780008
1716193416650754386,-0.08,,,,11.565495284
1716193416658449590,-0.092,,,,11.573190488
1716193416666144794,-0.08,,,,11.580885692
1716193416673839998,-0.058,,,,11.588580896
1716193416681535202,-0.058,,,,11.5962761
1716193416689230406,-0.056,,,,11.603971304
1716193416696925610,-0.046,,,,11.611666508
1716193416704620814,-0.034,,,,11.619361712
1716193416712316018,-0.014,,,,11.627056916
1716193416720011222,-0.002,,,,11.63475212
1716193416727706426,0.007,,,,11.642447324
1716193416735401630,0.026,,,,11.650142528
1716193416743096834,0.048,,,,11.657837732
1716193416750792038,0.07,,,,11.665532936
1716193416758487242,0.092,,,,11.67322814
1716193416766182446,0.107,,,,11.680923344
1716193416773877650,0.117,,,,11.688618548
1716193416781572854,0.131,,,,11.696313752
1716193416789268058,0.139,,,,11.704008956
1716193416796963262,0.139,,,,11.71170416
1716193416804658466,0.139,,,,11.719399364
1716193416812353670,0.124,,,,11.727094568
1716193416820048874,0.095,,,,11.734789772
1716193416827744078,0.063,,,,11.742484976
1716193416835439282,0.034,,,,11.75018018
1716193416843134486,-0.002,,,,11.757875384
1716193416850829690,-0.034,,,,11.765570588
1716193416858524894,-0.058,,,,11.773265792
1716193416866220098,-0.073,,,,11.780960996
1716193416873915302,-0.075,,,,11.7886562
1716193416881610526,-0.075,79.0,756.0,,11.796351424
1716193416889305312,-0.07,,,,11.80404621
1716193416897000098,-0.061,,,,11.811740996
1716193416904694884,-0.056,,,,11.819435782
1716193416912389670,-0.053,,,,11.827130568
1716193416920084456,-0.051,,,,11.834825354
1716193416927779242,-0.041,,,,11.84252014
1716193416935474028,-0.024,,,,11.850214926
1716193416943168814,-0.024,,,,11.857909712
1716193416950863600,-0.024,,,,11.865604498
1716193416958558386,-0.009,,,,11.873299284
1716193416966253172,0.002,,,,11.88099407
1716193416973947958,-0.004,,,,11.888688856
1716193416981642744,-0.009,,,,11.896383642
1716193416989337530,-0.002,,,,11.904078428
1716193416997032316,0.002,,,,11.911773214
1716193417004727102,0.002,,,,11.919468
1716193417012421888,0.004,,,,11.927162786
1716193417020116674,0.009,,,,11.934857572
1716193417027811460,0.009,,,,11.942552358
1716193417035506246,0.009,,,,11.950247144
1716193417043201032,0.014,,,,11.95794193
1716193417050895818,0.017,,,,11.965636716
1716193417058590604,0.017,,,,11.973331502
1716193417066285390,0.019,,,,11.981026288
1716193417073980176,0.024,,,,11.988721074
1716193417081674962,0.024,,,,11.99641586
1716193417089369748,0.019,,,,12.004110646
1716193417097064534,0.019,,,,12.011805432
1716193417104759320,0.029,,,,12.019500218
1716193417112454106,0.036,,,,12.027195004
1716193417120148892,0.034,,,,12.03488979
1716193417127843678,0.029,,,,12.042584576
1716193417135538464,0.021,,,,12.050279362
1716193417143233250,0.024,,,,12.057974148
1716193417150928036,0.051,,,,12.065668934
1716193417158622822,0.095,,,,12.07336372
1716193417166317608,0.124,,,,12.081058506
1716193417174012394,0.107,,,,12.088753292
1716193417181707180,0.07,,,,12.096448078
1716193417189401966,0.073,,,,12.104142864
1716193417197096752,0.08,,,,12.11183765
1716193417204791538,0.053,,,,12.119532436
1716193417212486324,0.031,,,,12.127227222
1716193417220181110,0.026,,,,12.134922008
1716193417227875896,0.021,,,,12.142616794
1716193417235570682,0.026,,,,12.15031158
1716193417243265468,0.031,,,,12.158006366
1716193417250960254,0.014,,,,12.165701152
1716193417258655040,-0.029,,,,12.173395938
1716193417266349826,0.007,,,,12.181090724
1716193417274044612,0.41,,,,12.18878551
1716193417281739398,1.196,,,,12.196480296
1716193417289434184,1.882,,,,12.204175082
1716193417297128970,2.072,,,,12.211869868
1716193417304823756,1.428,,,,12.219564654
1716193417312518542,0.144,,,,12.22725944
1716193417320213328,-0.383,,,,12.234954226
1716193417327908114,0.065,,,,12.242649012
1716193417335602900,0.119,,,,12.250343798
1716193417343297686,-0.195,,,,12.258038584
1716193417350992472,-0.141,,,,12.26573337
1716193417358687258,-0.041,,,,12.273428156
1716193417366382044,-0.124,,,,12.281122942
1716193417374076830,-0.126,,,,12.288817728
1716193417381771616,-0.065,,,,12.296512514
1716193417389466402,-0.07,,,,12.3042073
1716193417397161188,-0.07,,,,12.311902086
1716193417404855974,-0.041,,,,12.319596872
1716193417412550760,-0.031,,,,12.327291658
1716193417420245546,-0.029,,,,12.334986444
1716193417427940332,-0.017,,,,12.34268123
1716193417435635118,0.0,,,,12.350376016
1716193417443329922,0.012,,,,12.35807082
1716193417451024986,0.019,,,,12.365765884
1716193417458720050,0.034,,,,12.373460948
1716193417466415114,0.046,,,,12.381156012
1716193417474110178,0.061,,,,12.388851076
1716193417481805242,0.085,,,,12.39654614
1716193417489500306,0.104,,,,12.404241204
1716193417497195370,0.117,,,,12.411936268
1716193417504890434,0.129,,,,12.419631332
1716193417512585498,0.134,,,,12.427326396
1716193417520280562,0.131,,,,12.43502146
1716193417527975626,0.136,,,,12.442716524
1716193417535670690,0.139,,,,12.450411588
1716193417543365754,0.122,,,,12.458106652
1716193417551060818,0.095,,,,12.465801716
1716193417558755882,0.07,,,,12.47349678
1716193417566450946,0.036,,,,12.481191844
1716193417574146010,0.0,,,,12.488886908
1716193417581841074,-0.026,,,,12.496581972
1716193417589536138,-0.053,,,,12.504277036
1716193417597231202,-0.073,,,,12.5119721
1716193417604926266,-0.08,,,,12.519667164
1716193417612621330,-0.078,,,,12.527362228
1716193417620316394,-0.073,,,,12.535057292
1716193417628011458,-0.063,,,,12.542752356
1716193417635706522,-0.053,,,,12.55044742
1716193417643401586,-0.046,,,,12.558142484
1716193417651096650,-0.039,,,,12.565837548
1716193417658791714,-0.026,,,,12.573532612
1716193417666486778,-0.021,,,,12.581227676
1716193417674181842,-0.012,,,,12.58892274
1716193417681876906,0.0,,,,12.596617804
1716193417689571970,0.002,,,,12.604312868
1716193417697267034,0.0,,,,12.612007932
1716193417704962098,-0.004,,,,12.619702996
1716193417712657162,-0.009,,,,12.62739806
1716193417720352226,-0.012,,,,12.635093124
1716193417728047290,-0.012,,,,12.642788188
1716193417735742354,-0.009,,,,12.650483252
1716193417743437418,-0.004,,,,12.658178316
1716193417751132482,-0.002,,,,12.66587338
1716193417758827546,0.002,,,,12.673568444
1716193417766522610,0.007,,,,12.681263508
1716193417774217674,0.009,,,,12.688958572
1716193417781912738,0.012,,,,12.696653636
1716193417789607802,0.014,,,,12.7043487
1716193417797302866,0.019,,,,12.712043764
1716193417804997930,0.024,,,,12.719738828
1716193417812692994,0.026,,,,12.727433892
1716193417820388058,0.026,,,,12.735128956
1716193417828083122,0.031,,,,12.74282402
1716193417835778186,0.034,,,,12.750519084
1716193417843473250,0.036,,,,12.758214148
1716193417851168314,0.039,,,,12.765909212
1716193417858863378,0.046,,,,12.773604276
1716193417866558442,0.039,,,,12.78129934
1716193417874253506,0.026,,,,12.788994404
1716193417881948570,0.041,,,,12.796689468
1716193417889643634,0.087,,,,12.804384532
1716193417897338698,0.129,,,,12.812079596
1716193417905033762,0.126,,,,12.81977466
1716193417912728826,0.092,,,,12.827469724
1716193417920423890,0.08,,,,12.835164788
1716193417928118954,0.087,,,,12.842859852
1716193417935814018,0.085,,,,12.850554916
1716193417943509082,0.065,,,,12.85824998
1716193417951204146,0.051,,,,12.865945044
1716193417958899210,0.048,,,,12.873640108
1716193417966594274,0.046,,,,12.881335172
1716193417974289338,0.048,,,,12.889030236
1716193417981984402,0.048,,,,12.8967253
1716193417989679466,0.012,,,,12.904420364
1716193417997374530,-0.007,,,,12.912115428
1716193418005069662,0.209,79.0,729.0,,12.91981056
1716193418012764587,0.869,,734.0,,12.927505485
1716193418020459512,1.674,,,,12.93520041
1716193418028154437,2.092,,,,12.942895335
1716193418035849362,1.772,,,,12.95059026
1716193418043544287,0.629,,,,12.958285185
1716193418051239212,-0.314,,,,12.96598011
1716193418058934137,-0.124,,,,12.973675035
1716193418066629062,0.19,,,,12.98136996
1716193418074323987,-0.07,,,,12.989064885
1716193418082018912,-0.185,,,,12.99675981
1716193418089713837,-0.053,,,,13.004454735
1716193418097408762,-0.078,,,,13.01214966
1716193418105103687,-0.124,,,,13.019844585
1716193418112798612,-0.073,,,,13.02753951
1716193418120493537,-0.051,,,,13.035234435
1716193418128188462,-0.061,,,,13.04292936
1716193418135883387,-0.036,,,,13.050624285
1716193418143578312,-0.019,,,,13.05831921
1716193418151273237,-0.019,,,,13.066014135
1716193418158968162,0.0,,,,13.07370906
1716193418166663087,0.021,,,,13.081403985
1716193418174358012,0.034,,,,13.08909891
1716193418182052937,0.043,,,,13.096793835
1716193418189747862,0.061,,,,13.10448876
1716193418197442787,0.073,,,,13.112183685
1716193418205137712,0.08,,,,13.11987861
1716193418212832637,0.087,,,,13.127573535
1716193418220527562,0.102,,,,13.13526846
1716193418228222487,0.119,,,,13.142963385
1716193418235917412,0.126,,,,13.15065831
1716193418243612337,0.131,,,,13.158353235
1716193418251307262,0.141,,,,13.16604816
1716193418259002187,0.146,,,,13.173743085
1716193418266697112,0.139,,,,13.18143801
1716193418274392037,0.131,,,,13.189132935
1716193418282086962,0.119,,,,13.19682786
1716193418289781887,0.087,,,,13.204522785
1716193418297476812,0.053,,,,13.21221771
1716193418305171737,0.026,,,,13.219912635
1716193418312866662,0.0,,,,13.22760756
1716193418320561587,-0.026,,,,13.235302485
1716193418328256512,-0.048,,,,13.24299741
1716193418335951437,-0.058,,,,13.250692335
1716193418343646362,-0.061,,,,13.25838726
1716193418351341287,-0.063,,,,13.266082185
1716193418359036212,-0.056,,,,13.27377711
1716193418366731137,-0.041,,,,13.281472035
1716193418374426062,-0.029,,,,13.28916696
1716193418382120987,-0.029,,,,13.296861885
1716193418389815912,-0.021,,,,13.30455681
1716193418397510837,-0.004,,,,13.312251735
1716193418405205762,0.004,,,,13.31994666
1716193418412900687,0.004,,,,13.327641585
1716193418420595612,0.012,,,,13.33533651
1716193418428290537,0.019,,,,13.343031435
1716193418435985462,0.019,,,,13.35072636
1716193418443680387,0.019,,,,13.358421285
1716193418451375312,0.019,,,,13.36611621
1716193418459070237,0.017,,,,13.373811135
1716193418466765162,0.014,,,,13.38150606
1716193418474460087,0.014,,,,13.389200985
1716193418482155012,0.021,,,,13.39689591
1716193418489849937,0.029,,,,13.404590835
1716193418497544862,0.029,,,,13.41228576
1716193418505239787,0.024,,,,13.419980685
1716193418512934712,0.024,,,,13.42767561
1716193418520629637,0.034,,,,13.435370535
1716193418528324562,0.041,,,,13.44306546
1716193418536019487,0.041,,,,13.450760385
1716193418543714412,0.043,,,,13.45845531
1716193418551409337,0.048,,,,13.466150235
1716193418559104262,0.051,,,,13.47384516
1716193418566799228,0.048,,,,13.481540126
1716193418574494014,0.051,,,,13.489234912
1716193418582188800,0.051,,,,13.496929698
1716193418589883586,0.039,,,,13.504624484
1716193418597578372,0.043,,,,13.51231927
1716193418605273158,0.08,,,,13.520014056
1716193418612967944,0.124,,,,13.527708842
1716193418620662730,0.129,,,,13.535403628
1716193418628357516,0.097,,,,13.543098414
1716193418636052302,0.078,,,,13.5507932
1716193418643747088,0.085,,,,13.558487986
1716193418651441874,0.08,,,,13.566182772
1716193418659136660,0.061,,,,13.573877558
1716193418666831446,0.048,,,,13.581572344
1716193418674526232,0.053,,,,13.58926713
1716193418682221018,0.056,,,,13.596961916
1716193418689915804,0.048,,,,13.604656702
1716193418697610590,0.036,,,,13.612351488
1716193418705305376,0.004,,,,13.620046274
1716193418713000162,-0.024,,,,13.62774106
1716193418720694948,0.141,,,,13.635435846
1716193418728389734,0.764,,,,13.643130632
1716193418736084520,1.65,,,,13.650825418
1716193418743779306,2.194,,,,13.658520204
1716193418751474092,1.97,,,,13.66621499
1716193418759168878,0.856,,,,13.673909776
1716193418766863664,-0.27,,,,13.681604562
1716193418774558450,-0.256,,,,13.689299348
1716193418782253236,0.17,,,,13.696994134
1716193418789948022,-0.012,,,,13.70468892
1716193418797642808,-0.207,,,,13.712383706
1716193418805337594,-0.083,,,,13.720078492
1716193418813032380,-0.065,,,,13.727773278
1716193418820727166,-0.131,,,,13.735468064
1716193418828421952,-0.092,,,,13.74316285
1716193418836116738,-0.058,,,,13.750857636
1716193418843811524,-0.065,,,,13.758552422
1716193418851506310,-0.046,,,,13.766247208
1716193418859201096,-0.021,,,,13.773941994
1716193418866895882,-0.017,,,,13.78163678
1716193418874590668,-0.004,,,,13.789331566
1716193418882285454,0.017,,,,13.797026352
1716193418889980240,0.031,,,,13.804721138
1716193418897675026,0.048,,,,13.812415924
1716193418905369812,0.065,,,,13.82011071
1716193418913064598,0.08,,,,13.827805496
1716193418920759384,0.1,,,,13.835500282
1716193418928454170,0.119,,,,13.843195068
1716193418936148956,0.129,,,,13.850889854
1716193418943843742,0.134,,,,13.85858464
1716193418951538528,0.141,,,,13.866279426
1716193418959233314,0.144,,,,13.873974212
1716193418966928100,0.144,,,,13.881668998
1716193418974622886,0.139,,,,13.889363784
1716193418982317672,0.126,,,,13.89705857
1716193418990012458,0.114,,,,13.904753356
1716193418997707244,0.104,,,,13.912448142
1716193419005402030,0.083,,,,13.920142928
1716193419013096816,0.051,,,,13.927837714
1716193419020791602,0.019,,,,13.9355325
1716193419028486388,-0.007,,,,13.943227286
1716193419036181174,-0.031,,,,13.950922072
1716193419043875960,-0.053,,,,13.958616858
1716193419051570746,-0.068,,,,13.966311644
1716193419059265532,-0.068,,,,13.97400643
1716193419066960318,-0.068,,,,13.981701216
1716193419074655104,-0.063,,,,13.989396002
1716193419082349890,-0.051,,,,13.997090788
1716193419090044676,-0.043,,,,14.004785574
1716193419097739462,-0.034,,,,14.01248036
1716193419105434248,-0.024,,,,14.020175146
1716193419113129034,-0.014,,,,14.027869932
1716193419120823820,-0.009,,,,14.035564718
1716193419128518622,-0.002,79.0,732.0,,14.04325952
1716193419136213826,0.007,,,,14.050954724
1716193419143909030,0.012,,,,14.058649928
1716193419151604234,0.017,,,,14.066345132
1716193419159299438,0.012,,,,14.074040336
1716193419166994642,0.0,,,,14.08173554
1716193419174689846,0.002,,,,14.089430744
1716193419182385050,0.009,,,,14.097125948
1716193419190080254,0.002,,,,14.104821152
1716193419197775458,-0.004,,,,14.112516356
1716193419205470662,0.0,,,,14.12021156
1716193419213165866,-0.002,,,,14.127906764
1716193419220861070,-0.009,,,,14.135601968
1716193419228556274,-0.014,,,,14.143297172
1716193419236251478,-0.004,,,,14.150992376
1716193419243946682,0.002,,,,14.15868758
1716193419251641886,0.004,,,,14.166382784
1716193419259337090,0.004,,,,14.174077988
1716193419267032294,0.009,,,,14.181773192
1716193419274727498,0.019,,,,14.189468396
1716193419282422702,0.019,,,,14.1971636
1716193419290117906,0.009,,,,14.204858804
1716193419297813110,0.007,,,,14.212554008
1716193419305508314,0.034,,,,14.220249212
1716193419313203518,0.083,,,,14.227944416
1716193419320898722,0.112,,,,14.23563962
1716193419328593926,0.097,,,,14.243334824
1716193419336289130,0.075,,,,14.251030028
1716193419343984334,0.075,,,,14.258725232
1716193419351679538,0.083,,,,14.266420436
1716193419359374742,0.07,,,,14.27411564
1716193419367069946,0.051,,,,14.281810844
1716193419374765150,0.043,,,,14.289506048
1716193419382460354,0.051,,,,14.297201252
1716193419390155558,0.053,,,,14.304896456
1716193419397850762,0.053,,,,14.31259166
1716193419405545966,0.031,,,,14.320286864
1716193419413241170,-0.014,,,,14.327982068
1716193419420936374,0.041,,,,14.335677272
1716193419428631578,0.483,,,,14.343372476
1716193419436326782,1.318,,,,14.35106768
1716193419444021986,2.043,,,,14.358762884
1716193419451717190,2.231,,,,14.366458088
1716193419459412394,1.53,,,,14.374153292
1716193419467107598,0.158,,,,14.381848496
1716193419474802802,-0.405,,,,14.3895437
1716193419482498006,0.08,,,,14.397238904
1716193419490193210,0.141,,,,14.404934108
1716193419497888414,-0.192,,,,14.412629312
1716193419505583618,-0.126,,,,14.420324516
1716193419513278822,-0.021,,,,14.42801972
1716193419520974026,-0.114,,,,14.435714924
1716193419528669230,-0.112,,,,14.443410128
1716193419536364434,-0.041,,,,14.451105332
1716193419544059638,-0.053,,,,14.458800536
1716193419551754842,-0.063,,,,14.46649574
1716193419559450046,-0.029,,,,14.474190944
1716193419567145250,-0.012,,,,14.481886148
1716193419574840454,-0.007,,,,14.489581352
1716193419582535658,0.009,,,,14.497276556
1716193419590230862,0.024,,,,14.50497176
1716193419597926066,0.041,,,,14.512666964
1716193419605621270,0.063,,,,14.520362168
1716193419613316474,0.08,,,,14.528057372
1716193419621011678,0.09,,,,14.535752576
1716193419628706882,0.107,,,,14.54344778
1716193419636402086,0.129,,,,14.551142984
1716193419644097290,0.141,,,,14.558838188
1716193419651792494,0.153,,,,14.566533392
1716193419659487698,0.163,,,,14.574228596
1716193419667182902,0.168,,,,14.5819238
1716193419674878106,0.17,,,,14.589619004
1716193419682573310,0.158,,,,14.597314208
1716193419690268534,0.144,,,,14.605009432
1716193419697963320,0.134,,,,14.612704218
1716193419705658106,0.112,,,,14.620399004
1716193419713352892,0.075,,,,14.62809379
1716193419721047678,0.036,,,,14.635788576
1716193419728742464,-0.007,,,,14.643483362
1716193419736437250,-0.053,,,,14.651178148
1716193419744132036,-0.075,,,,14.658872934
1716193419751826822,-0.08,,,,14.66656772
1716193419759521608,-0.087,,,,14.674262506
1716193419767216394,-0.09,,,,14.681957292
1716193419774911180,-0.078,,,,14.689652078
1716193419782605966,-0.068,,,,14.697346864
1716193419790300752,-0.063,,,,14.70504165
1716193419797995538,-0.053,,,,14.712736436
1716193419805690324,-0.043,,,,14.720431222
1716193419813385110,-0.031,,,,14.728126008
1716193419821079896,-0.021,,,,14.735820794
1716193419828774682,-0.012,,,,14.74351558
1716193419836469468,0.0,,,,14.751210366
1716193419844164254,0.004,,,,14.758905152
1716193419851859040,0.002,,,,14.766599938
1716193419859553826,-0.002,,,,14.774294724
1716193419867248612,0.002,,,,14.78198951
1716193419874943398,0.009,,,,14.789684296
1716193419882638184,0.009,,,,14.797379082
1716193419890332970,0.007,,,,14.805073868
1716193419898027756,0.009,,,,14.812768654
1716193419905722542,0.007,,,,14.82046344
1716193419913417328,0.007,,,,14.828158226
1716193419921112114,0.007,,,,14.835853012
1716193419928806900,0.004,,,,14.843547798
1716193419936501686,0.002,,,,14.851242584
1716193419944196472,0.004,,,,14.85893737
1716193419951891258,0.009,,,,14.866632156
1716193419959586044,0.012,,,,14.874326942
1716193419967280830,0.014,,,,14.882021728
1716193419974975616,0.014,,,,14.889716514
1716193419982670402,0.019,,,,14.8974113
1716193419990365188,0.021,,,,14.905106086
1716193419998059974,0.009,,,,14.912800872
1716193420005754760,0.002,,,,14.920495658
1716193420013449546,0.039,,,,14.928190444
1716193420021144332,0.095,,,,14.93588523
1716193420028839118,0.109,,,,14.943580016
1716193420036533904,0.078,,,,14.951274802
1716193420044228690,0.061,,,,14.958969588
1716193420051923476,0.075,,,,14.966664374
1716193420059618262,0.078,,,,14.97435916
1716193420067313048,0.058,,,,14.982053946
1716193420075007834,0.043,,,,14.989748732
1716193420082702620,0.046,,,,14.997443518
1716193420090397406,0.046,,,,15.005138304
1716193420098092192,0.043,,,,15.01283309
1716193420105786978,0.048,,,,15.020527876
1716193420113481764,0.026,,,,15.028222662
1716193420121176550,-0.024,,,,15.035917448
1716193420128871336,0.083,,,,15.043612234
1716193420136566122,0.622,,,,15.05130702
1716193420144260908,1.452,,,,15.059001806
1716193420151955694,2.077,,,,15.066696592
1716193420159650480,2.16,,,,15.074391378
1716193420167345266,1.298,,,,15.082086164
1716193420175040052,-0.036,,,,15.08978095
1716193420182734838,-0.332,,,,15.097475736
1716193420190429624,0.161,,,,15.105170522
1716193420198124410,0.068,,,,15.112865308
1716193420205819196,-0.219,,,,15.120560094
1716193420213513982,-0.097,,,,15.12825488
1716193420221208768,-0.039,,,,15.135949666
1716193420228903554,-0.134,,,,15.143644452
1716193420236598340,-0.117,,,,15.151339238
1716193420244293126,-0.075,,,,15.159034024
1716193420251987928,-0.085,80.0,733.0,,15.166728826
1716193420259682714,-0.065,,,,15.174423612
1716193420267377500,-0.041,,,,15.182118398
1716193420275072286,-0.048,,,,15.189813184
1716193420282767072,-0.048,,,,15.19750797
1716193420290461858,-0.021,,,,15.205202756
1716193420298156644,-0.002,,,,15.212897542
1716193420305851430,0.007,,,,15.220592328
1716193420313546216,0.024,,,,15.228287114
1716193420321241002,0.043,,,,15.2359819
1716193420328935788,0.063,,,,15.243676686
1716193420336630574,0.083,,,,15.251371472
1716193420344325360,0.1,,,,15.259066258
1716193420352020146,0.119,,,,15.266761044
1716193420359714932,0.134,,,,15.27445583
1716193420367409718,0.139,,,,15.282150616
1716193420375104504,0.144,,,,15.289845402
1716193420382799290,0.151,,,,15.297540188
1716193420390494076,0.146,,,,15.305234974
1716193420398188862,0.139,,,,15.31292976
1716193420405883648,0.124,,,,15.320624546
1716193420413578434,0.102,,,,15.328319332
1716193420421273220,0.07,,,,15.336014118
1716193420428968006,0.034,,,,15.343708904
1716193420436662792,0.004,,,,15.35140369
1716193420444357578,-0.021,,,,15.359098476
1716193420452052364,-0.051,,,,15.366793262
1716193420459747150,-0.07,,,,15.374488048
1716193420467441936,-0.075,,,,15.382182834
1716193420475136722,-0.07,,,,15.38987762
1716193420482831508,-0.068,,,,15.397572406
1716193420490526294,-0.061,,,,15.405267192
1716193420498221080,-0.051,,,,15.412961978
1716193420505915866,-0.046,,,,15.420656764
1716193420513610652,-0.041,,,,15.42835155
1716193420521305438,-0.029,,,,15.436046336
1716193420529000224,-0.017,,,,15.443741122
1716193420536695010,-0.009,,,,15.451435908
1716193420544389796,-0.009,,,,15.459130694
1716193420552084582,-0.007,,,,15.46682548
1716193420559779368,-0.004,,,,15.474520266
1716193420567474154,-0.002,,,,15.482215052
1716193420575168940,0.002,,,,15.489909838
1716193420582863726,0.002,,,,15.497604624
1716193420590558512,0.004,,,,15.50529941
1716193420598253298,0.004,,,,15.512994196
1716193420605948084,0.007,,,,15.520688982
1716193420613642870,0.012,,,,15.528383768
1716193420621337656,0.014,,,,15.536078554
1716193420629032442,0.014,,,,15.54377334
1716193420636727228,0.017,,,,15.551468126
1716193420644422014,0.017,,,,15.559162912
1716193420652116800,0.019,,,,15.566857698
1716193420659811586,0.026,,,,15.574552484
1716193420667506372,0.021,,,,15.58224727
1716193420675201158,0.019,,,,15.589942056
1716193420682895944,0.029,,,,15.597636842
1716193420690590730,0.029,,,,15.605331628
1716193420698285516,0.029,,,,15.613026414
1716193420705980302,0.034,,,,15.6207212
1716193420713675088,0.034,,,,15.628415986
1716193420721369874,0.026,,,,15.636110772
1716193420729064660,0.041,,,,15.643805558
1716193420736759446,0.083,,,,15.651500344
1716193420744454232,0.109,,,,15.65919513
1716193420752149018,0.092,,,,15.666889916
1716193420759843804,0.063,,,,15.674584702
1716193420767538590,0.068,,,,15.682279488
1716193420775233376,0.075,,,,15.689974274
1716193420782928162,0.058,,,,15.69766906
1716193420790622948,0.036,,,,15.705363846
1716193420798317734,0.036,,,,15.713058632
1716193420806012520,0.043,,,,15.720753418
1716193420813707324,0.041,80.0,717.0,,15.728448222
1716193420821402528,0.041,,704.0,,15.736143426
1716193420829097732,0.036,,,,15.74383863
1716193420836792936,-0.004,,,,15.751533834
1716193420844488140,0.0,,,,15.759229038
1716193420852183344,0.327,,,,15.766924242
1716193420859878548,1.079,,,,15.774619446
1716193420867573752,1.835,,,,15.78231465
1716193420875268956,2.15,,,,15.790009854
1716193420882964160,1.694,,,,15.797705058
1716193420890659364,0.424,,,,15.805400262
1716193420898354568,-0.388,,,,15.813095466
1716193420906049772,-0.031,,,,15.82079067
1716193420913744976,0.166,,,,15.828485874
1716193420921440180,-0.17,,,,15.836181078
1716193420929135384,-0.187,,,,15.843876282
1716193420936830588,-0.048,,,,15.851571486
1716193420944525792,-0.114,,,,15.85926669
1716193420952220996,-0.139,,,,15.866961894
1716193420959916200,-0.075,,,,15.874657098
1716193420967611404,-0.073,,,,15.882352302
1716193420975306608,-0.08,,,,15.890047506
1716193420983001812,-0.048,,,,15.89774271
1716193420990697016,-0.036,,,,15.905437914
1716193420998392220,-0.036,,,,15.913133118
1716193421006087424,-0.021,,,,15.920828322
1716193421013782628,-0.004,,,,15.928523526
1716193421021477832,0.004,,,,15.93621873
1716193421029173036,0.021,,,,15.943913934
1716193421036868240,0.043,,,,15.951609138
1716193421044563444,0.061,,,,15.959304342
1716193421052258648,0.075,,,,15.966999546
1716193421059953852,0.087,,,,15.97469475
1716193421067649056,0.104,,,,15.982389954
1716193421075344260,0.124,,,,15.990085158
1716193421083039464,0.134,,,,15.997780362
1716193421090734668,0.144,,,,16.005475566
1716193421098429872,0.153,,,,16.01317077
1716193421106125076,0.151,,,,16.020865974
1716193421113820280,0.141,,,,16.028561178
1716193421121515484,0.131,,,,16.036256382
1716193421129210688,0.117,,,,16.043951586
1716193421136905892,0.095,,,,16.05164679
1716193421144601096,0.061,,,,16.059341994
1716193421152296300,0.024,,,,16.067037198
1716193421159991504,-0.004,,,,16.074732402
1716193421167686708,-0.031,,,,16.082427606
1716193421175381912,-0.056,,,,16.09012281
1716193421183077116,-0.065,,,,16.097818014
1716193421190772320,-0.065,,,,16.105513218
1716193421198467524,-0.065,,,,16.113208422
1716193421206162728,-0.061,,,,16.120903626
1716193421213857932,-0.048,,,,16.12859883
1716193421221553136,-0.043,,,,16.136294034
1716193421229248340,-0.039,,,,16.143989238
1716193421236943544,-0.029,,,,16.151684442
1716193421244638748,-0.031,,,,16.159379646
1716193421252333952,-0.031,,,,16.16707485
1716193421260029156,-0.021,,,,16.174770054
1716193421267724360,-0.017,,,,16.182465258
1716193421275419564,-0.014,,,,16.190160462
1716193421283114768,-0.014,,,,16.197855666
1716193421290809972,-0.012,,,,16.20555087
1716193421298505176,-0.004,,,,16.213246074
1716193421306200380,-0.002,,,,16.220941278
1716193421313895584,-0.002,,,,16.228636482
1716193421321590788,0.0,,,,16.236331686
1716193421329285992,0.0,,,,16.24402689
1716193421336981196,0.0,,,,16.251722094
1716193421344676400,0.002,,,,16.259417298
1716193421352371604,0.007,,,,16.267112502
1716193421360066808,0.009,,,,16.274807706
1716193421367762012,0.012,,,,16.28250291
1716193421375457236,0.014,,,,16.290198134
1716193421383152231,0.012,,,,16.297893129
1716193421390847226,0.014,,,,16.305588124
1716193421398542221,0.017,,,,16.313283119
1716193421406237216,0.017,,,,16.320978114
1716193421413932211,0.017,,,,16.328673109
1716193421421627206,0.019,,,,16.336368104
1716193421429322201,0.021,,,,16.344063099
1716193421437017196,0.024,,,,16.351758094
1716193421444712191,0.029,,,,16.359453089
1716193421452407186,0.024,,,,16.367148084
1716193421460102181,0.019,,,,16.374843079
1716193421467797176,0.036,,,,16.382538074
1716193421475492171,0.073,,,,16.390233069
1716193421483187166,0.104,,,,16.397928064
1716193421490882161,0.097,,,,16.405623059
1716193421498577156,0.07,,,,16.413318054
1716193421506272151,0.065,,,,16.421013049
1716193421513967146,0.075,,,,16.428708044
1716193421521662141,0.065,,,,16.436403039
1716193421529357136,0.043,,,,16.444098034
1716193421537052131,0.034,,,,16.451793029
1716193421544747126,0.041,,,,16.459488024
1716193421552442121,0.046,,,,16.467183019
1716193421560137116,0.041,,,,16.474878014
1716193421567832111,0.034,,,,16.482573009
1716193421575527106,0.0,,,,16.490268004
1716193421583222101,0.007,,,,16.497962999
1716193421590917096,0.312,,,,16.505657994
1716193421598612091,1.04,,,,16.513352989
1716193421606307086,1.791,,,,16.521047984
1716193421614002081,2.094,,,,16.528742979
1716193421621697076,1.63,,,,16.536437974
1716193421629392071,0.405,,,,16.544132969
1716193421637087066,-0.366,,,,16.551827964
1716193421644782061,-0.017,,,,16.559522959
1716193421652477056,0.183,,,,16.567217954
1716193421660172051,-0.134,,,,16.574912949
1716193421667867046,-0.156,,,,16.582607944
1716193421675562041,-0.024,,,,16.590302939
1716193421683257036,-0.09,,,,16.597997934
1716193421690952031,-0.112,,,,16.605692929
1716193421698647026,-0.041,,,,16.613387924
1716193421706342021,-0.039,,,,16.621082919
1716193421714037016,-0.053,,,,16.628777914
1716193421721732011,-0.024,,,,16.636472909
1716193421729427006,-0.002,,,,16.644167904
1716193421737122001,0.004,,,,16.651862899
1716193421744816996,0.012,,,,16.659557894
1716193421752511991,0.014,,,,16.667252889
1716193421760206986,0.024,,,,16.674947884
1716193421767901981,0.048,,,,16.682642879
1716193421775596976,0.065,,,,16.690337874
1716193421783291971,0.075,,,,16.698032869
1716193421790986966,0.095,,,,16.705727864
1716193421798681961,0.114,,,,16.713422859
1716193421806376956,0.126,,,,16.721117854
1716193421814071951,0.139,,,,16.728812849
1716193421821766946,0.153,,,,16.736507844
1716193421829461941,0.161,,,,16.744202839
1716193421837156936,0.161,,,,16.751897834
1716193421844851931,0.158,,,,16.759592829
1716193421852546926,0.158,,,,16.767287824
1716193421860241921,0.148,,,,16.774982819
1716193421867936916,0.131,,,,16.782677814
1716193421875631911,0.114,,,,16.790372809
1716193421883326906,0.083,,,,16.798067804
1716193421891021901,0.048,,,,16.805762799
1716193421898716896,0.017,,,,16.813457794
1716193421906411891,-0.012,,,,16.821152789
1716193421914106886,-0.031,,,,16.828847784
1716193421921801881,-0.041,,,,16.836542779
1716193421929496876,-0.048,,,,16.844237774
1716193421937191890,-0.046,81.0,707.0,,16.851932788
1716193421944886885,-0.041,,,,16.859627783
1716193421952581880,-0.034,,,,16.867322778
1716193421960276875,-0.024,,,,16.875017773
1716193421967971870,-0.014,,,,16.882712768
1716193421975666865,-0.004,,,,16.890407763
1716193421983361860,-0.007,,,,16.898102758
1716193421991056855,-0.012,,,,16.905797753
1716193421998751850,-0.002,,,,16.913492748
1716193422006446845,0.007,,,,16.921187743
1716193422014141840,0.009,,,,16.928882738
1716193422021836835,0.007,,,,16.936577733
1716193422029531830,0.009,,,,16.944272728
1716193422037226825,0.012,,,,16.951967723
1716193422044921820,0.014,,,,16.959662718
1716193422052616815,0.019,,,,16.967357713
1716193422060311810,0.024,,,,16.975052708
1716193422068006805,0.024,,,,16.982747703
1716193422075701800,0.024,,,,16.990442698
1716193422083396795,0.026,,,,16.998137693
1716193422091091790,0.031,,,,17.005832688
1716193422098786785,0.031,,,,17.013527683
1716193422106481780,0.031,,,,17.021222678
1716193422114176775,0.036,,,,17.028917673
1716193422121871770,0.039,,,,17.036612668
1716193422129566765,0.041,,,,17.044307663
1716193422137261760,0.043,,,,17.052002658
1716193422144956755,0.046,,,,17.059697653
1716193422152651750,0.043,,,,17.067392648
1716193422160346745,0.046,,,,17.075087643
1716193422168041740,0.048,,,,17.082782638
1716193422175736735,0.051,,,,17.090477633
1716193422183431730,0.058,,,,17.098172628
1716193422191126725,0.056,,,,17.105867623
1716193422198821720,0.046,,,,17.113562618
1716193422206516715,0.051,,,,17.121257613
1716193422214211710,0.085,,,,17.128952608
1716193422221906705,0.134,,,,17.136647603
1716193422229601700,0.153,,,,17.144342598
1716193422237296695,0.126,,,,17.152037593
1716193422244991690,0.102,,,,17.159732588
1716193422252686685,0.102,,,,17.167427583
1716193422260381680,0.09,,,,17.175122578
1716193422268076675,0.073,,,,17.182817573
1716193422275771670,0.065,,,,17.190512568
1716193422283466665,0.063,,,,17.198207563
1716193422291161660,0.063,,,,17.205902558
1716193422298856655,0.065,,,,17.213597553
1716193422306551650,0.058,,,,17.221292548
1716193422314246645,0.029,,,,17.228987543
1716193422321941640,0.004,,,,17.236682538
1716193422329636635,0.178,,,,17.244377533
1716193422337331630,0.786,,,,17.252072528
1716193422345026625,1.599,,,,17.259767523
1716193422352721620,2.084,,,,17.267462518
1716193422360416615,1.901,,,,17.275157513
1716193422368111610,0.856,,,,17.282852508
1716193422375806605,-0.227,,,,17.290547503
1716193422383501600,-0.185,,,,17.298242498
1716193422391196595,0.209,,,,17.305937493
1716193422398891590,-0.009,,,,17.313632488
1716193422406586585,-0.185,,,,17.321327483
1716193422414281580,-0.043,,,,17.329022478
1716193422421976575,-0.039,,,,17.336717473
1716193422429671570,-0.104,,,,17.344412468
1716193422437366565,-0.061,,,,17.352107463
1716193422445061560,-0.031,,,,17.359802458
1716193422452756555,-0.039,,,,17.367497453
1716193422460451550,-0.019,,,,17.375192448
1716193422468146545,-0.002,,,,17.382887443
1716193422475841540,0.004,,,,17.390582438
1716193422483536535,0.014,,,,17.398277433
1716193422491231530,0.029,,,,17.405972428
1716193422498926542,0.043,,,,17.41366744
1716193422506621328,0.061,,,,17.421362226
1716193422514316114,0.078,,,,17.429057012
1716193422522010900,0.087,,,,17.436751798
1716193422529705686,0.102,,,,17.444446584
1716193422537400472,0.119,,,,17.45214137
1716193422545095258,0.134,,,,17.459836156
1716193422552790044,0.144,,,,17.467530942
1716193422560484830,0.156,,,,17.475225728
1716193422568179616,0.163,,,,17.482920514
1716193422575874402,0.163,,,,17.4906153
1716193422583569188,0.151,,,,17.498310086
1716193422591263974,0.144,,,,17.506004872
1716193422598958760,0.141,,,,17.513699658
1716193422606653546,0.131,,,,17.521394444
1716193422614348332,0.109,,,,17.52908923
1716193422622043118,0.085,,,,17.536784016
1716193422629737904,0.056,,,,17.544478802
1716193422637432690,0.024,,,,17.552173588
1716193422645127476,-0.009,,,,17.559868374
1716193422652822262,-0.029,,,,17.56756316
1716193422660517048,-0.041,,,,17.575257946
1716193422668211834,-0.056,,,,17.582952732
1716193422675906620,-0.058,,,,17.590647518
1716193422683601406,-0.046,,,,17.598342304
1716193422691296192,-0.036,,,,17.60603709
1716193422698990978,-0.026,,,,17.613731876
1716193422706685764,-0.014,,,,17.621426662
1716193422714380550,-0.002,,,,17.629121448
1716193422722075336,0.002,,,,17.636816234
1716193422729770122,0.009,,,,17.64451102
1716193422737464908,0.014,,,,17.652205806
1716193422745159694,0.021,,,,17.659900592
1716193422752854480,0.024,,,,17.667595378
1716193422760549266,0.017,,,,17.675290164
1716193422768244052,0.007,,,,17.68298495
1716193422775938838,0.009,,,,17.690679736
1716193422783633624,0.017,,,,17.698374522
1716193422791328410,0.017,,,,17.706069308
1716193422799023196,0.019,,,,17.713764094
1716193422806717982,0.026,,,,17.72145888
1716193422814412768,0.026,,,,17.729153666
1716193422822107554,0.019,,,,17.736848452
1716193422829802340,0.026,,,,17.744543238
1716193422837497126,0.036,,,,17.752238024
1716193422845191912,0.034,,,,17.75993281
1716193422852886698,0.031,,,,17.767627596
1716193422860581484,0.034,,,,17.775322382
1716193422868276270,0.041,,,,17.783017168
1716193422875971056,0.046,,,,17.790711954
1716193422883665842,0.039,,,,17.79840674
1716193422891360628,0.041,,,,17.806101526
1716193422899055414,0.053,,,,17.813796312
1716193422906750200,0.056,,,,17.821491098
1716193422914444986,0.048,,,,17.829185884
1716193422922139772,0.048,,,,17.83688067
1716193422929834558,0.053,,,,17.844575456
1716193422937529344,0.073,,,,17.852270242
1716193422945224130,0.112,,,,17.859965028
1716193422952918916,0.146,,,,17.867659814
1716193422960613702,0.139,,,,17.8753546
1716193422968308488,0.107,,,,17.883049386
1716193422976003274,0.102,,,,17.890744172
1716193422983698060,0.117,,,,17.898438958
1716193422991392846,0.107,,,,17.906133744
1716193422999087632,0.085,,,,17.91382853
1716193423006782418,0.075,,,,17.921523316
1716193423014477204,0.08,,,,17.929218102
1716193423022171990,0.08,,,,17.936912888
1716193423029866776,0.08,,,,17.944607674
1716193423037561562,0.058,,,,17.95230246
1716193423045256348,0.014,,,,17.959997246
1716193423052951134,0.09,,,,17.967692032
1716193423060645936,0.559,81.0,719.0,,17.975386834
1716193423068341140,1.408,,,,17.983082038
1716193423076036344,2.121,,,,17.990777242
1716193423083731548,2.194,,,,17.998472446
1716193423091426752,1.354,,,,18.00616765
1716193423099121956,0.046,,,,18.013862854
1716193423106817160,-0.373,,,,18.021558058
1716193423114512364,0.109,,,,18.029253262
1716193423122207568,0.141,,,,18.036948466
1716193423129902772,-0.161,,,,18.04464367
1716193423137597976,-0.102,,,,18.052338874
1716193423145293180,-0.007,,,,18.060034078
1716193423152988384,-0.083,,,,18.067729282
1716193423160683588,-0.085,,,,18.075424486
1716193423168378792,-0.026,,,,18.08311969
1716193423176073996,-0.021,,,,18.090814894
1716193423183769200,-0.026,,,,18.098510098
1716193423191464404,-0.002,,,,18.106205302
1716193423199159608,0.012,,,,18.113900506
1716193423206854812,0.017,,,,18.12159571
1716193423214550016,0.036,,,,18.129290914
1716193423222245220,0.058,,,,18.136986118
1716193423229940424,0.065,,,,18.144681322
1716193423237635628,0.078,,,,18.152376526
1716193423245330832,0.092,,,,18.16007173
1716193423253026036,0.112,,,,18.167766934
1716193423260721240,0.134,,,,18.175462138
1716193423268416444,0.144,,,,18.183157342
1716193423276111648,0.144,,,,18.190852546
1716193423283806852,0.151,,,,18.19854775
1716193423291502056,0.163,,,,18.206242954
1716193423299197260,0.158,,,,18.213938158
1716193423306892464,0.151,,,,18.221633362
1716193423314587668,0.151,,,,18.229328566
1716193423322282872,0.144,,,,18.23702377
1716193423329978076,0.126,,,,18.244718974
1716193423337673280,0.109,,,,18.252414178
1716193423345368484,0.092,,,,18.260109382
1716193423353063688,0.068,,,,18.267804586
1716193423360758892,0.031,,,,18.27549979
1716193423368454096,-0.004,,,,18.283194994
1716193423376149300,-0.034,,,,18.290890198
1716193423383844504,-0.053,,,,18.298585402
1716193423391539708,-0.058,,,,18.306280606
1716193423399234912,-0.056,,,,18.31397581
1716193423406930116,-0.053,,,,18.321671014
1716193423414625320,-0.046,,,,18.329366218
1716193423422320524,-0.034,,,,18.337061422
1716193423430015728,-0.021,,,,18.344756626
1716193423437710932,-0.017,,,,18.35245183
1716193423445406136,-0.009,,,,18.360147034
1716193423453101340,0.0,,,,18.367842238
1716193423460796544,0.007,,,,18.375537442
1716193423468491748,0.014,,,,18.383232646
1716193423476186952,0.024,,,,18.39092785
1716193423483882156,0.024,,,,18.398623054
1716193423491577360,0.024,,,,18.406318258
1716193423499272564,0.031,,,,18.414013462
1716193423506967768,0.031,,,,18.421708666
1716193423514662972,0.029,,,,18.42940387
1716193423522358176,0.029,,,,18.437099074
1716193423530053380,0.029,,,,18.444794278
1716193423537748584,0.031,,,,18.452489482
1716193423545443788,0.029,,,,18.460184686
1716193423553138992,0.021,,,,18.46787989
1716193423560834196,0.026,,,,18.475575094
1716193423568529400,0.039,,,,18.483270298
1716193423576224604,0.043,,,,18.490965502
1716193423583919808,0.043,,,,18.498660706
1716193423591615012,0.043,,,,18.50635591
1716193423599310216,0.043,,,,18.514051114
1716193423607005420,0.051,,,,18.521746318
1716193423614700624,0.056,,,,18.529441522
1716193423622395848,0.043,,,,18.537136746
1716193423630090634,0.031,,,,18.544831532
1716193423637785420,0.053,,,,18.552526318
1716193423645480206,0.102,,,,18.560221104
1716193423653174992,0.134,,,,18.56791589
1716193423660869778,0.119,,,,18.575610676
1716193423668564564,0.095,,,,18.583305462
1716193423676259350,0.097,,,,18.591000248
1716193423683954136,0.097,,,,18.598695034
1716193423691648922,0.075,,,,18.60638982
1716193423699343708,0.056,,,,18.614084606
1716193423707038494,0.058,,,,18.621779392
1716193423714733280,0.058,,,,18.629474178
1716193423722428066,0.053,,,,18.637168964
1716193423730122852,0.056,,,,18.64486375
1716193423737817638,0.036,,,,18.652558536
1716193423745512424,-0.002,,,,18.660253322
1716193423753207210,0.104,,,,18.667948108
1716193423760901996,0.644,,,,18.675642894
1716193423768596782,1.54,,,,18.68333768
1716193423776291568,2.187,,,,18.691032466
1716193423783986354,2.128,,,,18.698727252
1716193423791681140,1.159,,,,18.706422038
1716193423799375926,-0.114,,,,18.714116824
1716193423807070712,-0.354,,,,18.72181161
1716193423814765498,0.141,,,,18.729506396
1716193423822460284,0.068,,,,18.737201182
1716193423830155070,-0.205,,,,18.744895968
1716193423837849856,-0.087,,,,18.752590754
1716193423845544642,-0.024,,,,18.76028554
1716193423853239428,-0.112,,,,18.767980326
1716193423860934214,-0.087,,,,18.775675112
1716193423868629000,-0.036,,,,18.783369898
1716193423876323786,-0.051,,,,18.791064684
1716193423884018572,-0.043,,,,18.79875947
1716193423891713358,-0.009,,,,18.806454256
1716193423899408144,-0.002,,,,18.814149042
1716193423907102930,0.002,,,,18.821843828
1716193423914797716,0.026,,,,18.829538614
1716193423922492502,0.041,,,,18.8372334
1716193423930187288,0.056,,,,18.844928186
1716193423937882074,0.078,,,,18.852622972
1716193423945576860,0.097,,,,18.860317758
1716193423953271646,0.112,,,,18.868012544
1716193423960966432,0.131,,,,18.87570733
1716193423968661218,0.146,,,,18.883402116
1716193423976356004,0.158,,,,18.891096902
1716193423984050790,0.168,,,,18.898791688
1716193423991745576,0.168,,,,18.906486474
1716193423999440362,0.166,,,,18.91418126
1716193424007135148,0.163,,,,18.921876046
1716193424014829934,0.158,,,,18.929570832
1716193424022524720,0.144,,,,18.937265618
1716193424030219506,0.124,,,,18.944960404
1716193424037914292,0.112,,,,18.95265519
1716193424045609078,0.092,,,,18.960349976
1716193424053303864,0.061,,,,18.968044762
1716193424060998650,0.021,,,,18.975739548
1716193424068693436,-0.004,,,,18.983434334
1716193424076388222,-0.019,,,,18.99112912
1716193424084083008,-0.036,,,,18.998823906
1716193424091777794,-0.046,,,,19.006518692
1716193424099472580,-0.043,,,,19.014213478
1716193424107167366,-0.036,,,,19.021908264
1716193424114862152,-0.034,,,,19.02960305
1716193424122556938,-0.029,,,,19.037297836
1716193424130251724,-0.017,,,,19.044992622
1716193424137946510,-0.007,,,,19.052687408
1716193424145641296,-0.002,,,,19.060382194
1716193424153336082,0.004,,,,19.06807698
1716193424161030868,0.009,,,,19.075771766
1716193424168725654,0.019,,,,19.083466552
1716193424176420440,0.026,,,,19.091161338
1716193424184115244,0.029,81.0,738.0,,19.098856142
1716193424191810030,0.029,,741.0,,19.106550928
1716193424199504816,0.031,,,,19.114245714
1716193424207199602,0.029,,,,19.1219405
1716193424214894388,0.029,,,,19.129635286
1716193424222589174,0.029,,,,19.137330072
1716193424230283960,0.029,,,,19.145024858
1716193424237978746,0.029,,,,19.152719644
1716193424245673532,0.029,,,,19.16041443
1716193424253368318,0.026,,,,19.168109216
1716193424261063104,0.021,,,,19.175804002
1716193424268757890,0.012,,,,19.183498788
1716193424276452676,0.004,,,,19.191193574
1716193424284147462,0.004,,,,19.19888836
1716193424291842248,0.004,,,,19.206583146
1716193424299537034,0.007,,,,19.214277932
1716193424307231820,0.009,,,,19.221972718
1716193424314926606,0.004,,,,19.229667504
1716193424322621392,0.009,,,,19.23736229
1716193424330316178,0.051,,,,19.245057076
1716193424338010964,0.097,,,,19.252751862
1716193424345705750,0.092,,,,19.260446648
1716193424353400536,0.061,,,,19.268141434
1716193424361095322,0.051,,,,19.27583622
1716193424368790108,0.058,,,,19.283531006
1716193424376484894,0.046,,,,19.291225792
1716193424384179680,0.019,,,,19.298920578
1716193424391874466,0.009,,,,19.306615364
1716193424399569252,0.019,,,,19.31431015
1716193424407264038,0.024,,,,19.322004936
1716193424414958824,0.026,,,,19.329699722
1716193424422653610,0.017,,,,19.337394508
1716193424430348396,-0.034,,,,19.345089294
1716193424438043182,-0.039,,,,19.35278408
1716193424445737968,0.275,,,,19.360478866
1716193424453432754,1.052,,,,19.368173652
1716193424461127540,1.87,,,,19.375868438
1716193424468822326,2.233,,,,19.383563224
1716193424476517112,1.813,,,,19.39125801
1716193424484211898,0.51,,,,19.398952796
1716193424491906684,-0.427,,,,19.406647582
1716193424499601470,-0.104,,,,19.414342368
1716193424507296256,0.178,,,,19.422037154
1716193424514991042,-0.151,,,,19.42973194
1716193424522685828,-0.214,,,,19.437426726
1716193424530380614,-0.063,,,,19.445121512
1716193424538075400,-0.122,,,,19.452816298
1716193424545770186,-0.166,,,,19.460511084
1716193424553464972,-0.092,,,,19.46820587
1716193424561159758,-0.087,,,,19.475900656
1716193424568854544,-0.104,,,,19.483595442
1716193424576549330,-0.07,,,,19.491290228
1716193424584244116,-0.046,,,,19.498985014
1716193424591938902,-0.046,,,,19.5066798
1716193424599633688,-0.026,,,,19.514374586
1716193424607328474,-0.012,,,,19.522069372
1716193424615023260,-0.009,,,,19.529764158
1716193424622718046,0.002,,,,19.537458944
1716193424630412832,0.026,,,,19.54515373
1716193424638107618,0.046,,,,19.552848516
1716193424645802404,0.063,,,,19.560543302
1716193424653497190,0.078,,,,19.568238088
1716193424661191976,0.087,,,,19.575932874
1716193424668886762,0.104,,,,19.58362766
1716193424676581548,0.117,,,,19.591322446
1716193424684276334,0.112,,,,19.599017232
1716193424691971120,0.109,,,,19.606712018
1716193424699665906,0.107,,,,19.614406804
1716193424707360692,0.095,,,,19.62210159
1716193424715055478,0.075,,,,19.629796376
1716193424722750264,0.056,,,,19.637491162
1716193424730445050,0.039,,,,19.645185948
1716193424738139836,0.012,,,,19.652880734
1716193424745834638,-0.021,,,,19.660575536
1716193424753529424,-0.053,,,,19.668270322
1716193424761224210,-0.073,,,,19.675965108
1716193424768918996,-0.09,,,,19.683659894
1716193424776613782,-0.104,,,,19.69135468
1716193424784308568,-0.114,,,,19.699049466
1716193424792003354,-0.114,,,,19.706744252
1716193424799698140,-0.112,,,,19.714439038
1716193424807392926,-0.107,,,,19.722133824
1716193424815087712,-0.1,,,,19.72982861
1716193424822782498,-0.092,,,,19.737523396
1716193424830477284,-0.083,,,,19.745218182
1716193424838172070,-0.07,,,,19.752912968
1716193424845866856,-0.061,,,,19.760607754
1716193424853561642,-0.061,,,,19.76830254
1716193424861256428,-0.061,,,,19.775997326
1716193424868951214,-0.056,,,,19.783692112
1716193424876646000,-0.051,,,,19.791386898
1716193424884340786,-0.048,,,,19.799081684
1716193424892035572,-0.048,,,,19.80677647
1716193424899730358,-0.046,,,,19.814471256
1716193424907425144,-0.039,,,,19.822166042
1716193424915119930,-0.031,,,,19.829860828
1716193424922814716,-0.031,,,,19.837555614
1716193424930509502,-0.029,,,,19.8452504
1716193424938204288,-0.026,,,,19.852945186
1716193424945899074,-0.024,,,,19.860639972
1716193424953593860,-0.019,,,,19.868334758
1716193424961288646,-0.012,,,,19.876029544
1716193424968983432,-0.007,,,,19.88372433
1716193424976678218,-0.007,,,,19.891419116
1716193424984373004,-0.007,,,,19.899113902
1716193424992067790,0.002,,,,19.906808688
1716193424999762576,0.007,,,,19.914503474
1716193425007457362,0.0,,,,19.92219826
1716193425015152148,0.009,,,,19.929893046
1716193425022846934,0.053,,,,19.937587832
1716193425030541720,0.1,,,,19.945282618
1716193425038236506,0.1,,,,19.952977404
1716193425045931292,0.07,,,,19.96067219
1716193425053626078,0.065,,,,19.968366976
1716193425061320864,0.078,,,,19.976061762
1716193425069015650,0.073,,,,19.983756548
1716193425076710436,0.053,,,,19.991451334
1716193425084405222,0.046,,,,19.99914612
1716193425092100008,0.051,,,,20.006840906
1716193425099794794,0.048,,,,20.014535692
1716193425107489580,0.046,,,,20.022230478
1716193425115184366,0.043,,,,20.029925264
1716193425122879152,0.002,,,,20.03762005
1716193425130573938,-0.031,,,,20.045314836
1716193425138268724,0.2,,,,20.053009622
1716193425145963510,0.915,,,,20.060704408
1716193425153658296,1.772,,,,20.068399194
1716193425161353082,2.263,,,,20.07609398
1716193425169047868,2.072,,,,20.083788766
1716193425176742654,0.9,,,,20.091483552
1716193425184437440,-0.266,,,,20.099178338
1716193425192132226,-0.146,,,,20.106873124
1716193425199827012,0.244,,,,20.11456791
1716193425207521798,-0.036,,,,20.122262696
1716193425215216584,-0.185,,,,20.129957482
1716193425222911370,-0.024,,,,20.137652268
1716193425230606156,-0.046,,,,20.145347054
1716193425238300942,-0.104,,,,20.15304184
1716193425245995728,-0.039,,,,20.160736626
1716193425253690514,-0.017,,,,20.168431412
1716193425261385300,-0.036,,,,20.176126198
1716193425269080086,-0.012,,,,20.183820984
1716193425276774872,0.014,,,,20.19151577
1716193425284469658,0.017,,,,20.199210556
1716193425292164444,0.029,,,,20.206905342
1716193425299859230,0.053,,,,20.214600128
1716193425307554032,0.073,81.0,726.0,,20.22229493
1716193425315249236,0.09,,,,20.229990134
1716193425322944440,0.107,,,,20.237685338
1716193425330639644,0.126,,,,20.245380542
1716193425338334848,0.141,,,,20.253075746
1716193425346030052,0.153,,,,20.26077095
1716193425353725256,0.161,,,,20.268466154
1716193425361420460,0.175,,,,20.276161358
1716193425369115664,0.185,,,,20.283856562
1716193425376810868,0.18,,,,20.291551766
1716193425384506072,0.175,,,,20.29924697
1716193425392201276,0.183,,,,20.306942174
1716193425399896480,0.173,,,,20.314637378
1716193425407591684,0.153,,,,20.322332582
1716193425415286888,0.139,,,,20.330027786
1716193425422982092,0.124,,,,20.33772299
1716193425430677296,0.095,,,,20.345418194
1716193425438372500,0.063,,,,20.353113398
1716193425446067704,0.034,,,,20.360808602
1716193425453762908,0.014,,,,20.368503806
1716193425461458112,0.004,,,,20.37619901
1716193425469153316,-0.002,,,,20.383894214
1716193425476848520,-0.004,,,,20.391589418
1716193425484543724,-0.002,,,,20.399284622
1716193425492238928,0.0,,,,20.406979826
1716193425499934132,0.004,,,,20.41467503
1716193425507629336,0.017,,,,20.422370234
1716193425515324540,0.029,,,,20.430065438
1716193425523019744,0.031,,,,20.437760642
1716193425530714948,0.039,,,,20.445455846
1716193425538410152,0.048,,,,20.45315105
1716193425546105356,0.053,,,,20.460846254
1716193425553800560,0.053,,,,20.468541458
1716193425561495764,0.061,,,,20.476236662
1716193425569190968,0.068,,,,20.483931866
1716193425576886172,0.068,,,,20.49162707
1716193425584581376,0.063,,,,20.499322274
1716193425592276580,0.063,,,,20.507017478
1716193425599971784,0.063,,,,20.514712682
1716193425607666988,0.063,,,,20.522407886
1716193425615362192,0.061,,,,20.53010309
1716193425623057396,0.056,,,,20.537798294
1716193425630752600,0.058,,,,20.545493498
1716193425638447804,0.061,,,,20.553188702
1716193425646143008,0.056,,,,20.560883906
1716193425653838212,0.056,,,,20.56857911
1716193425661533416,0.063,,,,20.576274314
1716193425669228620,0.068,,,,20.583969518
1716193425676923824,0.065,,,,20.591664722
1716193425684619028,0.063,,,,20.599359926
1716193425692314232,0.068,,,,20.60705513
1716193425700009436,0.073,,,,20.614750334
1716193425707704640,0.063,,,,20.622445538
1716193425715399844,0.058,,,,20.630140742
1716193425723095048,0.083,,,,20.637835946
1716193425730790252,0.136,,,,20.64553115
1716193425738485456,0.161,,,,20.653226354
1716193425746180660,0.129,,,,20.660921558
1716193425753875864,0.102,,,,20.668616762
1716193425761571068,0.107,,,,20.676311966
1716193425769266272,0.112,,,,20.68400717
1716193425776961476,0.097,,,,20.691702374
1716193425784656680,0.073,,,,20.699397578
1716193425792351884,0.056,,,,20.707092782
1716193425800047088,0.053,,,,20.714787986
1716193425807742292,0.063,,,,20.72248319
1716193425815437496,0.061,,,,20.730178394
1716193425823132700,0.029,,,,20.737873598
1716193425830827904,-0.019,,,,20.745568802
1716193425838523108,0.087,,,,20.753264006
1716193425846218312,0.651,,,,20.76095921
1716193425853913516,1.523,,,,20.768654414
1716193425861608720,2.141,,,,20.776349618
1716193425869303944,2.18,82.0,699.0,,20.784044842
1716193425876998730,1.291,,689.0,,20.791739628
1716193425884693516,-0.053,,,,20.799434414
1716193425892388302,-0.329,,,,20.8071292
1716193425900083088,0.18,,,,20.814823986
1716193425907777874,0.068,,,,20.822518772
1716193425915472660,-0.231,,,,20.830213558
1716193425923167446,-0.104,,,,20.837908344
1716193425930862232,-0.046,,,,20.84560313
1716193425938557018,-0.141,,,,20.853297916
1716193425946251804,-0.112,,,,20.860992702
1716193425953946590,-0.061,,,,20.868687488
1716193425961641376,-0.073,,,,20.876382274
1716193425969336162,-0.065,,,,20.88407706
1716193425977030948,-0.036,,,,20.891771846
1716193425984725734,-0.026,,,,20.899466632
1716193425992420520,-0.017,,,,20.907161418
1716193426000115306,0.0,,,,20.914856204
1716193426007810092,0.019,,,,20.92255099
1716193426015504878,0.041,,,,20.930245776
1716193426023199664,0.058,,,,20.937940562
1716193426030894450,0.075,,,,20.945635348
1716193426038589236,0.09,,,,20.953330134
1716193426046284022,0.104,,,,20.96102492
1716193426053978808,0.122,,,,20.968719706
1716193426061673594,0.131,,,,20.976414492
1716193426069368380,0.134,,,,20.984109278
1716193426077063166,0.139,,,,20.991804064
1716193426084757952,0.139,,,,20.99949885
1716193426092452738,0.126,,,,21.007193636
1716193426100147524,0.117,,,,21.014888422
1716193426107842310,0.112,,,,21.022583208
1716193426115537096,0.1,,,,21.030277994
1716193426123231882,0.075,,,,21.03797278
1716193426130926668,0.048,,,,21.045667566
1716193426138621454,0.017,,,,21.053362352
1716193426146316240,-0.007,,,,21.061057138
1716193426154011026,-0.029,,,,21.068751924
1716193426161705812,-0.048,,,,21.07644671
1716193426169400598,-0.061,,,,21.084141496
1716193426177095384,-0.061,,,,21.091836282
1716193426184790170,-0.058,,,,21.099531068
1716193426192484956,-0.051,,,,21.107225854
1716193426200179742,-0.036,,,,21.11492064
1716193426207874528,-0.026,,,,21.122615426
1716193426215569314,-0.024,,,,21.130310212
1716193426223264100,-0.017,,,,21.138004998
1716193426230958886,-0.009,,,,21.145699784
1716193426238653672,-0.004,,,,21.15339457
1716193426246348458,-0.007,,,,21.161089356
1716193426254043244,-0.004,,,,21.168784142
1716193426261738030,0.0,,,,21.176478928
1716193426269432816,0.002,,,,21.184173714
1716193426277127602,0.0,,,,21.1918685
1716193426284822388,-0.002,,,,21.199563286
1716193426292517174,-0.012,,,,21.207258072
1716193426300211960,-0.019,,,,21.214952858
1716193426307906746,-0.014,,,,21.222647644
1716193426315601532,-0.009,,,,21.23034243
1716193426323296318,-0.017,,,,21.238037216
1716193426330991104,-0.021,,,,21.245732002
1716193426338685890,-0.017,,,,21.253426788
1716193426346380676,-0.014,,,,21.261121574
1716193426354075462,-0.014,,,,21.26881636
1716193426361770248,-0.012,,,,21.276511146
1716193426369465034,-0.009,,,,21.284205932
1716193426377159820,-0.009,,,,21.291900718
1716193426384854606,-0.002,,,,21.299595504
1716193426392549392,0.002,,,,21.30729029
1716193426400244178,0.0,,,,21.314985076
1716193426407938964,0.002,,,,21.322679862
1716193426415633750,0.007,,,,21.330374648
1716193426423328536,0.004,,,,21.338069434
1716193426431023338,-0.002,,,,21.345764236
1716193426438718542,0.0,,,,21.35345944
1716193426446413746,0.029,,,,21.361154644
1716193426454108950,0.078,,,,21.368849848
1716193426461804154,0.107,,,,21.376545052
1716193426469499358,0.08,,,,21.384240256
1716193426477194562,0.046,,,,21.39193546
1716193426484889766,0.048,,,,21.399630664
1716193426492584970,0.056,,,,21.407325868
1716193426500280174,0.041,,,,21.415021072
1716193426507975378,0.024,,,,21.422716276
1716193426515670582,0.012,,,,21.43041148
1716193426523365786,0.014,,,,21.438106684
1716193426531060990,0.024,,,,21.445801888
1716193426538756194,0.026,,,,21.453497092
1716193426546451398,-0.004,,,,21.461192296
1716193426554146602,-0.053,,,,21.4688875
1716193426561841806,0.068,,,,21.476582704
1716193426569537010,0.637,,,,21.484277908
1716193426577232214,1.484,,,,21.491973112
1716193426584927418,2.062,,,,21.499668316
1716193426592622622,2.058,,,,21.50736352
1716193426600317826,1.142,,,,21.515058724
1716193426608013030,-0.148,,,,21.522753928
1716193426615708234,-0.344,,,,21.530449132
1716193426623403438,0.161,,,,21.538144336
1716193426631098642,0.024,,,,21.54583954
1716193426638793846,-0.251,,,,21.553534744
1716193426646489050,-0.112,,,,21.561229948
1716193426654184254,-0.058,,,,21.568925152
1716193426661879458,-0.151,,,,21.576620356
1716193426669574662,-0.124,,,,21.58431556
1716193426677269866,-0.07,,,,21.592010764
1716193426684965070,-0.085,,,,21.599705968
1716193426692660274,-0.075,,,,21.607401172
1716193426700355478,-0.048,,,,21.615096376
1716193426708050682,-0.039,,,,21.62279158
1716193426715745886,-0.024,,,,21.630486784
1716193426723441090,-0.002,,,,21.638181988
1716193426731136294,0.009,,,,21.645877192
1716193426738831498,0.021,,,,21.653572396
1716193426746526702,0.041,,,,21.6612676
1716193426754221906,0.056,,,,21.668962804
1716193426761917110,0.073,,,,21.676658008
1716193426769612314,0.095,,,,21.684353212
1716193426777307518,0.107,,,,21.692048416
1716193426785002722,0.109,,,,21.69974362
1716193426792697926,0.114,,,,21.707438824
1716193426800393130,0.112,,,,21.715134028
1716193426808088334,0.107,,,,21.722829232
1716193426815783538,0.1,,,,21.730524436
1716193426823478742,0.085,,,,21.73821964
1716193426831173946,0.073,,,,21.745914844
1716193426838869150,0.068,,,,21.753610048
1716193426846564354,0.053,,,,21.761305252
1716193426854259558,0.026,,,,21.769000456
1716193426861954762,-0.002,,,,21.77669566
1716193426869649966,-0.024,,,,21.784390864
1716193426877345170,-0.048,,,,21.792086068
1716193426885040374,-0.063,,,,21.799781272
1716193426892735578,-0.073,,,,21.807476476
1716193426900430782,-0.078,,,,21.81517168
1716193426908125986,-0.07,,,,21.822866884
1716193426915821190,-0.063,,,,21.830562088
1716193426923516394,-0.058,,,,21.838257292
1716193426931211598,-0.051,,,,21.845952496
1716193426938906802,-0.041,,,,21.8536477
1716193426946602006,-0.031,,,,21.861342904
1716193426954297210,-0.019,,,,21.869038108
1716193426961992414,-0.014,,,,21.876733312
1716193426969687618,-0.019,,,,21.884428516
1716193426977382822,-0.019,,,,21.89212372
1716193426985078026,-0.014,,,,21.899818924
1716193426992773250,-0.014,82.0,694.0,,21.907514148
1716193427000468036,-0.017,,,,21.915208934
1716193427008162822,-0.017,,,,21.92290372
1716193427015857608,-0.017,,,,21.930598506
1716193427023552394,-0.017,,,,21.938293292
1716193427031247180,-0.012,,,,21.945988078
1716193427038941966,-0.012,,,,21.953682864
1716193427046636752,-0.017,,,,21.96137765
1716193427054331538,-0.026,,,,21.969072436
1716193427062026324,-0.029,,,,21.976767222
1716193427069721110,-0.029,,,,21.984462008
1716193427077415896,-0.031,,,,21.992156794
1716193427085110682,-0.029,,,,21.99985158
1716193427092805468,-0.024,,,,22.007546366
1716193427100500254,-0.024,,,,22.015241152
1716193427108195040,-0.024,,,,22.022935938
1716193427115889826,-0.021,,,,22.030630724
1716193427123584612,-0.019,,,,22.03832551
1716193427131279398,-0.009,,,,22.046020296
1716193427138974184,-0.012,,,,22.053715082
1716193427146668970,-0.017,,,,22.061409868
1716193427154363756,0.002,,,,22.069104654
1716193427162058542,0.053,,,,22.07679944
1716193427169753328,0.09,,,,22.084494226
1716193427177448114,0.068,,,,22.092189012
1716193427185142900,0.036,,,,22.099883798
1716193427192837686,0.041,,,,22.107578584
1716193427200532472,0.046,,,,22.11527337
1716193427208227258,0.029,,,,22.122968156
1716193427215922044,0.017,,,,22.130662942
