time,ecg,hr,rr,marker,norm_time
1715664044314502308,0.16,,,,0.0
1715664044322196327,0.177,,,,0.007694019
1715664044329890346,0.182,,,,0.015388038
1715664044337584365,0.209,,,,0.023082057
1715664044345278384,0.226,,,,0.030776076
1715664044352972403,0.238,,,,0.038470095
1715664044360666422,0.268,,,,0.046164114
1715664044368360441,0.297,,,,0.053858133
1715664044376054460,0.311,,,,0.061552152
1715664044383748479,0.319,,,,0.069246171
1715664044391442498,0.331,,,,0.07694019
1715664044399136517,0.336,,,,0.084634209
1715664044406830536,0.329,,,,0.092328228
1715664044414524555,0.321,,,,0.100022247
1715664044422218574,0.302,,,,0.107716266
1715664044429912593,0.27,,,,0.115410285
1715664044437606612,0.238,,,,0.123104304
1715664044445300631,0.199,,,,0.130798323
1715664044452994650,0.148,,,,0.138492342
1715664044460688669,0.099,,,,0.146186361
1715664044468382688,0.053,,,,0.15388038
1715664044476076707,0.014,,,,0.161574399
1715664044483770726,-0.019,,,,0.169268418
1715664044491464745,-0.048,,,,0.176962437
1715664044499158764,-0.068,,,,0.184656456
1715664044506852783,-0.068,,,,0.192350475
1715664044514546802,-0.06,,,,0.200044494
1715664044522240821,-0.056,,,,0.207738513
1715664044529934840,-0.046,,,,0.215432532
1715664044537628859,-0.041,,,,0.223126551
1715664044545322878,-0.041,,,,0.23082057
1715664044553016897,-0.031,,,,0.238514589
1715664044560710916,-0.009,,,,0.246208608
1715664044568404935,0.002,,,,0.253902627
1715664044576098954,0.012,,,,0.261596646
1715664044583792973,0.021,,,,0.269290665
1715664044591486992,0.026,,,,0.276984684
1715664044599181011,0.031,,,,0.284678703
1715664044606875030,0.038,,,,0.292372722
1715664044614569049,0.046,,,,0.300066741
1715664044622263068,0.043,,,,0.30776076
1715664044629957087,0.041,,,,0.315454779
1715664044637651106,0.041,,,,0.323148798
1715664044645345125,0.041,,,,0.330842817
1715664044653039144,0.038,,,,0.338536836
1715664044660733163,0.038,,,,0.346230855
1715664044668427182,0.036,,,,0.353924874
1715664044676121201,0.036,,,,0.361618893
1715664044683815220,0.036,,,,0.369312912
1715664044691509239,0.036,,,,0.377006931
1715664044699203258,0.036,,,,0.38470095
1715664044706897277,0.036,,,,0.392394969
1715664044714591296,0.038,,,,0.400088988
1715664044722285315,0.038,,,,0.407783007
1715664044729979334,0.031,,,,0.415477026
1715664044737673353,0.021,,,,0.423171045
1715664044745367372,0.029,,,,0.430865064
1715664044753061391,0.046,,,,0.438559083
1715664044760755410,0.058,,,,0.446253102
1715664044768449429,0.06,,,,0.453947121
1715664044776143448,0.07,,,,0.46164114
1715664044783837467,0.065,,,,0.469335159
1715664044791531486,0.038,,,,0.477029178
1715664044799225505,0.021,,,,0.484723197
1715664044806919524,0.024,,,,0.492417216
1715664044814613543,0.029,,,,0.500111235
1715664044822307562,0.031,,,,0.507805254
1715664044830001581,0.036,,,,0.515499273
1715664044837695600,0.046,,,,0.523193292
1715664044845389619,0.048,,,,0.530887311
1715664044853083638,0.051,,,,0.53858133
1715664044860777657,0.075,,,,0.546275349
1715664044868471676,0.121,,,,0.553969368
1715664044876165754,0.255,86.0,664.0,,0.561663446
1715664044883860052,0.56,,,,0.569357744
1715664044891554350,0.862,,,,0.577052042
1715664044899248648,0.611,,,,0.58474634
1715664044906942946,-0.258,,,,0.592440638
1715664044914637244,-0.616,,,,0.600134936
1715664044922331542,-0.075,,,,0.607829234
1715664044930025840,0.209,,,,0.615523532
1715664044937720138,0.034,,,,0.62321783
1715664044945414436,0.051,,,,0.630912128
1715664044953108734,0.148,,,,0.638606426
1715664044960803032,0.116,,,,0.646300724
1715664044968497330,0.121,,,,0.653995022
1715664044976191628,0.173,,,,0.66168932
1715664044983885926,0.182,,,,0.669383618
1715664044991580224,0.187,,,,0.677077916
1715664044999274522,0.214,,,,0.684772214
1715664045006968820,0.238,,,,0.692466512
1715664045014663118,0.258,,,,0.70016081
1715664045022357416,0.28,,,,0.707855108
1715664045030051714,0.304,,,,0.715549406
1715664045037746012,0.324,,,,0.723243704
1715664045045440310,0.341,,,,0.730938002
1715664045053134608,0.36,,,,0.7386323
1715664045060828906,0.372,,,,0.746326598
1715664045068523204,0.37,,,,0.754020896
1715664045076217502,0.355,,,,0.761715194
1715664045083911800,0.326,,,,0.769409492
1715664045091606098,0.287,,,,0.77710379
1715664045099300396,0.246,,,,0.784798088
1715664045106994694,0.204,,,,0.792492386
1715664045114688992,0.155,,,,0.800186684
1715664045122383290,0.102,,,,0.807880982
1715664045130077588,0.046,,,,0.81557528
1715664045137771886,0.002,,,,0.823269578
1715664045145466184,-0.031,,,,0.830963876
1715664045153160482,-0.058,,,,0.838658174
1715664045160854780,-0.073,,,,0.846352472
1715664045168549078,-0.07,,,,0.85404677
1715664045176243376,-0.063,,,,0.861741068
1715664045183937674,-0.063,,,,0.869435366
1715664045191631972,-0.056,,,,0.877129664
1715664045199326270,-0.041,,,,0.884823962
1715664045207020568,-0.034,,,,0.89251826
1715664045214714866,-0.029,,,,0.900212558
1715664045222409164,-0.017,,,,0.907906856
1715664045230103462,-0.002,,,,0.915601154
1715664045237797760,0.004,,,,0.923295452
1715664045245492058,0.012,,,,0.93098975
1715664045253186356,0.024,,,,0.938684048
1715664045260880654,0.026,,,,0.946378346
1715664045268574952,0.024,,,,0.954072644
1715664045276269250,0.026,,,,0.961766942
1715664045283963548,0.029,,,,0.96946124
1715664045291657846,0.031,,,,0.977155538
1715664045299352144,0.029,,,,0.984849836
1715664045307046442,0.026,,,,0.992544134
1715664045314740740,0.031,,,,1.000238432
1715664045322435038,0.031,,,,1.00793273
1715664045330129336,0.026,,,,1.015627028
1715664045337823634,0.029,,,,1.023321326
1715664045345517932,0.031,,,,1.031015624
1715664045353212230,0.031,,,,1.038709922
1715664045360906528,0.031,,,,1.04640422
1715664045368600826,0.029,,,,1.054098518
1715664045376295124,0.021,,,,1.061792816
1715664045383989422,0.004,,,,1.069487114
1715664045391683720,0.004,,,,1.077181412
1715664045399378018,0.026,,,,1.08487571
1715664045407072316,0.038,,,,1.092570008
1715664045414766614,0.041,,,,1.100264306
1715664045422460912,0.058,,,,1.107958604
1715664045430155210,0.056,,,,1.115652902
1715664045437849542,0.031,,,,1.123347234
1715664045445543492,0.021,,,,1.131041184
1715664045453237442,0.029,,,,1.138735134
1715664045460931392,0.029,,,,1.146429084
1715664045468625342,0.031,,,,1.154123034
1715664045476319292,0.038,,,,1.161816984
1715664045484013242,0.038,,,,1.169510934
1715664045491707192,0.036,,,,1.177204884
1715664045499401142,0.046,,,,1.184898834
1715664045507095092,0.068,,,,1.192592784
1715664045514789042,0.124,,,,1.200286734
1715664045522482992,0.304,,,,1.207980684
1715664045530176942,0.662,,,,1.215674634
1715664045537870892,0.911,,,,1.223368584
1715664045545564842,0.448,,,,1.231062534
1715664045553258792,-0.458,,,,1.238756484
1715664045560952742,-0.545,,,,1.246450434
1715664045568646692,0.051,,,,1.254144384
1715664045576340642,0.168,,,,1.261838334
1715664045584034592,0.002,,,,1.269532284
1715664045591728542,0.085,,,,1.277226234
1715664045599422492,0.153,,,,1.284920184
1715664045607116442,0.104,,,,1.292614134
1715664045614810392,0.131,,,,1.300308084
1715664045622504342,0.182,,,,1.308002034
1715664045630198292,0.185,,,,1.315695984
1715664045637892242,0.197,,,,1.323389934
1715664045645586192,0.226,,,,1.331083884
1715664045653280142,0.243,,,,1.338777834
1715664045660974092,0.263,,,,1.346471784
1715664045668668042,0.29,,,,1.354165734
1715664045676361992,0.316,,,,1.361859684
1715664045684055942,0.341,,,,1.369553634
1715664045691749892,0.365,,,,1.377247584
1715664045699443842,0.375,,,,1.384941534
1715664045707137792,0.375,,,,1.392635484
1715664045714831742,0.377,,,,1.400329434
1715664045722525692,0.363,,,,1.408023384
1715664045730219642,0.333,,,,1.415717334
1715664045737913592,0.304,,,,1.423411284
1715664045745607542,0.27,,,,1.431105234
1715664045753301492,0.224,,,,1.438799184
1715664045760995442,0.168,,,,1.446493134
1715664045768689392,0.107,,,,1.454187084
1715664045776383342,0.053,,,,1.461881034
1715664045784077292,0.007,,,,1.469574984
1715664045791771242,-0.026,,,,1.477268934
1715664045799465192,-0.046,,,,1.484962884
1715664045807159142,-0.056,,,,1.492656834
1715664045814853092,-0.051,,,,1.500350784
1715664045822547042,-0.046,,,,1.508044734
1715664045830240992,-0.048,,,,1.515738684
1715664045837934942,-0.038,,,,1.523432634
1715664045845628892,-0.026,,,,1.531126584
1715664045853322842,-0.021,,,,1.538820534
1715664045861016792,-0.012,,,,1.546514484
1715664045868710742,0.004,,,,1.554208434
1715664045876404692,0.014,,,,1.561902384
1715664045884098642,0.014,,,,1.569596334
1715664045891792592,0.017,,,,1.577290284
1715664045899486542,0.021,,,,1.584984234
1715664045907180492,0.026,,,,1.592678184
1715664045914874442,0.029,,,,1.600372134
1715664045922568392,0.031,,,,1.608066084
1715664045930262342,0.036,,,,1.615760034
1715664045937956292,0.036,,,,1.623453984
1715664045945650242,0.034,,,,1.631147934
1715664045953344192,0.038,,,,1.638841884
1715664045961038142,0.038,,,,1.646535834
1715664045968732092,0.036,,,,1.654229784
1715664045976426042,0.036,,,,1.661923734
1715664045984119992,0.036,,,,1.669617684
1715664045991813942,0.029,,,,1.677311634
1715664045999507902,0.021,87.0,695.0,,1.685005594
1715664046007202270,0.019,,677.0,,1.692699962
1715664046014896638,0.019,,,,1.70039433
1715664046022591006,0.031,,,,1.708088698
1715664046030285374,0.048,,,,1.715783066
1715664046037979742,0.058,,,,1.723477434
1715664046045674110,0.063,,,,1.731171802
1715664046053368478,0.056,,,,1.73886617
1715664046061062846,0.029,,,,1.746560538
1715664046068757214,0.014,,,,1.754254906
1715664046076451582,0.021,,,,1.761949274
1715664046084145950,0.029,,,,1.769643642
1715664046091840318,0.029,,,,1.77733801
1715664046099534686,0.024,,,,1.785032378
1715664046107229054,0.017,,,,1.792726746
1715664046114923422,0.024,,,,1.800421114
1715664046122617790,0.046,,,,1.808115482
1715664046130312158,0.075,,,,1.81580985
1715664046138006526,0.134,,,,1.823504218
1715664046145700894,0.326,,,,1.831198586
1715664046153395262,0.6940000000000001,,,,1.838892954
1715664046161089630,0.906,,,,1.846587322
1715664046168783998,0.372,,,,1.85428169
1715664046176478366,-0.506,,,,1.861976058
1715664046184172734,-0.492,,,,1.869670426
1715664046191867102,0.104,,,,1.877364794
1715664046199561470,0.163,,,,1.885059162
1715664046207255838,0.007,,,,1.89275353
1715664046214950206,0.109,,,,1.900447898
1715664046222644574,0.168,,,,1.908142266
1715664046230338942,0.121,,,,1.915836634
1715664046238033310,0.148,,,,1.923531002
1715664046245727678,0.187,,,,1.93122537
1715664046253422046,0.185,,,,1.938919738
1715664046261116414,0.199,,,,1.946614106
1715664046268810782,0.226,,,,1.954308474
1715664046276505150,0.248,,,,1.962002842
1715664046284199518,0.272,,,,1.96969721
1715664046291893886,0.299,,,,1.977391578
1715664046299588254,0.319,,,,1.985085946
1715664046307282622,0.336,,,,1.992780314
1715664046314976990,0.36,,,,2.000474682
1715664046322671358,0.377,,,,2.00816905
1715664046330365726,0.377,,,,2.015863418
1715664046338060094,0.368,,,,2.023557786
1715664046345754462,0.35,,,,2.031252154
1715664046353448830,0.326,,,,2.038946522
1715664046361143198,0.294,,,,2.04664089
1715664046368837566,0.26,,,,2.054335258
1715664046376531934,0.219,,,,2.062029626
1715664046384226302,0.153,,,,2.069723994
1715664046391920670,0.075,,,,2.077418362
1715664046399615038,0.026,,,,2.08511273
1715664046407309406,-0.004,,,,2.092807098
1715664046415003774,-0.038,,,,2.100501466
1715664046422698142,-0.063,,,,2.108195834
1715664046430392510,-0.07,,,,2.115890202
1715664046438086878,-0.073,,,,2.12358457
1715664046445781246,-0.073,,,,2.131278938
1715664046453475614,-0.063,,,,2.138973306
1715664046461169982,-0.051,,,,2.146667674
1715664046468864350,-0.038,,,,2.154362042
1715664046476558718,-0.029,,,,2.16205641
1715664046484253086,-0.021,,,,2.169750778
1715664046491947454,-0.009,,,,2.177445146
1715664046499641822,0.0,,,,2.185139514
1715664046507336190,0.004,,,,2.192833882
1715664046515030558,0.009,,,,2.20052825
1715664046522724926,0.014,,,,2.208222618
1715664046530419294,0.019,,,,2.215916986
1715664046538113662,0.029,,,,2.223611354
1715664046545808030,0.031,,,,2.231305722
1715664046553502398,0.024,,,,2.23900009
1715664046561196778,0.017,87.0,661.0,,2.24669447
1715664046568891146,0.019,,645.0,,2.254388838
1715664046576585514,0.021,,,,2.262083206
1715664046584279882,0.024,,,,2.269777574
1715664046591974250,0.024,,,,2.277471942
1715664046599668618,0.009,,,,2.28516631
1715664046607362986,-0.007,,,,2.292860678
1715664046615057354,0.004,,,,2.300555046
1715664046622751722,0.019,,,,2.308249414
1715664046630446090,0.014,,,,2.315943782
1715664046638140458,0.024,,,,2.32363815
1715664046645834826,0.053,,,,2.331332518
1715664046653529194,0.063,,,,2.339026886
1715664046661223562,0.043,,,,2.346721254
1715664046668917930,0.021,,,,2.354415622
1715664046676612298,0.017,,,,2.36210999
1715664046684306666,0.029,,,,2.369804358
1715664046692001034,0.043,,,,2.377498726
1715664046699695402,0.024,,,,2.385193094
1715664046707389770,-0.007,,,,2.392887462
1715664046715084138,0.014,,,,2.40058183
1715664046722778506,0.048,,,,2.408276198
1715664046730472874,0.043,,,,2.415970566
1715664046738167242,0.058,,,,2.423664934
1715664046745861610,0.151,,,,2.431359302
1715664046753555978,0.416,,,,2.43905367
1715664046761250346,0.794,,,,2.446748038
1715664046768944714,0.789,,,,2.454442406
1715664046776639082,0.014,,,,2.462136774
1715664046784333450,-0.66,,,,2.469831142
1715664046792027818,-0.294,,,,2.47752551
1715664046799722186,0.187,,,,2.485219878
1715664046807416554,0.073,,,,2.492914246
1715664046815110922,0.012,,,,2.500608614
1715664046822805290,0.148,,,,2.508302982
1715664046830499658,0.153,,,,2.51599735
1715664046838194026,0.136,,,,2.523691718
1715664046845888394,0.192,,,,2.531386086
1715664046853582762,0.199,,,,2.539080454
1715664046861277130,0.18,,,,2.546774822
1715664046868971498,0.216,,,,2.55446919
1715664046876665866,0.255,,,,2.562163558
1715664046884360234,0.265,,,,2.569857926
1715664046892054602,0.277,,,,2.577552294
1715664046899748970,0.297,,,,2.585246662
1715664046907443338,0.316,,,,2.59294103
1715664046915137706,0.341,,,,2.600635398
1715664046922832074,0.363,,,,2.608329766
1715664046930526442,0.363,,,,2.616024134
1715664046938220810,0.355,,,,2.623718502
1715664046945915178,0.353,,,,2.63141287
1715664046953609546,0.341,,,,2.639107238
1715664046961303914,0.314,,,,2.646801606
1715664046968998282,0.275,,,,2.654495974
1715664046976692650,0.241,,,,2.662190342
1715664046984387018,0.187,,,,2.66988471
1715664046992081386,0.116,,,,2.677579078
1715664046999775754,0.077,,,,2.685273446
1715664047007470122,0.043,,,,2.692967814
1715664047015164490,-0.004,,,,2.700662182
1715664047022858858,-0.041,,,,2.70835655
1715664047030553226,-0.051,,,,2.716050918
1715664047038247594,-0.051,,,,2.723745286
1715664047045941962,-0.043,,,,2.731439654
1715664047053636330,-0.036,,,,2.739134022
1715664047061330698,-0.036,,,,2.74682839
1715664047069025066,-0.034,,,,2.754522758
1715664047076719434,-0.021,,,,2.762217126
1715664047084413802,-0.012,,,,2.769911494
1715664047092108170,0.0,,,,2.777605862
1715664047099802538,0.017,,,,2.78530023
1715664047107496906,0.024,,,,2.792994598
1715664047115191274,0.021,,,,2.800688966
1715664047122885654,0.029,,,,2.808383346
1715664047130579604,0.046,,,,2.816077296
1715664047138273554,0.046,,,,2.823771246
1715664047145967504,0.038,,,,2.831465196
1715664047153661454,0.041,,,,2.839159146
1715664047161355404,0.046,,,,2.846853096
1715664047169049354,0.043,,,,2.854547046
1715664047176743304,0.036,,,,2.862240996
1715664047184437254,0.034,,,,2.869934946
1715664047192131204,0.038,,,,2.877628896
1715664047199825154,0.024,,,,2.885322846
1715664047207519104,0.002,,,,2.893016796
1715664047215213054,0.0,,,,2.900710746
1715664047222907004,0.017,,,,2.908404696
1715664047230600954,0.031,,,,2.916098646
1715664047238294904,0.046,,,,2.923792596
1715664047245988854,0.065,,,,2.931486546
1715664047253682804,0.068,,,,2.939180496
1715664047261376754,0.036,,,,2.946874446
1715664047269070704,0.007,,,,2.954568396
1715664047276764654,0.017,,,,2.962262346
1715664047284458604,0.021,,,,2.969956296
1715664047292152554,0.009,,,,2.977650246
1715664047299846504,0.017,,,,2.985344196
1715664047307540454,0.031,,,,2.993038146
1715664047315234404,0.029,,,,3.000732096
1715664047322928354,0.036,,,,3.008426046
1715664047330622304,0.068,,,,3.016119996
1715664047338316254,0.104,,,,3.023813946
1715664047346010204,0.226,,,,3.031507896
1715664047353704154,0.543,,,,3.039201846
1715664047361398104,0.836,,,,3.046895796
1715664047369092054,0.536,,,,3.054589746
1715664047376786004,-0.331,,,,3.062283696
1715664047384479954,-0.628,,,,3.069977646
1715664047392173904,-0.077,,,,3.077671596
1715664047399867854,0.17,,,,3.085365546
1715664047407561804,0.0,,,,3.093059496
1715664047415255754,0.043,,,,3.100753446
1715664047422949704,0.138,,,,3.108447396
1715664047430643654,0.102,,,,3.116141346
1715664047438337604,0.107,,,,3.123835296
1715664047446031554,0.158,,,,3.131529246
1715664047453725504,0.165,,,,3.139223196
1715664047461419454,0.158,,,,3.146917146
1715664047469113404,0.185,,,,3.154611096
1715664047476807354,0.219,,,,3.162305046
1715664047484501304,0.233,,,,3.169998996
1715664047492195254,0.248,,,,3.177692946
1715664047499889204,0.272,,,,3.185386896
1715664047507583154,0.29,,,,3.193080846
1715664047515277104,0.307,,,,3.200774796
1715664047522971054,0.321,,,,3.208468746
1715664047530665004,0.326,,,,3.216162696
1715664047538358954,0.314,,,,3.223856646
1715664047546052904,0.294,,,,3.231550596
1715664047553746854,0.28,,,,3.239244546
1715664047561440804,0.253,,,,3.246938496
1715664047569134754,0.212,,,,3.254632446
1715664047576828704,0.17,,,,3.262326396
1715664047584522654,0.121,,,,3.270020346
1715664047592216604,0.065,,,,3.277714296
1715664047599910554,0.026,,,,3.285408246
1715664047607604504,-0.004,,,,3.293102196
1715664047615298454,-0.041,,,,3.300796146
1715664047622992404,-0.058,,,,3.308490096
1715664047630686354,-0.06,,,,3.316184046
1715664047638380304,-0.07,,,,3.323877996
1715664047646074254,-0.073,,,,3.331571946
1715664047653768204,-0.065,,,,3.339265896
1715664047661462154,-0.063,,,,3.346959846
1715664047669156104,-0.048,,,,3.354653796
1715664047676850054,-0.024,,,,3.362347746
1715664047684544012,-0.019,88.0,622.0,,3.370041704
1715664047692238031,-0.017,,,,3.377735723
1715664047699932050,0.0,,,,3.385429742
1715664047707626069,0.014,,,,3.393123761
1715664047715320088,0.014,,,,3.40081778
1715664047723014107,0.009,,,,3.408511799
1715664047730708126,0.019,,,,3.416205818
1715664047738402145,0.026,,,,3.423899837
1715664047746096164,0.009,,,,3.431593856
1715664047753790183,0.0,,,,3.439287875
1715664047761484202,0.012,,,,3.446981894
1715664047769178221,0.014,,,,3.454675913
1715664047776872240,0.014,,,,3.462369932
1715664047784566259,0.014,,,,3.470063951
1715664047792260278,0.002,,,,3.47775797
1715664047799954297,-0.017,,,,3.485451989
1715664047807648316,-0.017,,,,3.493146008
1715664047815342335,0.002,,,,3.500840027
1715664047823036354,0.014,,,,3.508534046
1715664047830730373,0.024,,,,3.516228065
1715664047838424392,0.048,,,,3.523922084
1715664047846118411,0.056,,,,3.531616103
1715664047853812430,0.026,,,,3.539310122
1715664047861506449,0.009,,,,3.547004141
1715664047869200468,0.019,,,,3.55469816
1715664047876894487,0.024,,,,3.562392179
1715664047884588506,0.019,,,,3.570086198
1715664047892282525,0.026,,,,3.577780217
1715664047899976544,0.034,,,,3.585474236
1715664047907670563,0.021,,,,3.593168255
1715664047915364582,0.029,,,,3.600862274
1715664047923058601,0.065,,,,3.608556293
1715664047930752620,0.112,,,,3.616250312
1715664047938446639,0.243,,,,3.623944331
1715664047946140658,0.55,,,,3.63163835
1715664047953834677,0.745,,,,3.639332369
1715664047961528696,0.302,,,,3.647026388
1715664047969222715,-0.482,,,,3.654720407
1715664047976916734,-0.526,,,,3.662414426
1715664047984610753,0.009,,,,3.670108445
1715664047992304772,0.134,,,,3.677802464
1715664047999998791,0.017,,,,3.685496483
1715664048007692810,0.095,,,,3.693190502
1715664048015386829,0.146,,,,3.700884521
1715664048023080848,0.114,,,,3.70857854
1715664048030774867,0.143,,,,3.716272559
1715664048038468886,0.182,,,,3.723966578
1715664048046162905,0.177,,,,3.731660597
1715664048053856924,0.185,,,,3.739354616
1715664048061550943,0.209,,,,3.747048635
1715664048069244962,0.226,,,,3.754742654
1715664048076938981,0.243,,,,3.762436673
1715664048084633000,0.263,,,,3.770130692
1715664048092327019,0.28,,,,3.777824711
1715664048100021038,0.294,,,,3.78551873
1715664048107715057,0.311,,,,3.793212749
1715664048115409076,0.331,,,,3.800906768
1715664048123103095,0.333,,,,3.808600787
1715664048130797114,0.316,,,,3.816294806
1715664048138491133,0.294,,,,3.823988825
1715664048146185152,0.272,,,,3.831682844
1715664048153879171,0.238,,,,3.839376863
1715664048161573190,0.202,,,,3.847070882
1715664048169267209,0.163,,,,3.854764901
1715664048176961228,0.116,,,,3.86245892
1715664048184655247,0.06,,,,3.870152939
1715664048192349266,0.019,,,,3.877846958
1715664048200043285,-0.014,,,,3.885540977
1715664048207737304,-0.043,,,,3.893234996
1715664048215431323,-0.056,,,,3.900929015
1715664048223125342,-0.063,,,,3.908623034
1715664048230819361,-0.07,,,,3.916317053
1715664048238513380,-0.07,,,,3.924011072
1715664048246207458,-0.06,,,,3.93170515
1715664048253901756,-0.051,,,,3.939399448
1715664048261596054,-0.041,,,,3.947093746
1715664048269290352,-0.029,,,,3.954788044
1715664048276984650,-0.014,,,,3.962482342
1715664048284678948,-0.002,,,,3.97017664
1715664048292373246,0.004,,,,3.977870938
1715664048300067544,0.002,,,,3.985565236
1715664048307761842,0.009,,,,3.993259534
1715664048315456140,0.024,,,,4.000953832
1715664048323150438,0.029,,,,4.00864813
1715664048330844736,0.031,,,,4.016342428
1715664048338539034,0.041,,,,4.024036726
1715664048346233332,0.043,,,,4.031731024
1715664048353927630,0.041,,,,4.039425322
1715664048361621928,0.041,,,,4.04711962
1715664048369316226,0.041,,,,4.054813918
1715664048377010524,0.043,,,,4.062508216
1715664048384704822,0.046,,,,4.070202514
1715664048392399120,0.041,,,,4.077896812
1715664048400093418,0.029,,,,4.08559111
1715664048407787716,0.021,,,,4.093285408
1715664048415482014,0.021,,,,4.100979706
1715664048423176312,0.034,,,,4.108674004
1715664048430870610,0.058,,,,4.116368302
1715664048438564908,0.073,,,,4.1240626
1715664048446259206,0.077,,,,4.131756898
1715664048453953504,0.07,,,,4.139451196
1715664048461647802,0.048,,,,4.147145494
1715664048469342100,0.041,,,,4.154839792
1715664048477036398,0.046,,,,4.16253409
1715664048484730696,0.051,,,,4.170228388
1715664048492424994,0.056,,,,4.177922686
1715664048500119292,0.056,,,,4.185616984
1715664048507813590,0.058,,,,4.193311282
1715664048515507888,0.068,,,,4.20100558
1715664048523202186,0.097,,,,4.208699878
1715664048530896484,0.151,,,,4.216394176
1715664048538590782,0.231,,,,4.224088474
1715664048546285080,0.426,,,,4.231782772
1715664048553979378,0.719,,,,4.23947707
1715664048561673676,0.714,,,,4.247171368
1715664048569367974,0.041,,,,4.254865666
1715664048577062272,-0.5630000000000001,,,,4.262559964
1715664048584756570,-0.253,,,,4.270254262
1715664048592450868,0.202,,,,4.27794856
1715664048600145166,0.124,,,,4.285642858
1715664048607839464,0.058,,,,4.293337156
1715664048615533762,0.168,,,,4.301031454
1715664048623228060,0.175,,,,4.308725752
1715664048630922358,0.151,,,,4.31642005
1715664048638616656,0.192,,,,4.324114348
1715664048646310954,0.209,,,,4.331808646
1715664048654005252,0.204,,,,4.339502944
1715664048661699550,0.229,,,,4.347197242
1715664048669393848,0.258,,,,4.35489154
1715664048677088146,0.272,,,,4.362585838
1715664048684782444,0.285,,,,4.370280136
1715664048692476742,0.307,,,,4.377974434
1715664048700171040,0.329,,,,4.385668732
1715664048707865338,0.348,,,,4.39336303
1715664048715559636,0.363,,,,4.401057328
1715664048723253934,0.365,,,,4.408751626
1715664048730948232,0.355,,,,4.416445924
1715664048738642530,0.336,,,,4.424140222
1715664048746336828,0.314,,,,4.43183452
1715664048754031126,0.287,,,,4.439528818
1715664048761725424,0.258,,,,4.447223116
1715664048769419722,0.224,,,,4.454917414
1715664048777114020,0.177,,,,4.462611712
1715664048784808318,0.124,,,,4.47030601
1715664048792502616,0.073,,,,4.478000308
1715664048800196914,0.026,,,,4.485694606
1715664048807891246,-0.009,90.0,605.0,,4.493388938
1715664048815585196,-0.031,,598.0,,4.501082888
1715664048823279146,-0.043,,,,4.508776838
1715664048830973096,-0.048,,,,4.516470788
1715664048838667046,-0.051,,,,4.524164738
1715664048846360996,-0.051,,,,4.531858688
1715664048854054946,-0.051,,,,4.539552638
1715664048861748896,-0.041,,,,4.547246588
1715664048869442846,-0.029,,,,4.554940538
1715664048877136796,-0.019,,,,4.562634488
1715664048884830746,-0.007,,,,4.570328438
1715664048892524696,0.009,,,,4.578022388
1715664048900218646,0.017,,,,4.585716338
1715664048907912596,0.021,,,,4.593410288
1715664048915606546,0.029,,,,4.601104238
1715664048923300496,0.026,,,,4.608798188
1715664048930994446,0.026,,,,4.616492138
1715664048938688396,0.034,,,,4.624186088
1715664048946382346,0.041,,,,4.631880038
1715664048954076296,0.038,,,,4.639573988
1715664048961770246,0.036,,,,4.647267938
1715664048969464196,0.036,,,,4.654961888
1715664048977158146,0.034,,,,4.662655838
1715664048984852096,0.031,,,,4.670349788
1715664048992546046,0.034,,,,4.678043738
1715664049000239996,0.031,,,,4.685737688
1715664049007933946,0.034,,,,4.693431638
1715664049015627896,0.036,,,,4.701125588
1715664049023321846,0.034,,,,4.708819538
1715664049031015796,0.026,,,,4.716513488
1715664049038709746,0.021,,,,4.724207438
1715664049046403696,0.034,,,,4.731901388
1715664049054097646,0.056,,,,4.739595338
1715664049061791596,0.068,,,,4.747289288
1715664049069485546,0.077,,,,4.754983238
1715664049077179496,0.092,,,,4.762677188
1715664049084873446,0.085,,,,4.770371138
1715664049092567396,0.058,,,,4.778065088
1715664049100261346,0.046,,,,4.785759038
1715664049107955296,0.053,,,,4.793452988
1715664049115649246,0.058,,,,4.801146938
1715664049123343196,0.06,,,,4.808840888
1715664049131037146,0.068,,,,4.816534838
1715664049138731096,0.077,,,,4.824228788
1715664049146425046,0.075,,,,4.831922738
1715664049154118996,0.082,,,,4.839616688
1715664049161812946,0.124,,,,4.847310638
1715664049169506896,0.192,,,,4.855004588
1715664049177200846,0.341,,,,4.862698538
1715664049184894796,0.631,,,,4.870392488
1715664049192588746,0.8260000000000001,,,,4.878086438
1715664049200282696,0.397,,,,4.885780388
1715664049207976646,-0.399,,,,4.893474338
1715664049215670596,-0.441,,,,4.901168288
1715664049223364546,0.104,,,,4.908862238
1715664049231058496,0.194,,,,4.916556188
1715664049238752446,0.038,,,,4.924250138
1715664049246446396,0.112,,,,4.931944088
1715664049254140346,0.173,,,,4.939638038
1715664049261834296,0.131,,,,4.947331988
1715664049269528246,0.155,,,,4.955025938
1715664049277222196,0.199,,,,4.962719888
1715664049284916146,0.199,,,,4.970413838
1715664049292610096,0.209,,,,4.978107788
1715664049300304046,0.236,,,,4.985801738
1715664049307997996,0.251,,,,4.993495688
1715664049315691946,0.27,,,,5.001189638
1715664049323385896,0.297,,,,5.008883588
1715664049331079846,0.314,,,,5.016577538
1715664049338773796,0.329,,,,5.024271488
1715664049346467746,0.348,,,,5.031965438
1715664049354161696,0.363,,,,5.039659388
1715664049361855646,0.36,,,,5.047353338
1715664049369549606,0.35,,,,5.055047298
1715664049377243834,0.331,,,,5.062741526
1715664049384938062,0.304,,,,5.070435754
1715664049392632290,0.27,,,,5.078129982
1715664049400326518,0.236,,,,5.08582421
1715664049408020746,0.199,,,,5.093518438
1715664049415714974,0.153,,,,5.101212666
1715664049423409202,0.09,,,,5.108906894
1715664049431103430,0.029,,,,5.116601122
1715664049438797658,-0.012,,,,5.12429535
1715664049446491886,-0.043,,,,5.131989578
1715664049454186114,-0.07,,,,5.139683806
1715664049461880342,-0.085,,,,5.147378034
1715664049469574570,-0.085,,,,5.155072262
1715664049477268798,-0.082,,,,5.16276649
1715664049484963026,-0.075,,,,5.170460718
1715664049492657254,-0.063,,,,5.178154946
1715664049500351482,-0.053,,,,5.185849174
1715664049508045710,-0.043,,,,5.193543402
1715664049515739938,-0.029,,,,5.20123763
1715664049523434166,-0.017,,,,5.208931858
1715664049531128394,-0.004,,,,5.216626086
1715664049538822622,0.007,,,,5.224320314
1715664049546516850,0.017,,,,5.232014542
1715664049554211078,0.024,,,,5.23970877
1715664049561905306,0.024,,,,5.247402998
1715664049569599534,0.029,,,,5.255097226
1715664049577293762,0.034,,,,5.262791454
1715664049584987990,0.038,,,,5.270485682
1715664049592682218,0.038,,,,5.27817991
1715664049600376446,0.036,,,,5.285874138
1715664049608070674,0.036,,,,5.293568366
1715664049615764902,0.038,,,,5.301262594
1715664049623459130,0.041,,,,5.308956822
1715664049631153358,0.043,,,,5.31665105
1715664049638847586,0.041,,,,5.324345278
1715664049646541814,0.038,,,,5.332039506
1715664049654236042,0.041,,,,5.339733734
1715664049661930270,0.043,,,,5.347427962
1715664049669624498,0.046,,,,5.35512219
1715664049677318726,0.046,,,,5.362816418
1715664049685012954,0.048,,,,5.370510646
1715664049692707182,0.051,,,,5.378204874
1715664049700401410,0.051,,,,5.385899102
1715664049708095638,0.048,,,,5.39359333
1715664049715789866,0.048,,,,5.401287558
1715664049723484094,0.043,,,,5.408981786
1715664049731178322,0.038,,,,5.416676014
1715664049738872550,0.043,,,,5.424370242
1715664049746566778,0.058,,,,5.43206447
1715664049754261006,0.075,,,,5.439758698
1715664049761955234,0.082,,,,5.447452926
1715664049769649462,0.095,,,,5.455147154
1715664049777343690,0.102,,,,5.462841382
1715664049785037918,0.085,,,,5.47053561
1715664049792732146,0.065,,,,5.478229838
1715664049800426374,0.063,,,,5.485924066
1715664049808120602,0.068,,,,5.493618294
1715664049815814830,0.07,,,,5.501312522
1715664049823509058,0.075,,,,5.50900675
1715664049831203286,0.082,,,,5.516700978
1715664049838897514,0.082,,,,5.524395206
1715664049846591742,0.085,,,,5.532089434
1715664049854285970,0.107,,,,5.539783662
1715664049861980198,0.148,,,,5.54747789
1715664049869674426,0.246,,,,5.555172118
1715664049877368654,0.489,,,,5.562866346
1715664049885062882,0.787,,,,5.570560574
1715664049892757110,0.68,,,,5.578254802
1715664049900451338,-0.065,,,,5.58594903
1715664049908145566,-0.536,,,,5.593643258
1715664049915839794,-0.104,,,,5.601337486
1715664049923534022,0.238,,,,5.609031714
1715664049931228310,0.075,92.0,591.0,,5.616726002
1715664049938922399,0.046,,,,5.624420091
1715664049946616488,0.163,,,,5.63211418
1715664049954310577,0.146,,,,5.639808269
1715664049962004666,0.121,,,,5.647502358
1715664049969698755,0.17,,,,5.655196447
1715664049977392844,0.192,,,,5.662890536
1715664049985086933,0.187,,,,5.670584625
1715664049992781022,0.204,,,,5.678278714
1715664050000475111,0.219,,,,5.685972803
1715664050008169200,0.224,,,,5.693666892
1715664050015863289,0.243,,,,5.701360981
1715664050023557378,0.268,,,,5.70905507
1715664050031251467,0.285,,,,5.716749159
1715664050038945556,0.302,,,,5.724443248
1715664050046639645,0.319,,,,5.732137337
1715664050054333734,0.321,,,,5.739831426
1715664050062027823,0.314,,,,5.747525515
1715664050069721912,0.304,,,,5.755219604
1715664050077416001,0.282,,,,5.762913693
1715664050085110090,0.255,,,,5.770607782
1715664050092804179,0.231,,,,5.778301871
1715664050100498268,0.199,,,,5.78599596
1715664050108192357,0.16,,,,5.793690049
1715664050115886446,0.114,,,,5.801384138
1715664050123580535,0.068,,,,5.809078227
1715664050131274624,0.029,,,,5.816772316
1715664050138968713,-0.002,,,,5.824466405
1715664050146662802,-0.026,,,,5.832160494
1715664050154356891,-0.043,,,,5.839854583
1715664050162050980,-0.048,,,,5.847548672
1715664050169745069,-0.051,,,,5.855242761
1715664050177439158,-0.046,,,,5.86293685
1715664050185133247,-0.036,,,,5.870630939
1715664050192827336,-0.026,,,,5.878325028
1715664050200521425,-0.019,,,,5.886019117
1715664050208215514,-0.009,,,,5.893713206
1715664050215909603,0.0,,,,5.901407295
1715664050223603692,0.009,,,,5.909101384
1715664050231297781,0.021,,,,5.916795473
1715664050238991870,0.031,,,,5.924489562
1715664050246685959,0.036,,,,5.932183651
1715664050254380048,0.041,,,,5.93987774
1715664050262074137,0.046,,,,5.947571829
1715664050269768226,0.051,,,,5.955265918
1715664050277462315,0.056,,,,5.962960007
1715664050285156404,0.053,,,,5.970654096
1715664050292850493,0.056,,,,5.978348185
1715664050300544582,0.053,,,,5.986042274
1715664050308238671,0.051,,,,5.993736363
1715664050315932760,0.051,,,,6.001430452
1715664050323626849,0.053,,,,6.009124541
1715664050331320938,0.053,,,,6.01681863
1715664050339015027,0.053,,,,6.024512719
1715664050346709116,0.053,,,,6.032206808
1715664050354403205,0.048,,,,6.039900897
1715664050362097294,0.048,,,,6.047594986
1715664050369791383,0.053,,,,6.055289075
1715664050377485472,0.053,,,,6.062983164
1715664050385179561,0.058,,,,6.070677253
1715664050392873650,0.06,,,,6.078371342
1715664050400567739,0.056,,,,6.086065431
1715664050408261828,0.058,,,,6.09375952
1715664050415955917,0.065,,,,6.101453609
1715664050423650006,0.065,,,,6.109147698
1715664050431344095,0.063,,,,6.116841787
1715664050439038184,0.056,,,,6.124535876
1715664050446732273,0.048,,,,6.132229965
1715664050454426362,0.048,,,,6.139924054
1715664050462120451,0.053,,,,6.147618143
1715664050469814540,0.053,,,,6.155312232
1715664050477508629,0.051,,,,6.163006321
1715664050485202718,0.053,,,,6.17070041
1715664050492896840,0.058,94.0,605.0,,6.178394532
1715664050500590790,0.058,,634.0,,6.186088482
1715664050508284740,0.058,,,,6.193782432
1715664050515978690,0.063,,,,6.201476382
1715664050523672640,0.063,,,,6.209170332
1715664050531366590,0.058,,,,6.216864282
1715664050539060540,0.048,,,,6.224558232
1715664050546754490,0.046,,,,6.232252182
1715664050554448440,0.06,,,,6.239946132
1715664050562142390,0.077,,,,6.247640082
1715664050569836340,0.087,,,,6.255334032
1715664050577530290,0.095,,,,6.263027982
1715664050585224240,0.095,,,,6.270721932
1715664050592918190,0.073,,,,6.278415882
1715664050600612140,0.053,,,,6.286109832
1715664050608306090,0.056,,,,6.293803782
1715664050616000040,0.058,,,,6.301497732
1715664050623693990,0.051,,,,6.309191682
1715664050631387940,0.053,,,,6.316885632
1715664050639081890,0.06,,,,6.324579582
1715664050646775840,0.06,,,,6.332273532
1715664050654469790,0.073,,,,6.339967482
1715664050662163740,0.099,,,,6.347661432
1715664050669857690,0.143,,,,6.355355382
1715664050677551640,0.287,,,,6.363049332
1715664050685245590,0.609,,,,6.370743282
1715664050692939540,0.865,,,,6.378437232
1715664050700633490,0.502,,,,6.386131182
1715664050708327440,-0.311,,,,6.393825132
1715664050716021390,-0.458,,,,6.401519082
1715664050723715340,0.058,,,,6.409213032
1715664050731409290,0.185,,,,6.416906982
1715664050739103240,0.026,,,,6.424600932
1715664050746797190,0.09,,,,6.432294882
1715664050754491140,0.16,,,,6.439988832
1715664050762185090,0.121,,,,6.447682782
1715664050769879040,0.146,,,,6.455376732
1715664050777572990,0.19,,,,6.463070682
1715664050785266940,0.187,,,,6.470764632
1715664050792960890,0.199,,,,6.478458582
1715664050800654840,0.226,,,,6.486152532
1715664050808348790,0.233,,,,6.493846482
1715664050816042740,0.238,,,,6.501540432
1715664050823736690,0.27,,,,6.509234382
1715664050831430640,0.297,,,,6.516928332
1715664050839124590,0.304,,,,6.524622282
1715664050846818540,0.316,,,,6.532316232
1715664050854512490,0.329,,,,6.540010182
1715664050862206440,0.329,,,,6.547704132
1715664050869900390,0.321,,,,6.555398082
1715664050877594340,0.304,,,,6.563092032
1715664050885288290,0.28,,,,6.570785982
1715664050892982240,0.251,,,,6.578479932
1715664050900676190,0.221,,,,6.586173882
1715664050908370140,0.187,,,,6.593867832
1715664050916064090,0.151,,,,6.601561782
1715664050923758040,0.114,,,,6.609255732
1715664050931451990,0.073,,,,6.616949682
1715664050939145940,0.026,,,,6.624643632
1715664050946839890,-0.012,,,,6.632337582
1715664050954533840,-0.029,,,,6.640031532
1715664050962227790,-0.034,,,,6.647725482
1715664050969921740,-0.041,,,,6.655419432
1715664050977615690,-0.043,,,,6.663113382
1715664050985309640,-0.038,,,,6.670807332
1715664050993003590,-0.031,,,,6.678501282
1715664051000697540,-0.034,,,,6.686195232
1715664051008391490,-0.024,,,,6.693889182
1715664051016085440,-0.004,,,,6.701583132
1715664051023779390,0.007,,,,6.709277082
1715664051031473340,0.017,,,,6.716971032
1715664051039167290,0.024,,,,6.724664982
1715664051046861240,0.026,,,,6.732358932
1715664051054555198,0.038,,,,6.74005289
1715664051062249566,0.046,,,,6.747747258
1715664051069943934,0.043,,,,6.755441626
1715664051077638302,0.041,,,,6.763135994
1715664051085332670,0.041,,,,6.770830362
1715664051093027038,0.034,,,,6.77852473
1715664051100721406,0.021,,,,6.786219098
1715664051108415774,0.026,,,,6.793913466
1715664051116110142,0.029,,,,6.801607834
1715664051123804510,0.024,,,,6.809302202
1715664051131498878,0.024,,,,6.81699657
1715664051139193246,0.024,,,,6.824690938
1715664051146887614,0.019,,,,6.832385306
1715664051154581982,0.014,,,,6.840079674
1715664051162276350,0.019,,,,6.847774042
1715664051169970718,0.026,,,,6.85546841
1715664051177665086,0.024,,,,6.863162778
1715664051185359454,0.017,,,,6.870857146
1715664051193053822,0.009,,,,6.878551514
1715664051200748190,0.009,,,,6.886245882
1715664051208442558,0.014,,,,6.89394025
1715664051216136926,0.007,,,,6.901634618
1715664051223831294,0.007,,,,6.909328986
1715664051231525662,0.017,,,,6.917023354
1715664051239220030,0.019,,,,6.924717722
1715664051246914398,0.017,,,,6.93241209
1715664051254608766,0.021,,,,6.940106458
1715664051262303134,0.021,,,,6.947800826
1715664051269997502,0.021,,,,6.955495194
1715664051277691870,0.024,,,,6.963189562
1715664051285386238,0.029,,,,6.97088393
1715664051293080606,0.034,,,,6.978578298
1715664051300774974,0.036,,,,6.986272666
1715664051308469342,0.041,,,,6.993967034
1715664051316163710,0.034,,,,7.001661402
1715664051323858078,0.021,,,,7.00935577
1715664051331552446,0.026,,,,7.017050138
1715664051339246814,0.041,,,,7.024744506
1715664051346941182,0.058,,,,7.032438874
1715664051354635550,0.073,,,,7.040133242
1715664051362329918,0.077,,,,7.04782761
1715664051370024286,0.087,,,,7.055521978
1715664051377718654,0.082,,,,7.063216346
1715664051385413022,0.058,,,,7.070910714
1715664051393107390,0.048,,,,7.078605082
1715664051400801758,0.056,,,,7.08629945
1715664051408496126,0.058,,,,7.093993818
1715664051416190494,0.06,,,,7.101688186
1715664051423884862,0.063,,,,7.109382554
1715664051431579230,0.063,,,,7.117076922
1715664051439273598,0.063,,,,7.12477129
1715664051446967966,0.08,,,,7.132465658
1715664051454662334,0.114,,,,7.140160026
1715664051462356702,0.221,,,,7.147854394
1715664051470051070,0.504,,,,7.155548762
1715664051477745438,0.792,,,,7.16324313
1715664051485439806,0.587,,,,7.170937498
1715664051493134174,-0.19,,,,7.178631866
1715664051500828542,-0.545,,,,7.186326234
1715664051508522910,-0.065,,,,7.194020602
1715664051516217278,0.212,,,,7.20171497
1715664051523911646,0.046,,,,7.209409338
1715664051531606014,0.063,,,,7.217103706
1715664051539300382,0.17,,,,7.224798074
1715664051546994750,0.138,,,,7.232492442
1715664051554689118,0.129,,,,7.24018681
1715664051562383486,0.185,,,,7.247881178
1715664051570077854,0.202,,,,7.255575546
1715664051577772222,0.199,,,,7.263269914
1715664051585466590,0.226,,,,7.270964282
1715664051593160958,0.248,,,,7.27865865
1715664051600855326,0.251,,,,7.286353018
1715664051608549694,0.265,,,,7.294047386
1715664051616244074,0.294,95.0,696.0,,7.301741766
1715664051623938024,0.314,,,,7.309435716
1715664051631631974,0.331,,,,7.317129666
1715664051639325924,0.343,,,,7.324823616
1715664051647019874,0.346,,,,7.332517566
1715664051654713824,0.333,,,,7.340211516
1715664051662407774,0.314,,,,7.347905466
1715664051670101724,0.292,,,,7.355599416
1715664051677795674,0.263,,,,7.363293366
1715664051685489624,0.224,,,,7.370987316
1715664051693183574,0.18,,,,7.378681266
1715664051700877524,0.136,,,,7.386375216
1715664051708571474,0.087,,,,7.394069166
1715664051716265424,0.046,,,,7.401763116
1715664051723959374,0.014,,,,7.409457066
1715664051731653324,-0.012,,,,7.417151016
1715664051739347274,-0.034,,,,7.424844966
1715664051747041224,-0.048,,,,7.432538916
1715664051754735174,-0.058,,,,7.440232866
1715664051762429124,-0.058,,,,7.447926816
1715664051770123074,-0.043,,,,7.455620766
1715664051777817024,-0.041,,,,7.463314716
1715664051785510974,-0.048,,,,7.471008666
1715664051793204924,-0.043,,,,7.478702616
1715664051800898874,-0.031,,,,7.486396566
1715664051808592824,-0.024,,,,7.494090516
1715664051816286774,-0.012,,,,7.501784466
1715664051823980724,0.002,,,,7.509478416
1715664051831674674,0.007,,,,7.517172366
1715664051839368624,0.009,,,,7.524866316
1715664051847062574,0.017,,,,7.532560266
1715664051854756524,0.026,,,,7.540254216
1715664051862450474,0.029,,,,7.547948166
1715664051870144424,0.031,,,,7.555642116
1715664051877838374,0.031,,,,7.563336066
1715664051885532324,0.034,,,,7.571030016
1715664051893226274,0.036,,,,7.578723966
1715664051900920224,0.034,,,,7.586417916
1715664051908614174,0.036,,,,7.594111866
1715664051916308124,0.038,,,,7.601805816
1715664051924002074,0.031,,,,7.609499766
1715664051931696024,0.024,,,,7.617193716
1715664051939389974,0.019,,,,7.624887666
1715664051947083924,0.017,,,,7.632581616
1715664051954777874,0.014,,,,7.640275566
1715664051962471824,0.017,,,,7.647969516
1715664051970165774,0.019,,,,7.655663466
1715664051977859724,0.021,,,,7.663357416
1715664051985553674,0.026,,,,7.671051366
1715664051993247624,0.024,,,,7.678745316
1715664052000941574,0.024,,,,7.686439266
1715664052008635524,0.031,,,,7.694133216
1715664052016329474,0.038,,,,7.701827166
1715664052024023424,0.041,,,,7.709521116
1715664052031717374,0.043,,,,7.717215066
1715664052039411324,0.046,,,,7.724909016
1715664052047105274,0.048,,,,7.732602966
1715664052054799224,0.051,,,,7.740296916
1715664052062493174,0.053,,,,7.747990866
1715664052070187124,0.056,,,,7.755684816
1715664052077881074,0.058,,,,7.763378766
1715664052085575024,0.063,,,,7.771072716
1715664052093268974,0.065,,,,7.778766666
1715664052100962924,0.063,,,,7.786460616
1715664052108656874,0.056,,,,7.794154566
1715664052116350824,0.048,,,,7.801848516
1715664052124044774,0.06,,,,7.809542466
1715664052131738724,0.092,,,,7.817236416
1715664052139432674,0.104,,,,7.824930366
1715664052147126624,0.102,,,,7.832624316
1715664052154820574,0.112,,,,7.840318266
1715664052162514524,0.104,,,,7.848012216
1715664052170208474,0.073,,,,7.855706166
1715664052177902432,0.06,,,,7.863400124
1715664052185596730,0.073,,,,7.871094422
1715664052193291028,0.075,,,,7.87878872
1715664052200985326,0.063,,,,7.886483018
1715664052208679624,0.065,,,,7.894177316
1715664052216373922,0.077,,,,7.901871614
1715664052224068220,0.087,,,,7.909565912
1715664052231762518,0.112,,,,7.91726021
1715664052239456816,0.153,,,,7.924954508
1715664052247151114,0.285,,,,7.932648806
1715664052254845412,0.5720000000000001,,,,7.940343104
1715664052262539710,0.8160000000000001,,,,7.948037402
1715664052270234008,0.519,,,,7.9557317
1715664052277928306,-0.265,,,,7.963425998
1715664052285622604,-0.497,,,,7.971120296
1715664052293316902,0.009,,,,7.978814594
1715664052301011200,0.207,,,,7.986508892
1715664052308705498,0.051,,,,7.99420319
1715664052316399796,0.099,,,,8.001897488
1715664052324094094,0.185,,,,8.009591786
1715664052331788392,0.146,,,,8.017286084
1715664052339482690,0.153,,,,8.024980382
1715664052347176988,0.202,,,,8.03267468
1715664052354871286,0.199,,,,8.040368978
1715664052362565584,0.199,,,,8.048063276
1715664052370259882,0.233,,,,8.055757574
1715664052377954180,0.255,,,,8.063451872
1715664052385648478,0.26,,,,8.07114617
1715664052393342776,0.275,,,,8.078840468
1715664052401037074,0.294,,,,8.086534766
1715664052408731372,0.309,,,,8.094229064
1715664052416425670,0.314,,,,8.101923362
1715664052424119968,0.321,,,,8.10961766
1715664052431814266,0.329,,,,8.117311958
1715664052439508564,0.324,,,,8.125006256
1715664052447202862,0.307,,,,8.132700554
1715664052454897160,0.277,,,,8.140394852
1715664052462591458,0.243,,,,8.14808915
1715664052470285756,0.214,,,,8.155783448
1715664052477980054,0.185,,,,8.163477746
1715664052485674352,0.138,,,,8.171172044
1715664052493368650,0.087,,,,8.178866342
1715664052501062948,0.046,,,,8.18656064
1715664052508757246,0.012,,,,8.194254938
1715664052516451544,-0.019,,,,8.201949236
1715664052524145842,-0.036,,,,8.209643534
1715664052531840140,-0.041,,,,8.217337832
1715664052539534438,-0.051,,,,8.22503213
1715664052547228736,-0.058,,,,8.232726428
1715664052554923034,-0.053,,,,8.240420726
1715664052562617332,-0.048,,,,8.248115024
1715664052570311630,-0.041,,,,8.255809322
1715664052578005928,-0.029,,,,8.26350362
1715664052585700226,-0.014,,,,8.271197918
1715664052593394524,-0.007,,,,8.278892216
1715664052601088822,0.002,,,,8.286586514
1715664052608783120,0.012,,,,8.294280812
1715664052616477418,0.021,,,,8.30197511
1715664052624171716,0.031,,,,8.309669408
1715664052631866014,0.041,,,,8.317363706
1715664052639560312,0.048,,,,8.325058004
1715664052647254610,0.053,,,,8.332752302
1715664052654948908,0.056,,,,8.3404466
1715664052662643206,0.048,,,,8.348140898
1715664052670337504,0.041,,,,8.355835196
1715664052678031802,0.048,,,,8.363529494
1715664052685726100,0.051,,,,8.371223792
1715664052693420398,0.048,,,,8.37891809
1715664052701114696,0.051,,,,8.386612388
1715664052708808994,0.051,,,,8.394306686
1715664052716503292,0.046,,,,8.402000984
1715664052724197590,0.043,,,,8.409695282
1715664052731891888,0.048,,,,8.41738958
1715664052739586224,0.051,94.0,806.0,,8.425083916
1715664052747280243,0.048,,,,8.432777935
1715664052754974262,0.046,,,,8.440471954
1715664052762668281,0.051,,,,8.448165973
1715664052770362300,0.058,,,,8.455859992
1715664052778056319,0.06,,,,8.463554011
1715664052785750338,0.06,,,,8.47124803
1715664052793444357,0.063,,,,8.478942049
1715664052801138376,0.063,,,,8.486636068
1715664052808832395,0.063,,,,8.494330087
1715664052816526414,0.068,,,,8.502024106
1715664052824220433,0.073,,,,8.509718125
1715664052831914452,0.075,,,,8.517412144
1715664052839608471,0.075,,,,8.525106163
1715664052847302490,0.075,,,,8.532800182
1715664052854996509,0.077,,,,8.540494201
1715664052862690528,0.082,,,,8.54818822
1715664052870384547,0.085,,,,8.555882239
1715664052878078566,0.087,,,,8.563576258
1715664052885772585,0.08,,,,8.571270277
1715664052893466604,0.065,,,,8.578964296
1715664052901160623,0.053,,,,8.586658315
1715664052908854642,0.068,,,,8.594352334
1715664052916548661,0.085,,,,8.602046353
1715664052924242680,0.09,,,,8.609740372
1715664052931936699,0.099,,,,8.617434391
1715664052939630718,0.109,,,,8.62512841
1715664052947324737,0.09,,,,8.632822429
1715664052955018756,0.058,,,,8.640516448
1715664052962712775,0.051,,,,8.648210467
1715664052970406794,0.06,,,,8.655904486
1715664052978100813,0.068,,,,8.663598505
1715664052985794832,0.068,,,,8.671292524
1715664052993488851,0.07,,,,8.678986543
1715664053001182870,0.075,,,,8.686680562
1715664053008876889,0.087,,,,8.694374581
1715664053016570908,0.119,,,,8.7020686
1715664053024264927,0.173,,,,8.709762619
1715664053031958946,0.341,,,,8.717456638
1715664053039652965,0.665,,,,8.725150657
1715664053047346984,0.843,,,,8.732844676
1715664053055041003,0.355,,,,8.740538695
1715664053062735022,-0.421,,,,8.748232714
1715664053070429041,-0.387,,,,8.755926733
1715664053078123060,0.136,,,,8.763620752
1715664053085817079,0.163,,,,8.771314771
1715664053093511098,0.024,,,,8.77900879
1715664053101205117,0.119,,,,8.786702809
1715664053108899136,0.168,,,,8.794396828
1715664053116593155,0.126,,,,8.802090847
1715664053124287174,0.155,,,,8.809784866
1715664053131981193,0.192,,,,8.817478885
1715664053139675212,0.192,,,,8.825172904
1715664053147369231,0.202,,,,8.832866923
1715664053155063250,0.226,,,,8.840560942
1715664053162757269,0.238,,,,8.848254961
1715664053170451288,0.253,,,,8.85594898
1715664053178145307,0.275,,,,8.863642999
1715664053185839326,0.302,,,,8.871337018
1715664053193533345,0.324,,,,8.879031037
1715664053201227364,0.338,,,,8.886725056
1715664053208921383,0.353,,,,8.894419075
1715664053216615402,0.358,,,,8.902113094
1715664053224309421,0.353,,,,8.909807113
1715664053232003440,0.341,,,,8.917501132
1715664053239697459,0.316,,,,8.925195151
1715664053247391478,0.287,,,,8.93288917
1715664053255085497,0.251,,,,8.940583189
1715664053262779516,0.214,,,,8.948277208
1715664053270473535,0.17,,,,8.955971227
1715664053278167554,0.119,,,,8.963665246
1715664053285861573,0.073,,,,8.971359265
1715664053293555592,0.034,,,,8.979053284
1715664053301249668,0.002,,,,8.98674736
1715664053308943618,-0.019,,,,8.99444131
1715664053316637568,-0.029,,,,9.00213526
1715664053324331518,-0.031,,,,9.00982921
1715664053332025468,-0.026,,,,9.01752316
1715664053339719418,-0.019,,,,9.02521711
1715664053347413368,-0.014,,,,9.03291106
1715664053355107318,-0.012,,,,9.04060501
1715664053362801268,-0.002,,,,9.04829896
1715664053370495218,0.012,,,,9.05599291
1715664053378189168,0.019,,,,9.06368686
1715664053385883118,0.031,,,,9.07138081
1715664053393577068,0.041,,,,9.07907476
1715664053401271018,0.046,,,,9.08676871
1715664053408964968,0.048,,,,9.09446266
1715664053416658918,0.058,,,,9.10215661
1715664053424352868,0.07,,,,9.10985056
1715664053432046818,0.075,,,,9.11754451
1715664053439740768,0.075,,,,9.12523846
1715664053447434718,0.065,,,,9.13293241
1715664053455128668,0.056,,,,9.14062636
1715664053462822618,0.053,,,,9.14832031
1715664053470516568,0.056,,,,9.15601426
1715664053478210518,0.058,,,,9.16370821
1715664053485904468,0.058,,,,9.17140216
1715664053493598418,0.056,,,,9.17909611
1715664053501292368,0.053,,,,9.18679006
1715664053508986318,0.058,,,,9.19448401
1715664053516680268,0.06,,,,9.20217796
1715664053524374218,0.06,,,,9.20987191
1715664053532068168,0.063,,,,9.21756586
1715664053539762118,0.063,,,,9.22525981
1715664053547456068,0.065,,,,9.23295376
1715664053555150018,0.07,,,,9.24064771
1715664053562843968,0.073,,,,9.24834166
1715664053570537918,0.075,,,,9.25603561
1715664053578231868,0.075,,,,9.26372956
1715664053585925818,0.077,,,,9.27142351
1715664053593619768,0.075,,,,9.27911746
1715664053601313718,0.07,,,,9.28681141
1715664053609007668,0.075,,,,9.29450536
1715664053616701618,0.075,,,,9.30219931
1715664053624395568,0.077,,,,9.30989326
1715664053632089518,0.082,,,,9.31758721
1715664053639783468,0.082,,,,9.32528116
1715664053647477418,0.073,,,,9.33297511
1715664053655171368,0.056,,,,9.34066906
1715664053662865318,0.065,,,,9.34836301
1715664053670559268,0.102,,,,9.35605696
1715664053678253218,0.119,,,,9.36375091
1715664053685947168,0.114,,,,9.37144486
1715664053693641118,0.121,,,,9.37913881
1715664053701335068,0.119,,,,9.38683276
1715664053709029018,0.09,,,,9.39452671
1715664053716722968,0.068,,,,9.40222066
1715664053724416918,0.058,,,,9.40991461
1715664053732110868,0.065,,,,9.41760856
1715664053739804818,0.075,,,,9.42530251
1715664053747498768,0.06,,,,9.43299646
1715664053755192718,0.051,,,,9.44069041
1715664053762886668,0.058,,,,9.44838436
1715664053770580618,0.07,,,,9.45607831
1715664053778274568,0.104,,,,9.46377226
1715664053785968518,0.246,,,,9.47146621
1715664053793662468,0.582,,,,9.47916016
1715664053801356418,0.967,,,,9.48685411
1715664053809050368,0.865,,,,9.49454806
1715664053816744318,-0.007,,,,9.50224201
1715664053824438268,-0.584,,,,9.50993596
1715664053832132218,-0.124,,,,9.51762991
1715664053839826168,0.224,,,,9.52532386
1715664053847520118,0.007,,,,9.53301781
1715664053855214068,0.0,,,,9.54071176
1715664053862908026,0.148,92.0,786.0,,9.548405718
1715664053870602394,0.112,,,,9.556100086
1715664053878296762,0.087,,,,9.563794454
1715664053885991130,0.158,,,,9.571488822
1715664053893685498,0.177,,,,9.57918319
1715664053901379866,0.16,,,,9.586877558
1715664053909074234,0.187,,,,9.594571926
1715664053916768602,0.226,,,,9.602266294
1715664053924462970,0.236,,,,9.609960662
1715664053932157338,0.243,,,,9.61765503
1715664053939851706,0.27,,,,9.625349398
1715664053947546074,0.294,,,,9.633043766
1715664053955240442,0.302,,,,9.640738134
1715664053962934810,0.309,,,,9.648432502
1715664053970629178,0.324,,,,9.65612687
1715664053978323546,0.333,,,,9.663821238
1715664053986017914,0.326,,,,9.671515606
1715664053993712282,0.299,,,,9.679209974
1715664054001406650,0.27,,,,9.686904342
1715664054009101018,0.253,,,,9.69459871
1715664054016795386,0.219,,,,9.702293078
1715664054024489754,0.16,,,,9.709987446
1715664054032184122,0.109,,,,9.717681814
1715664054039878490,0.065,,,,9.725376182
1715664054047572858,0.004,,,,9.73307055
1715664054055267226,-0.046,,,,9.740764918
1715664054062961594,-0.068,,,,9.748459286
1715664054070655962,-0.087,,,,9.756153654
1715664054078350330,-0.102,,,,9.763848022
1715664054086044698,-0.097,,,,9.77154239
1715664054093739066,-0.077,,,,9.779236758
1715664054101433434,-0.077,,,,9.786931126
1715664054109127802,-0.097,,,,9.794625494
1715664054116822170,-0.092,,,,9.802319862
1715664054124516538,-0.063,,,,9.81001423
1715664054132210906,-0.051,,,,9.817708598
1715664054139905274,-0.053,,,,9.825402966
1715664054147599642,-0.051,,,,9.833097334
1715664054155294010,-0.038,,,,9.840791702
1715664054162988378,-0.024,,,,9.84848607
1715664054170682746,-0.017,,,,9.856180438
1715664054178377114,-0.009,,,,9.863874806
1715664054186071482,0.0,,,,9.871569174
1715664054193765850,0.007,,,,9.879263542
1715664054201460218,0.009,,,,9.88695791
1715664054209154586,0.009,,,,9.894652278
1715664054216848954,0.009,,,,9.902346646
1715664054224543322,0.004,,,,9.910041014
1715664054232237690,0.002,,,,9.917735382
1715664054239932058,0.004,,,,9.92542975
1715664054247626426,0.012,,,,9.933124118
1715664054255320794,0.009,,,,9.940818486
1715664054263015162,0.012,,,,9.948512854
1715664054270709530,0.014,,,,9.956207222
1715664054278403898,0.009,,,,9.96390159
1715664054286098266,0.014,,,,9.971595958
1715664054293792634,0.019,,,,9.979290326
1715664054301487002,0.021,,,,9.986984694
1715664054309181370,0.021,,,,9.994679062
1715664054316875738,0.021,,,,10.00237343
1715664054324570106,0.014,,,,10.010067798
1715664054332264474,0.004,,,,10.017762166
1715664054339958842,0.012,,,,10.025456534
1715664054347653210,0.041,,,,10.033150902
1715664054355347578,0.058,,,,10.04084527
1715664054363041946,0.06,,,,10.048539638
1715664054370736314,0.073,,,,10.056234006
1715664054378430682,0.085,,,,10.063928374
1715664054386125050,0.063,,,,10.071622742
1715664054393819418,0.031,,,,10.07931711
1715664054401513786,0.021,,,,10.087011478
1715664054409208154,0.031,,,,10.094705846
1715664054416902522,0.031,,,,10.102400214
1715664054424596902,0.036,,,,10.110094594
1715664054432290852,0.046,,,,10.117788544
1715664054439984802,0.053,,,,10.125482494
1715664054447678752,0.068,,,,10.133176444
1715664054455372702,0.104,,,,10.140870394
1715664054463066652,0.177,,,,10.148564344
1715664054470760602,0.399,,,,10.156258294
1715664054478454552,0.748,,,,10.163952244
1715664054486148502,0.775,,,,10.171646194
1715664054493842452,0.056,,,,10.179340144
1715664054501536402,-0.655,,,,10.187034094
1715664054509230352,-0.375,,,,10.194728044
1715664054516924302,0.131,,,,10.202421994
1715664054524618252,0.08,,,,10.210115944
1715664054532312202,0.017,,,,10.217809894
1715664054540006152,0.131,,,,10.225503844
1715664054547700102,0.136,,,,10.233197794
1715664054555394052,0.102,,,,10.240891744
1715664054563088002,0.148,,,,10.248585694
1715664054570781952,0.177,,,,10.256279644
1715664054578475902,0.173,,,,10.263973594
1715664054586169852,0.197,,,,10.271667544
1715664054593863802,0.226,,,,10.279361494
1715664054601557752,0.236,,,,10.287055444
1715664054609251702,0.258,,,,10.294749394
1715664054616945652,0.287,,,,10.302443344
1715664054624639602,0.311,,,,10.310137294
1715664054632333552,0.333,,,,10.317831244
1715664054640027502,0.348,,,,10.325525194
1715664054647721452,0.355,,,,10.333219144
1715664054655415402,0.36,,,,10.340913094
1715664054663109352,0.353,,,,10.348607044
1715664054670803302,0.338,,,,10.356300994
1715664054678497252,0.314,,,,10.363994944
1715664054686191202,0.28,,,,10.371688894
1715664054693885152,0.238,,,,10.379382844
1715664054701579102,0.19,,,,10.387076794
1715664054709273052,0.131,,,,10.394770744
1715664054716967002,0.073,,,,10.402464694
1715664054724660952,0.026,,,,10.410158644
1715664054732354902,-0.012,,,,10.417852594
1715664054740048852,-0.043,,,,10.425546544
1715664054747742802,-0.06,,,,10.433240494
1715664054755436752,-0.065,,,,10.440934444
1715664054763130702,-0.06,,,,10.448628394
1715664054770824652,-0.053,,,,10.456322344
1715664054778518602,-0.048,,,,10.464016294
1715664054786212552,-0.041,,,,10.471710244
1715664054793906502,-0.036,,,,10.479404194
1715664054801600452,-0.029,,,,10.487098144
1715664054809294402,-0.017,,,,10.494792094
1715664054816988352,-0.002,,,,10.502486044
1715664054824682302,0.009,,,,10.510179994
1715664054832376252,0.019,,,,10.517873944
1715664054840070202,0.026,,,,10.525567894
1715664054847764152,0.036,,,,10.533261844
1715664054855458102,0.041,,,,10.540955794
1715664054863152052,0.051,,,,10.548649744
1715664054870846002,0.053,,,,10.556343694
1715664054878539952,0.051,,,,10.564037644
1715664054886233902,0.048,,,,10.571731594
1715664054893927852,0.048,,,,10.579425544
1715664054901621802,0.051,,,,10.587119494
1715664054909315752,0.053,,,,10.594813444
1715664054917009702,0.051,,,,10.602507394
1715664054924703652,0.048,,,,10.610201344
1715664054932397602,0.048,,,,10.617895294
1715664054940091552,0.048,,,,10.625589244
1715664054947785502,0.048,,,,10.633283194
1715664054955479452,0.051,,,,10.640977144
1715664054963173402,0.048,,,,10.648671094
1715664054970867352,0.038,,,,10.656365044
1715664054978561302,0.034,,,,10.664058994
1715664054986255260,0.041,87.0,784.0,,10.671752952
1715664054993949628,0.041,,783.0,,10.67944732
1715664055001643996,0.029,,,,10.687141688
1715664055009338364,0.026,,,,10.694836056
1715664055017032732,0.036,,,,10.702530424
1715664055024727100,0.06,,,,10.710224792
1715664055032421468,0.08,,,,10.71791916
1715664055040115836,0.077,,,,10.725613528
1715664055047810204,0.082,,,,10.733307896
1715664055055504572,0.082,,,,10.741002264
1715664055063198940,0.063,,,,10.748696632
1715664055070893308,0.048,,,,10.756391
1715664055078587676,0.048,,,,10.764085368
1715664055086282044,0.056,,,,10.771779736
1715664055093976412,0.058,,,,10.779474104
1715664055101670780,0.06,,,,10.787168472
1715664055109365148,0.063,,,,10.79486284
1715664055117059516,0.068,,,,10.802557208
1715664055124753884,0.087,,,,10.810251576
1715664055132448252,0.121,,,,10.817945944
1715664055140142620,0.192,,,,10.825640312
1715664055147836988,0.387,,,,10.83333468
1715664055155531356,0.721,,,,10.841029048
1715664055163225724,0.86,,,,10.848723416
1715664055170920092,0.272,,,,10.856417784
1715664055178614460,-0.499,,,,10.864112152
1715664055186308828,-0.333,,,,10.87180652
1715664055194003196,0.185,,,,10.879500888
1715664055201697564,0.134,,,,10.887195256
1715664055209391932,0.014,,,,10.894889624
1715664055217086300,0.134,,,,10.902583992
1715664055224780668,0.163,,,,10.91027836
1715664055232475036,0.124,,,,10.917972728
1715664055240169404,0.163,,,,10.925667096
1715664055247863772,0.192,,,,10.933361464
1715664055255558140,0.187,,,,10.941055832
1715664055263252508,0.209,,,,10.9487502
1715664055270946876,0.241,,,,10.956444568
1715664055278641244,0.255,,,,10.964138936
1715664055286335612,0.275,,,,10.971833304
1715664055294029980,0.299,,,,10.979527672
1715664055301724348,0.321,,,,10.98722204
1715664055309418716,0.343,,,,10.994916408
1715664055317113084,0.363,,,,11.002610776
1715664055324807452,0.377,,,,11.010305144
1715664055332501820,0.38,,,,11.017999512
1715664055340196188,0.368,,,,11.02569388
1715664055347890556,0.353,,,,11.033388248
1715664055355584924,0.331,,,,11.041082616
1715664055363279292,0.299,,,,11.048776984
1715664055370973660,0.26,,,,11.056471352
1715664055378668028,0.209,,,,11.06416572
1715664055386362396,0.148,,,,11.071860088
1715664055394056764,0.087,,,,11.079554456
1715664055401751132,0.031,,,,11.087248824
1715664055409445500,-0.009,,,,11.094943192
1715664055417139868,-0.041,,,,11.10263756
1715664055424834236,-0.063,,,,11.110331928
1715664055432528604,-0.075,,,,11.118026296
1715664055440222972,-0.075,,,,11.125720664
1715664055447917340,-0.073,,,,11.133415032
1715664055455611708,-0.068,,,,11.1411094
1715664055463306076,-0.058,,,,11.148803768
1715664055471000444,-0.053,,,,11.156498136
1715664055478694812,-0.06,,,,11.164192504
1715664055486389180,-0.051,,,,11.171886872
1715664055494083548,-0.034,,,,11.17958124
1715664055501777916,-0.021,,,,11.187275608
1715664055509472284,-0.014,,,,11.194969976
1715664055517166652,-0.002,,,,11.202664344
1715664055524861020,0.004,,,,11.210358712
1715664055532555388,0.012,,,,11.21805308
1715664055540249756,0.021,,,,11.225747448
1715664055547944136,0.026,86.0,758.0,,11.233441828
1715664055555638086,0.029,,,,11.241135778
1715664055563332036,0.031,,,,11.248829728
1715664055571025986,0.034,,,,11.256523678
1715664055578719936,0.036,,,,11.264217628
1715664055586413886,0.041,,,,11.271911578
1715664055594107836,0.036,,,,11.279605528
1715664055601801786,0.029,,,,11.287299478
1715664055609495736,0.024,,,,11.294993428
1715664055617189686,0.026,,,,11.302687378
1715664055624883636,0.024,,,,11.310381328
1715664055632577586,0.024,,,,11.318075278
1715664055640271536,0.026,,,,11.325769228
1715664055647965486,0.031,,,,11.333463178
1715664055655659436,0.031,,,,11.341157128
1715664055663353386,0.034,,,,11.348851078
1715664055671047336,0.036,,,,11.356545028
1715664055678741286,0.034,,,,11.364238978
1715664055686435236,0.029,,,,11.371932928
1715664055694129186,0.031,,,,11.379626878
1715664055701823136,0.043,,,,11.387320828
1715664055709517086,0.063,,,,11.395014778
1715664055717211036,0.075,,,,11.402708728
1715664055724904986,0.082,,,,11.410402678
1715664055732598936,0.097,,,,11.418096628
1715664055740292886,0.09,,,,11.425790578
1715664055747986836,0.06,,,,11.433484528
1715664055755680786,0.051,,,,11.441178478
1715664055763374736,0.06,,,,11.448872428
1715664055771068686,0.063,,,,11.456566378
1715664055778762636,0.065,,,,11.464260328
1715664055786456586,0.075,,,,11.471954278
1715664055794150536,0.075,,,,11.479648228
1715664055801844486,0.075,,,,11.487342178
1715664055809538436,0.097,,,,11.495036128
1715664055817232386,0.141,,,,11.502730078
1715664055824926336,0.241,,,,11.510424028
1715664055832620286,0.499,,,,11.518117978
1715664055840314236,0.848,,,,11.525811928
1715664055848008186,0.8180000000000001,,,,11.533505878
1715664055855702136,0.046,,,,11.541199828
1715664055863396086,-0.577,,,,11.548893778
1715664055871090036,-0.187,,,,11.556587728
1715664055878783986,0.241,,,,11.564281678
1715664055886477936,0.097,,,,11.571975628
1715664055894171886,0.043,,,,11.579669578
1715664055901865836,0.17,,,,11.587363528
1715664055909559786,0.16,,,,11.595057478
1715664055917253736,0.136,,,,11.602751428
1715664055924947686,0.19,,,,11.610445378
1715664055932641636,0.207,,,,11.618139328
1715664055940335586,0.199,,,,11.625833278
1715664055948029536,0.226,,,,11.633527228
1715664055955723486,0.253,,,,11.641221178
1715664055963417436,0.265,,,,11.648915128
1715664055971111386,0.282,,,,11.656609078
1715664055978805336,0.302,,,,11.664303028
1715664055986499286,0.316,,,,11.671996978
1715664055994193236,0.338,,,,11.679690928
1715664056001887186,0.363,,,,11.687384878
1715664056009581136,0.375,,,,11.695078828
1715664056017275086,0.377,,,,11.702772778
1715664056024969036,0.372,,,,11.710466728
1715664056032662986,0.353,,,,11.718160678
1715664056040356936,0.329,,,,11.725854628
1715664056048050886,0.297,,,,11.733548578
1715664056055744836,0.255,,,,11.741242528
1715664056063438786,0.207,,,,11.748936478
1715664056071132736,0.151,,,,11.756630428
1715664056078826686,0.087,,,,11.764324378
1715664056086520636,0.034,,,,11.772018328
1715664056094214586,-0.009,,,,11.779712278
1715664056101908536,-0.048,,,,11.787406228
1715664056109602496,-0.073,,,,11.795100188
1715664056117296724,-0.087,,,,11.802794416
1715664056124990952,-0.092,,,,11.810488644
1715664056132685180,-0.085,,,,11.818182872
1715664056140379408,-0.075,,,,11.8258771
1715664056148073636,-0.073,,,,11.833571328
1715664056155767864,-0.068,,,,11.841265556
1715664056163462092,-0.056,,,,11.848959784
1715664056171156320,-0.048,,,,11.856654012
1715664056178850548,-0.036,,,,11.86434824
1715664056186544776,-0.021,,,,11.872042468
1715664056194239004,-0.012,,,,11.879736696
1715664056201933232,-0.004,,,,11.887430924
1715664056209627460,0.002,,,,11.895125152
1715664056217321688,0.009,,,,11.90281938
1715664056225015916,0.017,,,,11.910513608
1715664056232710144,0.024,,,,11.918207836
1715664056240404372,0.024,,,,11.925902064
1715664056248098600,0.019,,,,11.933596292
1715664056255792828,0.012,,,,11.94129052
1715664056263487056,0.014,,,,11.948984748
1715664056271181284,0.021,,,,11.956678976
1715664056278875512,0.021,,,,11.964373204
1715664056286569740,0.021,,,,11.972067432
1715664056294263968,0.024,,,,11.97976166
1715664056301958196,0.019,,,,11.987455888
1715664056309652424,0.019,,,,11.995150116
1715664056317346652,0.019,,,,12.002844344
1715664056325040880,0.021,,,,12.010538572
1715664056332735108,0.029,,,,12.0182328
1715664056340429336,0.031,,,,12.025927028
1715664056348123564,0.029,,,,12.033621256
1715664056355817792,0.024,,,,12.041315484
1715664056363512020,0.024,,,,12.049009712
1715664056371206248,0.029,,,,12.05670394
1715664056378900476,0.034,,,,12.064398168
1715664056386594704,0.036,,,,12.072092396
1715664056394288932,0.026,,,,12.079786624
1715664056401983160,0.019,,,,12.087480852
1715664056409677388,0.029,,,,12.09517508
1715664056417371616,0.051,,,,12.102869308
1715664056425065844,0.068,,,,12.110563536
1715664056432760072,0.073,,,,12.118257764
1715664056440454300,0.085,,,,12.125951992
1715664056448148528,0.09,,,,12.13364622
1715664056455842756,0.065,,,,12.141340448
1715664056463536984,0.051,,,,12.149034676
1715664056471231212,0.056,,,,12.156728904
1715664056478925440,0.058,,,,12.164423132
1715664056486619668,0.048,,,,12.17211736
1715664056494313896,0.043,,,,12.179811588
1715664056502008124,0.053,,,,12.187505816
1715664056509702352,0.063,,,,12.195200044
1715664056517396580,0.077,,,,12.202894272
1715664056525090808,0.107,,,,12.2105885
1715664056532785036,0.16,,,,12.218282728
1715664056540479264,0.329,,,,12.225976956
1715664056548173492,0.675,,,,12.233671184
1715664056555867720,0.921,,,,12.241365412
1715664056563561948,0.485,,,,12.24905964
1715664056571256176,-0.387,,,,12.256753868
1715664056578950404,-0.463,,,,12.264448096
1715664056586644632,0.109,,,,12.272142324
1715664056594338860,0.204,,,,12.279836552
1715664056602033088,0.031,,,,12.28753078
1715664056609727316,0.102,,,,12.295225008
1715664056617421544,0.16,,,,12.302919236
1715664056625115772,0.119,,,,12.310613464
1715664056632810000,0.131,,,,12.318307692
1715664056640504228,0.173,,,,12.32600192
1715664056648198456,0.185,,,,12.333696148
1715664056655892684,0.202,,,,12.341390376
1715664056663586912,0.226,,,,12.349084604
1715664056671281200,0.243,85.0,679.0,,12.356778892
1715664056678975289,0.265,,678.0,,12.364472981
1715664056686669378,0.287,,,,12.37216707
1715664056694363467,0.297,,,,12.379861159
1715664056702057556,0.314,,,,12.387555248
1715664056709751645,0.343,,,,12.395249337
1715664056717445734,0.363,,,,12.402943426
1715664056725139823,0.365,,,,12.410637515
1715664056732833912,0.355,,,,12.418331604
1715664056740528001,0.353,,,,12.426025693
1715664056748222090,0.336,,,,12.433719782
1715664056755916179,0.29,,,,12.441413871
1715664056763610268,0.246,,,,12.44910796
1715664056771304357,0.212,,,,12.456802049
1715664056778998446,0.158,,,,12.464496138
1715664056786692535,0.095,,,,12.472190227
1715664056794386624,0.041,,,,12.479884316
1715664056802080713,-0.007,,,,12.487578405
1715664056809774802,-0.051,,,,12.495272494
1715664056817468891,-0.077,,,,12.502966583
1715664056825162980,-0.09,,,,12.510660672
1715664056832857069,-0.092,,,,12.518354761
1715664056840551158,-0.09,,,,12.52604885
1715664056848245247,-0.085,,,,12.533742939
1715664056855939336,-0.087,,,,12.541437028
1715664056863633425,-0.082,,,,12.549131117
1715664056871327514,-0.073,,,,12.556825206
1715664056879021603,-0.065,,,,12.564519295
1715664056886715692,-0.056,,,,12.572213384
1715664056894409781,-0.043,,,,12.579907473
1715664056902103870,-0.038,,,,12.587601562
1715664056909797959,-0.034,,,,12.595295651
1715664056917492048,-0.024,,,,12.60298974
1715664056925186137,-0.012,,,,12.610683829
1715664056932880226,-0.004,,,,12.618377918
1715664056940574315,0.0,,,,12.626072007
1715664056948268404,-0.002,,,,12.633766096
1715664056955962493,-0.007,,,,12.641460185
1715664056963656582,-0.002,,,,12.649154274
1715664056971350671,0.012,,,,12.656848363
1715664056979044760,0.009,,,,12.664542452
1715664056986738849,-0.007,,,,12.672236541
1715664056994432938,-0.017,,,,12.67993063
1715664057002127027,-0.009,,,,12.687624719
1715664057009821116,-0.004,,,,12.695318808
1715664057017515205,-0.004,,,,12.703012897
1715664057025209294,0.0,,,,12.710706986
1715664057032903383,0.002,,,,12.718401075
1715664057040597472,0.0,,,,12.726095164
1715664057048291561,0.0,,,,12.733789253
1715664057055985650,0.004,,,,12.741483342
1715664057063679739,0.014,,,,12.749177431
1715664057071373828,0.019,,,,12.75687152
1715664057079067917,0.021,,,,12.764565609
1715664057086762006,0.026,,,,12.772259698
1715664057094456095,0.024,,,,12.779953787
1715664057102150184,0.017,,,,12.787647876
1715664057109844273,0.014,,,,12.795341965
1715664057117538362,0.019,,,,12.803036054
1715664057125232451,0.031,,,,12.810730143
1715664057132926540,0.048,,,,12.818424232
1715664057140620629,0.06,,,,12.826118321
1715664057148314718,0.07,,,,12.83381241
1715664057156008807,0.08,,,,12.841506499
1715664057163702896,0.077,,,,12.849200588
1715664057171396985,0.056,,,,12.856894677
1715664057179091074,0.048,,,,12.864588766
1715664057186785163,0.053,,,,12.872282855
1715664057194479252,0.056,,,,12.879976944
1715664057202173341,0.058,,,,12.887671033
1715664057209867430,0.06,,,,12.895365122
1715664057217561519,0.065,,,,12.903059211
1715664057225255608,0.07,,,,12.9107533
1715664057232949730,0.087,,,,12.918447422
1715664057240643680,0.129,,,,12.926141372
1715664057248337630,0.207,,,,12.933835322
1715664057256031580,0.389,,,,12.941529272
1715664057263725530,0.6890000000000001,,,,12.949223222
1715664057271419480,0.767,,,,12.956917172
1715664057279113430,0.158,,,,12.964611122
1715664057286807380,-0.555,,,,12.972305072
1715664057294501330,-0.346,,,,12.979999022
1715664057302195280,0.173,,,,12.987692972
1715664057309889230,0.138,,,,12.995386922
1715664057317583180,0.038,,,,13.003080872
1715664057325277130,0.151,,,,13.010774822
1715664057332971080,0.173,,,,13.018468772
1715664057340665030,0.138,,,,13.026162722
1715664057348358980,0.17,,,,13.033856672
1715664057356052930,0.194,,,,13.041550622
1715664057363746880,0.197,,,,13.049244572
1715664057371440830,0.216,,,,13.056938522
1715664057379134780,0.241,,,,13.064632472
1715664057386828730,0.255,,,,13.072326422
1715664057394522680,0.275,,,,13.080020372
1715664057402216630,0.299,,,,13.087714322
1715664057409910580,0.324,,,,13.095408272
1715664057417604530,0.346,,,,13.103102222
1715664057425298480,0.365,,,,13.110796172
1715664057432992430,0.382,,,,13.118490122
1715664057440686380,0.392,,,,13.126184072
1715664057448380330,0.382,,,,13.133878022
1715664057456074280,0.355,,,,13.141571972
1715664057463768230,0.329,,,,13.149265922
1715664057471462180,0.299,,,,13.156959872
1715664057479156130,0.26,,,,13.164653822
1715664057486850080,0.214,,,,13.172347772
1715664057494544030,0.155,,,,13.180041722
1715664057502237980,0.09,,,,13.187735672
1715664057509931930,0.038,,,,13.195429622
1715664057517625880,0.0,,,,13.203123572
1715664057525319830,-0.029,,,,13.210817522
1715664057533013780,-0.048,,,,13.218511472
1715664057540707730,-0.056,,,,13.226205422
1715664057548401680,-0.06,,,,13.233899372
1715664057556095630,-0.06,,,,13.241593322
1715664057563789580,-0.051,,,,13.249287272
1715664057571483530,-0.043,,,,13.256981222
1715664057579177480,-0.036,,,,13.264675172
1715664057586871430,-0.029,,,,13.272369122
1715664057594565380,-0.026,,,,13.280063072
1715664057602259330,-0.021,,,,13.287757022
1715664057609953280,-0.004,,,,13.295450972
1715664057617647230,0.012,,,,13.303144922
1715664057625341180,0.019,,,,13.310838872
1715664057633035130,0.026,,,,13.318532822
1715664057640729080,0.029,,,,13.326226772
1715664057648423030,0.031,,,,13.333920722
1715664057656116980,0.029,,,,13.341614672
1715664057663810930,0.031,,,,13.349308622
1715664057671504880,0.034,,,,13.357002572
1715664057679198830,0.036,,,,13.364696522
1715664057686892780,0.038,,,,13.372390472
1715664057694586730,0.031,,,,13.380084422
1715664057702280680,0.029,,,,13.387778372
1715664057709974630,0.031,,,,13.395472322
1715664057717668580,0.031,,,,13.403166272
1715664057725362530,0.031,,,,13.410860222
1715664057733056480,0.031,,,,13.418554172
1715664057740750430,0.034,,,,13.426248122
1715664057748444380,0.031,,,,13.433942072
1715664057756138330,0.029,,,,13.441636022
1715664057763832280,0.031,,,,13.449329972
1715664057771526230,0.038,,,,13.457023922
1715664057779220180,0.038,,,,13.464717872
1715664057786914130,0.041,,,,13.472411822
1715664057794608088,0.046,85.0,683.0,,13.48010578
1715664057802302107,0.048,,,,13.487799799
1715664057809996126,0.046,,,,13.495493818
1715664057817690145,0.046,,,,13.503187837
1715664057825384164,0.046,,,,13.510881856
1715664057833078183,0.046,,,,13.518575875
1715664057840772202,0.046,,,,13.526269894
1715664057848466221,0.038,,,,13.533963913
1715664057856160240,0.036,,,,13.541657932
1715664057863854259,0.041,,,,13.549351951
1715664057871548278,0.036,,,,13.55704597
1715664057879242297,0.031,,,,13.564739989
1715664057886936316,0.048,,,,13.572434008
1715664057894630335,0.065,,,,13.580128027
1715664057902324354,0.075,,,,13.587822046
1715664057910018373,0.087,,,,13.595516065
1715664057917712392,0.104,,,,13.603210084
1715664057925406411,0.092,,,,13.610904103
1715664057933100430,0.068,,,,13.618598122
1715664057940794449,0.065,,,,13.626292141
1715664057948488468,0.07,,,,13.63398616
1715664057956182487,0.07,,,,13.641680179
1715664057963876506,0.073,,,,13.649374198
1715664057971570525,0.077,,,,13.657068217
1715664057979264544,0.085,,,,13.664762236
1715664057986958563,0.087,,,,13.672456255
1715664057994652582,0.099,,,,13.680150274
1715664058002346601,0.126,,,,13.687844293
1715664058010040620,0.207,,,,13.695538312
1715664058017734639,0.428,,,,13.703232331
1715664058025428658,0.767,,,,13.71092635
1715664058033122677,0.836,,,,13.718620369
1715664058040816696,0.182,,,,13.726314388
1715664058048510715,-0.531,,,,13.734008407
1715664058056204734,-0.265,,,,13.741702426
1715664058063898753,0.231,,,,13.749396445
1715664058071592772,0.134,,,,13.757090464
1715664058079286791,0.036,,,,13.764784483
1715664058086980810,0.158,,,,13.772478502
1715664058094674829,0.163,,,,13.780172521
1715664058102368848,0.124,,,,13.78786654
1715664058110062867,0.168,,,,13.795560559
1715664058117756886,0.197,,,,13.803254578
1715664058125450905,0.194,,,,13.810948597
1715664058133144924,0.219,,,,13.818642616
1715664058140838943,0.246,,,,13.826336635
1715664058148532962,0.255,,,,13.834030654
1715664058156226981,0.272,,,,13.841724673
1715664058163921000,0.299,,,,13.849418692
1715664058171615019,0.324,,,,13.857112711
1715664058179309038,0.343,,,,13.86480673
1715664058187003057,0.363,,,,13.872500749
1715664058194697076,0.37,,,,13.880194768
1715664058202391095,0.368,,,,13.887888787
1715664058210085114,0.365,,,,13.895582806
1715664058217779133,0.35,,,,13.903276825
1715664058225473152,0.324,,,,13.910970844
1715664058233167171,0.294,,,,13.918664863
1715664058240861190,0.265,,,,13.926358882
1715664058248555209,0.219,,,,13.934052901
1715664058256249228,0.165,,,,13.94174692
1715664058263943247,0.114,,,,13.949440939
1715664058271637266,0.065,,,,13.957134958
1715664058279331285,0.024,,,,13.964828977
1715664058287025304,-0.007,,,,13.972522996
1715664058294719323,-0.031,,,,13.980217015
1715664058302413342,-0.043,,,,13.987911034
1715664058310107361,-0.043,,,,13.995605053
1715664058317801380,-0.046,,,,14.003299072
1715664058325495399,-0.048,,,,14.010993091
1715664058333189418,-0.051,,,,14.01868711
1715664058340883437,-0.051,,,,14.026381129
1715664058348577456,-0.043,,,,14.034075148
1715664058356271534,-0.034,,,,14.041769226
1715664058363965832,-0.019,,,,14.049463524
1715664058371660130,-0.007,,,,14.057157822
1715664058379354428,-0.002,,,,14.06485212
1715664058387048726,0.004,,,,14.072546418
1715664058394743024,0.012,,,,14.080240716
1715664058402437322,0.014,,,,14.087935014
1715664058410131620,0.017,,,,14.095629312
1715664058417825918,0.024,,,,14.10332361
1715664058425520216,0.029,,,,14.111017908
1715664058433214514,0.029,,,,14.118712206
1715664058440908812,0.029,,,,14.126406504
1715664058448603110,0.024,,,,14.134100802
1715664058456297408,0.017,,,,14.1417951
1715664058463991706,0.026,,,,14.149489398
1715664058471686004,0.029,,,,14.157183696
1715664058479380302,0.024,,,,14.164877994
1715664058487074600,0.024,,,,14.172572292
1715664058494768898,0.029,,,,14.18026659
1715664058502463196,0.026,,,,14.187960888
1715664058510157494,0.019,,,,14.195655186
1715664058517851792,0.019,,,,14.203349484
1715664058525546090,0.021,,,,14.211043782
1715664058533240388,0.021,,,,14.21873808
1715664058540934686,0.031,,,,14.226432378
1715664058548628984,0.036,,,,14.234126676
1715664058556323282,0.034,,,,14.241820974
1715664058564017580,0.034,,,,14.249515272
1715664058571711878,0.038,,,,14.25720957
1715664058579406176,0.038,,,,14.264903868
1715664058587100474,0.031,,,,14.272598166
1715664058594794772,0.038,,,,14.280292464
1715664058602489070,0.046,,,,14.287986762
1715664058610183368,0.046,,,,14.29568106
1715664058617877666,0.048,,,,14.303375358
1715664058625571964,0.058,,,,14.311069656
1715664058633266262,0.063,,,,14.318763954
1715664058640960560,0.058,,,,14.326458252
1715664058648654858,0.051,,,,14.33415255
1715664058656349156,0.046,,,,14.341846848
1715664058664043454,0.048,,,,14.349541146
1715664058671737752,0.068,,,,14.357235444
1715664058679432050,0.087,,,,14.364929742
1715664058687126348,0.099,,,,14.37262404
1715664058694820646,0.116,,,,14.380318338
1715664058702514944,0.116,,,,14.388012636
1715664058710209242,0.09,,,,14.395706934
1715664058717903540,0.073,,,,14.403401232
1715664058725597838,0.077,,,,14.41109553
1715664058733292136,0.08,,,,14.418789828
1715664058740986434,0.082,,,,14.426484126
1715664058748680732,0.087,,,,14.434178424
1715664058756375030,0.092,,,,14.441872722
1715664058764069328,0.095,,,,14.44956702
1715664058771763626,0.102,,,,14.457261318
1715664058779457924,0.126,,,,14.464955616
1715664058787152222,0.168,,,,14.472649914
1715664058794846520,0.302,,,,14.480344212
1715664058802540818,0.623,,,,14.48803851
1715664058810235116,0.948,,,,14.495732808
1715664058817929414,0.6940000000000001,,,,14.503427106
1715664058825623712,-0.185,,,,14.511121404
1715664058833318010,-0.536,,,,14.518815702
1715664058841012308,0.004,,,,14.52651
1715664058848706606,0.253,,,,14.534204298
1715664058856400904,0.056,,,,14.541898596
1715664058864095202,0.09,,,,14.549592894
1715664058871789500,0.192,,,,14.557287192
1715664058879483798,0.151,,,,14.56498149
1715664058887178096,0.146,,,,14.572675788
1715664058894872394,0.197,,,,14.580370086
1715664058902566692,0.204,,,,14.588064384
1715664058910260990,0.207,,,,14.595758682
1715664058917955322,0.241,86.0,712.0,,14.603453014
1715664058925649272,0.26,,,,14.611146964
1715664058933343222,0.27,,,,14.618840914
1715664058941037172,0.292,,,,14.626534864
1715664058948731122,0.309,,,,14.634228814
1715664058956425072,0.324,,,,14.641922764
1715664058964119022,0.35,,,,14.649616714
1715664058971812972,0.37,,,,14.657310664
1715664058979506922,0.377,,,,14.665004614
1715664058987200872,0.372,,,,14.672698564
1715664058994894822,0.355,,,,14.680392514
1715664059002588772,0.329,,,,14.688086464
1715664059010282722,0.29,,,,14.695780414
1715664059017976672,0.246,,,,14.703474364
1715664059025670622,0.212,,,,14.711168314
1715664059033364572,0.168,,,,14.718862264
1715664059041058522,0.112,,,,14.726556214
1715664059048752472,0.056,,,,14.734250164
1715664059056446422,0.014,,,,14.741944114
1715664059064140372,-0.017,,,,14.749638064
1715664059071834322,-0.051,,,,14.757332014
1715664059079528272,-0.073,,,,14.765025964
1715664059087222222,-0.077,,,,14.772719914
1715664059094916172,-0.075,,,,14.780413864
1715664059102610122,-0.07,,,,14.788107814
1715664059110304072,-0.065,,,,14.795801764
1715664059117998022,-0.056,,,,14.803495714
1715664059125691972,-0.046,,,,14.811189664
1715664059133385922,-0.036,,,,14.818883614
1715664059141079872,-0.021,,,,14.826577564
1715664059148773822,-0.009,,,,14.834271514
1715664059156467772,0.0,,,,14.841965464
1715664059164161722,0.009,,,,14.849659414
1715664059171855672,0.017,,,,14.857353364
1715664059179549622,0.026,,,,14.865047314
1715664059187243572,0.041,,,,14.872741264
1715664059194937522,0.046,,,,14.880435214
1715664059202631472,0.043,,,,14.888129164
1715664059210325422,0.046,,,,14.895823114
1715664059218019372,0.048,,,,14.903517064
1715664059225713322,0.053,,,,14.911211014
1715664059233407272,0.053,,,,14.918904964
1715664059241101222,0.053,,,,14.926598914
1715664059248795172,0.053,,,,14.934292864
1715664059256489122,0.048,,,,14.941986814
1715664059264183072,0.046,,,,14.949680764
1715664059271877022,0.046,,,,14.957374714
1715664059279570972,0.048,,,,14.965068664
1715664059287264922,0.051,,,,14.972762614
1715664059294958872,0.046,,,,14.980456564
1715664059302652822,0.048,,,,14.988150514
1715664059310346772,0.051,,,,14.995844464
1715664059318040722,0.038,,,,15.003538414
1715664059325734672,0.034,,,,15.011232364
1715664059333428622,0.046,,,,15.018926314
1715664059341122572,0.051,,,,15.026620264
1715664059348816522,0.046,,,,15.034314214
1715664059356510472,0.046,,,,15.042008164
1715664059364204422,0.051,,,,15.049702114
1715664059371898372,0.051,,,,15.057396064
1715664059379592322,0.056,,,,15.065090014
1715664059387286272,0.06,,,,15.072783964
1715664059394980222,0.058,,,,15.080477914
1715664059402674172,0.056,,,,15.088171864
1715664059410368122,0.058,,,,15.095865814
1715664059418062072,0.065,,,,15.103559764
1715664059425756022,0.068,,,,15.111253714
1715664059433449972,0.068,,,,15.118947664
1715664059441143922,0.06,,,,15.126641614
1715664059448837872,0.046,,,,15.134335564
1715664059456531822,0.051,,,,15.142029514
1715664059464225772,0.08,,,,15.149723464
1715664059471919722,0.099,,,,15.157417414
1715664059479613682,0.104,85.0,713.0,,15.165111374
1715664059487307910,0.114,,762.0,,15.172805602
1715664059495002138,0.109,,,,15.18049983
1715664059502696366,0.08,,,,15.188194058
1715664059510390594,0.058,,,,15.195888286
1715664059518084822,0.058,,,,15.203582514
1715664059525779050,0.063,,,,15.211276742
1715664059533473278,0.063,,,,15.21897097
1715664059541167506,0.063,,,,15.226665198
1715664059548861734,0.058,,,,15.234359426
1715664059556555962,0.053,,,,15.242053654
1715664059564250190,0.063,,,,15.249747882
1715664059571944418,0.085,,,,15.25744211
1715664059579638646,0.131,,,,15.265136338
1715664059587332874,0.326,,,,15.272830566
1715664059595027102,0.723,,,,15.280524794
1715664059602721330,0.989,,,,15.288219022
1715664059610415558,0.494,,,,15.29591325
1715664059618109786,-0.436,,,,15.303607478
1715664059625804014,-0.509,,,,15.311301706
1715664059633498242,0.077,,,,15.318995934
1715664059641192470,0.16,,,,15.326690162
1715664059648886698,-0.004,,,,15.33438439
1715664059656580926,0.095,,,,15.342078618
1715664059664275154,0.158,,,,15.349772846
1715664059671969382,0.107,,,,15.357467074
1715664059679663610,0.126,,,,15.365161302
1715664059687357838,0.168,,,,15.37285553
1715664059695052066,0.165,,,,15.380549758
1715664059702746294,0.175,,,,15.388243986
1715664059710440522,0.202,,,,15.395938214
1715664059718134750,0.219,,,,15.403632442
1715664059725828978,0.241,,,,15.41132667
1715664059733523206,0.265,,,,15.419020898
1715664059741217434,0.285,,,,15.426715126
1715664059748911662,0.302,,,,15.434409354
1715664059756605890,0.324,,,,15.442103582
1715664059764300118,0.343,,,,15.44979781
1715664059771994346,0.35,,,,15.457492038
1715664059779688574,0.346,,,,15.465186266
1715664059787382802,0.331,,,,15.472880494
1715664059795077030,0.304,,,,15.480574722
1715664059802771258,0.272,,,,15.48826895
1715664059810465486,0.233,,,,15.495963178
1715664059818159714,0.19,,,,15.503657406
1715664059825853942,0.141,,,,15.511351634
1715664059833548170,0.09,,,,15.519045862
1715664059841242398,0.043,,,,15.52674009
1715664059848936626,0.0,,,,15.534434318
1715664059856630854,-0.036,,,,15.542128546
1715664059864325082,-0.056,,,,15.549822774
1715664059872019310,-0.065,,,,15.557517002
1715664059879713538,-0.07,,,,15.56521123
1715664059887407766,-0.065,,,,15.572905458
1715664059895101994,-0.056,,,,15.580599686
1715664059902796222,-0.053,,,,15.588293914
1715664059910490450,-0.056,,,,15.595988142
1715664059918184678,-0.048,,,,15.60368237
1715664059925878906,-0.029,,,,15.611376598
1715664059933573134,-0.014,,,,15.619070826
1715664059941267362,-0.004,,,,15.626765054
1715664059948961590,0.002,,,,15.634459282
1715664059956655818,0.014,,,,15.64215351
1715664059964350046,0.026,,,,15.649847738
1715664059972044274,0.031,,,,15.657541966
1715664059979738502,0.041,,,,15.665236194
1715664059987432730,0.048,,,,15.672930422
1715664059995126958,0.043,,,,15.68062465
1715664060002821186,0.038,,,,15.688318878
1715664060010515414,0.038,,,,15.696013106
1715664060018209642,0.031,,,,15.703707334
1715664060025903870,0.026,,,,15.711401562
1715664060033598098,0.034,,,,15.71909579
1715664060041292386,0.038,,,,15.726790078
1715664060048986475,0.031,,,,15.734484167
1715664060056680564,0.021,,,,15.742178256
1715664060064374653,0.019,,,,15.749872345
1715664060072068742,0.024,,,,15.757566434
1715664060079762831,0.024,,,,15.765260523
1715664060087456920,0.024,,,,15.772954612
1715664060095151009,0.024,,,,15.780648701
1715664060102845098,0.014,,,,15.78834279
1715664060110539187,0.014,,,,15.796036879
1715664060118233276,0.026,,,,15.803730968
1715664060125927365,0.029,,,,15.811425057
1715664060133621454,0.026,,,,15.819119146
1715664060141315543,0.029,,,,15.826813235
1715664060149009632,0.034,,,,15.834507324
1715664060156703721,0.031,,,,15.842201413
1715664060164397810,0.034,,,,15.849895502
1715664060172091899,0.041,,,,15.857589591
1715664060179785988,0.048,,,,15.86528368
1715664060187480077,0.048,,,,15.872977769
1715664060195174166,0.053,,,,15.880671858
1715664060202868255,0.053,,,,15.888365947
1715664060210562344,0.041,,,,15.896060036
1715664060218256433,0.036,,,,15.903754125
1715664060225950522,0.053,,,,15.911448214
1715664060233644611,0.07,,,,15.919142303
1715664060241338700,0.082,,,,15.926836392
1715664060249032789,0.095,,,,15.934530481
1715664060256726878,0.104,,,,15.94222457
1715664060264420967,0.097,,,,15.949918659
1715664060272115056,0.07,,,,15.957612748
1715664060279809145,0.056,,,,15.965306837
1715664060287503234,0.063,,,,15.973000926
1715664060295197323,0.068,,,,15.980695015
1715664060302891412,0.063,,,,15.988389104
1715664060310585501,0.065,,,,15.996083193
1715664060318279590,0.07,,,,16.003777282
1715664060325973679,0.073,,,,16.011471371
1715664060333667768,0.09,,,,16.01916546
1715664060341361857,0.126,,,,16.026859549
1715664060349055946,0.197,,,,16.034553638
1715664060356750035,0.428,,,,16.042247727
1715664060364444124,0.8180000000000001,,,,16.049941816
1715664060372138213,0.928,,,,16.057635905
1715664060379832302,0.253,,,,16.065329994
1715664060387526391,-0.553,,,,16.073024083
1715664060395220480,-0.365,,,,16.080718172
1715664060402914569,0.17,,,,16.088412261
1715664060410608658,0.121,,,,16.09610635
1715664060418302747,0.012,,,,16.103800439
1715664060425996836,0.136,,,,16.111494528
1715664060433690925,0.158,,,,16.119188617
1715664060441385014,0.119,,,,16.126882706
1715664060449079103,0.16,,,,16.134576795
1715664060456773192,0.187,,,,16.142270884
1715664060464467281,0.18,,,,16.149964973
1715664060472161370,0.204,,,,16.157659062
1715664060479855459,0.236,,,,16.165353151
1715664060487549548,0.251,,,,16.17304724
1715664060495243637,0.27,,,,16.180741329
1715664060502937726,0.292,,,,16.188435418
1715664060510631815,0.309,,,,16.196129507
1715664060518325904,0.326,,,,16.203823596
1715664060526019993,0.343,,,,16.211517685
1715664060533714082,0.355,,,,16.219211774
1715664060541408171,0.365,,,,16.226905863
1715664060549102260,0.358,,,,16.234599952
1715664060556796349,0.333,,,,16.242294041
1715664060564490438,0.311,,,,16.24998813
1715664060572184527,0.285,,,,16.257682219
1715664060579878616,0.246,,,,16.265376308
1715664060587572705,0.204,,,,16.273070397
1715664060595266794,0.151,,,,16.280764486
1715664060602960916,0.092,85.0,781.0,,16.288458608
1715664060610654866,0.041,,,,16.296152558
1715664060618348816,0.004,,,,16.303846508
1715664060626042766,-0.026,,,,16.311540458
1715664060633736716,-0.046,,,,16.319234408
1715664060641430666,-0.058,,,,16.326928358
1715664060649124616,-0.068,,,,16.334622308
1715664060656818566,-0.07,,,,16.342316258
1715664060664512516,-0.058,,,,16.350010208
1715664060672206466,-0.048,,,,16.357704158
1715664060679900416,-0.041,,,,16.365398108
1715664060687594366,-0.034,,,,16.373092058
1715664060695288316,-0.031,,,,16.380786008
1715664060702982266,-0.026,,,,16.388479958
1715664060710676216,-0.012,,,,16.396173908
1715664060718370166,0.007,,,,16.403867858
1715664060726064116,0.017,,,,16.411561808
1715664060733758066,0.021,,,,16.419255758
1715664060741452016,0.029,,,,16.426949708
1715664060749145966,0.034,,,,16.434643658
1715664060756839916,0.038,,,,16.442337608
1715664060764533866,0.048,,,,16.450031558
1715664060772227816,0.056,,,,16.457725508
1715664060779921766,0.056,,,,16.465419458
1715664060787615716,0.053,,,,16.473113408
1715664060795309666,0.046,,,,16.480807358
1715664060803003616,0.041,,,,16.488501308
1715664060810697566,0.043,,,,16.496195258
1715664060818391516,0.046,,,,16.503889208
1715664060826085466,0.048,,,,16.511583158
1715664060833779416,0.048,,,,16.519277108
1715664060841473366,0.051,,,,16.526971058
1715664060849167316,0.048,,,,16.534665008
1715664060856861266,0.051,,,,16.542358958
1715664060864555216,0.053,,,,16.550052908
1715664060872249166,0.051,,,,16.557746858
1715664060879943116,0.053,,,,16.565440808
1715664060887637066,0.058,,,,16.573134758
1715664060895331016,0.058,,,,16.580828708
1715664060903024966,0.06,,,,16.588522658
1715664060910718916,0.063,,,,16.596216608
1715664060918412866,0.065,,,,16.603910558
1715664060926106816,0.068,,,,16.611604508
1715664060933800766,0.073,,,,16.619298458
1715664060941494716,0.075,,,,16.626992408
1715664060949188666,0.075,,,,16.634686358
1715664060956882616,0.075,,,,16.642380308
1715664060964576566,0.077,,,,16.650074258
1715664060972270516,0.07,,,,16.657768208
1715664060979964466,0.056,,,,16.665462158
1715664060987658416,0.053,,,,16.673156108
1715664060995352366,0.068,,,,16.680850058
1715664061003046316,0.087,,,,16.688544008
1715664061010740266,0.097,,,,16.696237958
1715664061018434216,0.107,,,,16.703931908
1715664061026128166,0.116,,,,16.711625858
1715664061033822116,0.095,,,,16.719319808
1715664061041516066,0.06,,,,16.727013758
1715664061049210016,0.051,,,,16.734707708
1715664061056903966,0.056,,,,16.742401658
1715664061064597916,0.058,,,,16.750095608
1715664061072291866,0.06,,,,16.757789558
1715664061079985816,0.07,,,,16.765483508
1715664061087679766,0.08,,,,16.773177458
1715664061095373716,0.082,,,,16.780871408
1715664061103067666,0.09,,,,16.788565358
1715664061110761616,0.114,,,,16.796259308
1715664061118455566,0.204,,,,16.803953258
1715664061126149516,0.475,,,,16.811647208
1715664061133843466,0.86,,,,16.819341158
1715664061141537416,0.896,,,,16.827035108
1715664061149231366,0.153,,,,16.834729058
1715664061156925316,-0.5720000000000001,,,,16.842423008
1715664061164619274,-0.27,,,,16.850116966
1715664061172313642,0.212,,,,16.857811334
1715664061180008010,0.097,,,,16.865505702
1715664061187702378,0.019,,,,16.87320007
1715664061195396746,0.148,,,,16.880894438
1715664061203091114,0.148,,,,16.888588806
1715664061210785482,0.112,,,,16.896283174
1715664061218479850,0.163,,,,16.903977542
1715664061226174218,0.192,,,,16.91167191
1715664061233868586,0.187,,,,16.919366278
1715664061241562954,0.212,,,,16.927060646
1715664061249257322,0.226,,,,16.934755014
1715664061256951690,0.236,,,,16.942449382
1715664061264646058,0.26,,,,16.95014375
1715664061272340426,0.292,,,,16.957838118
1715664061280034794,0.311,,,,16.965532486
1715664061287729162,0.331,,,,16.973226854
1715664061295423530,0.346,,,,16.980921222
1715664061303117898,0.363,,,,16.98861559
1715664061310812266,0.372,,,,16.996309958
1715664061318506634,0.37,,,,17.004004326
1715664061326201002,0.355,,,,17.011698694
1715664061333895370,0.329,,,,17.019393062
1715664061341589738,0.297,,,,17.02708743
1715664061349284106,0.26,,,,17.034781798
1715664061356978474,0.219,,,,17.042476166
1715664061364672842,0.163,,,,17.050170534
1715664061372367210,0.102,,,,17.057864902
1715664061380061578,0.053,,,,17.06555927
1715664061387755946,0.012,,,,17.073253638
1715664061395450314,-0.021,,,,17.080948006
1715664061403144682,-0.043,,,,17.088642374
1715664061410839050,-0.053,,,,17.096336742
1715664061418533418,-0.053,,,,17.10403111
1715664061426227786,-0.051,,,,17.111725478
1715664061433922154,-0.046,,,,17.119419846
1715664061441616522,-0.036,,,,17.127114214
1715664061449310890,-0.031,,,,17.134808582
1715664061457005258,-0.021,,,,17.14250295
1715664061464699626,-0.012,,,,17.150197318
1715664061472393994,-0.002,,,,17.157891686
1715664061480088362,0.004,,,,17.165586054
1715664061487782730,0.017,,,,17.173280422
1715664061495477098,0.026,,,,17.18097479
1715664061503171466,0.036,,,,17.188669158
1715664061510865834,0.046,,,,17.196363526
1715664061518560202,0.053,,,,17.204057894
1715664061526254570,0.053,,,,17.211752262
1715664061533948938,0.046,,,,17.21944663
1715664061541643306,0.036,,,,17.227140998
1715664061549337674,0.036,,,,17.234835366
1715664061557032042,0.041,,,,17.242529734
1715664061564726410,0.046,,,,17.250224102
1715664061572420778,0.043,,,,17.25791847
1715664061580115146,0.043,,,,17.265612838
1715664061587809514,0.043,,,,17.273307206
1715664061595503882,0.043,,,,17.281001574
1715664061603198250,0.043,,,,17.288695942
1715664061610892618,0.043,,,,17.29639031
1715664061618586986,0.046,,,,17.304084678
1715664061626281354,0.046,,,,17.311779046
1715664061633975722,0.048,,,,17.319473414
1715664061641670090,0.053,,,,17.327167782
1715664061649364458,0.056,,,,17.33486215
1715664061657058826,0.053,,,,17.342556518
1715664061664753194,0.053,,,,17.350250886
1715664061672447562,0.06,,,,17.357945254
1715664061680141930,0.063,,,,17.365639622
1715664061687836298,0.063,,,,17.37333399
1715664061695530666,0.065,,,,17.381028358
1715664061703225034,0.065,,,,17.388722726
1715664061710919402,0.065,,,,17.396417094
1715664061718613770,0.07,,,,17.404111462
1715664061726308150,0.075,84.0,791.0,,17.411805842
1715664061734002100,0.075,,,,17.419499792
1715664061741696050,0.065,,,,17.427193742
1715664061749390000,0.051,,,,17.434887692
1715664061757083950,0.046,,,,17.442581642
1715664061764777900,0.063,,,,17.450275592
1715664061772471850,0.087,,,,17.457969542
1715664061780165800,0.092,,,,17.465663492
1715664061787859750,0.095,,,,17.473357442
1715664061795553700,0.109,,,,17.481051392
1715664061803247650,0.099,,,,17.488745342
1715664061810941600,0.07,,,,17.496439292
1715664061818635550,0.068,,,,17.504133242
1715664061826329500,0.075,,,,17.511827192
1715664061834023450,0.075,,,,17.519521142
1715664061841717400,0.075,,,,17.527215092
1715664061849411350,0.073,,,,17.534909042
1715664061857105300,0.068,,,,17.542602992
1715664061864799250,0.07,,,,17.550296942
1715664061872493200,0.087,,,,17.557990892
1715664061880187150,0.114,,,,17.565684842
1715664061887881100,0.204,,,,17.573378792
1715664061895575050,0.482,,,,17.581072742
1715664061903269000,0.877,,,,17.588766692
1715664061910962950,0.916,,,,17.596460642
1715664061918656900,0.168,,,,17.604154592
1715664061926350850,-0.56,,,,17.611848542
1715664061934044800,-0.255,,,,17.619542492
1715664061941738750,0.214,,,,17.627236442
1715664061949432700,0.087,,,,17.634930392
1715664061957126650,0.009,,,,17.642624342
1715664061964820600,0.143,,,,17.650318292
1715664061972514550,0.143,,,,17.658012242
1715664061980208500,0.112,,,,17.665706192
1715664061987902450,0.158,,,,17.673400142
1715664061995596400,0.182,,,,17.681094092
1715664062003290350,0.18,,,,17.688788042
1715664062010984300,0.202,,,,17.696481992
1715664062018678250,0.231,,,,17.704175942
1715664062026372200,0.241,,,,17.711869892
1715664062034066150,0.255,,,,17.719563842
1715664062041760100,0.28,,,,17.727257792
1715664062049454050,0.297,,,,17.734951742
1715664062057148000,0.314,,,,17.742645692
1715664062064841950,0.341,,,,17.750339642
1715664062072535900,0.36,,,,17.758033592
1715664062080229850,0.365,,,,17.765727542
1715664062087923800,0.36,,,,17.773421492
1715664062095617750,0.348,,,,17.781115442
1715664062103311700,0.324,,,,17.788809392
1715664062111005650,0.292,,,,17.796503342
1715664062118699600,0.258,,,,17.804197292
1715664062126393550,0.212,,,,17.811891242
1715664062134087500,0.158,,,,17.819585192
1715664062141781450,0.104,,,,17.827279142
1715664062149475400,0.051,,,,17.834973092
1715664062157169350,0.007,,,,17.842667042
1715664062164863300,-0.026,,,,17.850360992
1715664062172557250,-0.051,,,,17.858054942
1715664062180251200,-0.06,,,,17.865748892
1715664062187945150,-0.058,,,,17.873442842
1715664062195639100,-0.058,,,,17.881136792
1715664062203333050,-0.051,,,,17.888830742
1715664062211027000,-0.041,,,,17.896524692
1715664062218720950,-0.036,,,,17.904218642
1715664062226414900,-0.031,,,,17.911912592
1715664062234108850,-0.017,,,,17.919606542
1715664062241802800,-0.007,,,,17.927300492
1715664062249496750,0.0,,,,17.934994442
1715664062257190700,0.007,,,,17.942688392
1715664062264884650,0.019,,,,17.950382342
1715664062272578600,0.024,,,,17.958076292
1715664062280272550,0.029,,,,17.965770242
1715664062287966508,0.041,,,,17.9734642
1715664062295660458,0.048,,,,17.98115815
1715664062303354408,0.043,,,,17.9888521
1715664062311048358,0.041,,,,17.99654605
1715664062318742308,0.051,,,,18.00424
1715664062326436258,0.056,,,,18.01193395
1715664062334130208,0.053,,,,18.0196279
1715664062341824158,0.053,,,,18.02732185
1715664062349518108,0.046,,,,18.0350158
1715664062357212058,0.036,,,,18.04270975
1715664062364906008,0.038,,,,18.0504037
1715664062372599958,0.043,,,,18.05809765
1715664062380293908,0.046,,,,18.0657916
1715664062387987858,0.046,,,,18.07348555
1715664062395681808,0.046,,,,18.0811795
1715664062403375758,0.041,,,,18.08887345
1715664062411069708,0.041,,,,18.0965674
1715664062418763658,0.051,,,,18.10426135
1715664062426457608,0.053,,,,18.1119553
1715664062434151558,0.053,,,,18.11964925
1715664062441845508,0.058,,,,18.1273432
1715664062449539458,0.053,,,,18.13503715
1715664062457233408,0.053,,,,18.1427311
1715664062464927358,0.063,,,,18.15042505
1715664062472621308,0.068,,,,18.158119
1715664062480315258,0.065,,,,18.16581295
1715664062488009208,0.065,,,,18.1735069
1715664062495703158,0.065,,,,18.18120085
1715664062503397108,0.056,,,,18.1888948
1715664062511091058,0.048,,,,18.19658875
1715664062518785008,0.051,,,,18.2042827
1715664062526478958,0.07,,,,18.21197665
1715664062534172908,0.082,,,,18.2196706
1715664062541866858,0.082,,,,18.22736455
1715664062549560808,0.092,,,,18.2350585
1715664062557254758,0.087,,,,18.24275245
1715664062564948708,0.063,,,,18.2504464
1715664062572642658,0.048,,,,18.25814035
1715664062580336608,0.053,,,,18.2658343
1715664062588030558,0.053,,,,18.27352825
1715664062595724508,0.053,,,,18.2812222
1715664062603418458,0.056,,,,18.28891615
1715664062611112408,0.06,,,,18.2966101
1715664062618806358,0.065,,,,18.30430405
1715664062626500308,0.077,,,,18.311998
1715664062634194258,0.114,,,,18.31969195
1715664062641888208,0.199,,,,18.3273859
1715664062649582158,0.446,,,,18.33507985
1715664062657276108,0.843,,,,18.3427738
1715664062664970058,0.957,,,,18.35046775
1715664062672664008,0.265,,,,18.3581617
1715664062680357958,-0.553,,,,18.36585565
1715664062688051908,-0.348,,,,18.3735496
1715664062695745858,0.177,,,,18.38124355
1715664062703439808,0.097,,,,18.3889375
1715664062711133758,-0.017,,,,18.39663145
1715664062718827708,0.114,,,,18.4043254
1715664062726521658,0.134,,,,18.41201935
1715664062734215608,0.092,,,,18.4197133
1715664062741909558,0.136,,,,18.42740725
1715664062749603508,0.165,,,,18.4351012
1715664062757297458,0.163,,,,18.44279515
1715664062764991408,0.175,,,,18.4504891
1715664062772685358,0.194,,,,18.45818305
1715664062780379308,0.216,,,,18.465877
1715664062788073258,0.241,,,,18.47357095
1715664062795767208,0.263,,,,18.4812649
1715664062803461158,0.287,,,,18.48895885
1715664062811155108,0.311,,,,18.4966528
1715664062818849058,0.333,,,,18.50434675
1715664062826543008,0.355,,,,18.5120407
1715664062834236958,0.368,,,,18.51973465
1715664062841930908,0.353,,,,18.5274286
1715664062849624868,0.331,82.0,768.0,,18.53512256
1715664062857319236,0.319,,769.0,,18.542816928
1715664062865013604,0.292,,,,18.550511296
1715664062872707972,0.251,,,,18.558205664
1715664062880402340,0.209,,,,18.565900032
1715664062888096708,0.168,,,,18.5735944
1715664062895791076,0.109,,,,18.581288768
1715664062903485444,0.048,,,,18.588983136
1715664062911179812,-0.002,,,,18.596677504
1715664062918874180,-0.041,,,,18.604371872
1715664062926568548,-0.063,,,,18.61206624
1715664062934262916,-0.073,,,,18.619760608
1715664062941957284,-0.077,,,,18.627454976
1715664062949651652,-0.087,,,,18.635149344
1715664062957346020,-0.082,,,,18.642843712
1715664062965040388,-0.07,,,,18.65053808
1715664062972734756,-0.073,,,,18.658232448
1715664062980429124,-0.065,,,,18.665926816
1715664062988123492,-0.046,,,,18.673621184
1715664062995817860,-0.038,,,,18.681315552
1715664063003512228,-0.043,,,,18.68900992
1715664063011206596,-0.041,,,,18.696704288
1715664063018900964,-0.029,,,,18.704398656
1715664063026595332,-0.007,,,,18.712093024
1715664063034289700,0.007,,,,18.719787392
1715664063041984068,0.004,,,,18.72748176
1715664063049678436,0.004,,,,18.735176128
1715664063057372804,0.0,,,,18.742870496
1715664063065067172,-0.002,,,,18.750564864
1715664063072761540,0.002,,,,18.758259232
1715664063080455908,0.007,,,,18.7659536
1715664063088150276,0.012,,,,18.773647968
1715664063095844644,0.012,,,,18.781342336
1715664063103539012,0.004,,,,18.789036704
1715664063111233380,0.009,,,,18.796731072
1715664063118927748,0.021,,,,18.80442544
1715664063126622116,0.019,,,,18.812119808
1715664063134316484,0.009,,,,18.819814176
1715664063142010852,0.007,,,,18.827508544
1715664063149705220,0.012,,,,18.835202912
1715664063157399588,0.017,,,,18.84289728
1715664063165093956,0.014,,,,18.850591648
1715664063172788324,0.017,,,,18.858286016
1715664063180482692,0.026,,,,18.865980384
1715664063188177060,0.034,,,,18.873674752
1715664063195871428,0.026,,,,18.88136912
1715664063203565796,0.017,,,,18.889063488
1715664063211260164,0.024,,,,18.896757856
1715664063218954532,0.029,,,,18.904452224
1715664063226648900,0.031,,,,18.912146592
1715664063234343268,0.048,,,,18.91984096
1715664063242037636,0.065,,,,18.927535328
1715664063249732004,0.075,,,,18.935229696
1715664063257426372,0.08,,,,18.942924064
1715664063265120740,0.068,,,,18.950618432
1715664063272815108,0.051,,,,18.9583128
1715664063280509476,0.046,,,,18.966007168
1715664063288203844,0.053,,,,18.973701536
1715664063295898212,0.056,,,,18.981395904
1715664063303592580,0.043,,,,18.989090272
1715664063311286948,0.043,,,,18.99678464
1715664063318981316,0.065,,,,19.004479008
1715664063326675684,0.08,,,,19.012173376
1715664063334370052,0.102,,,,19.019867744
1715664063342064420,0.141,,,,19.027562112
1715664063349758788,0.253,,,,19.03525648
1715664063357453156,0.543,,,,19.042950848
1715664063365147524,0.833,,,,19.050645216
1715664063372841892,0.604,,,,19.058339584
1715664063380536260,-0.219,,,,19.066033952
1715664063388230628,-0.602,,,,19.07372832
1715664063395924996,-0.114,,,,19.081422688
1715664063403619364,0.187,,,,19.089117056
1715664063411313744,0.053,,,,19.096811436
1715664063419007694,0.077,,,,19.104505386
1715664063426701644,0.175,,,,19.112199336
1715664063434395594,0.146,,,,19.119893286
1715664063442089544,0.131,,,,19.127587236
1715664063449783494,0.173,,,,19.135281186
1715664063457477444,0.18,,,,19.142975136
1715664063465171394,0.185,,,,19.150669086
1715664063472865344,0.224,,,,19.158363036
1715664063480559294,0.241,,,,19.166056986
1715664063488253244,0.246,,,,19.173750936
1715664063495947194,0.272,,,,19.181444886
1715664063503641144,0.299,,,,19.189138836
1715664063511335094,0.314,,,,19.196832786
1715664063519029044,0.343,,,,19.204526736
1715664063526722994,0.37,,,,19.212220686
1715664063534416944,0.377,,,,19.219914636
1715664063542110894,0.389,,,,19.227608586
1715664063549804844,0.382,,,,19.235302536
1715664063557498794,0.336,,,,19.242996486
1715664063565192744,0.294,,,,19.250690436
1715664063572886694,0.268,,,,19.258384386
1715664063580580644,0.238,,,,19.266078336
1715664063588274594,0.192,,,,19.273772286
1715664063595968544,0.131,,,,19.281466236
1715664063603662494,0.077,,,,19.289160186
1715664063611356444,0.041,,,,19.296854136
1715664063619050394,0.017,,,,19.304548086
1715664063626744344,-0.007,,,,19.312242036
1715664063634438294,-0.029,,,,19.319935986
1715664063642132244,-0.029,,,,19.327629936
1715664063649826194,-0.017,,,,19.335323886
1715664063657520144,-0.017,,,,19.343017836
1715664063665214094,-0.007,,,,19.350711786
1715664063672908044,0.012,,,,19.358405736
1715664063680601994,0.019,,,,19.366099686
1715664063688295944,0.029,,,,19.373793636
1715664063695989894,0.034,,,,19.381487586
1715664063703683844,0.038,,,,19.389181536
1715664063711377794,0.053,,,,19.396875486
1715664063719071744,0.073,,,,19.404569436
1715664063726765694,0.085,,,,19.412263386
1715664063734459644,0.092,,,,19.419957336
1715664063742153594,0.097,,,,19.427651286
1715664063749847544,0.092,,,,19.435345236
1715664063757541494,0.09,,,,19.443039186
1715664063765235444,0.102,,,,19.450733136
1715664063772929394,0.112,,,,19.458427086
1715664063780623344,0.107,,,,19.466121036
1715664063788317294,0.109,,,,19.473814986
1715664063796011244,0.112,,,,19.481508936
1715664063803705194,0.104,,,,19.489202886
1715664063811399144,0.099,,,,19.496896836
1715664063819093094,0.107,,,,19.504590786
1715664063826787044,0.104,,,,19.512284736
1715664063834480994,0.095,,,,19.519978686
1715664063842174944,0.097,,,,19.527672636
1715664063849868894,0.097,,,,19.535366586
1715664063857562844,0.095,,,,19.543060536
1715664063865256794,0.095,,,,19.550754486
1715664063872950744,0.099,,,,19.558448436
1715664063880644694,0.097,,,,19.566142386
1715664063888338644,0.09,,,,19.573836336
1715664063896032594,0.077,,,,19.581530286
1715664063903726544,0.08,,,,19.589224236
1715664063911420494,0.107,,,,19.596918186
1715664063919114444,0.129,,,,19.604612136
1715664063926808394,0.129,,,,19.612306086
1715664063934502344,0.136,,,,19.620000036
1715664063942196294,0.146,,,,19.627693986
1715664063949890244,0.124,,,,19.635387936
1715664063957584194,0.097,,,,19.643081886
1715664063965278144,0.092,,,,19.650775836
1715664063972972102,0.095,82.0,770.0,,19.658469794
1715664063980666191,0.095,,,,19.666163883
1715664063988360280,0.095,,,,19.673857972
1715664063996054369,0.092,,,,19.681552061
1715664064003748458,0.095,,,,19.68924615
1715664064011442547,0.102,,,,19.696940239
1715664064019136636,0.109,,,,19.704634328
1715664064026830725,0.148,,,,19.712328417
1715664064034524814,0.353,,,,19.720022506
1715664064042218903,0.782,,,,19.727716595
1715664064049912992,1.143,,,,19.735410684
1715664064057607081,0.789,,,,19.743104773
1715664064065301170,-0.202,,,,19.750798862
1715664064072995259,-0.531,,,,19.758492951
1715664064080689348,-0.004,,,,19.76618704
1715664064088383437,0.18,,,,19.773881129
1715664064096077526,-0.004,,,,19.781575218
1715664064103771615,0.041,,,,19.789269307
1715664064111465704,0.126,,,,19.796963396
1715664064119159793,0.092,,,,19.804657485
1715664064126853882,0.107,,,,19.812351574
1715664064134547971,0.155,,,,19.820045663
1715664064142242060,0.158,,,,19.827739752
1715664064149936149,0.16,,,,19.835433841
1715664064157630238,0.192,,,,19.84312793
1715664064165324327,0.216,,,,19.850822019
1715664064173018416,0.236,,,,19.858516108
1715664064180712505,0.268,,,,19.866210197
1715664064188406594,0.294,,,,19.873904286
1715664064196100683,0.314,,,,19.881598375
1715664064203794772,0.331,,,,19.889292464
1715664064211488861,0.346,,,,19.896986553
1715664064219182950,0.36,,,,19.904680642
1715664064226877039,0.36,,,,19.912374731
1715664064234571128,0.346,,,,19.92006882
1715664064242265217,0.319,,,,19.927762909
1715664064249959306,0.282,,,,19.935456998
1715664064257653395,0.246,,,,19.943151087
1715664064265347484,0.207,,,,19.950845176
1715664064273041573,0.155,,,,19.958539265
1715664064280735662,0.097,,,,19.966233354
1715664064288429751,0.041,,,,19.973927443
1715664064296123840,-0.012,,,,19.981621532
1715664064303817929,-0.048,,,,19.989315621
1715664064311512018,-0.075,,,,19.99700971
1715664064319206107,-0.087,,,,20.004703799
1715664064326900196,-0.09,,,,20.012397888
1715664064334594285,-0.082,,,,20.020091977
1715664064342288374,-0.082,,,,20.027786066
1715664064349982463,-0.08,,,,20.035480155
1715664064357676552,-0.07,,,,20.043174244
1715664064365370641,-0.065,,,,20.050868333
1715664064373064730,-0.056,,,,20.058562422
1715664064380758819,-0.038,,,,20.066256511
1715664064388452908,-0.026,,,,20.0739506
1715664064396146997,-0.017,,,,20.081644689
1715664064403841086,-0.004,,,,20.089338778
1715664064411535175,0.002,,,,20.097032867
1715664064419229264,0.004,,,,20.104726956
1715664064426923353,0.009,,,,20.112421045
1715664064434617442,0.019,,,,20.120115134
1715664064442311531,0.021,,,,20.127809223
1715664064450005620,0.017,,,,20.135503312
1715664064457699709,0.021,,,,20.143197401
1715664064465393798,0.029,,,,20.15089149
1715664064473087887,0.029,,,,20.158585579
1715664064480781976,0.031,,,,20.166279668
1715664064488476065,0.026,,,,20.173973757
1715664064496170154,0.009,,,,20.181667846
1715664064503864243,0.009,,,,20.189361935
1715664064511558332,0.024,,,,20.197056024
1715664064519252421,0.024,,,,20.204750113
1715664064526946510,0.017,,,,20.212444202
1715664064534640634,0.021,81.0,755.0,,20.220138326
1715664064542334862,0.029,,704.0,,20.227832554
1715664064550029090,0.029,,,,20.235526782
1715664064557723318,0.031,,,,20.24322101
1715664064565417546,0.031,,,,20.250915238
1715664064573111774,0.009,,,,20.258609466
1715664064580806002,-0.002,,,,20.266303694
1715664064588500230,0.014,,,,20.273997922
1715664064596194458,0.034,,,,20.28169215
1715664064603888686,0.041,,,,20.289386378
1715664064611582914,0.051,,,,20.297080606
1715664064619277142,0.065,,,,20.304774834
1715664064626971370,0.068,,,,20.312469062
1715664064634665598,0.046,,,,20.32016329
1715664064642359826,0.029,,,,20.327857518
1715664064650054054,0.026,,,,20.335551746
1715664064657748282,0.034,,,,20.343245974
1715664064665442510,0.041,,,,20.350940202
1715664064673136738,0.043,,,,20.35863443
1715664064680830966,0.048,,,,20.366328658
1715664064688525194,0.051,,,,20.374022886
1715664064696219422,0.06,,,,20.381717114
1715664064703913650,0.085,,,,20.389411342
1715664064711607878,0.148,,,,20.39710557
1715664064719302106,0.368,,,,20.404799798
1715664064726996334,0.792,,,,20.412494026
1715664064734690562,1.082,,,,20.420188254
1715664064742384790,0.589,,,,20.427882482
1715664064750079018,-0.389,,,,20.43557671
1715664064757773246,-0.519,,,,20.443270938
1715664064765467474,0.065,,,,20.450965166
1715664064773161702,0.168,,,,20.458659394
1715664064780855930,-0.007,,,,20.466353622
1715664064788550158,0.082,,,,20.47404785
1715664064796244386,0.153,,,,20.481742078
1715664064803938614,0.102,,,,20.489436306
1715664064811632842,0.126,,,,20.497130534
1715664064819327070,0.177,,,,20.504824762
1715664064827021298,0.18,,,,20.51251899
1715664064834715526,0.192,,,,20.520213218
1715664064842409754,0.214,,,,20.527907446
1715664064850103982,0.224,,,,20.535601674
1715664064857798210,0.251,,,,20.543295902
1715664064865492438,0.282,,,,20.55099013
1715664064873186666,0.299,,,,20.558684358
1715664064880880894,0.321,,,,20.566378586
1715664064888575122,0.346,,,,20.574072814
1715664064896269350,0.363,,,,20.581767042
1715664064903963578,0.372,,,,20.58946127
1715664064911657806,0.375,,,,20.597155498
1715664064919352034,0.365,,,,20.604849726
1715664064927046262,0.343,,,,20.612543954
1715664064934740490,0.316,,,,20.620238182
1715664064942434718,0.282,,,,20.62793241
1715664064950128946,0.236,,,,20.635626638
1715664064957823174,0.18,,,,20.643320866
1715664064965517402,0.116,,,,20.651015094
1715664064973211630,0.058,,,,20.658709322
1715664064980905858,0.0,,,,20.66640355
1715664064988600086,-0.048,,,,20.674097778
1715664064996294314,-0.077,,,,20.681792006
1715664065003988542,-0.09,,,,20.689486234
1715664065011682770,-0.092,,,,20.697180462
1715664065019376998,-0.087,,,,20.70487469
1715664065027071226,-0.077,,,,20.712568918
1715664065034765454,-0.073,,,,20.720263146
1715664065042459682,-0.068,,,,20.727957374
1715664065050153910,-0.063,,,,20.735651602
1715664065057848138,-0.053,,,,20.74334583
1715664065065542366,-0.041,,,,20.751040058
1715664065073236594,-0.043,,,,20.758734286
1715664065080930822,-0.041,,,,20.766428514
1715664065088625050,-0.026,,,,20.774122742
1715664065096319336,-0.014,,,,20.781817028
1715664065104013286,-0.009,,,,20.789510978
1715664065111707236,0.0,,,,20.797204928
1715664065119401186,0.009,,,,20.804898878
1715664065127095136,0.009,,,,20.812592828
1715664065134789086,0.014,,,,20.820286778
1715664065142483036,0.019,,,,20.827980728
1715664065150176986,0.009,,,,20.835674678
1715664065157870936,0.004,,,,20.843368628
1715664065165564886,0.009,,,,20.851062578
1715664065173258836,0.012,,,,20.858756528
1715664065180952786,0.014,,,,20.866450478
1715664065188646736,0.014,,,,20.874144428
1715664065196340686,0.012,,,,20.881838378
1715664065204034636,0.012,,,,20.889532328
1715664065211728586,0.017,,,,20.897226278
1715664065219422536,0.019,,,,20.904920228
1715664065227116486,0.012,,,,20.912614178
1715664065234810436,0.012,,,,20.920308128
1715664065242504386,0.017,,,,20.928002078
1715664065250198336,0.021,,,,20.935696028
1715664065257892286,0.024,,,,20.943389978
1715664065265586236,0.024,,,,20.951083928
1715664065273280186,0.019,,,,20.958777878
1715664065280974136,0.017,,,,20.966471828
1715664065288668086,0.021,,,,20.974165778
1715664065296362036,0.041,,,,20.981859728
1715664065304055986,0.06,,,,20.989553678
1715664065311749936,0.063,,,,20.997247628
1715664065319443886,0.075,,,,21.004941578
1715664065327137836,0.087,,,,21.012635528
1715664065334831786,0.07,,,,21.020329478
1715664065342525736,0.048,,,,21.028023428
1715664065350219686,0.046,,,,21.035717378
1715664065357913636,0.051,,,,21.043411328
1715664065365607586,0.053,,,,21.051105278
1715664065373301536,0.058,,,,21.058799228
1715664065380995486,0.063,,,,21.066493178
1715664065388689436,0.068,,,,21.074187128
1715664065396383386,0.073,,,,21.081881078
1715664065404077336,0.095,,,,21.089575028
1715664065411771286,0.138,,,,21.097268978
1715664065419465236,0.28,,,,21.104962928
1715664065427159186,0.611,,,,21.112656878
1715664065434853136,0.974,,,,21.120350828
1715664065442547086,0.794,,,,21.128044778
1715664065450241036,-0.097,,,,21.135738728
1715664065457934986,-0.577,,,,21.143432678
1715664065465628936,-0.08,,,,21.151126628
1715664065473322886,0.231,,,,21.158820578
1715664065481016836,0.041,,,,21.166514528
1715664065488710786,0.048,,,,21.174208478
1715664065496404736,0.168,,,,21.181902428
1715664065504098686,0.131,,,,21.189596378
1715664065511792636,0.124,,,,21.197290328
1715664065519486586,0.182,,,,21.204984278
1715664065527180536,0.192,,,,21.212678228
1715664065534874486,0.194,,,,21.220372178
1715664065542568436,0.224,,,,21.228066128
1715664065550262386,0.243,,,,21.235760078
1715664065557956336,0.258,,,,21.243454028
1715664065565650286,0.282,,,,21.251147978
1715664065573344236,0.299,,,,21.258841928
1715664065581038186,0.314,,,,21.266535878
1715664065588732136,0.341,,,,21.274229828
1715664065596426086,0.363,,,,21.281923778
1715664065604120036,0.372,,,,21.289617728
1715664065611813986,0.377,,,,21.297311678
1715664065619507936,0.368,,,,21.305005628
1715664065627201886,0.346,,,,21.312699578
1715664065634895836,0.321,,,,21.320393528
1715664065642589786,0.292,,,,21.328087478
1715664065650283736,0.253,,,,21.335781428
1715664065657977696,0.207,81.0,684.0,,21.343475388
1715664065665672064,0.148,,,,21.351169756
1715664065673366432,0.09,,,,21.358864124
1715664065681060800,0.036,,,,21.366558492
1715664065688755168,-0.004,,,,21.37425286
1715664065696449536,-0.041,,,,21.381947228
1715664065704143904,-0.068,,,,21.389641596
1715664065711838272,-0.075,,,,21.397335964
1715664065719532640,-0.075,,,,21.405030332
1715664065727227008,-0.077,,,,21.4127247
1715664065734921376,-0.07,,,,21.420419068
1715664065742615744,-0.063,,,,21.428113436
1715664065750310112,-0.063,,,,21.435807804
1715664065758004480,-0.053,,,,21.443502172
1715664065765698848,-0.043,,,,21.45119654
1715664065773393216,-0.036,,,,21.458890908
1715664065781087584,-0.024,,,,21.466585276
1715664065788781952,-0.012,,,,21.474279644
1715664065796476320,-0.007,,,,21.481974012
1715664065804170688,0.0,,,,21.48966838
1715664065811865056,0.009,,,,21.497362748
1715664065819559424,0.014,,,,21.505057116
1715664065827253792,0.017,,,,21.512751484
1715664065834948160,0.021,,,,21.520445852
1715664065842642528,0.026,,,,21.52814022
1715664065850336896,0.024,,,,21.535834588
1715664065858031264,0.024,,,,21.543528956
1715664065865725632,0.024,,,,21.551223324
1715664065873420000,0.026,,,,21.558917692
1715664065881114368,0.026,,,,21.56661206
1715664065888808736,0.026,,,,21.574306428
1715664065896503104,0.029,,,,21.582000796
1715664065904197472,0.024,,,,21.589695164
1715664065911891840,0.024,,,,21.597389532
1715664065919586208,0.029,,,,21.6050839
1715664065927280576,0.031,,,,21.612778268
1715664065934974944,0.031,,,,21.620472636
1715664065942669312,0.036,,,,21.628167004
1715664065950363680,0.036,,,,21.635861372
1715664065958058048,0.036,,,,21.64355574
1715664065965752416,0.036,,,,21.651250108
1715664065973446784,0.034,,,,21.658944476
1715664065981141152,0.038,,,,21.666638844
1715664065988835520,0.046,,,,21.674333212
1715664065996529888,0.046,,,,21.68202758
1715664066004224256,0.043,,,,21.689721948
1715664066011918624,0.043,,,,21.697416316
1715664066019612992,0.043,,,,21.705110684
1715664066027307360,0.038,,,,21.712805052
1715664066035001728,0.043,,,,21.72049942
1715664066042696096,0.065,,,,21.728193788
1715664066050390464,0.08,,,,21.735888156
1715664066058084832,0.082,,,,21.743582524
1715664066065779200,0.097,,,,21.751276892
1715664066073473568,0.097,,,,21.75897126
1715664066081167936,0.065,,,,21.766665628
1715664066088862304,0.046,,,,21.774359996
1715664066096556672,0.051,,,,21.782054364
1715664066104251040,0.053,,,,21.789748732
1715664066111945408,0.056,,,,21.7974431
1715664066119639776,0.063,,,,21.805137468
1715664066127334144,0.068,,,,21.812831836
1715664066135028512,0.07,,,,21.820526204
1715664066142722880,0.077,,,,21.828220572
1715664066150417248,0.102,,,,21.83591494
1715664066158111616,0.151,,,,21.843609308
1715664066165805984,0.304,,,,21.851303676
1715664066173500352,0.658,,,,21.858998044
1715664066181194720,0.991,,,,21.866692412
1715664066188889088,0.6990000000000001,,,,21.87438678
1715664066196583456,-0.214,,,,21.882081148
1715664066204277824,-0.533,,,,21.889775516
1715664066211972192,0.004,,,,21.897469884
1715664066219666572,0.214,,,,21.905164264
1715664066227360522,0.021,,,,21.912858214
1715664066235054472,0.068,,,,21.920552164
1715664066242748422,0.168,,,,21.928246114
1715664066250442372,0.126,,,,21.935940064
1715664066258136322,0.131,,,,21.943634014
1715664066265830272,0.187,,,,21.951327964
1715664066273524222,0.192,,,,21.959021914
1715664066281218172,0.192,,,,21.966715864
1715664066288912122,0.221,,,,21.974409814
1715664066296606072,0.238,,,,21.982103764
1715664066304300022,0.243,,,,21.989797714
1715664066311993972,0.268,,,,21.997491664
1715664066319687922,0.299,,,,22.005185614
1715664066327381872,0.321,,,,22.012879564
1715664066335075822,0.341,,,,22.020573514
1715664066342769772,0.365,,,,22.028267464
1715664066350463722,0.372,,,,22.035961414
1715664066358157672,0.372,,,,22.043655364
1715664066365851622,0.365,,,,22.051349314
1715664066373545572,0.346,,,,22.059043264
1715664066381239522,0.316,,,,22.066737214
1715664066388933472,0.287,,,,22.074431164
1715664066396627422,0.248,,,,22.082125114
1715664066404321372,0.197,,,,22.089819064
1715664066412015322,0.143,,,,22.097513014
1715664066419709272,0.092,,,,22.105206964
1715664066427403222,0.041,,,,22.112900914
1715664066435097172,0.002,,,,22.120594864
1715664066442791122,-0.029,,,,22.128288814
1715664066450485072,-0.053,,,,22.135982764
1715664066458179022,-0.065,,,,22.143676714
1715664066465872972,-0.07,,,,22.151370664
1715664066473566922,-0.068,,,,22.159064614
1715664066481260872,-0.058,,,,22.166758564
1715664066488954822,-0.051,,,,22.174452514
1715664066496648772,-0.046,,,,22.182146464
