HRV_ULF,HRV_VLF,HRV_LF,HRV_HF,HRV_VHF,HRV_TP,HRV_LFHF,HRV_LFn,HRV_HFn,HRV_LnHF,time
,,0.03995288435941486,0.009926802612345315,0.0007772745063857144,0.05065696147814589,4.024748543879383,0.788694844570397,0.19596127210724776,-4.61251684549031,0.0
,,0.04026368465169445,0.009976042257258271,0.0007981071012409758,0.05103783401019369,4.030393222410746,0.7888987734795457,0.1954636682909736,-4.607568834721405,0.1
,,0.04026368465169445,0.009976042257258271,0.0007981071012409758,0.05103783401019369,4.0322747819212,0.7888987734795457,0.1954636682909736,-4.607568834721405,0.2
,,0.04026368465169445,0.009976042257258271,0.0007981071012409758,0.05103783401019369,4.033215561676427,0.7888987734795457,0.1954636682909736,-4.607568834721405,0.3
,,0.04026368465169445,0.009976042257258271,0.0007981071012409758,0.05103783401019369,4.033780029529564,0.7888987734795457,0.1954636682909736,-4.607568834721405,0.4
,,0.04048440976025158,0.00974354587431166,0.0007305578185125791,0.05095851345307582,4.053982958574145,0.7944582174189773,0.19120545742143402,-4.631150174774764,0.5
,,0.04048440976025158,0.00974354587431166,0.0007305578185125791,0.05095851345307582,4.068413622177417,0.7944582174189773,0.19120545742143402,-4.631150174774764,0.6
,,0.04048440976025158,0.00974354587431166,0.0007305578185125791,0.05095851345307582,4.079236619879871,0.7944582174189773,0.19120545742143402,-4.631150174774764,0.7
,,0.040819755819896344,0.009761603641337734,0.0007430871937428238,0.0513244466549769,4.090617545643664,0.795327733278895,0.19019403573815552,-4.629298584540025,0.8
,,0.040819755819896344,0.009761603641337734,0.0007430871937428238,0.0513244466549769,4.099722286254699,0.795327733278895,0.19019403573815552,-4.629298584540025,0.9
,,0.040819755819896344,0.009761603641337734,0.0007430871937428238,0.0513244466549769,4.1071716194819095,0.795327733278895,0.19019403573815552,-4.629298584540025,1.0
,,0.04111718831110079,0.009583987419994139,0.0006790568838130815,0.05138023261490801,4.122423684387672,0.8002530587837512,0.18653063507566406,-4.647661550214857,1.1
,,0.04111718831110079,0.009583987419994139,0.0006790568838130815,0.05138023261490801,4.135329277769473,0.8002530587837512,0.18653063507566406,-4.647661550214857,1.2
,,0.04111718831110079,0.009583987419994139,0.0006790568838130815,0.05138023261490801,4.146391214953872,0.8002530587837512,0.18653063507566406,-4.647661550214857,1.3
,,0.04111718831110079,0.009583987419994139,0.0006790568838130815,0.05138023261490801,4.155978227180351,0.8002530587837512,0.18653063507566406,-4.647661550214857,1.4
,,0.04143780846505423,0.009591267162196437,0.0006877172913507705,0.051716792918601436,4.166252618856345,0.801244743274673,0.18545750076367673,-4.646902265114278,1.5
,,0.04143780846505423,0.009591267162196437,0.0006877172913507705,0.051716792918601436,4.1753182585704565,0.801244743274673,0.18545750076367673,-4.646902265114278,1.6
,,0.04183746461015619,0.009468786285069062,0.0006258230999113641,0.051932073995136614,4.18882619857866,0.8056189824822753,0.18233021631209653,-4.659754544193335,1.7
,,0.04183746461015619,0.009468786285069062,0.0006258230999113641,0.051932073995136614,4.200912250164947,0.8056189824822753,0.18233021631209653,-4.659754544193335,1.8
,,0.04183746461015619,0.009468786285069062,0.0006258230999113641,0.051932073995136614,4.211789696592605,0.8056189824822753,0.18233021631209653,-4.659754544193335,1.9
,,0.04183746461015619,0.009468786285069062,0.0006258230999113641,0.051932073995136614,4.221631195741439,0.8056189824822753,0.18233021631209653,-4.659754544193335,2.0
,,0.042109372341214604,0.009450753472073564,0.0006301417994198895,0.05219026761270806,4.2322690039369,0.8068433879990526,0.1810826789049143,-4.661660808160395,2.1
,,0.042109372341214604,0.009450753472073564,0.0006301417994198895,0.05219026761270806,4.241981785332756,0.8068433879990526,0.1810826789049143,-4.661660808160395,2.2
,,0.04262606240951478,0.009389874122147542,0.000572318103490086,0.05258825463515241,4.2543816117328355,0.8105624099002053,0.1785545876601677,-4.668123391373914,2.3
,,0.04262606240951478,0.009389874122147542,0.000572318103490086,0.05258825463515241,4.2657894520209085,0.8105624099002053,0.1785545876601677,-4.668123391373914,2.4
,,0.04262606240951478,0.009389874122147542,0.000572318103490086,0.05258825463515241,4.276319766132977,0.8105624099002053,0.1785545876601677,-4.668123391373914,2.5
,,0.04262606240951478,0.009389874122147542,0.000572318103490086,0.05258825463515241,4.286070056977484,0.8105624099002053,0.1785545876601677,-4.668123391373914,2.6
,,0.024459575168248558,0.009832364921580758,0.0006699459818767239,0.03496188607170604,4.221841105475972,0.6996068552503867,0.2812309639535693,-4.622075791705307,2.7
,,0.024459575168248558,0.009832364921580758,0.0006699459818767239,0.03496188607170604,4.162041736836634,0.6996068552503867,0.2812309639535693,-4.622075791705307,2.8
,,0.024459575168248558,0.009832364921580758,0.0006699459818767239,0.03496188607170604,4.106228992773251,0.6996068552503867,0.2812309639535693,-4.622075791705307,2.9
,,0.04348274906534569,0.009365888227885767,0.0005217564244274739,0.05337039371765893,4.12353361291722,0.8147353998431969,0.17548846046430475,-4.67068110210731,3.0
,,0.04348274906534569,0.009365888227885767,0.0005217564244274739,0.05337039371765893,4.139756694302191,0.8147353998431969,0.17548846046430475,-4.67068110210731,3.1
,,0.04348274906534569,0.009365888227885767,0.0005217564244274739,0.05337039371765893,4.154996558633528,0.8147353998431969,0.17548846046430475,-4.67068110210731,3.2
,,0.04362049765849934,0.009327069912877392,0.0005239146107973629,0.053471482182174096,4.1703426373491785,0.8157712462483637,0.17443073451939542,-4.674834363513666,3.3
,,0.04362049765849934,0.009327069912877392,0.0005239146107973629,0.053471482182174096,4.184811797281077,0.8157712462483637,0.17443073451939542,-4.674834363513666,3.4
,,0.04362049765849934,0.009327069912877392,0.0005239146107973629,0.053471482182174096,4.198477114994538,0.8157712462483637,0.17443073451939542,-4.674834363513666,3.5
,,0.025157899093416557,0.008401685740397163,0.00048788830605517764,0.034047473139868896,4.165934140632326,0.7389064965281423,0.2467638554521381,-4.779322909886471,3.6
,,0.025157899093416557,0.008401685740397163,0.00048788830605517764,0.034047473139868896,4.135103954394442,0.7389064965281423,0.2467638554521381,-4.779322909886471,3.7
,,0.025157899093416557,0.008401685740397163,0.00048788830605517764,0.034047473139868896,4.105854803348244,0.7389064965281423,0.2467638554521381,-4.779322909886471,3.8
,,0.02546590629860749,0.008117820271683788,0.0004956302875903161,0.0340793568578816,4.08163436980392,0.7472531364017787,0.23820344690003634,-4.813693600292678,3.9
,,0.02546590629860749,0.008117820271683788,0.0004956302875903161,0.0340793568578816,4.058595420822734,0.7472531364017787,0.23820344690003634,-4.813693600292678,4.0
,,0.02546590629860749,0.008117820271683788,0.0004956302875903161,0.0340793568578816,4.036653564650177,0.7472531364017787,0.23820344690003634,-4.813693600292678,4.1
,,0.045258839904746696,0.009465658948126515,0.00043963710830109356,0.05516413596117431,4.053972606011827,0.8204395685015502,0.17159081318320016,-4.660084877290764,4.2
,,0.045258839904746696,0.009465658948126515,0.00043963710830109356,0.05516413596117431,4.0705044182206755,0.8204395685015502,0.17159081318320016,-4.660084877290764,4.3
,,0.045258839904746696,0.009465658948126515,0.00043963710830109356,0.05516413596117431,4.086301483220242,0.8204395685015502,0.17159081318320016,-4.660084877290764,4.4
,,0.04520443790542911,0.009413813581800705,0.00044701738333789167,0.0550652688705677,4.101858541876696,0.8209246741659116,0.1709573706782057,-4.6655771384298985,4.5
,,0.04520443790542911,0.009413813581800705,0.00044701738333789167,0.0550652688705677,4.116753598037132,0.8209246741659116,0.1709573706782057,-4.6655771384298985,4.6
,,0.04520443790542911,0.009413813581800705,0.00044701738333789167,0.0550652688705677,4.131028026857549,0.8209246741659116,0.1709573706782057,-4.6655771384298985,4.7
,,0.046115012120052354,0.009593870185243152,0.0004155619501457299,0.05612444425544123,4.144817583283308,0.8216564588179691,0.1709392460365081,-4.64663090682108,4.8
,,0.046115012120052354,0.009593870185243152,0.0004155619501457299,0.05612444425544123,4.158055557452036,0.8216564588179691,0.1709392460365081,-4.64663090682108,4.9
,,0.046115012120052354,0.009593870185243152,0.0004155619501457299,0.05612444425544123,4.170774395378853,0.8216564588179691,0.1709392460365081,-4.64663090682108,5.0
,,0.026438734041910036,0.006953742159046837,0.0004227275147697301,0.033815203715726605,4.1636842569699475,0.781859374977358,0.20563951699077967,-4.968475324161696,5.1
,,0.026438734041910036,0.006953742159046837,0.0004227275147697301,0.033815203715726605,4.156861670953832,0.781859374977358,0.20563951699077967,-4.968475324161696,5.2
,,0.026438734041910036,0.006953742159046837,0.0004227275147697301,0.033815203715726605,4.150291773308682,0.781859374977358,0.20563951699077967,-4.968475324161696,5.3
,,0.026438734041910036,0.006953742159046837,0.0004227275147697301,0.033815203715726605,4.143960781032448,0.781859374977358,0.20563951699077967,-4.968475324161696,5.4
,,0.04689077133315617,0.009763750329082044,0.00040677718624582273,0.05706129884848403,4.155721069045547,0.8217613738107529,0.17110985074153184,-4.629078697335295,5.5
,,0.04673373795326075,0.009742350729467157,0.00042727854955180945,0.05690336723227972,4.166971003063979,0.8212824693219558,0.17120868594118255,-4.63127284245286,5.6
,,0.04673373795326075,0.009742350729467157,0.00042727854955180945,0.05690336723227972,4.177833008323154,0.8212824693219558,0.17120868594118255,-4.63127284245286,5.7
,,0.04673373795326075,0.009742350729467157,0.00042727854955180945,0.05690336723227972,4.188326810014222,0.8212824693219558,0.17120868594118255,-4.63127284245286,5.8
,,0.04673373795326075,0.009742350729467157,0.00042727854955180945,0.05690336723227972,4.198470818315588,0.8212824693219558,0.17120868594118255,-4.63127284245286,5.9
,,0.04673373795326075,0.009742350729467157,0.00042727854955180945,0.05690336723227972,4.208282236180843,0.8212824693219558,0.17120868594118255,-4.63127284245286,6.0
,,0.047578497825459344,0.009985978319436633,0.0004113397382442521,0.05797581588314023,4.217253981644915,0.8206611170658058,0.17224386008754083,-4.606573338001947,6.1
,,0.047578497825459344,0.009985978319436633,0.0004113397382442521,0.05797581588314023,4.2259409097926675,0.8206611170658058,0.17224386008754083,-4.606573338001947,6.2
,,0.04739945375992419,0.009984829052010374,0.0004369586020785035,0.05782124141401307,4.234084758833296,0.8197584936050311,0.17268444619714676,-4.606688432740598,6.3
,,0.04739945375992419,0.009984829052010374,0.0004369586020785035,0.05782124141401307,4.241978027903444,0.8197584936050311,0.17268444619714676,-4.606688432740598,6.4
,,0.04739945375992419,0.009984829052010374,0.0004369586020785035,0.05782124141401307,4.2496321070017675,0.8197584936050311,0.17268444619714676,-4.606688432740598,6.5
,,0.04739945375992419,0.009984829052010374,0.0004369586020785035,0.05782124141401307,4.257057706127008,0.8197584936050311,0.17268444619714676,-4.606688432740598,6.6
,,0.04812928492594285,0.010241325561459236,0.0004298498977273824,0.05880046038512947,4.26356446238335,0.8185188451026935,0.17417083972439862,-4.581324218387367,6.7
,,0.04812928492594285,0.010241325561459236,0.0004298498977273824,0.05880046038512947,4.269882617009072,0.8185188451026935,0.17417083972439862,-4.581324218387367,6.8
,,0.015686507468444338,0.00632269780767256,0.000471258361546622,0.02248046363766352,4.244326912020942,0.6977839835190649,0.28125299858493946,-5.063609293603105,6.9
,,0.015686507468444338,0.00632269780767256,0.000471258361546622,0.02248046363766352,4.219491086046564,0.6977839835190649,0.28125299858493946,-5.063609293603105,7.0
,,0.015686507468444338,0.00632269780767256,0.000471258361546622,0.02248046363766352,4.195345144127028,0.6977839835190649,0.28125299858493946,-5.063609293603105,7.1
,,0.015686507468444338,0.00632269780767256,0.000471258361546622,0.02248046363766352,4.171860734862823,0.6977839835190649,0.28125299858493946,-5.063609293603105,7.2
,,0.015686507468444338,0.00632269780767256,0.000471258361546622,0.02248046363766352,4.149011039362514,0.6977839835190649,0.28125299858493946,-5.063609293603105,7.3
,,0.03044166000832025,0.006320005103537931,0.0004748032163273301,0.03723646832818551,4.157913751719612,0.8175227505471553,0.16972622236449075,-5.064035263301872,7.4
,,0.04826946017402877,0.010579033225939928,0.0005083011977313678,0.05935679459770007,4.163240515010595,0.8132086730960215,0.17822783891281488,-4.548881234237567,7.5
,,0.04826946017402877,0.010579033225939928,0.0005083011977313678,0.05935679459770007,4.1684289208135015,0.8132086730960215,0.17822783891281488,-4.548881234237567,7.6
,,0.04826946017402877,0.010579033225939928,0.0005083011977313678,0.05935679459770007,4.173484290570179,0.8132086730960215,0.17822783891281488,-4.548881234237567,7.7
,,0.04826946017402877,0.010579033225939928,0.0005083011977313678,0.05935679459770007,4.1784116762823835,0.8132086730960215,0.17822783891281488,-4.548881234237567,7.8
,,0.04858867832739018,0.010765160813196631,0.0005093320048114111,0.05986317114539822,4.182600425469541,0.8116622858046716,0.17982944450185823,-4.531440209754711,7.9
,,0.03178738353343861,0.006402268970741382,0.0005324424370399754,0.03872209494121997,4.192259907199576,0.8209107379570183,0.16533891000628992,-5.051102824767903,8.0
,,0.047646720742995544,0.010720220225332781,0.0005551969566443191,0.058922137924972647,4.195336804419161,0.8086386954198024,0.1819387517639493,-4.535623580142586,8.1
,,0.047646720742995544,0.010720220225332781,0.0005551969566443191,0.058922137924972647,4.19833955953707,0.8086386954198024,0.1819387517639493,-4.535623580142586,8.2
,,0.047646720742995544,0.010720220225332781,0.0005551969566443191,0.058922137924972647,4.2012708204855045,0.8086386954198024,0.1819387517639493,-4.535623580142586,8.3
,,0.047646720742995544,0.010720220225332781,0.0005551969566443191,0.058922137924972647,4.204133110588094,0.8086386954198024,0.1819387517639493,-4.535623580142586,8.4
,,0.047646720742995544,0.010720220225332781,0.0005551969566443191,0.058922137924972647,4.206928835804576,0.8086386954198024,0.1819387517639493,-4.535623580142586,8.5
,,0.047646720742995544,0.010720220225332781,0.0005551969566443191,0.058922137924972647,4.209660291475852,0.8086386954198024,0.1819387517639493,-4.535623580142586,8.6
,,0.04603949742162037,0.010658337870798177,0.0005934811967671763,0.05729131648918573,4.210909330371705,0.8036034122258432,0.18603757993255465,-4.541412794465508,8.7
,,0.04603949742162037,0.010658337870798177,0.0005934811967671763,0.05729131648918573,4.212130300977764,0.8036034122258432,0.18603757993255465,-4.541412794465508,8.8
,,0.04603949742162037,0.010658337870798177,0.0005934811967671763,0.05729131648918573,4.213324138903688,0.8036034122258432,0.18603757993255465,-4.541412794465508,8.9
,,0.04603949742162037,0.010658337870798177,0.0005934811967671763,0.05729131648918573,4.216599996352928,0.8036034122258432,0.18603757993255465,-4.541412794465508,9.0
,,0.04603949742162037,0.010658337870798177,0.0005934811967671763,0.05729131648918573,4.219750416501471,0.8036034122258432,0.18603757993255465,-4.541412794465508,9.1
,,0.04603949742162037,0.010658337870798177,0.0005934811967671763,0.05729131648918573,4.222900836650013,0.8036034122258432,0.18603757993255465,-4.541412794465508,9.2
,,0.04603949742162037,0.010658337870798177,0.0005934811967671763,0.05729131648918573,4.226051256798556,0.8036034122258432,0.18603757993255465,-4.541412794465508,9.3
,,0.04456918908094145,0.010618766399257303,0.0006342311204454112,0.05582218660064416,4.227842054302124,0.7984135304443116,0.19022483793450626,-4.545132428177262,9.4
,,0.04456918908094145,0.010618766399257303,0.0006342311204454112,0.05582218660064416,4.228311077329526,0.7984135304443116,0.19022483793450626,-4.545132428177262,9.5
,,0.04456918908094145,0.010618766399257303,0.0006342311204454112,0.05582218660064416,4.228780100356927,0.7984135304443116,0.19022483793450626,-4.545132428177262,9.6
,,0.04456918908094145,0.010618766399257303,0.0006342311204454112,0.05582218660064416,4.229249123384329,0.7984135304443116,0.19022483793450626,-4.545132428177262,9.7
,,0.04456918908094145,0.010618766399257303,0.0006342311204454112,0.05582218660064416,4.229421842545543,0.7984135304443116,0.19022483793450626,-4.545132428177262,9.8
,,0.04456918908094145,0.010618766399257303,0.0006342311204454112,0.05582218660064416,4.229594561706755,0.7984135304443116,0.19022483793450626,-4.545132428177262,9.9
,,0.043358937064608236,0.01061308442781379,0.000672313305838134,0.05464433479826016,4.22852520442829,0.7934754302469568,0.1942211295461081,-4.5456676591022935,10.0
,,0.043358937064608236,0.01061308442781379,0.000672313305838134,0.05464433479826016,4.226249942187634,0.7934754302469568,0.1942211295461081,-4.5456676591022935,10.1
,,0.043358937064608236,0.01061308442781379,0.000672313305838134,0.05464433479826016,4.223974679946979,0.7934754302469568,0.1942211295461081,-4.5456676591022935,10.2
,,0.043358937064608236,0.01061308442781379,0.000672313305838134,0.05464433479826016,4.221699417706324,0.7934754302469568,0.1942211295461081,-4.5456676591022935,10.3
,,0.043358937064608236,0.01061308442781379,0.000672313305838134,0.05464433479826016,4.219424155465669,0.7934754302469568,0.1942211295461081,-4.5456676591022935,10.4
,,0.043358937064608236,0.01061308442781379,0.000672313305838134,0.05464433479826016,4.216813647717844,0.7934754302469568,0.1942211295461081,-4.5456676591022935,10.5
,,0.04243507214949255,0.01064531721346896,0.0007084185338248358,0.05378880789678634,4.213101404132912,0.7889201082671302,0.1979095211385968,-4.542635181788157,10.6
,,0.04243507214949255,0.01064531721346896,0.0007084185338248358,0.05378880789678634,4.208299241828847,0.7889201082671302,0.1979095211385968,-4.542635181788157,10.7
,,0.04243507214949255,0.01064531721346896,0.0007084185338248358,0.05378880789678634,4.203497079524782,0.7889201082671302,0.1979095211385968,-4.542635181788157,10.8
,,0.04243507214949255,0.01064531721346896,0.0007084185338248358,0.05378880789678634,4.198694917220718,0.7889201082671302,0.1979095211385968,-4.542635181788157,10.9
,,0.04243507214949255,0.01064531721346896,0.0007084185338248358,0.05378880789678634,4.193892754916654,0.7889201082671302,0.1979095211385968,-4.542635181788157,11.0
,,0.04243507214949255,0.01064531721346896,0.0007084185338248358,0.05378880789678634,4.188677239308995,0.7889201082671302,0.1979095211385968,-4.542635181788157,11.1
,,0.025434540752774827,0.010701504961794846,0.0005501014270895923,0.03668614714165926,4.16557793508045,0.6933009523884404,0.29170424794057104,-4.537370896769618,11.2
,,0.041865512507674216,0.01071519997481502,0.0007403585300621626,0.0533210710125514,4.158550566382678,0.7851588820828331,0.20095620307950562,-4.536091987158886,11.3
,,0.041865512507674216,0.01071519997481502,0.0007403585300621626,0.0533210710125514,4.151523197684905,0.7851588820828331,0.20095620307950562,-4.536091987158886,11.4
,,0.041865512507674216,0.01071519997481502,0.0007403585300621626,0.0533210710125514,4.144495828987131,0.7851588820828331,0.20095620307950562,-4.536091987158886,11.5
,,0.041865512507674216,0.01071519997481502,0.0007403585300621626,0.0533210710125514,4.137468460289358,0.7851588820828331,0.20095620307950562,-4.536091987158886,11.6
,,0.041865512507674216,0.01071519997481502,0.0007403585300621626,0.0533210710125514,4.153240182747135,0.7851588820828331,0.20095620307950562,-4.536091987158886,11.7
,,0.041865512507674216,0.01071519997481502,0.0007403585300621626,0.0533210710125514,4.169011905204913,0.7851588820828331,0.20095620307950562,-4.536091987158886,11.8
,,0.041665129317973955,0.010816705164960978,0.0007653836933560407,0.053247218176290974,4.184170403770819,0.7824846206994134,0.2031412256908711,-4.5266635653421385,11.9
,,0.041665129317973955,0.010816705164960978,0.0007653836933560407,0.053247218176290974,4.175384315644492,0.7824846206994134,0.2031412256908711,-4.5266635653421385,12.0
,,0.041665129317973955,0.010816705164960978,0.0007653836933560407,0.053247218176290974,4.166598227518164,0.7824846206994134,0.2031412256908711,-4.5266635653421385,12.1
,,0.041665129317973955,0.010816705164960978,0.0007653836933560407,0.053247218176290974,4.157812139391837,0.7824846206994134,0.2031412256908711,-4.5266635653421385,12.2
,,0.041665129317973955,0.010816705164960978,0.0007653836933560407,0.053247218176290974,4.148647262179627,0.7824846206994134,0.2031412256908711,-4.5266635653421385,12.3
,,0.041665129317973955,0.010816705164960978,0.0007653836933560407,0.053247218176290974,4.139482384967417,0.7824846206994134,0.2031412256908711,-4.5266635653421385,12.4
,,0.04137215051256464,0.010915631830274672,0.0005902025111443202,0.05287798485398363,4.129631400141088,0.7824078513356549,0.20643055631595858,-4.51755940423555,12.5
,,0.041844523754688855,0.010945680673280084,0.0007814901238908904,0.05357169455185983,4.138837384791921,0.781093898647941,0.2043183581337747,-4.514810359600247,12.6
,,0.041844523754688855,0.010945680673280084,0.0007814901238908904,0.05357169455185983,4.148043369442754,0.781093898647941,0.2043183581337747,-4.514810359600247,12.7
,,0.041844523754688855,0.010945680673280084,0.0007814901238908904,0.05357169455185983,4.1572493540935875,0.781093898647941,0.2043183581337747,-4.514810359600247,12.8
,,0.041844523754688855,0.010945680673280084,0.0007814901238908904,0.05357169455185983,4.164870334322391,0.781093898647941,0.2043183581337747,-4.514810359600247,12.9
,,0.041844523754688855,0.010945680673280084,0.0007814901238908904,0.05357169455185983,4.172491314551196,0.781093898647941,0.2043183581337747,-4.514810359600247,13.0
,,0.041844523754688855,0.010945680673280084,0.0007814901238908904,0.05357169455185983,4.18011229478,0.781093898647941,0.2043183581337747,-4.514810359600247,13.1
,,0.042387151942797234,0.01109174562577573,0.0007892081844926311,0.05426810575306559,4.169447092636476,0.7810693105020123,0.20438792679158807,-4.501554084616733,13.2
,,0.042387151942797234,0.01109174562577573,0.0007892081844926311,0.05426810575306559,4.158781890492954,0.7810693105020123,0.20438792679158807,-4.501554084616733,13.3
,,0.042387151942797234,0.01109174562577573,0.0007892081844926311,0.05426810575306559,4.14811668834943,0.7810693105020123,0.20438792679158807,-4.501554084616733,13.4
,,0.042387151942797234,0.01109174562577573,0.0007892081844926311,0.05426810575306559,4.1372231102257295,0.7810693105020123,0.20438792679158807,-4.501554084616733,13.5
,,0.042387151942797234,0.01109174562577573,0.0007892081844926311,0.05426810575306559,4.126329532102028,0.7810693105020123,0.20438792679158807,-4.501554084616733,13.6
,,0.042387151942797234,0.01109174562577573,0.0007892081844926311,0.05426810575306559,4.115435953978328,0.7810693105020123,0.20438792679158807,-4.501554084616733,13.7
,,0.0350697621704506,0.007301410779706158,0.0006142244045203727,0.04298539735467713,4.115396314794299,0.8158529251477247,0.16985793383416775,-4.919687692005621,13.8
,,0.04263270324534814,0.011089336289994473,0.0007787442044913967,0.054500783739834004,4.104704772051411,0.7822401866523688,0.2034711343405765,-4.50177132702176,13.9
,,0.04263270324534814,0.011089336289994473,0.0007787442044913967,0.054500783739834004,4.094013229308522,0.7822401866523688,0.2034711343405765,-4.50177132702176,14.0
,,0.04263270324534814,0.011089336289994473,0.0007787442044913967,0.054500783739834004,4.094484232050121,0.7822401866523688,0.2034711343405765,-4.50177132702176,14.1
,,0.04263270324534814,0.011089336289994473,0.0007787442044913967,0.054500783739834004,4.09495523479172,0.7822401866523688,0.2034711343405765,-4.50177132702176,14.2
,,0.04263270324534814,0.011089336289994473,0.0007787442044913967,0.054500783739834004,4.095426237533319,0.7822401866523688,0.2034711343405765,-4.50177132702176,14.3
,,0.04263270324534814,0.011089336289994473,0.0007787442044913967,0.054500783739834004,4.095897240274918,0.7822401866523688,0.2034711343405765,-4.50177132702176,14.4
,,0.04210187447389784,0.010832292263946941,0.000743567192394372,0.053677733930239155,4.085721278848814,0.784345228295487,0.20180233908579007,-4.525223581644922,14.5
,,0.04210187447389784,0.010832292263946941,0.000743567192394372,0.053677733930239155,4.075607201885706,0.784345228295487,0.20180233908579007,-4.525223581644922,14.6
,,0.04210187447389784,0.010832292263946941,0.000743567192394372,0.053677733930239155,4.0654931249226,0.784345228295487,0.20180233908579007,-4.525223581644922,14.7
,,0.04210187447389784,0.010832292263946941,0.000743567192394372,0.053677733930239155,4.055379047959493,0.784345228295487,0.20180233908579007,-4.525223581644922,14.8
,,0.04210187447389784,0.010832292263946941,0.000743567192394372,0.053677733930239155,4.045264970996385,0.784345228295487,0.20180233908579007,-4.525223581644922,14.9
,,0.04210187447389784,0.010832292263946941,0.000743567192394372,0.053677733930239155,4.035150894033278,0.784345228295487,0.20180233908579007,-4.525223581644922,15.0
,,0.025195530593532547,0.010865992402257175,0.0005574874346964729,0.036619010430486196,4.007975566597325,0.6880450972688401,0.2967309131109392,-4.522117330074734,15.1
,,0.025390070317611053,0.010517117473648257,0.0006930788843622026,0.03660026667562151,3.981860409044946,0.6937127136978682,0.28735084273725897,-4.5547511136246985,15.2
,,0.025390070317611053,0.010517117473648257,0.0006930788843622026,0.03660026667562151,3.955938398232128,0.6937127136978682,0.28735084273725897,-4.5547511136246985,15.3
,,0.025390070317611053,0.010517117473648257,0.0006930788843622026,0.03660026667562151,3.9300163874193097,0.6937127136978682,0.28735084273725897,-4.5547511136246985,15.4
,,0.025390070317611053,0.010517117473648257,0.0006930788843622026,0.03660026667562151,3.9040943766064924,0.6937127136978682,0.28735084273725897,-4.5547511136246985,15.5
,,0.025390070317611053,0.010517117473648257,0.0006930788843622026,0.03660026667562151,3.878172365793674,0.6937127136978682,0.28735084273725897,-4.5547511136246985,15.6
,,0.041672564385815014,0.01053335254757569,0.0005147608218621265,0.052720677755252826,3.8699138298412232,0.7904406043350414,0.19979546917957064,-4.553208622922112,15.7
,,0.041483141023279026,0.010260753573517719,0.0006452166852691434,0.05238911128206589,3.862618019396664,0.7918275383587152,0.19585660688674889,-4.579428994225386,15.8
,,0.041483141023279026,0.010260753573517719,0.0006452166852691434,0.05238911128206589,3.8799725852156404,0.7918275383587152,0.19585660688674889,-4.579428994225386,15.9
,,0.041483141023279026,0.010260753573517719,0.0006452166852691434,0.05238911128206589,3.897327151034617,0.7918275383587152,0.19585660688674889,-4.579428994225386,16.0
,,0.041483141023279026,0.010260753573517719,0.0006452166852691434,0.05238911128206589,3.9146817168535937,0.7918275383587152,0.19585660688674889,-4.579428994225386,16.1
,,0.041483141023279026,0.010260753573517719,0.0006452166852691434,0.05238911128206589,3.9320362826725694,0.7918275383587152,0.19585660688674889,-4.579428994225386,16.2
,,0.041541658908380345,0.010264646300249019,0.0004734290491026112,0.05227973425773197,3.9494371563087523,0.7946034825576126,0.19634082777937834,-4.5790496859729855,16.3
,,0.041541658908380345,0.010264646300249019,0.0004734290491026112,0.05227973425773197,3.9408854610748807,0.7946034825576126,0.19634082777937834,-4.5790496859729855,16.4
,,0.0415385456029465,0.010047468312253277,0.0005952629869442142,0.05218127690214399,3.9361241533646725,0.796043103369128,0.19254929945649632,-4.600434585440041,16.5
,,0.0415385456029465,0.010047468312253277,0.0005952629869442142,0.05218127690214399,3.9313628456544634,0.796043103369128,0.19254929945649632,-4.600434585440041,16.6
,,0.0415385456029465,0.010047468312253277,0.0005952629869442142,0.05218127690214399,3.9266015379442556,0.796043103369128,0.19254929945649632,-4.600434585440041,16.7
,,0.0415385456029465,0.010047468312253277,0.0005952629869442142,0.05218127690214399,3.9218402302340465,0.796043103369128,0.19254929945649632,-4.600434585440041,16.8
,,0.0415385456029465,0.010047468312253277,0.0005952629869442142,0.05218127690214399,3.9176259908636086,0.796043103369128,0.19254929945649632,-4.600434585440041,16.9
,,0.04166365437484086,0.010040284334973375,0.00043164123069166724,0.05213557994050591,3.908566328724052,0.7991405182868397,0.192580275244483,-4.601149844903092,17.0
,,0.041835859623040685,0.009886939278888283,0.0005476828947308242,0.052270481796659794,3.9061981209395014,0.8003725656440016,0.1891495723599793,-4.6165406575962376,17.1
,,0.041835859623040685,0.009886939278888283,0.0005476828947308242,0.052270481796659794,3.9038299131549503,0.8003725656440016,0.1891495723599793,-4.6165406575962376,17.2
,,0.041835859623040685,0.009886939278888283,0.0005476828947308242,0.052270481796659794,3.9014617053704,0.8003725656440016,0.1891495723599793,-4.6165406575962376,17.3
,,0.041835859623040685,0.009886939278888283,0.0005476828947308242,0.052270481796659794,3.899093497585849,0.8003725656440016,0.1891495723599793,-4.6165406575962376,17.4
,,0.041835859623040685,0.009886939278888283,0.0005476828947308242,0.052270481796659794,3.8967252898012994,0.8003725656440016,0.1891495723599793,-4.6165406575962376,17.5
,,0.042026716500082516,0.009875191289885128,0.0003932500245544932,0.05229515781452214,3.8946277576536854,0.8036445104370997,0.18883567241368626,-4.617729597254962,17.6
,,0.042389611379653844,0.009800752464056265,0.000507015578969439,0.05269737942267955,3.8946895658942533,0.8043969518797454,0.18598178071523386,-4.625296114206644,17.7
,,0.042389611379653844,0.009800752464056265,0.000507015578969439,0.05269737942267955,3.8947513741348203,0.8043969518797454,0.18598178071523386,-4.625296114206644,17.8
,,0.042389611379653844,0.009800752464056265,0.000507015578969439,0.05269737942267955,3.8948131823753873,0.8043969518797454,0.18598178071523386,-4.625296114206644,17.9
,,0.042389611379653844,0.009800752464056265,0.000507015578969439,0.05269737942267955,3.8948749906159534,0.8043969518797454,0.18598178071523386,-4.625296114206644,18.0
,,0.042389611379653844,0.009800752464056265,0.000507015578969439,0.05269737942267955,3.8949367988565213,0.8043969518797454,0.18598178071523386,-4.625296114206644,18.1
,,0.042389611379653844,0.009800752464056265,0.000507015578969439,0.05269737942267955,3.8949986070970883,0.8043969518797454,0.18598178071523386,-4.625296114206644,18.2
,,0.02713542653566175,0.009792248214646991,0.0003613875809420922,0.03728906233125083,3.8777934660639195,0.727704716589786,0.26260376642510547,-4.626164204815406,18.3
,,0.04322326982943707,0.009805545775786292,0.0004784877009340164,0.05350730330615738,3.88013606128224,0.8078013123203525,0.18325621307583095,-4.624807157875685,18.4
,,0.04322184751673776,0.009805075843632896,0.0004784477062181085,0.053505371066588765,3.882479392138314,0.8078039018353333,0.1832540481109875,-4.624855084164061,18.5
,,0.04322184751673776,0.009805075843632896,0.0004784477062181085,0.053505371066588765,3.8848227229943864,0.8078039018353333,0.1832540481109875,-4.624855084164061,18.6
,,0.04322184751673776,0.009805075843632896,0.0004784477062181085,0.053505371066588765,3.88716605385046,0.8078039018353333,0.1832540481109875,-4.624855084164061,18.7
,,0.04322184751673776,0.009805075843632896,0.0004784477062181085,0.053505371066588765,3.889509384706533,0.8078039018353333,0.1832540481109875,-4.624855084164061,18.8
,,0.028094664132895793,0.009809588567491681,0.0003428421143878972,0.038247094814775374,3.8746959466632234,0.7345568145490214,0.25647931208887803,-4.624394946397355,18.9
,,0.04427212388052713,0.009914580820939834,0.00046958831482088616,0.05465629301628785,3.8789174165289397,0.8100096336085914,0.1813987058724462,-4.613748795166837,19.0
,,0.04427212388052713,0.009914580820939834,0.00046958831482088616,0.05465629301628785,3.8831388863946574,0.8100096336085914,0.1813987058724462,-4.613748795166837,19.1
,,0.04427212388052713,0.009914580820939834,0.00046958831482088616,0.05465629301628785,3.8873603562603742,0.8100096336085914,0.1813987058724462,-4.613748795166837,19.2
,,0.04427212388052713,0.009914580820939834,0.00046958831482088616,0.05465629301628785,3.891581826126092,0.8100096336085914,0.1813987058724462,-4.613748795166837,19.3
,,0.04427212388052713,0.009914580820939834,0.00046958831482088616,0.05465629301628785,3.8958032959918087,0.8100096336085914,0.1813987058724462,-4.613748795166837,19.4
,,0.04427212388052713,0.009914580820939834,0.00046958831482088616,0.05465629301628785,3.9000247658575264,0.8100096336085914,0.1813987058724462,-4.613748795166837,19.5
,,0.044887916575142905,0.00804497287743939,0.00027543359991370254,0.053208323052495995,3.917728727382669,0.8436258464837527,0.15119764006661363,-4.822707869899672,19.6
,,0.045437491297347934,0.010117374661409594,0.0004876569288609606,0.05604252288761849,3.9233372738085888,0.810768126703776,0.18053032126511978,-4.593501069587545,19.7
,,0.045437491297347934,0.010117374661409594,0.0004876569288609606,0.05604252288761849,3.9289458202345076,0.810768126703776,0.18053032126511978,-4.593501069587545,19.8
,,0.045437491297347934,0.010117374661409594,0.0004876569288609606,0.05604252288761849,3.9345543666604263,0.810768126703776,0.18053032126511978,-4.593501069587545,19.9
,,0.045437491297347934,0.010117374661409594,0.0004876569288609606,0.05604252288761849,3.9401629130863456,0.810768126703776,0.18053032126511978,-4.593501069587545,20.0
,,0.045437491297347934,0.010117374661409594,0.0004876569288609606,0.05604252288761849,3.9457714595122653,0.810768126703776,0.18053032126511978,-4.593501069587545,20.1
,,0.046200338527112986,0.010340930749531083,0.0005445406983176902,0.05708580997496176,3.9690046827506547,0.8093138828612011,0.18114713190662773,-4.5716453994914925,20.2
,,0.04669250017970243,0.01042362379396326,0.0005432216465793287,0.05765934562024502,3.975364391657394,0.8097993426291683,0.18077943274998556,-4.563680530182771,20.3
,,0.04669250017970243,0.01042362379396326,0.0005432216465793287,0.05765934562024502,3.9817241005641337,0.8097993426291683,0.18077943274998556,-4.563680530182771,20.4
,,0.04669250017970243,0.01042362379396326,0.0005432216465793287,0.05765934562024502,3.988083809470873,0.8097993426291683,0.18077943274998556,-4.563680530182771,20.5
,,0.04669250017970243,0.01042362379396326,0.0005432216465793287,0.05765934562024502,3.994443518377613,0.8097993426291683,0.18077943274998556,-4.563680530182771,20.6
,,0.04669250017970243,0.01042362379396326,0.0005432216465793287,0.05765934562024502,4.000803227284353,0.8097993426291683,0.18077943274998556,-4.563680530182771,20.7
,,0.04669250017970243,0.01042362379396326,0.0005432216465793287,0.05765934562024502,4.007162936191091,0.8097993426291683,0.18077943274998556,-4.563680530182771,20.8
,,0.04669250017970243,0.01042362379396326,0.0005432216465793287,0.05765934562024502,4.014135868989702,0.8097993426291683,0.18077943274998556,-4.563680530182771,20.9
,,0.04783042324588794,0.010788605381106093,0.0006353789605779344,0.059254407587571965,4.020596936988103,0.8072044796870081,0.1820726224485771,-4.5292647591217,21.0
,,0.04783042324588794,0.010788605381106093,0.0006353789605779344,0.059254407587571965,4.027058004986505,0.8072044796870081,0.1820726224485771,-4.5292647591217,21.1
,,0.04783042324588794,0.010788605381106093,0.0006353789605779344,0.059254407587571965,4.033519072984906,0.8072044796870081,0.1820726224485771,-4.5292647591217,21.2
,,0.04783042324588794,0.010788605381106093,0.0006353789605779344,0.059254407587571965,4.039980140983308,0.8072044796870081,0.1820726224485771,-4.5292647591217,21.3
,,0.04783042324588794,0.010788605381106093,0.0006353789605779344,0.059254407587571965,4.046441208981709,0.8072044796870081,0.1820726224485771,-4.5292647591217,21.4
,,0.04783042324588794,0.010788605381106093,0.0006353789605779344,0.059254407587571965,4.05358838459423,0.8072044796870081,0.1820726224485771,-4.5292647591217,21.5
,,0.04866039126394349,0.011167360426040409,0.0007554060199987024,0.060583157709982606,4.0595267244042885,0.803199983349918,0.18433110534613656,-4.494760003043961,21.6
,,0.04881868409648245,0.011207163088990495,0.0007695640077217509,0.0607954111931947,4.065450051646872,0.8029994885855316,0.18434225328909362,-4.491202143596387,21.7
,,0.04881868409648245,0.011207163088990495,0.0007695640077217509,0.0607954111931947,4.071373378889457,0.8029994885855316,0.18434225328909362,-4.491202143596387,21.8
,,0.04881868409648245,0.011207163088990495,0.0007695640077217509,0.0607954111931947,4.07729670613204,0.8029994885855316,0.18434225328909362,-4.491202143596387,21.9
,,0.04881868409648245,0.011207163088990495,0.0007695640077217509,0.0607954111931947,4.083220033374625,0.8029994885855316,0.18434225328909362,-4.491202143596387,22.0
,,0.04881868409648245,0.011207163088990495,0.0007695640077217509,0.0607954111931947,4.089143360617209,0.8029994885855316,0.18434225328909362,-4.491202143596387,22.1
,,0.04951724220430884,0.01160880133511475,0.0009103942400973295,0.06203643777952092,4.094076552228143,0.7981960921143535,0.1871287544970381,-4.455991732778546,22.2
,,0.033144571422375375,0.01164068299933552,0.0009377760825749978,0.045723030504285896,4.083252113898484,0.7248988323131498,0.254591239271517,-4.453249161481409,22.3
,,0.033144571422375375,0.01164068299933552,0.0009377760825749978,0.045723030504285896,4.072427675568826,0.7248988323131498,0.254591239271517,-4.453249161481409,22.4
,,0.033144571422375375,0.01164068299933552,0.0009377760825749978,0.045723030504285896,4.061603237239169,0.7248988323131498,0.254591239271517,-4.453249161481409,22.5
,,0.033144571422375375,0.01164068299933552,0.0009377760825749978,0.045723030504285896,4.05077879890951,0.7248988323131498,0.254591239271517,-4.453249161481409,22.6
,,0.033144571422375375,0.01164068299933552,0.0009377760825749978,0.045723030504285896,4.039954360579852,0.7248988323131498,0.254591239271517,-4.453249161481409,22.7
,,0.05011759247455291,0.009310312265228092,0.00028342145224113084,0.059711326192022136,4.046397368744464,0.8393314245505568,0.1559220479425898,-4.6766326474148165,22.8
,,0.05011759247455291,0.009310312265228092,0.00028342145224113084,0.059711326192022136,4.063492280467935,0.8393314245505568,0.1559220479425898,-4.6766326474148165,22.9
,,0.04992214437916985,0.00927573628191412,0.00027213793357746575,0.05947001859466144,4.080576022185071,0.8394506267003473,0.1559733206935098,-4.6803532901445575,23.0
,,0.04992214437916985,0.00927573628191412,0.00027213793357746575,0.05947001859466144,4.097659763902207,0.8394506267003473,0.1559733206935098,-4.6803532901445575,23.1
,,0.04992214437916985,0.00927573628191412,0.00027213793357746575,0.05947001859466144,4.1147435056193435,0.8394506267003473,0.1559733206935098,-4.6803532901445575,23.2
,,0.04992214437916985,0.00927573628191412,0.00027213793357746575,0.05947001859466144,4.13182724733648,0.8394506267003473,0.1559733206935098,-4.6803532901445575,23.3
,,0.04992214437916985,0.00927573628191412,0.00027213793357746575,0.05947001859466144,4.148910989053616,0.8394506267003473,0.1559733206935098,-4.6803532901445575,23.4
,,0.05018534372037267,0.01241415274318902,0.0012965697976844,0.0638960662612461,4.15064310844141,0.7854214923839657,0.19428665126945988,-4.38891810695899,23.5
,,0.05018534372037267,0.01241415274318902,0.0012965697976844,0.0638960662612461,4.152375227829205,0.7854214923839657,0.19428665126945988,-4.38891810695899,23.6
,,0.049892203692498215,0.009449653539944891,0.0002966998127550386,0.059638557045198146,4.167854021862227,0.8365763050686574,0.15844872860997128,-4.661777200588263,23.7
,,0.049892203692498215,0.009449653539944891,0.0002966998127550386,0.059638557045198146,4.183332815895249,0.8365763050686574,0.15844872860997128,-4.661777200588263,23.8
,,0.049892203692498215,0.009449653539944891,0.0002966998127550386,0.059638557045198146,4.1988116099282715,0.8365763050686574,0.15844872860997128,-4.661777200588263,23.9
,,0.049892203692498215,0.009449653539944891,0.0002966998127550386,0.059638557045198146,4.214290403961294,0.8365763050686574,0.15844872860997128,-4.661777200588263,24.0
,,0.049892203692498215,0.009449653539944891,0.0002966998127550386,0.059638557045198146,4.247190857946528,0.8365763050686574,0.15844872860997128,-4.661777200588263,24.1
,,0.04995845873117699,0.009608284781289745,0.00032586280283049594,0.05989260631529723,4.278139220922944,0.834133990899926,0.16042522395348963,-4.6451295546260445,24.2
,,0.04995845873117699,0.009608284781289745,0.00032586280283049594,0.05989260631529723,4.3090875838993625,0.834133990899926,0.16042522395348963,-4.6451295546260445,24.3
,,0.04829228885060669,0.012348763369656096,0.001502169698872198,0.06214322191913499,4.325715718348016,0.7771127302257987,0.19871456593810266,-4.394199352933348,24.4
,,0.04829228885060669,0.012348763369656096,0.001502169698872198,0.06214322191913499,4.34234385279667,0.7771127302257987,0.19871456593810266,-4.394199352933348,24.5
,,0.04829228885060669,0.012348763369656096,0.001502169698872198,0.06214322191913499,4.358971987245325,0.7771127302257987,0.19871456593810266,-4.394199352933348,24.6
,,0.04829228885060669,0.012348763369656096,0.001502169698872198,0.06214322191913499,4.358465870353997,0.7771127302257987,0.19871456593810266,-4.394199352933348,24.7
,,0.048209813226150866,0.01257550809616807,0.0016387764584346667,0.062424097780753605,4.356140684505542,0.77229491398456,0.20145278094904737,-4.376004158550731,24.8
,,0.048209813226150866,0.01257550809616807,0.0016387764584346667,0.062424097780753605,4.353815498657087,0.77229491398456,0.20145278094904737,-4.376004158550731,24.9
,,0.046516820707667855,0.012219965765219302,0.0016489250565481007,0.06038571152943526,4.351190279531707,0.7703282702066538,0.20236518632826955,-4.404684126779494,25.0
,,0.046516820707667855,0.012219965765219302,0.0016489250565481007,0.06038571152943526,4.348565060406326,0.7703282702066538,0.20236518632826955,-4.404684126779494,25.1
,,0.046516820707667855,0.012219965765219302,0.0016489250565481007,0.06038571152943526,4.345939841280946,0.7703282702066538,0.20236518632826955,-4.404684126779494,25.2
,,0.046516820707667855,0.012219965765219302,0.0016489250565481007,0.06038571152943526,4.343268314338359,0.7703282702066538,0.20236518632826955,-4.404684126779494,25.3
,,0.0471958972766761,0.009336591258562715,0.0003576486749336563,0.05689013721017248,4.3544669464532495,0.8295971778432807,0.16411616699165293,-4.67381405496607,25.4
,,0.0471958972766761,0.009336591258562715,0.0003576486749336563,0.05689013721017248,4.364697043314592,0.8295971778432807,0.16411616699165293,-4.67381405496607,25.5
,,0.0471958972766761,0.009336591258562715,0.0003576486749336563,0.05689013721017248,4.374927140175936,0.8295971778432807,0.16411616699165293,-4.67381405496607,25.6
,,0.04498229263207277,0.012113905193287706,0.0017851842763371073,0.058881382101697584,4.370249890375873,0.7639476355086424,0.20573404972670395,-4.413401296664366,25.7
,,0.04498229263207277,0.012113905193287706,0.0017851842763371073,0.058881382101697584,4.36557264057581,0.7639476355086424,0.20573404972670395,-4.413401296664366,25.8
,,0.04498229263207277,0.012113905193287706,0.0017851842763371073,0.058881382101697584,4.360895390775747,0.7639476355086424,0.20573404972670395,-4.413401296664366,25.9
,,0.04498229263207277,0.012113905193287706,0.0017851842763371073,0.058881382101697584,4.356046821140943,0.7639476355086424,0.20573404972670395,-4.413401296664366,26.0
,,0.04497339125460391,0.012286190313071842,0.001883458657729012,0.059143040225404765,4.3497030018118075,0.7604173049475006,0.20773687430079618,-4.399279386121741,26.1
,,0.04497339125460391,0.012286190313071842,0.001883458657729012,0.059143040225404765,4.343359182482672,0.7604173049475006,0.20773687430079618,-4.399279386121741,26.2
,,0.04380180741582876,0.012071376868597026,0.0019216370286644854,0.057794821313090265,4.336660747554333,0.7578846412300931,0.20886606436938518,-4.416918176758297,26.3
,,0.04380180741582876,0.012071376868597026,0.0019216370286644854,0.057794821313090265,4.3299623126259945,0.7578846412300931,0.20886606436938518,-4.416918176758297,26.4
,,0.04380180741582876,0.012071376868597026,0.0019216370286644854,0.057794821313090265,4.323263877697657,0.7578846412300931,0.20886606436938518,-4.416918176758297,26.5
,,0.04380180741582876,0.012071376868597026,0.0019216370286644854,0.057794821313090265,4.31629476713238,0.7578846412300931,0.20886606436938518,-4.416918176758297,26.6
,,0.04391796315142036,0.012242594000891819,0.001998728339832347,0.058159285492144525,4.308096657989907,0.7551324398122512,0.2105011073862901,-4.402834096174125,26.7
,,0.04391796315142036,0.012242594000891819,0.001998728339832347,0.058159285492144525,4.299898548847435,0.7551324398122512,0.2105011073862901,-4.402834096174125,26.8
,,0.04391796315142036,0.012242594000891819,0.001998728339832347,0.058159285492144525,4.291700439704962,0.7551324398122512,0.2105011073862901,-4.402834096174125,26.9
,,0.04302094276912822,0.012098850145515896,0.0020519621582509953,0.057171755072895104,4.283152098190217,0.7524859559458281,0.21162285695252184,-4.414644860191218,27.0
,,0.04302094276912822,0.012098850145515896,0.0020519621582509953,0.057171755072895104,4.2746037566754715,0.7524859559458281,0.21162285695252184,-4.414644860191218,27.1
,,0.04302094276912822,0.012098850145515896,0.0020519621582509953,0.057171755072895104,4.266055415160726,0.7524859559458281,0.21162285695252184,-4.414644860191218,27.2
,,0.043290444719972586,0.012290626748704094,0.0021110583878813658,0.05769212985655804,4.274401186911235,0.7503700214848564,0.21303818699816957,-4.3989183600646005,27.3
,,0.043290444719972586,0.012290626748704094,0.0021110583878813658,0.05769212985655804,4.2645588450552285,0.7503700214848564,0.21303818699816957,-4.3989183600646005,27.4
,,0.043290444719972586,0.012290626748704094,0.0021110583878813658,0.05769212985655804,4.2547157675614695,0.7503700214848564,0.21303818699816957,-4.3989183600646005,27.5
,,0.04295817055135903,0.008703058571490948,0.000357181198258593,0.05201841032110858,4.260581056505481,0.8258262850821301,0.16730727674619708,-4.744080755162827,27.6
,,0.04295817055135903,0.008703058571490948,0.000357181198258593,0.05201841032110858,4.266446345449493,0.8258262850821301,0.16730727674619708,-4.744080755162827,27.7
,,0.04295817055135903,0.008703058571490948,0.000357181198258593,0.05201841032110858,4.272311634393505,0.8258262850821301,0.16730727674619708,-4.744080755162827,27.8
,,0.04295817055135903,0.008703058571490948,0.000357181198258593,0.05201841032110858,4.2953336922369,0.8258262850821301,0.16730727674619708,-4.744080755162827,27.9
,,0.043371770382257056,0.008751413260845255,0.00037326743433742295,0.052496451077439735,4.3007850056450865,0.8261848085364385,0.16670485492315804,-4.73854007612967,28.0
,,0.043371770382257056,0.008751413260845255,0.00037326743433742295,0.052496451077439735,4.306236319053272,0.8261848085364385,0.16670485492315804,-4.73854007612967,28.1
,,0.04257258613936993,0.012441769131065225,0.002341529731384439,0.057355885001819595,4.294640673615577,0.7422531469616296,0.21692227625239352,-4.386695988674292,28.2
,,0.04257258613936993,0.012441769131065225,0.002341529731384439,0.057355885001819595,4.283045028177882,0.7422531469616296,0.21692227625239352,-4.386695988674292,28.3
,,0.04257258613936993,0.012441769131065225,0.002341529731384439,0.057355885001819595,4.271449382740187,0.7422531469616296,0.21692227625239352,-4.386695988674292,28.4
,,0.04257258613936993,0.012441769131065225,0.002341529731384439,0.057355885001819595,4.2598537373024925,0.7422531469616296,0.21692227625239352,-4.386695988674292,28.5
,,0.04316704414531493,0.012684307437882885,0.0023501347616677985,0.05820148634486562,4.235671091070726,0.741682847917904,0.21793786094608666,-4.367389684356094,28.6
,,0.04316704414531493,0.012684307437882885,0.0023501347616677985,0.05820148634486562,4.223583859938183,0.741682847917904,0.21793786094608666,-4.367389684356094,28.7
,,0.04312427649745461,0.008704033139119579,0.000351409396111969,0.05217971903268615,4.22873364693762,0.8264566635638824,0.16680873911312635,-4.743968781532097,28.8
,,0.04312427649745461,0.008704033139119579,0.000351409396111969,0.05217971903268615,4.2338834339370575,0.8264566635638824,0.16680873911312635,-4.743968781532097,28.9
,,0.04312427649745461,0.008704033139119579,0.000351409396111969,0.05217971903268615,4.239033220936493,0.8264566635638824,0.16680873911312635,-4.743968781532097,29.0
,,0.04312427649745461,0.008704033139119579,0.000351409396111969,0.05217971903268615,4.24418300793593,0.8264566635638824,0.16680873911312635,-4.743968781532097,29.1
,,0.04312427649745461,0.008704033139119579,0.000351409396111969,0.05217971903268615,4.249591906743782,0.8264566635638824,0.16680873911312635,-4.743968781532097,29.2
,,0.04372302019469893,0.01309944002184771,0.002482401662498485,0.05930486187904512,4.236906235295887,0.7372586126896975,0.22088307108048907,-4.335185796112524,29.3
,,0.04372302019469893,0.01309944002184771,0.002482401662498485,0.05930486187904512,4.224220563847993,0.7372586126896975,0.22088307108048907,-4.335185796112524,29.4
,,0.043677755417489854,0.01331342044471863,0.0026836026310997664,0.05967477849330825,4.2109010425298825,0.7319299127752563,0.22309962065819072,-4.3189826965153335,29.5
,,0.043677755417489854,0.01331342044471863,0.0026836026310997664,0.05967477849330825,4.197581521211771,0.7319299127752563,0.22309962065819072,-4.3189826965153335,29.6
,,0.043677755417489854,0.01331342044471863,0.0026836026310997664,0.05967477849330825,4.1842619998936605,0.7319299127752563,0.22309962065819072,-4.3189826965153335,29.7
,,0.043677755417489854,0.01331342044471863,0.0026836026310997664,0.05967477849330825,4.170942478575549,0.7319299127752563,0.22309962065819072,-4.3189826965153335,29.8
,,0.043677755417489854,0.01331342044471863,0.0026836026310997664,0.05967477849330825,4.157622957257438,0.7319299127752563,0.22309962065819072,-4.3189826965153335,29.9
,,0.04391883574988907,0.013482587945364199,0.002599008489296814,0.06000043218455008,4.144556602643214,0.7319753233577212,0.2247081804993385,-4.306356207847098,30.0
,,0.04381879616537596,0.013730841465626042,0.0028214164570458393,0.06037105408804784,4.130754910203628,0.7258245996743518,0.22744081038572508,-4.288110774435921,30.1
,,0.04381879616537596,0.013730841465626042,0.0028214164570458393,0.06037105408804784,4.11695321776404,0.7258245996743518,0.22744081038572508,-4.288110774435921,30.2
,,0.04381879616537596,0.013730841465626042,0.0028214164570458393,0.06037105408804784,4.103151525324453,0.7258245996743518,0.22744081038572508,-4.288110774435921,30.3
,,0.04381879616537596,0.013730841465626042,0.0028214164570458393,0.06037105408804784,4.089349832884865,0.7258245996743518,0.22744081038572508,-4.288110774435921,30.4
,,0.04381879616537596,0.013730841465626042,0.0028214164570458393,0.06037105408804784,4.075548140445279,0.7258245996743518,0.22744081038572508,-4.288110774435921,30.5
,,0.04366896646665034,0.008630175684486352,0.0003354310182027737,0.05263457316933947,4.083355428110942,0.8296631631485948,0.16396401005705458,-4.752490416679601,30.6
,,0.04372822289870878,0.014174565783171798,0.0029374117225729555,0.06084020040445353,4.069232681627381,0.7187389687741372,0.23298026122435675,-4.256306062417981,30.7
,,0.04372822289870878,0.014174565783171798,0.0029374117225729555,0.06084020040445353,4.055109935143818,0.7187389687741372,0.23298026122435675,-4.256306062417981,30.8
,,0.04372822289870878,0.014174565783171798,0.0029374117225729555,0.06084020040445353,4.040987188660257,0.7187389687741372,0.23298026122435675,-4.256306062417981,30.9
,,0.04372822289870878,0.014174565783171798,0.0029374117225729555,0.06084020040445353,4.026864442176694,0.7187389687741372,0.23298026122435675,-4.256306062417981,31.0
,,0.04372822289870878,0.014174565783171798,0.0029374117225729555,0.06084020040445353,4.012741695693133,0.7187389687741372,0.23298026122435675,-4.256306062417981,31.1
,,0.04372822289870878,0.014174565783171798,0.0029374117225729555,0.06084020040445353,3.9996248796399287,0.7187389687741372,0.23298026122435675,-4.256306062417981,31.2
,,0.043820864359974336,0.008777181867715018,0.0003074501844540969,0.052905496412143455,4.023461375293807,0.8282856665515775,0.16590302450503766,-4.735599894644025,31.3
,,0.043820864359974336,0.008777181867715018,0.0003074501844540969,0.052905496412143455,4.047297870947685,0.8282856665515775,0.16590302450503766,-4.735599894644025,31.4
,,0.043820864359974336,0.008777181867715018,0.0003074501844540969,0.052905496412143455,4.071134366601563,0.8282856665515775,0.16590302450503766,-4.735599894644025,31.5
,,0.043820864359974336,0.008777181867715018,0.0003074501844540969,0.052905496412143455,4.094970862255441,0.8282856665515775,0.16590302450503766,-4.735599894644025,31.6
,,0.043820864359974336,0.008777181867715018,0.0003074501844540969,0.052905496412143455,4.11880735790932,0.8282856665515775,0.16590302450503766,-4.735599894644025,31.7
,,0.043820864359974336,0.008777181867715018,0.0003074501844540969,0.052905496412143455,4.11446924468145,0.8282856665515775,0.16590302450503766,-4.735599894644025,31.8
,,0.043820864359974336,0.008777181867715018,0.0003074501844540969,0.052905496412143455,4.11013113145358,0.8282856665515775,0.16590302450503766,-4.735599894644025,31.9
,,0.04443108257635631,0.015849244067177925,0.003293017872815854,0.06357334451635009,4.081479380079646,0.6988948420816418,0.24930643790656226,-4.144633472718719,32.0
,,0.04443108257635631,0.015849244067177925,0.003293017872815854,0.06357334451635009,4.052827628705712,0.6988948420816418,0.24930643790656226,-4.144633472718719,32.1
,,0.04443108257635631,0.015849244067177925,0.003293017872815854,0.06357334451635009,4.024175877331777,0.6988948420816418,0.24930643790656226,-4.144633472718719,32.2
,,0.04443108257635631,0.015849244067177925,0.003293017872815854,0.06357334451635009,3.995524125957843,0.6988948420816418,0.24930643790656226,-4.144633472718719,32.3
,,0.04443108257635631,0.015849244067177925,0.003293017872815854,0.06357334451635009,3.9668723745839087,0.6988948420816418,0.24930643790656226,-4.144633472718719,32.4
,,0.04443108257635631,0.015849244067177925,0.003293017872815854,0.06357334451635009,3.9531031017997957,0.6988948420816418,0.24930643790656226,-4.144633472718719,32.5
,,0.045161370135978735,0.009329519944573525,0.00030979863088505136,0.05480068871143731,3.9619709340372937,0.824102236630344,0.1702445747297038,-4.67457171833264,32.6
,,0.045161370135978735,0.009329519944573525,0.00030979863088505136,0.05480068871143731,3.9570920916295647,0.824102236630344,0.1702445747297038,-4.67457171833264,32.7
,,0.045161370135978735,0.009329519944573525,0.00030979863088505136,0.05480068871143731,3.9522132492218356,0.824102236630344,0.1702445747297038,-4.67457171833264,32.8
,,0.045161370135978735,0.009329519944573525,0.00030979863088505136,0.05480068871143731,3.9473344068141065,0.824102236630344,0.1702445747297038,-4.67457171833264,32.9
,,0.045161370135978735,0.009329519944573525,0.00030979863088505136,0.05480068871143731,3.942455564406377,0.824102236630344,0.1702445747297038,-4.67457171833264,33.0
,,0.045161370135978735,0.009329519944573525,0.00030979863088505136,0.05480068871143731,3.937576721998648,0.824102236630344,0.1702445747297038,-4.67457171833264,33.1
,,0.04583091917198854,0.01818506124605009,0.00280575419294328,0.06682173461098191,3.9078070784193786,0.685868444433593,0.27214290906871247,-4.007154832605491,33.2
,,0.046600597953084785,0.019016827425385203,0.003836503448775159,0.06945392882724515,3.8772623430683635,0.6709569745002599,0.27380491998784307,-3.9624310378081193,33.3
,,0.046600597953084785,0.019016827425385203,0.003836503448775159,0.06945392882724515,3.8610378362451114,0.6709569745002599,0.27380491998784307,-3.9624310378081193,33.4
,,0.046600597953084785,0.019016827425385203,0.003836503448775159,0.06945392882724515,3.84481332942186,0.6709569745002599,0.27380491998784307,-3.9624310378081193,33.5
,,0.046600597953084785,0.019016827425385203,0.003836503448775159,0.06945392882724515,3.828588822598607,0.6709569745002599,0.27380491998784307,-3.9624310378081193,33.6
,,0.046600597953084785,0.019016827425385203,0.003836503448775159,0.06945392882724515,3.8123643157753553,0.6709569745002599,0.27380491998784307,-3.9624310378081193,33.7
,,0.046600597953084785,0.019016827425385203,0.003836503448775159,0.06945392882724515,3.7969961524013383,0.6709569745002599,0.27380491998784307,-3.9624310378081193,33.8
,,0.04797778535310556,0.010725213903897279,0.00039057499942384585,0.05909357425642669,3.8041043356895954,0.8118951333847904,0.18149543395965534,-4.535157869947617,33.9
,,0.04797778535310556,0.010725213903897279,0.00039057499942384585,0.05909357425642669,3.811512552254778,0.8118951333847904,0.18149543395965534,-4.535157869947617,34.0
,,0.04797778535310556,0.010725213903897279,0.00039057499942384585,0.05909357425642669,3.8189207688199605,0.8118951333847904,0.18149543395965534,-4.535157869947617,34.1
,,0.04797778535310556,0.010725213903897279,0.00039057499942384585,0.05909357425642669,3.8263289853851434,0.8118951333847904,0.18149543395965534,-4.535157869947617,34.2
,,0.04797778535310556,0.010725213903897279,0.00039057499942384585,0.05909357425642669,3.8337372019503264,0.8118951333847904,0.18149543395965534,-4.535157869947617,34.3
,,0.04797778535310556,0.010725213903897279,0.00039057499942384585,0.05909357425642669,3.827275259458033,0.8118951333847904,0.18149543395965534,-4.535157869947617,34.4
,,0.050101129018887254,0.011911802305016315,0.0004943974458311589,0.06250732876973474,3.8178426888600723,0.8015240773358018,0.19056649099335468,-4.430225580026235,34.5
,,0.050101129018887254,0.011911802305016315,0.0004943974458311589,0.06250732876973474,3.808410118262112,0.8015240773358018,0.19056649099335468,-4.430225580026235,34.6
,,0.050101129018887254,0.011911802305016315,0.0004943974458311589,0.06250732876973474,3.813884894325558,0.8015240773358018,0.19056649099335468,-4.430225580026235,34.7
,,0.050101129018887254,0.011911802305016315,0.0004943974458311589,0.06250732876973474,3.819359670389003,0.8015240773358018,0.19056649099335468,-4.430225580026235,34.8
,,0.050101129018887254,0.011911802305016315,0.0004943974458311589,0.06250732876973474,3.824834446452449,0.8015240773358018,0.19056649099335468,-4.430225580026235,34.9
,,0.050101129018887254,0.011911802305016315,0.0004943974458311589,0.06250732876973474,3.830309222515895,0.8015240773358018,0.19056649099335468,-4.430225580026235,35.0
,,0.051276163201896596,0.012427908732064348,0.0005738513520171008,0.06427792328597803,3.8354803920567506,0.797725884418582,0.19334645702182238,-4.387810631213066,35.1
,,0.03751248419568512,0.01318420342470615,0.0006442419895133777,0.05134092960990465,3.8264223562336257,0.7306545573036964,0.2567971309612334,-4.328735876268846,35.2
,,0.03751248419568512,0.01318420342470615,0.0006442419895133777,0.05134092960990465,3.8177189360097032,0.7306545573036964,0.2567971309612334,-4.328735876268846,35.3
,,0.03751248419568512,0.01318420342470615,0.0006442419895133777,0.05134092960990465,3.809015515785781,0.7306545573036964,0.2567971309612334,-4.328735876268846,35.4
,,0.03751248419568512,0.01318420342470615,0.0006442419895133777,0.05134092960990465,3.800312095561859,0.7306545573036964,0.2567971309612334,-4.328735876268846,35.5
,,0.03751248419568512,0.01318420342470615,0.0006442419895133777,0.05134092960990465,3.7916086753379363,0.7306545573036964,0.2567971309612334,-4.328735876268846,35.6
,,0.05074089710758368,0.013312065707783361,0.0007244141736825081,0.06477737698904955,3.7941013253515803,0.7833120059208526,0.2055048587415593,-4.319084458934144,35.7
,,0.05127516524935707,0.030089387568470894,0.005702843764060408,0.08706739658188838,3.7731767258609787,0.5889134999130461,0.34558731224002215,-3.5035827418716456,35.8
,,0.05127516524935707,0.030089387568470894,0.005702843764060408,0.08706739658188838,3.752252126370377,0.5889134999130461,0.34558731224002215,-3.5035827418716456,35.9
,,0.05127516524935707,0.030089387568470894,0.005702843764060408,0.08706739658188838,3.731677759252048,0.5889134999130461,0.34558731224002215,-3.5035827418716456,36.0
,,0.05127516524935707,0.030089387568470894,0.005702843764060408,0.08706739658188838,3.711103392133719,0.5889134999130461,0.34558731224002215,-3.5035827418716456,36.1
,,0.05127516524935707,0.030089387568470894,0.005702843764060408,0.08706739658188838,3.69052902501539,0.5889134999130461,0.34558731224002215,-3.5035827418716456,36.2
,,0.050751336843636564,0.03058894085081334,0.005279258491326323,0.08661953618577622,3.669827998024649,0.5859109743417262,0.35314136045716144,-3.4871167454523126,36.3
,,0.050751336843636564,0.03058894085081334,0.005279258491326323,0.08661953618577622,3.649126971033908,0.5859109743417262,0.35314136045716144,-3.4871167454523126,36.4
,,0.050867234033999016,0.032774777199084545,0.0061551738178556884,0.08979718505093925,3.6272357634167562,0.5664680246395648,0.3649866883966618,-3.4180960472476367,36.5
,,0.050867234033999016,0.032774777199084545,0.0061551738178556884,0.08979718505093925,3.5896361893618343,0.5664680246395648,0.3649866883966618,-3.4180960472476367,36.6
,,0.050867234033999016,0.032774777199084545,0.0061551738178556884,0.08979718505093925,3.552036615306912,0.5664680246395648,0.3649866883966618,-3.4180960472476367,36.7
,,0.050867234033999016,0.032774777199084545,0.0061551738178556884,0.08979718505093925,3.51443704125199,0.5664680246395648,0.3649866883966618,-3.4180960472476367,36.8
,,0.050464253407853765,0.033335498588310294,0.005719413154760524,0.08951916515092459,3.476413083576146,0.5637256929594204,0.3723839306600816,-3.401132426122503,36.9
,,0.050464253407853765,0.033335498588310294,0.005719413154760524,0.08951916515092459,3.438167038866164,0.5637256929594204,0.3723839306600816,-3.401132426122503,37.0
,,0.05073350546188947,0.035798078986149964,0.006661117760416203,0.09319270220845563,3.3988474808642195,0.5443935443400661,0.38412963824223034,-3.32986104661996,37.1
,,0.05073350546188947,0.035798078986149964,0.006661117760416203,0.09319270220845563,3.3765748817081556,0.5443935443400661,0.38412963824223034,-3.32986104661996,37.2
,,0.05073350546188947,0.035798078986149964,0.006661117760416203,0.09319270220845563,3.3543022825520925,0.5443935443400661,0.38412963824223034,-3.32986104661996,37.3
,,0.05073350546188947,0.035798078986149964,0.006661117760416203,0.09319270220845563,3.3320296833960286,0.5443935443400661,0.38412963824223034,-3.32986104661996,37.4
,,0.05044940329815091,0.03635711544620169,0.006227219205003182,0.0930337379493558,3.3094281326016364,0.5422699808709582,0.39079495511610196,-3.3143653459826705,37.5
,,0.05044940329815091,0.03635711544620169,0.006227219205003182,0.0930337379493558,3.287032826778999,0.5422699808709582,0.39079495511610196,-3.3143653459826705,37.6
,,0.05086706021146187,0.039073343988399595,0.007219415942385797,0.09715982014224726,3.2636844978481165,0.5235400820729158,0.4021553758662181,-3.242314783907932,37.7
,,0.05086706021146187,0.039073343988399595,0.007219415942385797,0.09715982014224726,3.223099150785255,0.5235400820729158,0.4021553758662181,-3.242314783907932,37.8
,,0.05086706021146187,0.039073343988399595,0.007219415942385797,0.09715982014224726,3.1825138037223932,0.5235400820729158,0.4021553758662181,-3.242314783907932,37.9
,,0.05086706021146187,0.039073343988399595,0.007219415942385797,0.09715982014224726,3.141928456659532,0.5235400820729158,0.4021553758662181,-3.242314783907932,38.0
,,0.050658074843919314,0.03957278665646199,0.006772175018989961,0.09700303651937126,3.101101872693539,0.5222318461525999,0.4079541020198827,-3.2296136026006343,38.1
,,0.050658074843919314,0.03957278665646199,0.006772175018989961,0.09700303651937126,3.0602752887275457,0.5222318461525999,0.4079541020198827,-3.2296136026006343,38.2
,,0.05120495307661864,0.04243106250603988,0.007811667906281271,0.10144768348893979,3.0365975341242484,0.5047424575466152,0.4182556076863586,-3.159874578694682,38.3
,,0.05120495307661864,0.04243106250603988,0.007811667906281271,0.10144768348893979,3.0129197795209515,0.5047424575466152,0.4182556076863586,-3.159874578694682,38.4
,,0.05120495307661864,0.04243106250603988,0.007811667906281271,0.10144768348893979,2.989875874787871,0.5047424575466152,0.4182556076863586,-3.159874578694682,38.5
,,0.05120495307661864,0.04243106250603988,0.007811667906281271,0.10144768348893979,2.966831970054791,0.5047424575466152,0.4182556076863586,-3.159874578694682,38.6
,,0.05120495307661864,0.04243106250603988,0.007811667906281271,0.10144768348893979,2.9437880653217103,0.5047424575466152,0.4182556076863586,-3.159874578694682,38.7
,,0.05102677289935076,0.042752768510474055,0.0073350404527066405,0.10111458186253144,2.920596955432968,0.5046430688772794,0.422815065077338,-3.152321325217312,38.8
,,0.051657679561034474,0.04571871809673555,0.008393382134445222,0.10576977979221525,2.896698853964258,0.4883973443313959,0.43224745467514425,-3.0852474785777466,38.9
,,0.051657679561034474,0.04571871809673555,0.008393382134445222,0.10576977979221525,2.8730594505918683,0.4883973443313959,0.43224745467514425,-3.0852474785777466,39.0
,,0.051657679561034474,0.04571871809673555,0.008393382134445222,0.10576977979221525,2.8501553850448427,0.4883973443313959,0.43224745467514425,-3.0852474785777466,39.1
,,0.051657679561034474,0.04571871809673555,0.008393382134445222,0.10576977979221525,2.827251319497816,0.4883973443313959,0.43224745467514425,-3.0852474785777466,39.2
,,0.051657679561034474,0.04571871809673555,0.008393382134445222,0.10576977979221525,2.80434725395079,0.4883973443313959,0.43224745467514425,-3.0852474785777466,39.3
,,0.05147792390959545,0.04572536032021942,0.007881144699171398,0.10508442892898626,2.7813976846704196,0.4898720432156804,0.4351297407831907,-3.085102204578368,39.4
,,0.05211435739501174,0.04857994193780923,0.008923022962363667,0.10961732229518463,2.7578586462128554,0.47542082130664365,0.4431776011367073,-3.0245445505959547,39.5
,,0.05211435739501174,0.04857994193780923,0.008923022962363667,0.10961732229518463,2.713555562546152,0.47542082130664365,0.4431776011367073,-3.0245445505959547,39.6
,,0.05211435739501174,0.04857994193780923,0.008923022962363667,0.10961732229518463,2.6911975255961473,0.47542082130664365,0.4431776011367073,-3.0245445505959547,39.7
,,0.05211435739501174,0.04857994193780923,0.008923022962363667,0.10961732229518463,2.6688394886461437,0.47542082130664365,0.4431776011367073,-3.0245445505959547,39.8
,,0.05211435739501174,0.04857994193780923,0.008923022962363667,0.10961732229518463,2.6464814516961397,0.47542082130664365,0.4431776011367073,-3.0245445505959547,39.9
,,0.05211435739501174,0.04857994193780923,0.008923022962363667,0.10961732229518463,2.6241234147461356,0.47542082130664365,0.4431776011367073,-3.0245445505959547,40.0
,,0.05041160642679147,0.028920488334300845,0.004617274922876144,0.08394936968396846,2.609213776233103,0.6005001183042642,0.34449917186005624,-3.543204996139085,40.1
,,0.05041160642679147,0.028920488334300845,0.004617274922876144,0.08394936968396846,2.594304137720071,0.6005001183042642,0.34449917186005624,-3.543204996139085,40.2
,,0.05041160642679147,0.028920488334300845,0.004617274922876144,0.08394936968396846,2.5581988174405472,0.6005001183042642,0.34449917186005624,-3.543204996139085,40.3
,,0.05041160642679147,0.028920488334300845,0.004617274922876144,0.08394936968396846,2.522093497161024,0.6005001183042642,0.34449917186005624,-3.543204996139085,40.4
,,0.05041160642679147,0.028920488334300845,0.004617274922876144,0.08394936968396846,2.4859881768815,0.6005001183042642,0.34449917186005624,-3.543204996139085,40.5
,,0.050999676640133995,0.03091535072160076,0.004175914740803622,0.08609094210253837,2.4488444672720906,0.5923930601130021,0.3591010850453828,-3.476502431329478,40.6
,,0.050999676640133995,0.03091535072160076,0.004175914740803622,0.08609094210253837,2.411700757662681,0.5923930601130021,0.3591010850453828,-3.476502431329478,40.7
,,0.05277344692713991,0.051861741282753664,0.009766299678023326,0.11440148788791689,2.367533982465491,0.4613003545796877,0.45333100329572995,-2.959173922829946,40.8
,,0.05277344692713991,0.051861741282753664,0.009766299678023326,0.11440148788791689,2.323367207268301,0.4613003545796877,0.45333100329572995,-2.959173922829946,40.9
,,0.05277344692713991,0.051861741282753664,0.009766299678023326,0.11440148788791689,2.3035252402235114,0.4613003545796877,0.45333100329572995,-2.959173922829946,41.0
,,0.05277344692713991,0.051861741282753664,0.009766299678023326,0.11440148788791689,2.2836832731787218,0.4613003545796877,0.45333100329572995,-2.959173922829946,41.1
,,0.053344282487653,0.05409268305490672,0.01080297608903771,0.11823994163159743,2.2634922498579213,0.4511528147895984,0.4574823220350056,-2.9170563507995886,41.2
,,0.053344282487653,0.05409268305490672,0.01080297608903771,0.11823994163159743,2.2433012265371213,0.4511528147895984,0.4574823220350056,-2.9170563507995886,41.3
,,0.053344282487653,0.05409268305490672,0.01080297608903771,0.11823994163159743,2.223110203216321,0.4511528147895984,0.4574823220350056,-2.9170563507995886,41.4
,,0.04355037639837228,0.05168675653356824,0.009935448574615719,0.10517258150655624,2.201323828866514,0.41408488576138486,0.4914470653204057,-2.9625536901746,41.5
,,0.04355037639837228,0.05168675653356824,0.009935448574615719,0.10517258150655624,2.1569003494950962,0.41408488576138486,0.4914470653204057,-2.9625536901746,41.6
,,0.04355037639837228,0.05168675653356824,0.009935448574615719,0.10517258150655624,2.112476870123679,0.41408488576138486,0.4914470653204057,-2.9625536901746,41.7
,,0.05338157106289042,0.053495634524164226,0.010933544885590289,0.11781075047264493,2.0697787786904667,0.4531129022498278,0.45408109454820633,-2.9281552260886214,41.8
,,0.05338157106289042,0.053495634524164226,0.010933544885590289,0.11781075047264493,2.027080687257254,0.4531129022498278,0.45408109454820633,-2.9281552260886214,41.9
,,0.05338157106289042,0.053495634524164226,0.010933544885590289,0.11781075047264493,1.984382595824042,0.4531129022498278,0.45408109454820633,-2.9281552260886214,42.0
,,0.05338157106289042,0.053495634524164226,0.010933544885590289,0.11781075047264493,1.9416845043908295,0.4531129022498278,0.45408109454820633,-2.9281552260886214,42.1
,,0.05273918975775596,0.050253032123410424,0.009924386427455745,0.11291660830862213,1.9253425240309339,0.46706317651350215,0.44504553294816934,-2.990684393098996,42.2
,,0.05329771388098293,0.05166743650940163,0.010867199343434919,0.11583234973381948,1.9095765298520875,0.4601280557932223,0.4460535992590361,-2.96292755066004,42.3
,,0.05329771388098293,0.05166743650940163,0.010867199343434919,0.11583234973381948,1.8938105356732418,0.4601280557932223,0.4460535992590361,-2.96292755066004,42.4
,,0.05329771388098293,0.05166743650940163,0.010867199343434919,0.11583234973381948,1.8780445414943958,0.4601280557932223,0.4460535992590361,-2.96292755066004,42.5
,,0.05329771388098293,0.05166743650940163,0.010867199343434919,0.11583234973381948,1.8622785473155499,0.4601280557932223,0.4460535992590361,-2.96292755066004,42.6
,,0.05329771388098293,0.05166743650940163,0.010867199343434919,0.11583234973381948,1.8465125531367037,0.4601280557932223,0.4460535992590361,-2.96292755066004,42.7
,,0.05329771388098293,0.05166743650940163,0.010867199343434919,0.11583234973381948,1.830746558957858,0.4601280557932223,0.4460535992590361,-2.96292755066004,42.8
,,0.05323050376433449,0.04899941633504729,0.010721800190726659,0.11295172029010844,1.7931130677409046,0.4712677560608704,0.43380849985459086,-3.0159468924721002,42.9
,,0.05323050376433449,0.04899941633504729,0.010721800190726659,0.11295172029010844,1.7554795765239513,0.4712677560608704,0.43380849985459086,-3.0159468924721002,43.0
,,0.05323050376433449,0.04899941633504729,0.010721800190726659,0.11295172029010844,1.7178460853069981,0.4712677560608704,0.43380849985459086,-3.0159468924721002,43.1
,,0.05323050376433449,0.04899941633504729,0.010721800190726659,0.11295172029010844,1.6802125940900448,0.4712677560608704,0.43380849985459086,-3.0159468924721002,43.2
,,0.05323050376433449,0.04899941633504729,0.010721800190726659,0.11295172029010844,1.6425791028730914,0.4712677560608704,0.43380849985459086,-3.0159468924721002,43.3
,,0.05323050376433449,0.04899941633504729,0.010721800190726659,0.11295172029010844,1.604945611656138,0.4712677560608704,0.43380849985459086,-3.0159468924721002,43.4
,,0.054166593988285855,0.05040117245622531,0.009442082276193533,0.11400984872070469,1.5701534069351002,0.47510451593511294,0.4420773557878797,-2.9877408411550506,43.5
,,0.05327853106360338,0.04580374588985034,0.010524569719418151,0.10960684667287186,1.536344341798737,0.4860876184369788,0.41789128398661385,-3.083389403218454,43.6
,,0.05327853106360338,0.04580374588985034,0.010524569719418151,0.10960684667287186,1.5025352766623743,0.4860876184369788,0.41789128398661385,-3.083389403218454,43.7
,,0.05327853106360338,0.04580374588985034,0.010524569719418151,0.10960684667287186,1.4687262115260113,0.4860876184369788,0.41789128398661385,-3.083389403218454,43.8
,,0.05327853106360338,0.04580374588985034,0.010524569719418151,0.10960684667287186,1.4349171463896486,0.4860876184369788,0.41789128398661385,-3.083389403218454,43.9
,,0.05327853106360338,0.04580374588985034,0.010524569719418151,0.10960684667287186,1.4011080812532857,0.4860876184369788,0.41789128398661385,-3.083389403218454,44.0
,,0.05448704339698321,0.04730413277246825,0.00933961935844007,0.11113079552789154,1.3680631591493444,0.49029652976170846,0.42566178481639577,-3.051157613675981,44.1
,,0.05448704339698321,0.04730413277246825,0.00933961935844007,0.11113079552789154,1.3492474424093837,0.49029652976170846,0.42566178481639577,-3.051157613675981,44.2
,,0.05347764741013796,0.04238921865799975,0.010301218699942044,0.10616808476807976,1.3316510673699404,0.5037073761569486,0.3992651723029329,-3.160861226012054,44.3
,,0.05347764741013796,0.04238921865799975,0.010301218699942044,0.10616808476807976,1.314054692330497,0.5037073761569486,0.3992651723029329,-3.160861226012054,44.4
,,0.05347764741013796,0.04238921865799975,0.010301218699942044,0.10616808476807976,1.2964583172910538,0.5037073761569486,0.3992651723029329,-3.160861226012054,44.5
,,0.05347764741013796,0.04238921865799975,0.010301218699942044,0.10616808476807976,1.2788619422516103,0.5037073761569486,0.3992651723029329,-3.160861226012054,44.6
,,0.051703704542323196,0.03840617109666141,0.009922678171185972,0.10003255381017058,1.2514684662217115,0.5168687849401515,0.38393672493400394,-3.259537126658,44.7
,,0.052433685060852386,0.0417135820149856,0.00860070702583731,0.1027479741016753,1.2465006709773605,0.5103135659781097,0.4059796057264108,-3.17692849541523,44.8
,,0.052433685060852386,0.0417135820149856,0.00860070702583731,0.1027479741016753,1.2415328757330093,0.5103135659781097,0.4059796057264108,-3.17692849541523,44.9
,,0.051360691902583834,0.037036163262189274,0.00948473677436681,0.09788159193913992,1.238007061499516,0.5247226867184435,0.3783772058510996,-3.2958604582035123,45.0
,,0.051360691902583834,0.037036163262189274,0.00948473677436681,0.09788159193913992,1.2344812472660227,0.5247226867184435,0.3783772058510996,-3.2958604582035123,45.1
,,0.051360691902583834,0.037036163262189274,0.00948473677436681,0.09788159193913992,1.2309554330325292,0.5247226867184435,0.3783772058510996,-3.2958604582035123,45.2
,,0.049647813452057425,0.035769630165818606,0.007687497746151191,0.09310494136402722,1.2279426312431587,0.5332457410390439,0.38418616285857893,-3.3306560649925445,45.3
,,0.049647813452057425,0.035769630165818606,0.007687497746151191,0.09310494136402722,1.2249298294537887,0.5332457410390439,0.38418616285857893,-3.3306560649925445,45.4
,,0.049647813452057425,0.035769630165818606,0.007687497746151191,0.09310494136402722,1.223107208290829,0.5332457410390439,0.38418616285857893,-3.3306560649925445,45.5
,,0.048875743032690065,0.031849358138941804,0.008582865432682153,0.08930796660431402,1.2229135122187882,0.5472719275900424,0.356623931211567,-3.4467380497905227,45.6
,,0.048875743032690065,0.031849358138941804,0.008582865432682153,0.08930796660431402,1.2227198161467474,0.5472719275900424,0.356623931211567,-3.4467380497905227,45.7
,,0.048875743032690065,0.031849358138941804,0.008582865432682153,0.08930796660431402,1.2225261200747064,0.5472719275900424,0.356623931211567,-3.4467380497905227,45.8
,,0.048875743032690065,0.031849358138941804,0.008582865432682153,0.08930796660431402,1.2227568076235868,0.5472719275900424,0.356623931211567,-3.4467380497905227,45.9
,,0.04015439090221305,0.06539799870692366,0.013709395827878418,0.11926178543701513,1.2127587079983515,0.3366911769354611,0.5483566967179259,-2.7272636217987634,46.0
,,0.04015439090221305,0.06539799870692366,0.013709395827878418,0.11926178543701513,1.2038341216650783,0.3366911769354611,0.5483566967179259,-2.7272636217987634,46.1
,,0.04015439090221305,0.06539799870692366,0.013709395827878418,0.11926178543701513,1.1949095353318049,0.3366911769354611,0.5483566967179259,-2.7272636217987634,46.2
,,0.04697897807227727,0.027771397805885455,0.007853262654402641,0.08260363853256537,1.1979586316840338,0.5687277086923531,0.3362006601553872,-3.583748643824492,46.3
,,0.04697897807227727,0.027771397805885455,0.007853262654402641,0.08260363853256537,1.2010077280362625,0.5687277086923531,0.3362006601553872,-3.583748643824492,46.4
,,0.04697897807227727,0.027771397805885455,0.007853262654402641,0.08260363853256537,1.20438577602682,0.5687277086923531,0.3362006601553872,-3.583748643824492,46.5
,,0.04588218389650989,0.027117687823089216,0.006316224178187847,0.07931609589778695,1.2077675290127703,0.578472545542803,0.3418938806321889,-3.6075690768052713,46.6
,,0.04588218389650989,0.027117687823089216,0.006316224178187847,0.07931609589778695,1.2121023051069653,0.578472545542803,0.3418938806321889,-3.6075690768052713,46.7
,,0.04588218389650989,0.027117687823089216,0.006316224178187847,0.07931609589778695,1.2164370812011602,0.578472545542803,0.3418938806321889,-3.6075690768052713,46.8
,,0.038735124525674285,0.07521081388633805,0.021105163286080534,0.13505110169809287,1.2076946960480164,0.28681827870065635,0.5569063335334504,-2.587460256684786,46.9
,,0.038735124525674285,0.07521081388633805,0.021105163286080534,0.13505110169809287,1.1989523108948723,0.28681827870065635,0.5569063335334504,-2.587460256684786,47.0
,,0.038735124525674285,0.07521081388633805,0.021105163286080534,0.13505110169809287,1.19045116264486,0.28681827870065635,0.5569063335334504,-2.587460256684786,47.1
,,0.038735124525674285,0.07521081388633805,0.021105163286080534,0.13505110169809287,1.1819500143948478,0.28681827870065635,0.5569063335334504,-2.587460256684786,47.2
,,0.04477244961248041,0.024280111730200157,0.0058180204333901885,0.07487058177607075,1.1890302028339101,0.5979978858236954,0.32429441783715746,-3.718097711063365,47.3
,,0.04477244961248041,0.024280111730200157,0.0058180204333901885,0.07487058177607075,1.1961103912729727,0.5979978858236954,0.32429441783715746,-3.718097711063365,47.4
,,0.04477244961248041,0.024280111730200157,0.0058180204333901885,0.07487058177607075,1.203190579712035,0.5979978858236954,0.32429441783715746,-3.718097711063365,47.5
,,0.04463577319360125,0.022314970227566292,0.006782820422086977,0.07373356384325451,1.2120070407028762,0.6053657366744079,0.30264331553272356,-3.8024975150910705,47.6
,,0.04463577319360125,0.022314970227566292,0.006782820422086977,0.07373356384325451,1.2208235016937177,0.6053657366744079,0.30264331553272356,-3.8024975150910705,47.7
,,0.04463577319360125,0.022314970227566292,0.006782820422086977,0.07373356384325451,1.2297871678402206,0.6053657366744079,0.30264331553272356,-3.8024975150910705,47.8
,,0.04463577319360125,0.022314970227566292,0.006782820422086977,0.07373356384325451,1.2394578255666917,0.6053657366744079,0.30264331553272356,-3.8024975150910705,47.9
,,0.044075766668964705,0.022238014583770765,0.0053933023813229905,0.07170708363405846,1.24892558991951,0.6146640531902792,0.3101229816744137,-3.805952085897231,48.0
,,0.044075766668964705,0.022238014583770765,0.0053933023813229905,0.07170708363405846,1.2583933542723285,0.6146640531902792,0.3101229816744137,-3.805952085897231,48.1
,,0.04403676485614841,0.02063326306680312,0.006340274593302124,0.07101030251625365,1.2695528945880568,0.6201461378941284,0.2905671759683089,-3.880850793451612,48.2
,,0.04403676485614841,0.02063326306680312,0.006340274593302124,0.07101030251625365,1.2807124349037855,0.6201461378941284,0.2905671759683089,-3.880850793451612,48.3
,,0.04403676485614841,0.02063326306680312,0.006340274593302124,0.07101030251625365,1.291917478952859,0.6201461378941284,0.2905671759683089,-3.880850793451612,48.4
,,0.04403676485614841,0.02063326306680312,0.006340274593302124,0.07101030251625365,1.3037119921791256,0.6201461378941284,0.2905671759683089,-3.880850793451612,48.5
,,0.04403676485614841,0.02063326306680312,0.006340274593302124,0.07101030251625365,1.315506505405392,0.6201461378941284,0.2905671759683089,-3.880850793451612,48.6
,,0.03056128187951819,0.08809253300130866,0.018455481771547492,0.13710929665237434,1.3074417040292667,0.22289722597733824,0.6424986135306175,-2.4293675055762742,48.7
,,0.043676852524208123,0.019482515555676178,0.0059887845205172,0.0691481526004015,1.3204316383974752,0.6316416401839565,0.2817503407251267,-3.9382378538033413,48.8
,,0.043676852524208123,0.019482515555676178,0.0059887845205172,0.0691481526004015,1.3334215727656835,0.6316416401839565,0.2817503407251267,-3.9382378538033413,48.9
,,0.043676852524208123,0.019482515555676178,0.0059887845205172,0.0691481526004015,1.3464115071338918,0.6316416401839565,0.2817503407251267,-3.9382378538033413,49.0
,,0.043676852524208123,0.019482515555676178,0.0059887845205172,0.0691481526004015,1.3519530430651288,0.6316416401839565,0.2817503407251267,-3.9382378538033413,49.1
,,0.043676852524208123,0.019482515555676178,0.0059887845205172,0.0691481526004015,1.3574945789963655,0.6316416401839565,0.2817503407251267,-3.9382378538033413,49.2
,,0.043676852524208123,0.019482515555676178,0.0059887845205172,0.0691481526004015,1.3630361149276022,0.6316416401839565,0.2817503407251267,-3.9382378538033413,49.3
,,0.043506727900573215,0.0186563481920654,0.005652572586916257,0.06781564867955488,1.3695794055693598,0.6415440793931336,0.2751038817046652,-3.981568805176826,49.4
,,0.043506727900573215,0.0186563481920654,0.005652572586916257,0.06781564867955488,1.3761226962111175,0.6415440793931336,0.2751038817046652,-3.981568805176826,49.5
,,0.043506727900573215,0.0186563481920654,0.005652572586916257,0.06781564867955488,1.383704376182761,0.6415440793931336,0.2751038817046652,-3.981568805176826,49.6
,,0.043506727900573215,0.0186563481920654,0.005652572586916257,0.06781564867955488,1.3912860561544047,0.6415440793931336,0.2751038817046652,-3.981568805176826,49.7
,,0.043506727900573215,0.0186563481920654,0.005652572586916257,0.06781564867955488,1.4058908017138287,0.6415440793931336,0.2751038817046652,-3.981568805176826,49.8
,,0.043506727900573215,0.0186563481920654,0.005652572586916257,0.06781564867955488,1.420495547273253,0.6415440793931336,0.2751038817046652,-3.981568805176826,49.9
,,0.02354731047858629,0.08777257912284885,0.02360813065641313,0.13492802025784825,1.4121699566746353,0.17451757191417497,0.6505140959981102,-2.4330061377939045,50.0
,,0.02354731047858629,0.08777257912284885,0.02360813065641313,0.13492802025784825,1.4038443660760178,0.17451757191417497,0.6505140959981102,-2.4330061377939045,50.1
,,0.02354731047858629,0.08777257912284885,0.02360813065641313,0.13492802025784825,1.395867831753411,0.17451757191417497,0.6505140959981102,-2.4330061377939045,50.2
,,0.02354731047858629,0.08777257912284885,0.02360813065641313,0.13492802025784825,1.3878912974308042,0.17451757191417497,0.6505140959981102,-2.4330061377939045,50.3
,,0.02354731047858629,0.08777257912284885,0.02360813065641313,0.13492802025784825,1.3799147631081974,0.17451757191417497,0.6505140959981102,-2.4330061377939045,50.4
,,0.02354731047858629,0.08777257912284885,0.02360813065641313,0.13492802025784825,1.3735335798145965,0.17451757191417497,0.6505140959981102,-2.4330061377939045,50.5
,,0.02354731047858629,0.08777257912284885,0.02360813065641313,0.13492802025784825,1.3671523965209957,0.17451757191417497,0.6505140959981102,-2.4330061377939045,50.6
,,0.043497969702471204,0.017856183812640886,0.005180128760363272,0.06653428227547536,1.384857221509974,0.6537677752707136,0.2683756884715461,-4.025405398669505,50.7
,,0.043497969702471204,0.017856183812640886,0.005180128760363272,0.06653428227547536,1.4008366585607466,0.6537677752707136,0.2683756884715461,-4.025405398669505,50.8
,,0.043497969702471204,0.017856183812640886,0.005180128760363272,0.06653428227547536,1.4168160956115192,0.6537677752707136,0.2683756884715461,-4.025405398669505,50.9
,,0.043497969702471204,0.017856183812640886,0.005180128760363272,0.06653428227547536,1.4327955326622919,0.6537677752707136,0.2683756884715461,-4.025405398669505,51.0
,,0.043497969702471204,0.017856183812640886,0.005180128760363272,0.06653428227547536,1.4487749697130647,0.6537677752707136,0.2683756884715461,-4.025405398669505,51.1
,,0.043497969702471204,0.017856183812640886,0.005180128760363272,0.06653428227547536,1.4641810179873025,0.6537677752707136,0.2683756884715461,-4.025405398669505,51.2
,,0.04359636429145539,0.017665072248217114,0.004978168744356313,0.06623960528402882,1.4801408866541423,0.6581615953856991,0.26668444312841305,-4.036165908271828,51.3
,,0.04359636429145539,0.017665072248217114,0.004978168744356313,0.06623960528402882,1.496100755320983,0.6581615953856991,0.26668444312841305,-4.036165908271828,51.4
,,0.04359636429145539,0.017665072248217114,0.004978168744356313,0.06623960528402882,1.5120606239878234,0.6581615953856991,0.26668444312841305,-4.036165908271828,51.5
,,0.04359636429145539,0.017665072248217114,0.004978168744356313,0.06623960528402882,1.5280204926546637,0.6581615953856991,0.26668444312841305,-4.036165908271828,51.6
,,0.04359636429145539,0.017665072248217114,0.004978168744356313,0.06623960528402882,1.543980361321504,0.6581615953856991,0.26668444312841305,-4.036165908271828,51.7
,,0.04359636429145539,0.017665072248217114,0.004978168744356313,0.06623960528402882,1.5599402299883443,0.6581615953856991,0.26668444312841305,-4.036165908271828,51.8
,,0.04372876388206174,0.01755185366016777,0.004800208691583669,0.06608082623381317,1.5755519473194441,0.6617466271885988,0.26561189773965915,-4.042595712985856,51.9
,,0.04372876388206174,0.01755185366016777,0.004800208691583669,0.06608082623381317,1.591163664650544,0.6617466271885988,0.26561189773965915,-4.042595712985856,52.0
,,0.04372876388206174,0.01755185366016777,0.004800208691583669,0.06608082623381317,1.6067753819816442,0.6617466271885988,0.26561189773965915,-4.042595712985856,52.1
,,0.04372876388206174,0.01755185366016777,0.004800208691583669,0.06608082623381317,1.622387099312744,0.6617466271885988,0.26561189773965915,-4.042595712985856,52.2
,,0.04372876388206174,0.01755185366016777,0.004800208691583669,0.06608082623381317,1.6379988166438437,0.6617466271885988,0.26561189773965915,-4.042595712985856,52.3
,,0.04372876388206174,0.01755185366016777,0.004800208691583669,0.06608082623381317,1.6536105339749434,0.6617466271885988,0.26561189773965915,-4.042595712985856,52.4
,,0.04378472895758484,0.0174622782746637,0.004651666042842438,0.06589867327509098,1.66952920342812,0.6644250450203679,0.2649867957396991,-4.047712251707229,52.5
,,0.04378472895758484,0.0174622782746637,0.004651666042842438,0.06589867327509098,1.6844647332966205,0.6644250450203679,0.2649867957396991,-4.047712251707229,52.6
,,0.04378472895758484,0.0174622782746637,0.004651666042842438,0.06589867327509098,1.6994002631651215,0.6644250450203679,0.2649867957396991,-4.047712251707229,52.7
,,0.04378472895758484,0.0174622782746637,0.004651666042842438,0.06589867327509098,1.7143357930336225,0.6644250450203679,0.2649867957396991,-4.047712251707229,52.8
,,0.04378472895758484,0.0174622782746637,0.004651666042842438,0.06589867327509098,1.7292713229021233,0.6644250450203679,0.2649867957396991,-4.047712251707229,52.9
,,0.04378472895758484,0.0174622782746637,0.004651666042842438,0.06589867327509098,1.7442068527706238,0.6644250450203679,0.2649867957396991,-4.047712251707229,53.0
,,0.023482938339812826,0.09499229622308462,0.024624774910819994,0.14310000947371745,1.7341553368049725,0.1641015848019621,0.6638175397223257,-2.3539594830583446,53.1
,,0.023482938339812826,0.09499229622308462,0.024624774910819994,0.14310000947371745,1.7241038208393213,0.1641015848019621,0.6638175397223257,-2.3539594830583446,53.2
,,0.023482938339812826,0.09499229622308462,0.024624774910819994,0.14310000947371745,1.7128329631731525,0.1641015848019621,0.6638175397223257,-2.3539594830583446,53.3
,,0.023482938339812826,0.09499229622308462,0.024624774910819994,0.14310000947371745,1.701562105506984,0.1641015848019621,0.6638175397223257,-2.3539594830583446,53.4
,,0.023482938339812826,0.09499229622308462,0.024624774910819994,0.14310000947371745,1.6902912478408154,0.1641015848019621,0.6638175397223257,-2.3539594830583446,53.5
,,0.023482938339812826,0.09499229622308462,0.024624774910819994,0.14310000947371745,1.679020390174647,0.1641015848019621,0.6638175397223257,-2.3539594830583446,53.6
,,0.026037144806470614,0.096152311012215,0.025162989946695014,0.14735244576538062,1.6670710161481044,0.17669978038863235,0.6525328474378488,-2.3418217717477403,53.7
,,0.026037144806470614,0.096152311012215,0.025162989946695014,0.14735244576538062,1.656113210840261,0.17669978038863235,0.6525328474378488,-2.3418217717477403,53.8
,,0.026037144806470614,0.096152311012215,0.025162989946695014,0.14735244576538062,1.6451554055324178,0.17669978038863235,0.6525328474378488,-2.3418217717477403,53.9
,,0.026037144806470614,0.096152311012215,0.025162989946695014,0.14735244576538062,1.6327556192137167,0.17669978038863235,0.6525328474378488,-2.3418217717477403,54.0
,,0.026037144806470614,0.096152311012215,0.025162989946695014,0.14735244576538062,1.6203558328950152,0.17669978038863235,0.6525328474378488,-2.3418217717477403,54.1
,,0.026037144806470614,0.096152311012215,0.025162989946695014,0.14735244576538062,1.607956046576314,0.17669978038863235,0.6525328474378488,-2.3418217717477403,54.2
,,0.04143744079732801,0.01664290722127761,0.003451616539000925,0.061531964557606546,1.6201983569012486,0.6734295109094731,0.27047579808209166,-4.095771146032417,54.3
,,0.04102116750099354,0.016125508041736722,0.004055642729682013,0.06120231827241228,1.6330414717368014,0.6702551252782258,0.2634787128481291,-4.127352910332326,54.4
,,0.04102116750099354,0.016125508041736722,0.004055642729682013,0.06120231827241228,1.6458845865723541,0.6702551252782258,0.2634787128481291,-4.127352910332326,54.5
,,0.04102116750099354,0.016125508041736722,0.004055642729682013,0.06120231827241228,1.6570987763169889,0.6702551252782258,0.2634787128481291,-4.127352910332326,54.6
,,0.04102116750099354,0.016125508041736722,0.004055642729682013,0.06120231827241228,1.6683129660616232,0.6702551252782258,0.2634787128481291,-4.127352910332326,54.7
,,0.04102116750099354,0.016125508041736722,0.004055642729682013,0.06120231827241228,1.6795271558062574,0.6702551252782258,0.2634787128481291,-4.127352910332326,54.8
,,0.04102116750099354,0.016125508041736722,0.004055642729682013,0.06120231827241228,1.6907413455508917,0.6702551252782258,0.2634787128481291,-4.127352910332326,54.9
,,0.03494933763609051,0.09730170789410221,0.026596310430978397,0.15884735596117114,1.6879100671315155,0.22001837817579772,0.6125484891160969,-2.3299387370757567,55.0
,,0.03494933763609051,0.09730170789410221,0.026596310430978397,0.15884735596117114,1.6850787887121395,0.22001837817579772,0.6125484891160969,-2.3299387370757567,55.1
,,0.03494933763609051,0.09730170789410221,0.026596310430978397,0.15884735596117114,1.6822475102927632,0.22001837817579772,0.6125484891160969,-2.3299387370757567,55.2
,,0.03494933763609051,0.09730170789410221,0.026596310430978397,0.15884735596117114,1.6674425491878853,0.22001837817579772,0.6125484891160969,-2.3299387370757567,55.3
,,0.03494933763609051,0.09730170789410221,0.026596310430978397,0.15884735596117114,1.652637588083007,0.22001837817579772,0.6125484891160969,-2.3299387370757567,55.4
,,0.03494933763609051,0.09730170789410221,0.026596310430978397,0.15884735596117114,1.6378326269781287,0.22001837817579772,0.6125484891160969,-2.3299387370757567,55.5
,,0.03928880446076291,0.01557195278713633,0.0032487519717299624,0.0581095092196292,1.647066894755226,0.6761166113495807,0.2679759818359673,-4.162283881146029,55.6
,,0.03874575120937644,0.015107170632510698,0.0038024878636376013,0.05765540970552474,1.656764235518048,0.6720228233095652,0.26202520647534444,-4.192585771554126,55.7
,,0.03874575120937644,0.015107170632510698,0.0038024878636376013,0.05765540970552474,1.6664615762808703,0.6720228233095652,0.26202520647534444,-4.192585771554126,55.8
,,0.03874575120937644,0.015107170632510698,0.0038024878636376013,0.05765540970552474,1.689236078291031,0.6720228233095652,0.26202520647534444,-4.192585771554126,55.9
,,0.03874575120937644,0.015107170632510698,0.0038024878636376013,0.05765540970552474,1.712010580301192,0.6720228233095652,0.26202520647534444,-4.192585771554126,56.0
,,0.03874575120937644,0.015107170632510698,0.0038024878636376013,0.05765540970552474,1.7347850823113529,0.6720228233095652,0.26202520647534444,-4.192585771554126,56.1
,,0.03874575120937644,0.015107170632510698,0.0038024878636376013,0.05765540970552474,1.757559584321514,0.6720228233095652,0.26202520647534444,-4.192585771554126,56.2
,,0.03761443787555374,0.014601129228832175,0.003718341460931744,0.05593390856531766,1.765694420534761,0.6724800544133067,0.26104253400746147,-4.226656408818213,56.3
,,0.03761443787555374,0.014601129228832175,0.003718341460931744,0.05593390856531766,1.7738292567480085,0.6724800544133067,0.26104253400746147,-4.226656408818213,56.4
,,0.03761443787555374,0.014601129228832175,0.003718341460931744,0.05593390856531766,1.781964092961256,0.6724800544133067,0.26104253400746147,-4.226656408818213,56.5
,,0.03761443787555374,0.014601129228832175,0.003718341460931744,0.05593390856531766,1.7883626566227242,0.6724800544133067,0.26104253400746147,-4.226656408818213,56.6
,,0.03761443787555374,0.014601129228832175,0.003718341460931744,0.05593390856531766,1.7947612202841927,0.6724800544133067,0.26104253400746147,-4.226656408818213,56.7
,,0.03761443787555374,0.014601129228832175,0.003718341460931744,0.05593390856531766,1.8011597839456612,0.6724800544133067,0.26104253400746147,-4.226656408818213,56.8
,,0.03761443787555374,0.014601129228832175,0.003718341460931744,0.05593390856531766,1.8075583476071297,0.6724800544133067,0.26104253400746147,-4.226656408818213,56.9
,,0.03658183114540113,0.014123663772450498,0.003663939666837944,0.054369434584689576,1.8143151053626967,0.6728381750672567,0.2597721289606296,-4.2599036066050076,57.0
,,0.03658183114540113,0.014123663772450498,0.003663939666837944,0.054369434584689576,1.8210718631182639,0.6728381750672567,0.2597721289606296,-4.2599036066050076,57.1
,,0.03658183114540113,0.014123663772450498,0.003663939666837944,0.054369434584689576,1.8261368449109208,0.6728381750672567,0.2597721289606296,-4.2599036066050076,57.2
,,0.03658183114540113,0.014123663772450498,0.003663939666837944,0.054369434584689576,1.8312018267035775,0.6728381750672567,0.2597721289606296,-4.2599036066050076,57.3
,,0.03658183114540113,0.014123663772450498,0.003663939666837944,0.054369434584689576,1.836266808496234,0.6728381750672567,0.2597721289606296,-4.2599036066050076,57.4
,,0.03658183114540113,0.014123663772450498,0.003663939666837944,0.054369434584689576,1.8413317902888908,0.6728381750672567,0.2597721289606296,-4.2599036066050076,57.5
,,0.036121775388626126,0.014050682857620931,0.003090777870255497,0.05326323611650255,1.8461824470141401,0.6781746289244809,0.26379701801985717,-4.265084282417517,57.6
,,0.05322793926113408,0.07204932123737841,0.02322038138765409,0.14849764188616657,1.8505363177065464,0.35844299333680246,0.4851883189674423,-2.63040437729745,57.7
,,0.05322793926113408,0.07204932123737841,0.02322038138765409,0.14849764188616657,1.8338354526546181,0.35844299333680246,0.4851883189674423,-2.63040437729745,57.8
,,0.05322793926113408,0.07204932123737841,0.02322038138765409,0.14849764188616657,1.8171345876026908,0.35844299333680246,0.4851883189674423,-2.63040437729745,57.9
,,0.05322793926113408,0.07204932123737841,0.02322038138765409,0.14849764188616657,1.8004337225507627,0.35844299333680246,0.4851883189674423,-2.63040437729745,58.0
,,0.05322793926113408,0.07204932123737841,0.02322038138765409,0.14849764188616657,1.7837328574988354,0.35844299333680246,0.4851883189674423,-2.63040437729745,58.1
,,0.035240704140997,0.01362109122603245,0.00307532252200783,0.051937117889037286,1.7875702709128174,0.6785263713764043,0.262261207006782,-4.2961358620845145,58.2
,,0.051280906751107115,0.057597769534033484,0.019495835045484976,0.12837451133062558,1.7725533740057575,0.39946330638045685,0.44866982500670843,-2.8542714353975347,58.3
,,0.051280906751107115,0.057597769534033484,0.019495835045484976,0.12837451133062558,1.7565347223881769,0.39946330638045685,0.44866982500670843,-2.8542714353975347,58.4
,,0.051280906751107115,0.057597769534033484,0.019495835045484976,0.12837451133062558,1.7405160707705958,0.39946330638045685,0.44866982500670843,-2.8542714353975347,58.5
,,0.051280906751107115,0.057597769534033484,0.019495835045484976,0.12837451133062558,1.7244974191530145,0.39946330638045685,0.44866982500670843,-2.8542714353975347,58.6
,,0.051280906751107115,0.057597769534033484,0.019495835045484976,0.12837451133062558,1.7084787675354334,0.39946330638045685,0.44866982500670843,-2.8542714353975347,58.7
,,0.051280906751107115,0.057597769534033484,0.019495835045484976,0.12837451133062558,1.6924601159178527,0.39946330638045685,0.44866982500670843,-2.8542714353975347,58.8
,,0.0495701269083573,0.04638511358462801,0.016464612848695895,0.11241985334168121,1.6784229816508622,0.4409374806574177,0.4126060673967281,-3.070776699143714,58.9
,,0.0495701269083573,0.04638511358462801,0.016464612848695895,0.11241985334168121,1.6873161835419128,0.4409374806574177,0.4126060673967281,-3.070776699143714,59.0
,,0.0495701269083573,0.04638511358462801,0.016464612848695895,0.11241985334168121,1.6962093854329638,0.4409374806574177,0.4126060673967281,-3.070776699143714,59.1
,,0.0495701269083573,0.04638511358462801,0.016464612848695895,0.11241985334168121,1.7051025873240149,0.4409374806574177,0.4126060673967281,-3.070776699143714,59.2
,,0.0495701269083573,0.04638511358462801,0.016464612848695895,0.11241985334168121,1.7139957892150657,0.4409374806574177,0.4126060673967281,-3.070776699143714,59.3
,,0.0495701269083573,0.04638511358462801,0.016464612848695895,0.11241985334168121,1.7228889911061167,0.4409374806574177,0.4126060673967281,-3.070776699143714,59.4
,,0.033883080379476536,0.012724532760863144,0.003705507539753969,0.050313120680093644,1.7494949788954326,0.6734442213377226,0.25290684793276197,-4.36422343542297,59.5
,,0.033883080379476536,0.012724532760863144,0.003705507539753969,0.050313120680093644,1.7761009666847485,0.6734442213377226,0.25290684793276197,-4.36422343542297,59.6
,,0.033883080379476536,0.012724532760863144,0.003705507539753969,0.050313120680093644,1.7786209461914855,0.6734442213377226,0.25290684793276197,-4.36422343542297,59.7
,,0.033883080379476536,0.012724532760863144,0.003705507539753969,0.050313120680093644,1.7811409256982225,0.6734442213377226,0.25290684793276197,-4.36422343542297,59.8
,,0.033883080379476536,0.012724532760863144,0.003705507539753969,0.050313120680093644,1.7836609052049597,0.6734442213377226,0.25290684793276197,-4.36422343542297,59.9
,,0.033883080379476536,0.012724532760863144,0.003705507539753969,0.050313120680093644,1.7861808847116962,0.6734442213377226,0.25290684793276197,-4.36422343542297,60.0
,,0.033883080379476536,0.012724532760863144,0.003705507539753969,0.050313120680093644,1.7887008642184332,0.6734442213377226,0.25290684793276197,-4.36422343542297,60.1
,,0.03376215304055031,0.012577863086528153,0.003754036721375982,0.050094052848454446,1.7914590284279766,0.6739752749231185,0.25108495662307384,-4.375816908074453,60.2
,,0.03376215304055031,0.012577863086528153,0.003754036721375982,0.050094052848454446,1.7938624778356131,0.6739752749231185,0.25108495662307384,-4.375816908074453,60.3
,,0.03376215304055031,0.012577863086528153,0.003754036721375982,0.050094052848454446,1.7962659272432493,0.6739752749231185,0.25108495662307384,-4.375816908074453,60.4
,,0.03376215304055031,0.012577863086528153,0.003754036721375982,0.050094052848454446,1.7986693766508859,0.6739752749231185,0.25108495662307384,-4.375816908074453,60.5
,,0.03376215304055031,0.012577863086528153,0.003754036721375982,0.050094052848454446,1.8010728260585223,0.6739752749231185,0.25108495662307384,-4.375816908074453,60.6
,,0.03376215304055031,0.012577863086528153,0.003754036721375982,0.050094052848454446,1.8034762754661589,0.6739752749231185,0.25108495662307384,-4.375816908074453,60.7
,,0.03389725469714388,0.01253093121279222,0.0038076661746169454,0.05023585208455304,1.8061112219269457,0.6747622124551741,0.24944199596139308,-4.379555194177057,60.8
,,0.03389725469714388,0.01253093121279222,0.0038076661746169454,0.05023585208455304,1.808485470099306,0.6747622124551741,0.24944199596139308,-4.379555194177057,60.9
,,0.03389725469714388,0.01253093121279222,0.0038076661746169454,0.05023585208455304,1.8108597182716664,0.6747622124551741,0.24944199596139308,-4.379555194177057,61.0
,,0.03389725469714388,0.01253093121279222,0.0038076661746169454,0.05023585208455304,1.8132339664440271,0.6747622124551741,0.24944199596139308,-4.379555194177057,61.1
,,0.03389725469714388,0.01253093121279222,0.0038076661746169454,0.05023585208455304,1.8156082146163874,0.6747622124551741,0.24944199596139308,-4.379555194177057,61.2
,,0.03389725469714388,0.01253093121279222,0.0038076661746169454,0.05023585208455304,1.8179824627887478,0.6747622124551741,0.24944199596139308,-4.379555194177057,61.3
,,0.034278538654476456,0.012585700724564131,0.003862610370390282,0.05072684974943087,1.8205625244981292,0.6757474359988429,0.24810728020234168,-4.375193972599314,61.4
,,0.034278538654476456,0.012585700724564131,0.003862610370390282,0.05072684974943087,1.8229649756951858,0.6757474359988429,0.24810728020234168,-4.375193972599314,61.5
,,0.034278538654476456,0.012585700724564131,0.003862610370390282,0.05072684974943087,1.8253674268922426,0.6757474359988429,0.24810728020234168,-4.375193972599314,61.6
,,0.034278538654476456,0.012585700724564131,0.003862610370390282,0.05072684974943087,1.8277698780893,0.6757474359988429,0.24810728020234168,-4.375193972599314,61.7
,,0.034278538654476456,0.012585700724564131,0.003862610370390282,0.05072684974943087,1.8301723292863565,0.6757474359988429,0.24810728020234168,-4.375193972599314,61.8
,,0.045063273832329734,0.021796493308693408,0.008257464537728952,0.07511723167875209,1.8252841732954286,0.5999059446845467,0.2901663549305004,-3.8260061795254177,61.9
,,0.034870490148412585,0.01273957383620289,0.003921506154677365,0.05153157013929284,1.8278373893203477,0.6766820815697177,0.2472188175475166,-4.363042080245108,62.0
,,0.034870490148412585,0.01273957383620289,0.003921506154677365,0.05153157013929284,1.8555037207466554,0.6766820815697177,0.2472188175475166,-4.363042080245108,62.1
,,0.034870490148412585,0.01273957383620289,0.003921506154677365,0.05153157013929284,1.8831700521729626,0.6766820815697177,0.2472188175475166,-4.363042080245108,62.2
,,0.034870490148412585,0.01273957383620289,0.003921506154677365,0.05153157013929284,1.9108363835992703,0.6766820815697177,0.2472188175475166,-4.363042080245108,62.3
,,0.034870490148412585,0.01273957383620289,0.003921506154677365,0.05153157013929284,1.938502715025578,0.6766820815697177,0.2472188175475166,-4.363042080245108,62.4
,,0.034870490148412585,0.01273957383620289,0.003921506154677365,0.05153157013929284,1.9661690464518853,0.6766820815697177,0.2472188175475166,-4.363042080245108,62.5
,,0.03583065957654534,0.012981986406674986,0.003930729867128979,0.05274337585034931,1.994089270630804,0.6793395189228875,0.24613491642077,-4.344192543461611,62.6
,,0.03583065957654534,0.012981986406674986,0.003930729867128979,0.05274337585034931,2.0217474752774978,0.6793395189228875,0.24613491642077,-4.344192543461611,62.7
,,0.03583065957654534,0.012981986406674986,0.003930729867128979,0.05274337585034931,2.049405679924191,0.6793395189228875,0.24613491642077,-4.344192543461611,62.8
,,0.03583065957654534,0.012981986406674986,0.003930729867128979,0.05274337585034931,2.077063884570884,0.6793395189228875,0.24613491642077,-4.344192543461611,62.9
,,0.03583065957654534,0.012981986406674986,0.003930729867128979,0.05274337585034931,2.104722089217577,0.6793395189228875,0.24613491642077,-4.344192543461611,63.0
,,0.03583065957654534,0.012981986406674986,0.003930729867128979,0.05274337585034931,2.1323802938642706,0.6793395189228875,0.24613491642077,-4.344192543461611,63.1
,,0.03682599603553773,0.013102345974272279,0.003793765363059932,0.05372210737286995,2.1606008579859455,0.685490533346708,0.24389113932803497,-4.3349639828027815,63.2
,,0.036555231591750156,0.013232627232443537,0.003970200935669096,0.05375805975986279,2.1636309874657513,0.6799953673001286,0.2461515034499696,-4.325069739130536,63.3
,,0.036555231591750156,0.013232627232443537,0.003970200935669096,0.05375805975986279,2.166060312434939,0.6799953673001286,0.2461515034499696,-4.325069739130536,63.4
,,0.036555231591750156,0.013232627232443537,0.003970200935669096,0.05375805975986279,2.1684896374041274,0.6799953673001286,0.2461515034499696,-4.325069739130536,63.5
,,0.035547077291991754,0.01310571935185779,0.003056344097195501,0.051709140741045045,2.170361470119703,0.6874428153816842,0.2534507277444449,-4.334706552308607,63.6
,,0.035547077291991754,0.01310571935185779,0.003056344097195501,0.051709140741045045,2.172233302835279,0.6874428153816842,0.2534507277444449,-4.334706552308607,63.7
,,0.035547077291991754,0.01310571935185779,0.003056344097195501,0.051709140741045045,2.1741051355508554,0.6874428153816842,0.2534507277444449,-4.334706552308607,63.8
,,0.03808347389065211,0.013640768621092507,0.0038883746772405076,0.05561261718898512,2.176860891020512,0.6847991663696613,0.24528190383016638,-4.294692277634473,63.9
,,0.03808347389065211,0.013640768621092507,0.0038883746772405076,0.05561261718898512,2.203890901828295,0.6847991663696613,0.24528190383016638,-4.294692277634473,64.0
,,0.03808347389065211,0.013640768621092507,0.0038883746772405076,0.05561261718898512,2.230920912636078,0.6847991663696613,0.24528190383016638,-4.294692277634473,64.1
,,0.03808347389065211,0.013640768621092507,0.0038883746772405076,0.05561261718898512,2.257950923443861,0.6847991663696613,0.24528190383016638,-4.294692277634473,64.2
,,0.03808347389065211,0.013640768621092507,0.0038883746772405076,0.05561261718898512,2.2849809342516436,0.6847991663696613,0.24528190383016638,-4.294692277634473,64.3
,,0.03808347389065211,0.013640768621092507,0.0038883746772405076,0.05561261718898512,2.3120109450594266,0.6847991663696613,0.24528190383016638,-4.294692277634473,64.4
,,0.03959956954953144,0.014212531343723179,0.003923085034400401,0.057735185927655024,2.33897825626517,0.6858827751789284,0.24616758594199675,-4.253631214544806,64.5
,,0.03959956954953144,0.014212531343723179,0.003923085034400401,0.057735185927655024,2.341902633593545,0.6858827751789284,0.24616758594199675,-4.253631214544806,64.6
,,0.03959956954953144,0.014212531343723179,0.003923085034400401,0.057735185927655024,2.344363937936195,0.6858827751789284,0.24616758594199675,-4.253631214544806,64.7
,,0.03959956954953144,0.014212531343723179,0.003923085034400401,0.057735185927655024,2.3468252422788445,0.6858827751789284,0.24616758594199675,-4.253631214544806,64.8
,,0.03959956954953144,0.014212531343723179,0.003923085034400401,0.057735185927655024,2.349286546621495,0.6858827751789284,0.24616758594199675,-4.253631214544806,64.9
,,0.03959956954953144,0.014212531343723179,0.003923085034400401,0.057735185927655024,2.351747850964145,0.6858827751789284,0.24616758594199675,-4.253631214544806,65.0
,,0.04214169582043043,0.015330420845770024,0.004063562749363801,0.06153567941556426,2.3537941592263714,0.6848335180609301,0.2491306018129783,-4.177916134044043,65.1
,,0.04214169582043043,0.015330420845770024,0.004063562749363801,0.06153567941556426,2.3558404674885978,0.6848335180609301,0.2491306018129783,-4.177916134044043,65.2
,,0.04214169582043043,0.015330420845770024,0.004063562749363801,0.06153567941556426,2.3577600396315583,0.6848335180609301,0.2491306018129783,-4.177916134044043,65.3
,,0.04214169582043043,0.015330420845770024,0.004063562749363801,0.06153567941556426,2.3596796117745185,0.6848335180609301,0.2491306018129783,-4.177916134044043,65.4
,,0.04214169582043043,0.015330420845770024,0.004063562749363801,0.06153567941556426,2.3615991839174786,0.6848335180609301,0.2491306018129783,-4.177916134044043,65.5
,,0.04214169582043043,0.015330420845770024,0.004063562749363801,0.06153567941556426,2.3635187560604387,0.6848335180609301,0.2491306018129783,-4.177916134044043,65.6
,,0.04425812695445398,0.015556571259142372,0.004633268602335181,0.06444796681593154,2.366505949713522,0.686726504202354,0.2413818779353143,-4.163272140610112,65.7
,,0.04474918477785034,0.017308328123986423,0.004330518808273414,0.06638803171011018,2.3666090759813416,0.6740550009563775,0.2607145848149999,-4.056567498861457,65.8
,,0.04474918477785034,0.017308328123986423,0.004330518808273414,0.06638803171011018,2.3667122022491607,0.6740550009563775,0.2607145848149999,-4.056567498861457,65.9
,,0.04474918477785034,0.017308328123986423,0.004330518808273414,0.06638803171011018,2.3666600277965344,0.6740550009563775,0.2607145848149999,-4.056567498861457,66.0
,,0.04474918477785034,0.017308328123986423,0.004330518808273414,0.06638803171011018,2.3666078533439077,0.6740550009563775,0.2607145848149999,-4.056567498861457,66.1
,,0.04474918477785034,0.017308328123986423,0.004330518808273414,0.06638803171011018,2.366555678891281,0.6740550009563775,0.2607145848149999,-4.056567498861457,66.2
,,0.04474918477785034,0.017308328123986423,0.004330518808273414,0.06638803171011018,2.3665035044386546,0.6740550009563775,0.2607145848149999,-4.056567498861457,66.3
,,0.046862015502349655,0.020619348045356405,0.004790951648539642,0.0722723151962457,2.3629769638576965,0.6484089429694093,0.2853007820403615,-3.881525418480153,66.4
,,0.046862015502349655,0.020619348045356405,0.004790951648539642,0.0722723151962457,2.359450423276738,0.6484089429694093,0.2853007820403615,-3.881525418480153,66.5
,,0.046862015502349655,0.020619348045356405,0.004790951648539642,0.0722723151962457,2.356138207763187,0.6484089429694093,0.2853007820403615,-3.881525418480153,66.6
,,0.046862015502349655,0.020619348045356405,0.004790951648539642,0.0722723151962457,2.3731820928848717,0.6484089429694093,0.2853007820403615,-3.881525418480153,66.7
,,0.046862015502349655,0.020619348045356405,0.004790951648539642,0.0722723151962457,2.3902259780065562,0.6484089429694093,0.2853007820403615,-3.881525418480153,66.8
,,0.046862015502349655,0.020619348045356405,0.004790951648539642,0.0722723151962457,2.4072698631282408,0.6484089429694093,0.2853007820403615,-3.881525418480153,66.9
,,0.048780249577670055,0.026085838402940084,0.005591063832019532,0.08045715181262968,2.4198389615031437,0.6062885458743373,0.32422025656201875,-3.646362701834339,67.0
,,0.048780249577670055,0.026085838402940084,0.005591063832019532,0.08045715181262968,2.4324080598780466,0.6062885458743373,0.32422025656201875,-3.646362701834339,67.1
,,0.048780249577670055,0.026085838402940084,0.005591063832019532,0.08045715181262968,2.42443887978704,0.6062885458743373,0.32422025656201875,-3.646362701834339,67.2
,,0.048780249577670055,0.026085838402940084,0.005591063832019532,0.08045715181262968,2.435324010017075,0.6062885458743373,0.32422025656201875,-3.646362701834339,67.3
,,0.048780249577670055,0.026085838402940084,0.005591063832019532,0.08045715181262968,2.4462091402471104,0.6062885458743373,0.32422025656201875,-3.646362701834339,67.4
,,0.048780249577670055,0.026085838402940084,0.005591063832019532,0.08045715181262968,2.4570942704771457,0.6062885458743373,0.32422025656201875,-3.646362701834339,67.5
,,0.05032590699091957,0.033242732158903804,0.006692047144908934,0.09026068629473231,2.4640227596449056,0.5575617586884738,0.36829691334669007,-3.403919117459836,67.6
,,0.051137608460728526,0.03436069163542253,0.0068647283752329025,0.09236302847138396,2.4706664374255753,0.5536588536242296,0.3720178106337019,-3.3708420529818675,67.7
,,0.051137608460728526,0.03436069163542253,0.0068647283752329025,0.09236302847138396,2.477310115206245,0.5536588536242296,0.3720178106337019,-3.3708420529818675,67.8
,,0.051137608460728526,0.03436069163542253,0.0068647283752329025,0.09236302847138396,2.481972275636325,0.5536588536242296,0.3720178106337019,-3.3708420529818675,67.9
,,0.051137608460728526,0.03436069163542253,0.0068647283752329025,0.09236302847138396,2.4866344360664043,0.5536588536242296,0.3720178106337019,-3.3708420529818675,68.0
,,0.051137608460728526,0.03436069163542253,0.0068647283752329025,0.09236302847138396,2.491296596496484,0.5536588536242296,0.3720178106337019,-3.3708420529818675,68.1
,,0.05273287645545989,0.044189662079652255,0.008470995856770679,0.10539353439188283,2.4926817748642778,0.5003426136121806,0.41928247624130954,-3.119264406855551,68.2
,,0.053869332229062594,0.04591908999745053,0.00868863558287119,0.10847705780938433,2.4938425673731586,0.49659654600626874,0.4233069270567742,-3.0808743442958786,68.3
,,0.053869332229062594,0.04591908999745053,0.00868863558287119,0.10847705780938433,2.49500335988204,0.49659654600626874,0.4233069270567742,-3.0808743442958786,68.4
,,0.053869332229062594,0.04591908999745053,0.00868863558287119,0.10847705780938433,2.4784513664926555,0.49659654600626874,0.4233069270567742,-3.0808743442958786,68.5
,,0.053869332229062594,0.04591908999745053,0.00868863558287119,0.10847705780938433,2.4618993731032717,0.49659654600626874,0.4233069270567742,-3.0808743442958786,68.6
,,0.053869332229062594,0.04591908999745053,0.00868863558287119,0.10847705780938433,2.445347379713888,0.49659654600626874,0.4233069270567742,-3.0808743442958786,68.7
,,0.053869332229062594,0.04591908999745053,0.00868863558287119,0.10847705780938433,2.4287953863245035,0.49659654600626874,0.4233069270567742,-3.0808743442958786,68.8
,,0.04245331717095831,0.01365499355166733,0.002913551923418083,0.05902186264604372,2.4337529472091166,0.7192812166154838,0.23135483936785983,-4.293649996288925,68.9
,,0.04142724667715849,0.013281241712495562,0.0028033665005806046,0.05751185489023466,2.4388242210160564,0.7203253443350983,0.2309305053339651,-4.321402636857975,69.0
,,0.04142724667715849,0.013281241712495562,0.0028033665005806046,0.05751185489023466,2.443895494822996,0.7203253443350983,0.2309305053339651,-4.321402636857975,69.1
,,0.04142724667715849,0.013281241712495562,0.0028033665005806046,0.05751185489023466,2.448728583927129,0.7203253443350983,0.2309305053339651,-4.321402636857975,69.2
,,0.04142724667715849,0.013281241712495562,0.0028033665005806046,0.05751185489023466,2.4535616730312624,0.7203253443350983,0.2309305053339651,-4.321402636857975,69.3
,,0.04142724667715849,0.013281241712495562,0.0028033665005806046,0.05751185489023466,2.4583947621353963,0.7203253443350983,0.2309305053339651,-4.321402636857975,69.4
,,0.058359003746638556,0.07514259271592205,0.013591888618623033,0.14709348508118364,2.437199112748051,0.39674771261575,0.5108492240458471,-2.5883677342955624,69.5
,,0.058359003746638556,0.07514259271592205,0.013591888618623033,0.14709348508118364,2.416003463360706,0.39674771261575,0.5108492240458471,-2.5883677342955624,69.6
,,0.059684337862728365,0.07759202539021373,0.013786932467315969,0.15106329572025806,2.3947251878177283,0.3950949009695444,0.5136391670806663,-2.556290622663738,69.7
,,0.059684337862728365,0.07759202539021373,0.013786932467315969,0.15106329572025806,2.3732154152216003,0.3950949009695444,0.5136391670806663,-2.556290622663738,69.8
,,0.059684337862728365,0.07759202539021373,0.013786932467315969,0.15106329572025806,2.3517056426254714,0.3950949009695444,0.5136391670806663,-2.556290622663738,69.9
,,0.059684337862728365,0.07759202539021373,0.013786932467315969,0.15106329572025806,2.3301958700293435,0.3950949009695444,0.5136391670806663,-2.556290622663738,70.0
,,0.04012123444872401,0.012330835505099497,0.0023334571746382233,0.05478552712846173,2.336291929849609,0.732332726390444,0.22507468945559314,-4.395652202130861,70.1
,,0.04012123444872401,0.012330835505099497,0.0023334571746382233,0.05478552712846173,2.342387989669875,0.732332726390444,0.22507468945559314,-4.395652202130861,70.2
,,0.03920643562039437,0.011890638741133287,0.0022086017616520758,0.05330567612317974,2.3489676077410016,0.7355020791743719,0.22306515189219586,-4.432003848853287,70.3
,,0.03920643562039437,0.011890638741133287,0.0022086017616520758,0.05330567612317974,2.3553414122751075,0.7355020791743719,0.22306515189219586,-4.432003848853287,70.4
,,0.03920643562039437,0.011890638741133287,0.0022086017616520758,0.05330567612317974,2.3617152168092135,0.7355020791743719,0.22306515189219586,-4.432003848853287,70.5
,,0.03920643562039437,0.011890638741133287,0.0022086017616520758,0.05330567612317974,2.3680890213433194,0.7355020791743719,0.22306515189219586,-4.432003848853287,70.6
,,0.03920643562039437,0.011890638741133287,0.0022086017616520758,0.05330567612317974,2.3744628258774254,0.7355020791743719,0.22306515189219586,-4.432003848853287,70.7
,,0.06144817684344216,0.10606144550652774,0.01873762201150645,0.18624724436147636,2.3506378711412097,0.32992797855403966,0.5694658509990048,-2.243736678226601,70.8
,,0.03808808545748195,0.011178565488876286,0.0019692918602110974,0.05123594280656933,2.365524398515582,0.7433860561769228,0.21817819437964947,-4.493757129963859,70.9
,,0.03808808545748195,0.011178565488876286,0.0019692918602110974,0.05123594280656933,2.372969553874107,0.7433860561769228,0.21817819437964947,-4.493757129963859,71.0
,,0.03808808545748195,0.011178565488876286,0.0019692918602110974,0.05123594280656933,2.3804147092326318,0.7433860561769228,0.21817819437964947,-4.493757129963859,71.1
,,0.03808808545748195,0.011178565488876286,0.0019692918602110974,0.05123594280656933,2.387859864591157,0.7433860561769228,0.21817819437964947,-4.493757129963859,71.2
,,0.03808808545748195,0.011178565488876286,0.0019692918602110974,0.05123594280656933,2.3953050199496824,0.7433860561769228,0.21817819437964947,-4.493757129963859,71.3
,,0.03782441592202012,0.01094765131039485,0.0018879336825336755,0.05066000091494865,2.403281097009546,0.7466327524455091,0.21610049571010645,-4.514630337927753,71.4
,,0.03782441592202012,0.01094765131039485,0.0018879336825336755,0.05066000091494865,2.41125717406941,0.7466327524455091,0.21610049571010645,-4.514630337927753,71.5
,,0.06055843949985254,0.11643844125480131,0.02000513435153715,0.197002015106191,2.3863689596239634,0.3074001018071283,0.5910520315847373,-2.1503925468758585,71.6
,,0.06055843949985254,0.11643844125480131,0.02000513435153715,0.197002015106191,2.3614807451785165,0.3074001018071283,0.5910520315847373,-2.1503925468758585,71.7
,,0.06055843949985254,0.11643844125480131,0.02000513435153715,0.197002015106191,2.3365925307330695,0.3074001018071283,0.5910520315847373,-2.1503925468758585,71.8
,,0.06055843949985254,0.11643844125480131,0.02000513435153715,0.197002015106191,2.311704316287623,0.3074001018071283,0.5910520315847373,-2.1503925468758585,71.9
,,0.03678090028682273,0.010252370169292634,0.0017115144072837075,0.048744784863399074,2.3208990040350086,0.7545607266479157,0.21032752935567506,-4.5802463641001,72.0
,,0.03678090028682273,0.010252370169292634,0.0017115144072837075,0.048744784863399074,2.3300936917823947,0.7545607266479157,0.21032752935567506,-4.5802463641001,72.1
,,0.03604797420520681,0.009743355510640652,0.0015904026622628746,0.04738173237811034,2.339972670128541,0.7607989914243922,0.20563527379893645,-4.631169712377717,72.2
,,0.03604797420520681,0.009743355510640652,0.0015904026622628746,0.04738173237811034,2.3503864699096915,0.7607989914243922,0.20563527379893645,-4.631169712377717,72.3
