time,ecg,hr,rr,marker,norm_time
1715328518653736904,-0.009,83.0,787.0,,0.0
1715328518661432108,-0.004,,,,0.007695204
1715328518669127312,0.0,,,,0.015390408
1715328518676822516,0.002,,,,0.023085612
1715328518684517720,0.009,,,,0.030780816
1715328518692212924,0.011,,,,0.03847602
1715328518699908128,0.011,,,,0.046171224
1715328518707603332,0.011,,,,0.053866428
1715328518715298536,0.016,,,,0.061561632
1715328518722993740,0.021,,,,0.069256836
1715328518730688944,0.023,,,,0.07695204
1715328518738384148,0.021,,,,0.084647244
1715328518746079352,0.019,,,,0.092342448
1715328518753774556,0.019,,,,0.100037652
1715328518761469760,0.019,,,,0.107732856
1715328518769164964,0.014,,,,0.11542806
1715328518776860168,0.019,,,,0.123123264
1715328518784555372,0.026,,,,0.130818468
1715328518792250576,0.021,,,,0.138513672
1715328518799945780,0.014,,,,0.146208876
1715328518807640984,0.019,,,,0.15390408
1715328518815336188,0.026,,,,0.161599284
1715328518823031392,0.014,,,,0.169294488
1715328518830726596,0.004,,,,0.176989692
1715328518838421800,0.0,,,,0.184684896
1715328518846117004,-0.007,,,,0.1923801
1715328518853812208,0.007,,,,0.200075304
1715328518861507412,0.054,,,,0.207770508
1715328518869202616,0.114,,,,0.215465712
1715328518876897820,0.149,,,,0.223160916
1715328518884593024,0.121,,,,0.23085612
1715328518892288228,0.068,,,,0.238551324
1715328518899983432,0.061,,,,0.246246528
1715328518907678636,0.073,,,,0.253941732
1715328518915373840,0.073,,,,0.261636936
1715328518923069044,0.073,,,,0.26933214
1715328518930764248,0.076,,,,0.277027344
1715328518938459452,0.073,,,,0.284722548
1715328518946154656,0.068,,,,0.292417752
1715328518953849860,0.057,,,,0.300112956
1715328518961545064,0.011,,,,0.30780816
1715328518969240268,0.066,,,,0.315503364
1715328518976935472,0.522,,,,0.323198568
1715328518984630676,1.323,,,,0.330893772
1715328518992325880,1.615,,,,0.338588976
1715328519000021084,0.6960000000000001,,,,0.34628418
1715328519007716288,-0.32,,,,0.353979384
1715328519015411492,-0.135,,,,0.361674588
1715328519023106696,0.256,,,,0.369369792
1715328519030801900,0.023,,,,0.377064996
1715328519038497104,-0.085,,,,0.3847602
1715328519046192308,0.054,,,,0.392455404
1715328519053887512,0.028,,,,0.400150608
1715328519061582716,-0.016,,,,0.407845812
1715328519069277920,0.038,,,,0.415541016
1715328519076973124,0.054,,,,0.42323622
1715328519084668328,0.042,,,,0.430931424
1715328519092363532,0.066,,,,0.438626628
1715328519100058736,0.087,,,,0.446321832
1715328519107753940,0.099,,,,0.454017036
1715328519115449144,0.121,,,,0.46171224
1715328519123144348,0.142,,,,0.469407444
1715328519130839552,0.161,,,,0.477102648
1715328519138534756,0.19,,,,0.484797852
1715328519146229960,0.218,,,,0.492493056
1715328519153925164,0.242,,,,0.50018826
1715328519161620368,0.273,,,,0.507883464
1715328519169315572,0.308,,,,0.515578668
1715328519177010776,0.349,,,,0.523273872
1715328519184705980,0.387,,,,0.530969076
1715328519192401184,0.42,,,,0.53866428
1715328519200096388,0.451,,,,0.546359484
1715328519207791592,0.47,,,,0.554054688
1715328519215486816,0.475,82.0,769.0,,0.561749912
1715328519223182020,0.472,,,,0.569445116
1715328519230877224,0.444,,,,0.57714032
1715328519238572428,0.373,,,,0.584835524
1715328519246267632,0.273,,,,0.592530728
1715328519253962836,0.163,,,,0.600225932
1715328519261658040,0.064,,,,0.607921136
1715328519269353244,-0.019,,,,0.61561634
1715328519277048448,-0.078,,,,0.623311544
1715328519284743652,-0.114,,,,0.631006748
1715328519292438856,-0.128,,,,0.638701952
1715328519300134060,-0.135,,,,0.646397156
1715328519307829264,-0.137,,,,0.65409236
1715328519315524468,-0.133,,,,0.661787564
1715328519323219672,-0.121,,,,0.669482768
1715328519330914876,-0.116,,,,0.677177972
1715328519338610080,-0.109,,,,0.684873176
1715328519346305284,-0.097,,,,0.69256838
1715328519354000488,-0.087,,,,0.700263584
1715328519361695692,-0.08,,,,0.707958788
1715328519369390896,-0.071,,,,0.715653992
1715328519377086100,-0.059,,,,0.723349196
1715328519384781304,-0.045,,,,0.7310444
1715328519392476508,-0.04,,,,0.738739604
1715328519400171712,-0.035,,,,0.746434808
1715328519407866916,-0.023,,,,0.754130012
1715328519415562120,-0.014,,,,0.761825216
1715328519423257324,-0.009,,,,0.76952042
1715328519430952528,-0.004,,,,0.777215624
1715328519438647732,0.002,,,,0.784910828
1715328519446342936,0.007,,,,0.792606032
1715328519454038140,0.007,,,,0.800301236
1715328519461733344,0.009,,,,0.80799644
1715328519469428548,0.014,,,,0.815691644
1715328519477123752,0.011,,,,0.823386848
1715328519484818956,0.007,,,,0.831082052
1715328519492514160,0.009,,,,0.838777256
1715328519500209364,0.016,,,,0.84647246
1715328519507904568,0.016,,,,0.854167664
1715328519515599772,0.016,,,,0.861862868
1715328519523294976,0.023,,,,0.869558072
1715328519530990180,0.026,,,,0.877253276
1715328519538685384,0.026,,,,0.88494848
1715328519546380588,0.026,,,,0.892643684
1715328519554075792,0.021,,,,0.900338888
1715328519561770996,0.019,,,,0.908034092
1715328519569466200,0.023,,,,0.915729296
1715328519577161404,0.026,,,,0.9234245
1715328519584856608,0.026,,,,0.931119704
1715328519592551812,0.028,,,,0.938814908
1715328519600247016,0.023,,,,0.946510112
1715328519607942220,0.014,,,,0.954205316
1715328519615637424,0.004,,,,0.96190052
1715328519623332628,0.0,,,,0.969595724
1715328519631027832,0.014,,,,0.977290928
1715328519638723036,0.057,,,,0.984986132
1715328519646418240,0.116,,,,0.992681336
1715328519654113444,0.154,,,,1.00037654
1715328519661808648,0.128,,,,1.008071744
1715328519669503852,0.076,,,,1.015766948
1715328519677199056,0.066,,,,1.023462152
1715328519684894260,0.08,,,,1.031157356
1715328519692589464,0.076,,,,1.03885256
1715328519700284668,0.071,,,,1.046547764
1715328519707979872,0.076,,,,1.054242968
1715328519715675076,0.076,,,,1.061938172
1715328519723370280,0.068,,,,1.069633376
1715328519731065484,0.054,,,,1.07732858
1715328519738760688,0.016,,,,1.085023784
1715328519746455892,0.047,,,,1.092718988
1715328519754151096,0.441,,,,1.100414192
1715328519761846300,1.221,,,,1.108109396
1715328519769541504,1.62,,,,1.1158046
1715328519777236728,0.812,,,,1.123499824
1715328519784931932,-0.275,,,,1.131195028
1715328519792627136,-0.194,,,,1.138890232
1715328519800322340,0.249,,,,1.146585436
1715328519808017544,0.059,,,,1.15428064
1715328519815712748,-0.097,,,,1.161975844
1715328519823407952,0.045,,,,1.169671048
1715328519831103156,0.049,,,,1.177366252
1715328519838798360,-0.009,,,,1.185061456
1715328519846493564,0.04,,,,1.19275666
1715328519854188768,0.068,,,,1.200451864
1715328519861883972,0.052,,,,1.208147068
1715328519869579176,0.066,,,,1.215842272
1715328519877274380,0.09,,,,1.223537476
1715328519884969584,0.099,,,,1.23123268
1715328519892664788,0.116,,,,1.238927884
1715328519900359992,0.142,,,,1.246623088
1715328519908055196,0.161,,,,1.254318292
1715328519915750400,0.182,,,,1.262013496
1715328519923445604,0.213,,,,1.2697087
1715328519931140808,0.242,,,,1.277403904
1715328519938836012,0.27,,,,1.285099108
1715328519946531216,0.308,,,,1.292794312
1715328519954226420,0.346,,,,1.300489516
1715328519961921624,0.384,,,,1.30818472
1715328519969616828,0.418,,,,1.315879924
1715328519977312032,0.441,,,,1.323575128
1715328519985007236,0.463,,,,1.331270332
1715328519992702440,0.475,,,,1.338965536
1715328520000397644,0.47,,,,1.34666074
1715328520008092848,0.444,,,,1.354355944
1715328520015788052,0.382,,,,1.362051148
1715328520023483256,0.285,,,,1.369746352
1715328520031178460,0.175,,,,1.377441556
1715328520038873664,0.073,,,,1.38513676
1715328520046568868,-0.004,,,,1.392831964
1715328520054264072,-0.066,,,,1.400527168
1715328520061959276,-0.111,,,,1.408222372
1715328520069654480,-0.135,,,,1.415917576
1715328520077349684,-0.137,,,,1.42361278
1715328520085044888,-0.137,,,,1.431307984
1715328520092740092,-0.14,,,,1.439003188
1715328520100435296,-0.13,,,,1.446698392
1715328520108130500,-0.121,,,,1.454393596
1715328520115825704,-0.116,,,,1.4620888
1715328520123520908,-0.104,,,,1.469784004
1715328520131216112,-0.092,,,,1.477479208
1715328520138911316,-0.085,,,,1.485174412
1715328520146606520,-0.078,,,,1.492869616
1715328520154301724,-0.066,,,,1.50056482
1715328520161996928,-0.054,,,,1.508260024
1715328520169692132,-0.045,,,,1.515955228
1715328520177387336,-0.04,,,,1.523650432
1715328520185082540,-0.03,,,,1.531345636
1715328520192777744,-0.021,,,,1.53904084
1715328520200472948,-0.014,,,,1.546736044
1715328520208168152,-0.009,,,,1.554431248
1715328520215863356,-0.007,,,,1.562126452
1715328520223558560,-0.007,,,,1.569821656
1715328520231253764,-0.004,,,,1.57751686
1715328520238948968,0.0,,,,1.585212064
1715328520246644172,0.004,,,,1.592907268
1715328520254339376,0.007,,,,1.600602472
1715328520262034580,0.009,,,,1.608297676
1715328520269729784,0.007,,,,1.61599288
1715328520277424988,0.011,,,,1.623688084
1715328520285120192,0.016,,,,1.631383288
1715328520292815396,0.019,,,,1.639078492
1715328520300510600,0.021,,,,1.646773696
1715328520308205804,0.026,,,,1.6544689
1715328520315901008,0.026,,,,1.662164104
1715328520323596212,0.026,,,,1.669859308
1715328520331291416,0.028,,,,1.677554512
1715328520338986640,0.035,82.0,777.0,,1.685249736
1715328520346681426,0.038,,,,1.692944522
1715328520354376212,0.038,,,,1.700639308
1715328520362070998,0.04,,,,1.708334094
1715328520369765784,0.04,,,,1.71602888
1715328520377460570,0.033,,,,1.723723666
1715328520385155356,0.016,,,,1.731418452
1715328520392850142,0.002,,,,1.739113238
1715328520400544928,0.0,,,,1.746808024
1715328520408239714,0.014,,,,1.75450281
1715328520415934500,0.052,,,,1.762197596
1715328520423629286,0.109,,,,1.769892382
1715328520431324072,0.152,,,,1.777587168
1715328520439018858,0.133,,,,1.785281954
1715328520446713644,0.083,,,,1.79297674
1715328520454408430,0.061,,,,1.800671526
1715328520462103216,0.068,,,,1.808366312
1715328520469798002,0.068,,,,1.816061098
1715328520477492788,0.066,,,,1.823755884
1715328520485187574,0.068,,,,1.83145067
1715328520492882360,0.068,,,,1.839145456
1715328520500577146,0.064,,,,1.846840242
1715328520508271932,0.057,,,,1.854535028
1715328520515966718,0.019,,,,1.862229814
1715328520523661504,0.026,,,,1.8699246
1715328520531356290,0.346,,,,1.877619386
1715328520539051076,1.093,,,,1.885314172
1715328520546745862,1.62,,,,1.893008958
1715328520554440648,0.988,,,,1.900703744
1715328520562135434,-0.171,,,,1.90839853
1715328520569830220,-0.282,,,,1.916093316
1715328520577525006,0.204,,,,1.923788102
1715328520585219792,0.106,,,,1.931482888
1715328520592914578,-0.092,,,,1.939177674
1715328520600609364,0.03,,,,1.94687246
1715328520608304150,0.061,,,,1.954567246
1715328520615998936,-0.002,,,,1.962262032
1715328520623693722,0.035,,,,1.969956818
1715328520631388508,0.076,,,,1.977651604
1715328520639083294,0.064,,,,1.98534639
1715328520646778080,0.073,,,,1.993041176
1715328520654472866,0.097,,,,2.000735962
1715328520662167652,0.109,,,,2.008430748
1715328520669862438,0.125,,,,2.016125534
1715328520677557224,0.149,,,,2.02382032
1715328520685252010,0.168,,,,2.031515106
1715328520692946796,0.187,,,,2.039209892
1715328520700641582,0.213,,,,2.046904678
1715328520708336368,0.24,,,,2.054599464
1715328520716031154,0.266,,,,2.06229425
1715328520723725940,0.304,,,,2.069989036
1715328520731420726,0.344,,,,2.077683822
1715328520739115512,0.377,,,,2.085378608
1715328520746810298,0.413,,,,2.093073394
1715328520754505084,0.446,,,,2.10076818
1715328520762199870,0.47,,,,2.108462966
1715328520769894656,0.48,,,,2.116157752
1715328520777589442,0.48,,,,2.123852538
1715328520785284228,0.453,,,,2.131547324
1715328520792979014,0.394,,,,2.13924211
1715328520800673800,0.299,,,,2.146936896
1715328520808368586,0.187,,,,2.154631682
1715328520816063372,0.083,,,,2.162326468
1715328520823758158,0.004,,,,2.170021254
1715328520831452944,-0.059,,,,2.17771604
1715328520839147730,-0.099,,,,2.185410826
1715328520846842516,-0.118,,,,2.193105612
1715328520854537302,-0.123,,,,2.200800398
1715328520862232088,-0.128,,,,2.208495184
1715328520869926874,-0.128,,,,2.21618997
1715328520877621660,-0.123,,,,2.223884756
1715328520885316446,-0.118,,,,2.231579542
1715328520893011232,-0.114,,,,2.239274328
1715328520900706036,-0.099,,,,2.246969132
1715328520908401240,-0.087,,,,2.254664336
1715328520916096444,-0.083,,,,2.26235954
1715328520923791648,-0.078,,,,2.270054744
1715328520931486852,-0.068,,,,2.277749948
1715328520939182056,-0.057,,,,2.285445152
1715328520946877260,-0.052,,,,2.293140356
1715328520954572464,-0.045,,,,2.30083556
1715328520962267668,-0.035,,,,2.308530764
1715328520969962872,-0.03,,,,2.316225968
1715328520977658076,-0.023,,,,2.323921172
1715328520985353280,-0.021,,,,2.331616376
1715328520993048484,-0.021,,,,2.33931158
1715328521000743688,-0.011,,,,2.347006784
1715328521008438892,-0.004,,,,2.354701988
1715328521016134096,-0.002,,,,2.362397192
1715328521023829300,0.0,,,,2.370092396
1715328521031524504,0.004,,,,2.3777876
1715328521039219708,0.007,,,,2.385482804
1715328521046914912,0.004,,,,2.393178008
1715328521054610116,0.007,,,,2.400873212
1715328521062305320,0.011,,,,2.408568416
1715328521070000524,0.011,,,,2.41626362
1715328521077695728,0.007,,,,2.423958824
1715328521085390932,0.009,,,,2.431654028
1715328521093086136,0.019,,,,2.439349232
1715328521100781340,0.021,,,,2.447044436
1715328521108476544,0.016,,,,2.45473964
1715328521116171748,0.021,,,,2.462434844
1715328521123866952,0.03,,,,2.470130048
1715328521131562156,0.03,,,,2.477825252
1715328521139257360,0.033,,,,2.485520456
1715328521146952564,0.028,,,,2.49321566
1715328521154647768,0.019,,,,2.500910864
1715328521162342972,0.011,,,,2.508606068
1715328521170038176,0.0,,,,2.516301272
1715328521177733380,0.007,,,,2.523996476
1715328521185428584,0.049,,,,2.53169168
1715328521193123788,0.099,,,,2.539386884
1715328521200818992,0.14,,,,2.547082088
1715328521208514196,0.135,,,,2.554777292
1715328521216209400,0.087,,,,2.562472496
1715328521223904604,0.061,,,,2.5701677
1715328521231599808,0.073,,,,2.577862904
1715328521239295012,0.078,,,,2.585558108
1715328521246990216,0.071,,,,2.593253312
1715328521254685420,0.068,,,,2.600948516
1715328521262380624,0.076,,,,2.60864372
1715328521270075828,0.08,,,,2.616338924
1715328521277771032,0.076,,,,2.624034128
1715328521285466236,0.038,,,,2.631729332
1715328521293161440,0.023,,,,2.639424536
1715328521300856644,0.289,,,,2.64711974
1715328521308551848,1.007,,,,2.654814944
1715328521316247052,1.656,,,,2.662510148
1715328521323942256,1.23,,,,2.670205352
1715328521331637460,-0.004,,,,2.677900556
1715328521339332664,-0.363,,,,2.68559576
1715328521347027868,0.156,,,,2.693290964
1715328521354723072,0.175,,,,2.700986168
1715328521362418276,-0.083,,,,2.708681372
1715328521370113480,0.019,,,,2.716376576
1715328521377808684,0.09,,,,2.72407178
1715328521385503888,0.007,,,,2.731766984
1715328521393199092,0.03,,,,2.739462188
1715328521400894296,0.085,,,,2.747157392
1715328521408589500,0.073,,,,2.754852596
1715328521416284704,0.078,,,,2.7625478
1715328521423979908,0.109,,,,2.770243004
1715328521431675112,0.116,,,,2.777938208
1715328521439370316,0.123,,,,2.785633412
1715328521447065520,0.142,,,,2.793328616
1715328521454760724,0.163,,,,2.80102382
1715328521462455948,0.187,81.0,777.0,,2.808719044
1715328521470151152,0.211,,778.0,,2.816414248
1715328521477846356,0.237,,,,2.824109452
1715328521485541560,0.27,,,,2.831804656
1715328521493236764,0.308,,,,2.83949986
1715328521500931968,0.346,,,,2.847195064
1715328521508627172,0.392,,,,2.854890268
1715328521516322376,0.432,,,,2.862585472
1715328521524017580,0.456,,,,2.870280676
1715328521531712784,0.468,,,,2.87797588
1715328521539407988,0.482,,,,2.885671084
1715328521547103192,0.484,,,,2.893366288
1715328521554798396,0.463,,,,2.901061492
1715328521562493600,0.406,,,,2.908756696
1715328521570188804,0.308,,,,2.9164519
1715328521577884008,0.182,,,,2.924147104
1715328521585579212,0.066,,,,2.931842308
1715328521593274416,-0.016,,,,2.939537512
1715328521600969620,-0.078,,,,2.947232716
1715328521608664824,-0.125,,,,2.95492792
1715328521616360028,-0.152,,,,2.962623124
1715328521624055232,-0.156,,,,2.970318328
1715328521631750436,-0.159,,,,2.978013532
1715328521639445640,-0.161,,,,2.985708736
1715328521647140844,-0.154,,,,2.99340394
1715328521654836048,-0.142,,,,3.001099144
1715328521662531252,-0.137,,,,3.008794348
1715328521670226456,-0.133,,,,3.016489552
1715328521677921660,-0.128,,,,3.024184756
1715328521685616864,-0.116,,,,3.03187996
1715328521693312068,-0.106,,,,3.039575164
1715328521701007272,-0.097,,,,3.047270368
1715328521708702476,-0.09,,,,3.054965572
1715328521716397680,-0.078,,,,3.062660776
1715328521724092884,-0.057,,,,3.07035598
1715328521731788088,-0.04,,,,3.078051184
1715328521739483292,-0.033,,,,3.085746388
1715328521747178496,-0.026,,,,3.093441592
1715328521754873700,-0.021,,,,3.101136796
1715328521762568904,-0.016,,,,3.108832
1715328521770264108,-0.011,,,,3.116527204
1715328521777959312,-0.007,,,,3.124222408
1715328521785654516,0.0,,,,3.131917612
1715328521793349720,0.002,,,,3.139612816
1715328521801044924,0.007,,,,3.14730802
1715328521808740128,0.011,,,,3.155003224
1715328521816435332,0.014,,,,3.162698428
1715328521824130536,0.014,,,,3.170393632
1715328521831825740,0.016,,,,3.178088836
1715328521839520944,0.021,,,,3.18578404
1715328521847216148,0.023,,,,3.193479244
1715328521854911352,0.028,,,,3.201174448
1715328521862606556,0.038,,,,3.208869652
1715328521870301760,0.042,,,,3.216564856
1715328521877996964,0.04,,,,3.22426006
1715328521885692168,0.038,,,,3.231955264
1715328521893387372,0.042,,,,3.239650468
1715328521901082576,0.047,,,,3.247345672
1715328521908777780,0.047,,,,3.255040876
1715328521916472984,0.042,,,,3.26273608
1715328521924168188,0.038,,,,3.270431284
1715328521931863392,0.03,,,,3.278126488
1715328521939558596,0.011,,,,3.285821692
1715328521947253800,0.007,,,,3.293516896
1715328521954949004,0.035,,,,3.3012121
1715328521962644208,0.085,,,,3.308907304
1715328521970339412,0.142,,,,3.316602508
1715328521978034616,0.159,,,,3.324297712
1715328521985729820,0.109,,,,3.331992916
1715328521993425024,0.066,,,,3.33968812
1715328522001120228,0.073,,,,3.347383324
1715328522008815432,0.087,,,,3.355078528
1715328522016510636,0.085,,,,3.362773732
1715328522024205860,0.08,,,,3.370468956
1715328522031901064,0.078,,,,3.37816416
1715328522039596268,0.083,,,,3.385859364
1715328522047291472,0.085,,,,3.393554568
1715328522054986676,0.066,,,,3.401249772
1715328522062681880,0.038,,,,3.408944976
1715328522070377084,0.178,,,,3.41664018
1715328522078072288,0.807,,,,3.424335384
1715328522085767492,1.687,,,,3.432030588
1715328522093462696,1.722,,,,3.439725792
1715328522101157900,0.513,,,,3.447420996
1715328522108853104,-0.389,,,,3.4551162
1715328522116548308,-0.03,,,,3.462811404
1715328522124243512,0.24,,,,3.470506608
1715328522131938716,-0.064,,,,3.478201812
1715328522139633920,-0.085,,,,3.485897016
1715328522147329124,0.061,,,,3.49359222
1715328522155024328,0.004,,,,3.501287424
1715328522162719532,-0.019,,,,3.508982628
1715328522170414736,0.045,,,,3.516677832
1715328522178109940,0.047,,,,3.524373036
1715328522185805144,0.035,,,,3.53206824
1715328522193500348,0.057,,,,3.539763444
1715328522201195552,0.076,,,,3.547458648
1715328522208890756,0.09,,,,3.555153852
1715328522216585960,0.106,,,,3.562849056
1715328522224281164,0.125,,,,3.57054426
1715328522231976368,0.152,,,,3.578239464
1715328522239671572,0.18,,,,3.585934668
1715328522247366776,0.199,,,,3.593629872
1715328522255061980,0.223,,,,3.601325076
1715328522262757184,0.261,,,,3.60902028
1715328522270452388,0.299,,,,3.616715484
1715328522278147592,0.335,,,,3.624410688
1715328522285842796,0.375,,,,3.632105892
1715328522293538000,0.418,,,,3.639801096
1715328522301233204,0.451,,,,3.6474963
1715328522308928408,0.461,,,,3.655191504
1715328522316623612,0.449,,,,3.662886708
1715328522324318816,0.444,,,,3.670581912
1715328522332014020,0.418,,,,3.678277116
1715328522339709224,0.344,,,,3.68597232
1715328522347404428,0.232,,,,3.693667524
1715328522355099632,0.118,,,,3.701362728
1715328522362794836,0.026,,,,3.709057932
1715328522370490040,-0.04,,,,3.716753136
1715328522378185244,-0.09,,,,3.72444834
1715328522385880448,-0.118,,,,3.732143544
1715328522393575652,-0.125,,,,3.739838748
1715328522401270856,-0.123,,,,3.747533952
1715328522408966060,-0.121,,,,3.755229156
1715328522416661264,-0.123,,,,3.76292436
1715328522424356468,-0.121,,,,3.770619564
1715328522432051672,-0.114,,,,3.778314768
1715328522439746876,-0.111,,,,3.786009972
1715328522447442080,-0.104,,,,3.793705176
1715328522455137284,-0.095,,,,3.80140038
1715328522462832488,-0.085,,,,3.809095584
1715328522470527692,-0.078,,,,3.816790788
1715328522478222896,-0.066,,,,3.824485992
1715328522485918100,-0.059,,,,3.832181196
1715328522493613304,-0.054,,,,3.8398764
1715328522501308508,-0.047,,,,3.847571604
1715328522509003712,-0.035,,,,3.855266808
1715328522516698916,-0.026,,,,3.862962012
1715328522524394120,-0.016,,,,3.870657216
1715328522532089324,-0.014,,,,3.87835242
1715328522539784528,-0.011,,,,3.886047624
1715328522547479732,-0.004,,,,3.893742828
1715328522555174936,-0.004,,,,3.901438032
1715328522562870140,-0.002,,,,3.909133236
1715328522570565344,0.007,,,,3.91682844
1715328522578260548,0.011,,,,3.924523644
1715328522585955772,0.007,80.0,778.0,,3.932218868
1715328522593650976,-0.004,,,,3.939914072
1715328522601346180,-0.004,,,,3.947609276
1715328522609041384,0.004,,,,3.95530448
1715328522616736588,0.007,,,,3.962999684
1715328522624431792,0.007,,,,3.970694888
1715328522632126996,0.004,,,,3.978390092
1715328522639822200,0.0,,,,3.986085296
1715328522647517404,0.002,,,,3.9937805
1715328522655212608,0.011,,,,4.001475704
1715328522662907812,0.019,,,,4.009170908
1715328522670603016,0.021,,,,4.016866112
1715328522678298220,0.014,,,,4.024561316
1715328522685993424,0.007,,,,4.03225652
1715328522693688628,0.004,,,,4.039951724
1715328522701383832,0.011,,,,4.047646928
1715328522709079036,0.019,,,,4.055342132
1715328522716774240,0.016,,,,4.063037336
1715328522724469444,0.009,,,,4.07073254
1715328522732164648,0.0,,,,4.078427744
1715328522739859852,-0.002,,,,4.086122948
1715328522747555056,-0.004,,,,4.093818152
1715328522755250260,0.009,,,,4.101513356
1715328522762945464,0.049,,,,4.10920856
1715328522770640668,0.102,,,,4.116903764
1715328522778335872,0.133,,,,4.124598968
1715328522786031076,0.109,,,,4.132294172
1715328522793726280,0.061,,,,4.139989376
1715328522801421484,0.057,,,,4.14768458
1715328522809116688,0.073,,,,4.155379784
1715328522816811892,0.068,,,,4.163074988
1715328522824507096,0.066,,,,4.170770192
1715328522832202300,0.073,,,,4.178465396
1715328522839897504,0.073,,,,4.1861606
1715328522847592708,0.068,,,,4.193855804
1715328522855287912,0.061,,,,4.201551008
1715328522862983116,0.033,,,,4.209246212
1715328522870678320,0.071,,,,4.216941416
1715328522878373524,0.484,,,,4.22463662
1715328522886068728,1.333,,,,4.232331824
1715328522893763932,1.803,,,,4.240027028
1715328522901459136,0.983,,,,4.247722232
1715328522909154340,-0.209,,,,4.255417436
1715328522916849544,-0.22,,,,4.26311264
1715328522924544748,0.237,,,,4.270807844
1715328522932239952,0.059,,,,4.278503048
1715328522939935156,-0.121,,,,4.286198252
1715328522947630360,0.016,,,,4.293893456
1715328522955325564,0.026,,,,4.30158866
1715328522963020768,-0.038,,,,4.309283864
1715328522970715972,0.007,,,,4.316979068
1715328522978411176,0.04,,,,4.324674272
1715328522986106380,0.03,,,,4.332369476
1715328522993801584,0.042,,,,4.34006468
1715328523001496788,0.064,,,,4.347759884
1715328523009191992,0.08,,,,4.355455088
1715328523016887196,0.099,,,,4.363150292
1715328523024582400,0.121,,,,4.370845496
1715328523032277604,0.142,,,,4.3785407
1715328523039972808,0.166,,,,4.386235904
1715328523047668012,0.192,,,,4.393931108
1715328523055363216,0.218,,,,4.401626312
1715328523063058420,0.251,,,,4.409321516
1715328523070753624,0.289,,,,4.41701672
1715328523078448828,0.325,,,,4.424711924
1715328523086144032,0.365,,,,4.432407128
1715328523093839236,0.401,,,,4.440102332
1715328523101534440,0.42,,,,4.447797536
1715328523109229644,0.437,,,,4.45549274
1715328523116924848,0.456,,,,4.463187944
1715328523124620052,0.456,,,,4.470883148
1715328523132315256,0.43,,,,4.478578352
1715328523140010460,0.365,,,,4.486273556
1715328523147705684,0.268,,,,4.49396878
1715328523155400888,0.159,,,,4.501663984
1715328523163096092,0.061,,,,4.509359188
1715328523170791296,-0.023,,,,4.517054392
1715328523178486500,-0.09,,,,4.524749596
1715328523186181704,-0.125,,,,4.5324448
1715328523193876908,-0.142,,,,4.540140004
1715328523201572112,-0.154,,,,4.547835208
1715328523209267316,-0.159,,,,4.555530412
1715328523216962520,-0.152,,,,4.563225616
1715328523224657724,-0.142,,,,4.57092082
1715328523232352928,-0.142,,,,4.578616024
1715328523240048132,-0.135,,,,4.586311228
1715328523247743336,-0.116,,,,4.594006432
1715328523255438540,-0.102,,,,4.601701636
1715328523263133744,-0.095,,,,4.60939684
1715328523270828948,-0.087,,,,4.617092044
1715328523278524152,-0.076,,,,4.624787248
1715328523286219356,-0.064,,,,4.632482452
1715328523293914560,-0.059,,,,4.640177656
1715328523301609764,-0.049,,,,4.64787286
1715328523309304968,-0.04,,,,4.655568064
1715328523317000172,-0.035,,,,4.663263268
1715328523324695376,-0.028,,,,4.670958472
1715328523332390580,-0.019,,,,4.678653676
1715328523340085784,-0.011,,,,4.68634888
1715328523347780988,-0.009,,,,4.694044084
1715328523355476192,-0.007,,,,4.701739288
1715328523363171396,-0.002,,,,4.709434492
1715328523370866600,0.0,,,,4.717129696
1715328523378561804,0.004,,,,4.7248249
1715328523386257008,0.007,,,,4.732520104
1715328523393952212,0.009,,,,4.740215308
1715328523401647416,0.014,,,,4.747910512
1715328523409342620,0.016,,,,4.755605716
1715328523417037824,0.014,,,,4.76330092
1715328523424733028,0.016,,,,4.770996124
1715328523432428232,0.019,,,,4.778691328
1715328523440123436,0.021,,,,4.786386532
1715328523447818640,0.021,,,,4.794081736
1715328523455513844,0.026,,,,4.80177694
1715328523463209048,0.033,,,,4.809472144
1715328523470904252,0.033,,,,4.817167348
1715328523478599456,0.035,,,,4.824862552
1715328523486294660,0.04,,,,4.832557756
1715328523493989864,0.047,,,,4.84025296
1715328523501685068,0.047,,,,4.847948164
1715328523509380272,0.045,,,,4.855643368
1715328523517075476,0.049,,,,4.863338572
1715328523524770680,0.054,,,,4.871033776
1715328523532465884,0.057,,,,4.87872898
1715328523540161088,0.059,,,,4.886424184
1715328523547856292,0.059,,,,4.894119388
1715328523555551496,0.057,,,,4.901814592
1715328523563246700,0.054,,,,4.909509796
1715328523570941904,0.049,,,,4.917205
1715328523578637108,0.042,,,,4.924900204
1715328523586332312,0.033,,,,4.932595408
1715328523594027516,0.026,,,,4.940290612
1715328523601722720,0.047,,,,4.947985816
1715328523609417924,0.092,,,,4.95568102
1715328523617113128,0.137,,,,4.963376224
1715328523624808332,0.152,,,,4.971071428
1715328523632503536,0.111,,,,4.978766632
1715328523640198740,0.064,,,,4.986461836
1715328523647893944,0.057,,,,4.99415704
1715328523655589148,0.068,,,,5.001852244
1715328523663284352,0.061,,,,5.009547448
1715328523670979556,0.054,,,,5.017242652
1715328523678674760,0.054,,,,5.024937856
1715328523686369964,0.052,,,,5.03263306
1715328523694065168,0.052,,,,5.040328264
1715328523701760372,0.045,,,,5.048023468
1715328523709455596,0.002,80.0,771.0,,5.055718692
1715328523717150800,0.066,,,,5.063413896
1715328523724846004,0.532,,,,5.0711091
1715328523732541208,1.316,,,,5.078804304
1715328523740236412,1.575,,,,5.086499508
1715328523747931616,0.632,,,,5.094194712
1715328523755626820,-0.375,,,,5.101889916
1715328523763322024,-0.156,,,,5.10958512
1715328523771017228,0.237,,,,5.117280324
1715328523778712432,-0.016,,,,5.124975528
1715328523786407636,-0.116,,,,5.132670732
1715328523794102840,0.042,,,,5.140365936
1715328523801798044,0.016,,,,5.14806114
1715328523809493248,-0.033,,,,5.155756344
1715328523817188452,0.03,,,,5.163451548
1715328523824883656,0.054,,,,5.171146752
1715328523832578860,0.038,,,,5.178841956
1715328523840274064,0.064,,,,5.18653716
1715328523847969268,0.095,,,,5.194232364
1715328523855664472,0.106,,,,5.201927568
1715328523863359676,0.128,,,,5.209622772
1715328523871054880,0.154,,,,5.217317976
1715328523878750084,0.173,,,,5.22501318
1715328523886445288,0.199,,,,5.232708384
1715328523894140492,0.228,,,,5.240403588
1715328523901835696,0.256,,,,5.248098792
1715328523909530900,0.287,,,,5.255793996
1715328523917226104,0.316,,,,5.2634892
1715328523924921308,0.351,,,,5.271184404
1715328523932616512,0.392,,,,5.278879608
1715328523940311716,0.427,,,,5.286574812
1715328523948006920,0.453,,,,5.294270016
1715328523955702124,0.47,,,,5.30196522
1715328523963397328,0.48,,,,5.309660424
1715328523971092532,0.48,,,,5.317355628
1715328523978787736,0.453,,,,5.325050832
1715328523986482940,0.389,,,,5.332746036
1715328523994178144,0.289,,,,5.34044124
1715328524001873348,0.185,,,,5.348136444
1715328524009568552,0.09,,,,5.355831648
1715328524017263756,0.014,,,,5.363526852
1715328524024958960,-0.04,,,,5.371222056
1715328524032654164,-0.076,,,,5.37891726
1715328524040349368,-0.092,,,,5.386612464
1715328524048044572,-0.095,,,,5.394307668
1715328524055739776,-0.095,,,,5.402002872
1715328524063434980,-0.095,,,,5.409698076
1715328524071130184,-0.09,,,,5.41739328
1715328524078825388,-0.083,,,,5.425088484
1715328524086520592,-0.073,,,,5.432783688
1715328524094215796,-0.061,,,,5.440478892
1715328524101911000,-0.052,,,,5.448174096
1715328524109606204,-0.047,,,,5.4558693
1715328524117301408,-0.045,,,,5.463564504
1715328524124996612,-0.035,,,,5.471259708
1715328524132691816,-0.026,,,,5.478954912
1715328524140387020,-0.023,,,,5.486650116
1715328524148082224,-0.016,,,,5.49434532
1715328524155777428,-0.009,,,,5.502040524
1715328524163472632,-0.009,,,,5.509735728
1715328524171167836,-0.004,,,,5.517430932
1715328524178863040,0.009,,,,5.525126136
1715328524186558244,0.014,,,,5.53282134
1715328524194253448,0.009,,,,5.540516544
1715328524201948652,0.009,,,,5.548211748
1715328524209643856,0.016,,,,5.555906952
1715328524217339060,0.016,,,,5.563602156
1715328524225034264,0.016,,,,5.57129736
1715328524232729468,0.021,,,,5.578992564
1715328524240424672,0.023,,,,5.586687768
1715328524248119876,0.023,,,,5.594382972
1715328524255815080,0.021,,,,5.602078176
1715328524263510284,0.023,,,,5.60977338
1715328524271205508,0.028,80.0,772.0,,5.617468604
1715328524278900642,0.03,,,,5.625163738
1715328524286595776,0.03,,,,5.632858872
1715328524294290910,0.028,,,,5.640554006
1715328524301986044,0.035,,,,5.64824914
1715328524309681178,0.038,,,,5.655944274
1715328524317376312,0.026,,,,5.663639408
1715328524325071446,0.03,,,,5.671334542
1715328524332766580,0.045,,,,5.679029676
1715328524340461714,0.04,,,,5.68672481
1715328524348156848,0.035,,,,5.694419944
1715328524355851982,0.045,,,,5.702115078
1715328524363547116,0.054,,,,5.709810212
1715328524371242250,0.054,,,,5.717505346
1715328524378937384,0.052,,,,5.72520048
1715328524386632518,0.052,,,,5.732895614
1715328524394327652,0.047,,,,5.740590748
1715328524402022786,0.038,,,,5.748285882
1715328524409717920,0.019,,,,5.755981016
1715328524417413054,0.007,,,,5.76367615
1715328524425108188,0.021,,,,5.771371284
1715328524432803322,0.057,,,,5.779066418
1715328524440498456,0.104,,,,5.786761552
1715328524448193590,0.149,,,,5.794456686
1715328524455888724,0.135,,,,5.80215182
1715328524463583858,0.083,,,,5.809846954
1715328524471278992,0.061,,,,5.817542088
1715328524478974126,0.076,,,,5.825237222
1715328524486669260,0.08,,,,5.832932356
1715328524494364394,0.068,,,,5.84062749
1715328524502059528,0.071,,,,5.848322624
1715328524509754662,0.078,,,,5.856017758
1715328524517449796,0.076,,,,5.863712892
1715328524525144930,0.061,,,,5.871408026
1715328524532840064,0.019,,,,5.87910316
1715328524540535198,0.04,,,,5.886798294
1715328524548230332,0.408,,,,5.894493428
1715328524555925466,1.166,,,,5.902188562
1715328524563620600,1.634,,,,5.909883696
1715328524571315734,0.919,,,,5.91757883
1715328524579010868,-0.244,,,,5.925273964
1715328524586706002,-0.278,,,,5.932969098
1715328524594401136,0.223,,,,5.940664232
1715328524602096270,0.087,,,,5.948359366
1715328524609791404,-0.097,,,,5.9560545
1715328524617486538,0.04,,,,5.963749634
1715328524625181672,0.052,,,,5.971444768
1715328524632876806,-0.016,,,,5.979139902
1715328524640571940,0.033,,,,5.986835036
1715328524648267074,0.064,,,,5.99453017
1715328524655962208,0.047,,,,6.002225304
1715328524663657342,0.068,,,,6.009920438
1715328524671352476,0.099,,,,6.017615572
1715328524679047610,0.104,,,,6.025310706
1715328524686742744,0.125,,,,6.03300584
1715328524694437878,0.159,,,,6.040700974
1715328524702133012,0.175,,,,6.048396108
1715328524709828146,0.192,,,,6.056091242
1715328524717523280,0.225,,,,6.063786376
1715328524725218414,0.259,,,,6.07148151
1715328524732913548,0.282,,,,6.079176644
1715328524740608682,0.316,,,,6.086871778
1715328524748303816,0.358,,,,6.094566912
1715328524755998950,0.396,,,,6.102262046
1715328524763694084,0.427,,,,6.10995718
1715328524771389218,0.461,,,,6.117652314
1715328524779084352,0.489,,,,6.125347448
1715328524786779486,0.499,,,,6.133042582
1715328524794474620,0.491,,,,6.140737716
1715328524802169754,0.47,,,,6.14843285
1715328524809864888,0.42,,,,6.156127984
1715328524817560022,0.327,,,,6.163823118
1715328524825255156,0.216,,,,6.171518252
1715328524832950336,0.114,,,,6.179213432
1715328524840645191,0.028,,,,6.186908287
1715328524848340046,-0.038,,,,6.194603142
1715328524856034901,-0.08,,,,6.202297997
1715328524863729756,-0.102,,,,6.209992852
1715328524871424611,-0.106,,,,6.217687707
1715328524879119466,-0.111,,,,6.225382562
1715328524886814321,-0.114,,,,6.233077417
1715328524894509176,-0.116,,,,6.240772272
1715328524902204031,-0.114,,,,6.248467127
1715328524909898886,-0.109,,,,6.256161982
1715328524917593741,-0.106,,,,6.263856837
1715328524925288596,-0.097,,,,6.271551692
1715328524932983451,-0.083,,,,6.279246547
1715328524940678306,-0.076,,,,6.286941402
1715328524948373161,-0.068,,,,6.294636257
1715328524956068016,-0.052,,,,6.302331112
1715328524963762871,-0.04,,,,6.310025967
1715328524971457726,-0.033,,,,6.317720822
1715328524979152581,-0.023,,,,6.325415677
1715328524986847436,-0.014,,,,6.333110532
1715328524994542291,-0.009,,,,6.340805387
1715328525002237146,-0.002,,,,6.348500242
1715328525009932001,0.004,,,,6.356195097
1715328525017626856,0.007,,,,6.363889952
1715328525025321711,0.011,,,,6.371584807
1715328525033016566,0.016,,,,6.379279662
1715328525040711421,0.019,,,,6.386974517
1715328525048406276,0.026,,,,6.394669372
1715328525056101131,0.026,,,,6.402364227
1715328525063795986,0.023,,,,6.410059082
1715328525071490841,0.026,,,,6.417753937
1715328525079185696,0.028,,,,6.425448792
1715328525086880551,0.028,,,,6.433143647
1715328525094575406,0.028,,,,6.440838502
1715328525102270261,0.03,,,,6.448533357
1715328525109965116,0.035,,,,6.456228212
1715328525117659971,0.038,,,,6.463923067
1715328525125354826,0.03,,,,6.471617922
1715328525133049681,0.023,,,,6.479312777
1715328525140744536,0.026,,,,6.487007632
1715328525148439391,0.028,,,,6.494702487
1715328525156134246,0.028,,,,6.502397342
1715328525163829101,0.035,,,,6.510092197
1715328525171523956,0.038,,,,6.517787052
1715328525179218811,0.033,,,,6.525481907
1715328525186913666,0.028,,,,6.533176762
1715328525194608521,0.021,,,,6.540871617
1715328525202303376,0.016,,,,6.548566472
1715328525209998231,0.007,,,,6.556261327
1715328525217693086,0.007,,,,6.563956182
1715328525225387941,0.04,,,,6.571651037
1715328525233082796,0.092,,,,6.579345892
1715328525240777651,0.137,,,,6.587040747
1715328525248472506,0.135,,,,6.594735602
1715328525256167361,0.09,,,,6.602430457
1715328525263862216,0.061,,,,6.610125312
1715328525271557071,0.066,,,,6.617820167
1715328525279251926,0.073,,,,6.625515022
1715328525286946781,0.071,,,,6.633209877
1715328525294641636,0.066,,,,6.640904732
1715328525302336491,0.061,,,,6.648599587
1715328525310031346,0.057,,,,6.656294442
1715328525317726201,0.052,,,,6.663989297
1715328525325421056,0.019,,,,6.671684152
1715328525333115911,0.0,,,,6.679379007
1715328525340810766,0.242,,,,6.687073862
1715328525348505621,0.948,,,,6.694768717
1715328525356200476,1.634,,,,6.702463572
1715328525363895331,1.276,,,,6.710158427
1715328525371590186,0.057,,,,6.717853282
1715328525379285041,-0.368,,,,6.725548137
1715328525386979896,0.121,,,,6.733242992
1715328525394674816,0.161,79.0,803.0,,6.740937912
1715328525402370020,-0.106,,845.0,,6.748633116
1715328525410065224,-0.019,,,,6.75632832
1715328525417760428,0.066,,,,6.764023524
1715328525425455632,-0.011,,,,6.771718728
1715328525433150836,0.004,,,,6.779413932
1715328525440846040,0.057,,,,6.787109136
1715328525448541244,0.049,,,,6.79480434
1715328525456236448,0.052,,,,6.802499544
1715328525463931652,0.085,,,,6.810194748
1715328525471626856,0.102,,,,6.817889952
1715328525479322060,0.109,,,,6.825585156
1715328525487017264,0.125,,,,6.83328036
1715328525494712468,0.144,,,,6.840975564
1715328525502407672,0.168,,,,6.848670768
1715328525510102876,0.194,,,,6.856365972
1715328525517798080,0.22,,,,6.864061176
1715328525525493284,0.254,,,,6.87175638
1715328525533188488,0.287,,,,6.879451584
1715328525540883692,0.318,,,,6.887146788
1715328525548578896,0.354,,,,6.894841992
1715328525556274100,0.394,,,,6.902537196
1715328525563969304,0.427,,,,6.9102324
1715328525571664508,0.451,,,,6.917927604
1715328525579359712,0.465,,,,6.925622808
1715328525587054916,0.468,,,,6.933318012
1715328525594750120,0.453,,,,6.941013216
1715328525602445324,0.413,,,,6.94870842
1715328525610140528,0.332,,,,6.956403624
1715328525617835732,0.223,,,,6.964098828
1715328525625530936,0.111,,,,6.971794032
1715328525633226140,0.011,,,,6.979489236
1715328525640921344,-0.061,,,,6.98718444
1715328525648616548,-0.102,,,,6.994879644
1715328525656311752,-0.128,,,,7.002574848
1715328525664006956,-0.144,,,,7.010270052
1715328525671702160,-0.147,,,,7.017965256
1715328525679397364,-0.142,,,,7.02566046
1715328525687092568,-0.133,,,,7.033355664
1715328525694787772,-0.128,,,,7.041050868
1715328525702482976,-0.118,,,,7.048746072
1715328525710178180,-0.106,,,,7.056441276
1715328525717873384,-0.097,,,,7.06413648
1715328525725568588,-0.087,,,,7.071831684
1715328525733263792,-0.078,,,,7.079526888
1715328525740958996,-0.066,,,,7.087222092
1715328525748654200,-0.057,,,,7.094917296
1715328525756349404,-0.052,,,,7.1026125
1715328525764044608,-0.042,,,,7.110307704
1715328525771739812,-0.03,,,,7.118002908
1715328525779435016,-0.023,,,,7.125698112
1715328525787130220,-0.021,,,,7.133393316
1715328525794825424,-0.011,,,,7.14108852
1715328525802520628,-0.002,,,,7.148783724
1715328525810215832,0.0,,,,7.156478928
1715328525817911036,0.0,,,,7.164174132
1715328525825606240,0.007,,,,7.171869336
1715328525833301444,0.014,,,,7.17956454
1715328525840996648,0.014,,,,7.187259744
1715328525848691852,0.016,,,,7.194954948
1715328525856387056,0.019,,,,7.202650152
1715328525864082260,0.023,,,,7.210345356
1715328525871777464,0.026,,,,7.21804056
1715328525879472668,0.023,,,,7.225735764
1715328525887167872,0.023,,,,7.233430968
1715328525894863076,0.026,,,,7.241126172
1715328525902558280,0.028,,,,7.248821376
1715328525910253484,0.028,,,,7.25651658
1715328525917948688,0.035,,,,7.264211784
1715328525925643892,0.04,,,,7.271906988
1715328525933339096,0.04,,,,7.279602192
1715328525941034300,0.042,,,,7.287297396
1715328525948729504,0.045,,,,7.2949926
1715328525956424728,0.04,,,,7.302687824
1715328525964119932,0.038,,,,7.310383028
1715328525971815136,0.042,,,,7.318078232
1715328525979510340,0.04,,,,7.325773436
1715328525987205544,0.03,,,,7.33346864
1715328525994900748,0.021,,,,7.341163844
1715328526002595952,0.009,,,,7.348859048
1715328526010291156,0.007,,,,7.356554252
1715328526017986360,0.033,,,,7.364249456
1715328526025681564,0.073,,,,7.37194466
1715328526033376768,0.123,,,,7.379639864
1715328526041071972,0.144,,,,7.387335068
1715328526048767176,0.102,,,,7.395030272
1715328526056462380,0.059,,,,7.402725476
1715328526064157584,0.061,,,,7.41042068
1715328526071852788,0.068,,,,7.418115884
1715328526079547992,0.061,,,,7.425811088
1715328526087243196,0.054,,,,7.433506292
1715328526094938400,0.052,,,,7.441201496
1715328526102633604,0.052,,,,7.4488967
1715328526110328808,0.049,,,,7.456591904
1715328526118024012,0.026,,,,7.464287108
1715328526125719216,-0.016,,,,7.471982312
1715328526133414420,0.104,,,,7.479677516
1715328526141109624,0.674,,,,7.48737272
1715328526148804828,1.475,,,,7.495067924
1715328526156500032,1.532,,,,7.502763128
1715328526164195236,0.441,,,,7.510458332
1715328526171890440,-0.392,,,,7.518153536
1715328526179585644,-0.054,,,,7.52584874
1715328526187280848,0.218,,,,7.533543944
1715328526194976052,-0.057,,,,7.541239148
1715328526202671256,-0.083,,,,7.548934352
1715328526210366460,0.052,,,,7.556629556
1715328526218061664,0.002,,,,7.56432476
1715328526225756868,-0.023,,,,7.572019964
1715328526233452072,0.035,,,,7.579715168
1715328526241147276,0.045,,,,7.587410372
1715328526248842480,0.04,,,,7.595105576
1715328526256537684,0.071,,,,7.60280078
1715328526264232888,0.092,,,,7.610495984
1715328526271928092,0.102,,,,7.618191188
1715328526279623296,0.123,,,,7.625886392
1715328526287318500,0.149,,,,7.633581596
1715328526295013704,0.168,,,,7.6412768
1715328526302708908,0.192,,,,7.648972004
1715328526310404112,0.223,,,,7.656667208
1715328526318099316,0.251,,,,7.664362412
1715328526325794520,0.28,,,,7.672057616
1715328526333489724,0.313,,,,7.67975282
1715328526341184928,0.354,,,,7.687448024
1715328526348880132,0.394,,,,7.695143228
1715328526356575336,0.425,,,,7.702838432
1715328526364270540,0.451,,,,7.710533636
1715328526371965744,0.465,,,,7.71822884
1715328526379660948,0.468,,,,7.725924044
1715328526387356152,0.461,,,,7.733619248
1715328526395051356,0.434,,,,7.741314452
1715328526402746560,0.373,,,,7.749009656
1715328526410441764,0.275,,,,7.75670486
1715328526418136968,0.163,,,,7.764400064
1715328526425832172,0.071,,,,7.772095268
1715328526433527376,-0.004,,,,7.779790472
1715328526441222580,-0.059,,,,7.787485676
1715328526448917784,-0.092,,,,7.79518088
1715328526456612988,-0.109,,,,7.802876084
1715328526464308192,-0.118,,,,7.810571288
1715328526472003396,-0.118,,,,7.818266492
1715328526479698600,-0.114,,,,7.825961696
1715328526487393804,-0.106,,,,7.8336569
1715328526495089008,-0.099,,,,7.841352104
1715328526502784212,-0.095,,,,7.849047308
1715328526510479416,-0.085,,,,7.856742512
1715328526518174640,-0.073,79.0,825.0,,7.864437736
1715328526525869844,-0.064,,,,7.87213294
1715328526533565048,-0.054,,,,7.879828144
1715328526541260252,-0.045,,,,7.887523348
1715328526548955456,-0.038,,,,7.895218552
1715328526556650660,-0.038,,,,7.902913756
1715328526564345864,-0.035,,,,7.91060896
1715328526572041068,-0.028,,,,7.918304164
1715328526579736272,-0.019,,,,7.925999368
1715328526587431476,-0.014,,,,7.933694572
1715328526595126680,-0.011,,,,7.941389776
1715328526602821884,-0.009,,,,7.94908498
1715328526610517088,-0.002,,,,7.956780184
1715328526618212292,-0.002,,,,7.964475388
1715328526625907496,-0.004,,,,7.972170592
1715328526633602700,-0.007,,,,7.979865796
1715328526641297904,-0.011,,,,7.987561
1715328526648993108,-0.011,,,,7.995256204
1715328526656688312,-0.007,,,,8.002951408
1715328526664383516,0.0,,,,8.010646612
1715328526672078720,0.004,,,,8.018341816
1715328526679773924,0.007,,,,8.02603702
1715328526687469128,0.007,,,,8.033732224
1715328526695164332,0.009,,,,8.041427428
1715328526702859536,0.016,,,,8.049122632
1715328526710554740,0.021,,,,8.056817836
1715328526718249944,0.023,,,,8.06451304
1715328526725945148,0.028,,,,8.072208244
1715328526733640352,0.03,,,,8.079903448
1715328526741335556,0.028,,,,8.087598652
1715328526749030760,0.03,,,,8.095293856
1715328526756725964,0.026,,,,8.10298906
1715328526764421168,0.014,,,,8.110684264
1715328526772116372,0.004,,,,8.118379468
1715328526779811576,-0.007,,,,8.126074672
1715328526787506780,-0.004,,,,8.133769876
1715328526795201984,0.033,,,,8.14146508
1715328526802897188,0.085,,,,8.149160284
1715328526810592392,0.133,,,,8.156855488
1715328526818287596,0.137,,,,8.164550692
1715328526825982800,0.092,,,,8.172245896
1715328526833678004,0.054,,,,8.1799411
1715328526841373208,0.057,,,,8.187636304
1715328526849068412,0.071,,,,8.195331508
1715328526856763616,0.068,,,,8.203026712
1715328526864458820,0.061,,,,8.210721916
1715328526872154024,0.057,,,,8.21841712
1715328526879849228,0.052,,,,8.226112324
1715328526887544432,0.047,,,,8.233807528
1715328526895239636,0.021,,,,8.241502732
1715328526902934840,-0.011,,,,8.249197936
1715328526910630044,0.171,,,,8.25689314
1715328526918325248,0.8,,,,8.264588344
1715328526926020452,1.539,,,,8.272283548
1715328526933715656,1.399,,,,8.279978752
1715328526941410860,0.237,,,,8.287673956
1715328526949106064,-0.408,,,,8.29536916
1715328526956801268,0.028,,,,8.303064364
1715328526964496472,0.209,,,,8.310759568
1715328526972191676,-0.073,,,,8.318454772
1715328526979886880,-0.049,,,,8.326149976
1715328526987582084,0.066,,,,8.33384518
1715328526995277288,0.004,,,,8.341540384
1715328527002972492,-0.002,,,,8.349235588
1715328527010667696,0.057,,,,8.356930792
1715328527018362900,0.052,,,,8.364625996
1715328527026058104,0.052,,,,8.3723212
1715328527033753308,0.087,,,,8.380016404
1715328527041448512,0.104,,,,8.387711608
1715328527049143716,0.114,,,,8.395406812
1715328527056838920,0.137,,,,8.403102016
1715328527064534124,0.161,,,,8.41079722
1715328527072229328,0.18,,,,8.418492424
1715328527079924552,0.206,,,,8.426187648
1715328527087619756,0.237,,,,8.433882852
1715328527095314960,0.268,,,,8.441578056
1715328527103010164,0.297,,,,8.44927326
1715328527110705368,0.327,,,,8.456968464
1715328527118400572,0.363,,,,8.464663668
1715328527126095776,0.401,,,,8.472358872
1715328527133790980,0.434,,,,8.480054076
1715328527141486184,0.451,,,,8.48774928
1715328527149181388,0.458,,,,8.495444484
1715328527156876592,0.461,,,,8.503139688
1715328527164571796,0.446,,,,8.510834892
1715328527172267000,0.403,,,,8.518530096
1715328527179962204,0.337,,,,8.5262253
1715328527187657408,0.24,,,,8.533920504
1715328527195352612,0.128,,,,8.541615708
1715328527203047816,0.033,,,,8.549310912
1715328527210743020,-0.033,,,,8.557006116
1715328527218438224,-0.08,,,,8.56470132
1715328527226133428,-0.111,,,,8.572396524
1715328527233828632,-0.125,,,,8.580091728
1715328527241523836,-0.128,,,,8.587786932
1715328527249219040,-0.125,,,,8.595482136
1715328527256914244,-0.123,,,,8.60317734
1715328527264609448,-0.116,,,,8.610872544
1715328527272304652,-0.104,,,,8.618567748
1715328527279999856,-0.097,,,,8.626262952
1715328527287695060,-0.09,,,,8.633958156
1715328527295390264,-0.08,,,,8.64165336
1715328527303085468,-0.066,,,,8.649348564
1715328527310780672,-0.057,,,,8.657043768
1715328527318475876,-0.049,,,,8.664738972
1715328527326171080,-0.04,,,,8.672434176
1715328527333866284,-0.03,,,,8.68012938
1715328527341561488,-0.026,,,,8.687824584
1715328527349256692,-0.019,,,,8.695519788
1715328527356951896,-0.014,,,,8.703214992
1715328527364647100,-0.011,,,,8.710910196
1715328527372342304,-0.004,,,,8.7186054
1715328527380037508,0.0,,,,8.726300604
1715328527387732712,0.002,,,,8.733995808
1715328527395427916,0.007,,,,8.741691012
1715328527403123120,0.011,,,,8.749386216
1715328527410818324,0.014,,,,8.75708142
1715328527418513528,0.019,,,,8.764776624
1715328527426208732,0.021,,,,8.772471828
1715328527433903936,0.021,,,,8.780167032
1715328527441599140,0.021,,,,8.787862236
1715328527449294344,0.026,,,,8.79555744
1715328527456989548,0.03,,,,8.803252644
1715328527464684752,0.033,,,,8.810947848
1715328527472379956,0.033,,,,8.818643052
1715328527480075160,0.035,,,,8.826338256
1715328527487770364,0.04,,,,8.83403346
1715328527495465568,0.042,,,,8.841728664
1715328527503160772,0.042,,,,8.849423868
1715328527510855976,0.047,,,,8.857119072
1715328527518551180,0.049,,,,8.864814276
1715328527526246384,0.047,,,,8.87250948
1715328527533941588,0.047,,,,8.880204684
1715328527541636792,0.045,,,,8.887899888
1715328527549331996,0.038,,,,8.895595092
1715328527557027200,0.023,,,,8.903290296
1715328527564722404,0.016,,,,8.9109855
1715328527572417608,0.035,,,,8.918680704
1715328527580112812,0.08,,,,8.926375908
1715328527587808016,0.135,,,,8.934071112
1715328527595503220,0.166,,,,8.941766316
1715328527603198424,0.133,,,,8.94946152
1715328527610893628,0.073,,,,8.957156724
1715328527618588832,0.059,,,,8.964851928
1715328527626284036,0.073,,,,8.972547132
1715328527633979240,0.076,,,,8.980242336
1715328527641674464,0.066,78.0,795.0,,8.98793756
1715328527649369668,0.059,,,,8.995632764
1715328527657064872,0.057,,,,9.003327968
1715328527664760076,0.057,,,,9.011023172
1715328527672455280,0.047,,,,9.018718376
1715328527680150484,0.007,,,,9.02641358
1715328527687845688,0.047,,,,9.034108784
1715328527695540892,0.451,,,,9.041803988
1715328527703236096,1.223,,,,9.049499192
1715328527710931300,1.637,,,,9.057194396
1715328527718626504,0.862,,,,9.0648896
1715328527726321708,-0.261,,,,9.072584804
1715328527734016912,-0.244,,,,9.080280008
1715328527741712116,0.206,,,,9.087975212
1715328527749407320,0.042,,,,9.095670416
1715328527757102524,-0.121,,,,9.10336562
1715328527764797728,0.019,,,,9.111060824
1715328527772492932,0.03,,,,9.118756028
1715328527780188136,-0.03,,,,9.126451232
1715328527787883340,0.016,,,,9.134146436
1715328527795578544,0.045,,,,9.14184164
1715328527803273748,0.03,,,,9.149536844
1715328527810968952,0.052,,,,9.157232048
1715328527818664156,0.08,,,,9.164927252
1715328527826359360,0.092,,,,9.172622456
1715328527834054564,0.111,,,,9.18031766
1715328527841749768,0.135,,,,9.188012864
1715328527849444972,0.149,,,,9.195708068
1715328527857140176,0.168,,,,9.203403272
1715328527864835380,0.201,,,,9.211098476
1715328527872530584,0.232,,,,9.21879368
1715328527880225788,0.259,,,,9.226488884
1715328527887920992,0.294,,,,9.234184088
1715328527895616196,0.332,,,,9.241879292
1715328527903311400,0.368,,,,9.249574496
1715328527911006604,0.401,,,,9.2572697
1715328527918701808,0.427,,,,9.264964904
1715328527926397012,0.449,,,,9.272660108
1715328527934092216,0.461,,,,9.280355312
1715328527941787420,0.458,,,,9.288050516
1715328527949482624,0.434,,,,9.29574572
1715328527957177828,0.384,,,,9.303440924
1715328527964873032,0.301,,,,9.311136128
1715328527972568236,0.194,,,,9.318831332
1715328527980263440,0.092,,,,9.326526536
1715328527987958644,0.014,,,,9.33422174
1715328527995653848,-0.042,,,,9.341916944
1715328528003349052,-0.083,,,,9.349612148
1715328528011044256,-0.106,,,,9.357307352
1715328528018739460,-0.111,,,,9.365002556
1715328528026434664,-0.114,,,,9.37269776
1715328528034129868,-0.114,,,,9.380392964
1715328528041825072,-0.106,,,,9.388088168
1715328528049520276,-0.099,,,,9.395783372
1715328528057215480,-0.095,,,,9.403478576
1715328528064910684,-0.09,,,,9.41117378
1715328528072605888,-0.078,,,,9.418868984
1715328528080301092,-0.066,,,,9.426564188
1715328528087996296,-0.054,,,,9.434259392
1715328528095691500,-0.049,,,,9.441954596
1715328528103386704,-0.045,,,,9.4496498
1715328528111081908,-0.038,,,,9.457345004
1715328528118777112,-0.028,,,,9.465040208
1715328528126472316,-0.023,,,,9.472735412
1715328528134167520,-0.014,,,,9.480430616
1715328528141862724,-0.011,,,,9.48812582
1715328528149557928,-0.019,,,,9.495821024
1715328528157253132,-0.019,,,,9.503516228
1715328528164948336,-0.011,,,,9.511211432
1715328528172643540,-0.007,,,,9.518906636
1715328528180338744,0.0,,,,9.52660184
1715328528188033948,0.004,,,,9.534297044
1715328528195729152,0.004,,,,9.541992248
1715328528203424378,0.007,78.0,795.0,,9.549687474
1715328528211119582,0.011,,,,9.557382678
1715328528218814786,0.011,,,,9.565077882
1715328528226509990,0.014,,,,9.572773086
1715328528234205194,0.019,,,,9.58046829
1715328528241900398,0.021,,,,9.588163494
1715328528249595602,0.021,,,,9.595858698
1715328528257290806,0.023,,,,9.603553902
1715328528264986010,0.026,,,,9.611249106
1715328528272681214,0.023,,,,9.61894431
1715328528280376418,0.021,,,,9.626639514
1715328528288071622,0.026,,,,9.634334718
1715328528295766826,0.03,,,,9.642029922
1715328528303462030,0.03,,,,9.649725126
1715328528311157234,0.026,,,,9.65742033
1715328528318852438,0.023,,,,9.665115534
1715328528326547642,0.021,,,,9.672810738
1715328528334242846,0.007,,,,9.680505942
1715328528341938050,-0.004,,,,9.688201146
1715328528349633254,0.016,,,,9.69589635
1715328528357328458,0.064,,,,9.703591554
1715328528365023662,0.116,,,,9.711286758
1715328528372718866,0.14,,,,9.718981962
1715328528380414070,0.104,,,,9.726677166
1715328528388109274,0.061,,,,9.73437237
1715328528395804478,0.059,,,,9.742067574
1715328528403499682,0.071,,,,9.749762778
1715328528411194886,0.066,,,,9.757457982
1715328528418890090,0.061,,,,9.765153186
1715328528426585294,0.061,,,,9.77284839
1715328528434280498,0.061,,,,9.780543594
1715328528441975702,0.061,,,,9.788238798
1715328528449670906,0.047,,,,9.795934002
1715328528457366110,0.007,,,,9.803629206
1715328528465061314,0.102,,,,9.81132441
1715328528472756518,0.622,,,,9.819019614
1715328528480451722,1.421,,,,9.826714818
1715328528488146926,1.596,,,,9.834410022
1715328528495842130,0.5720000000000001,,,,9.842105226
1715328528503537334,-0.375,,,,9.84980043
1715328528511232538,-0.092,,,,9.857495634
1715328528518927742,0.256,,,,9.865190838
1715328528526622946,-0.011,,,,9.872886042
1715328528534318150,-0.071,,,,9.880581246
1715328528542013354,0.076,,,,9.88827645
1715328528549708558,0.03,,,,9.895971654
1715328528557403762,-0.007,,,,9.903666858
1715328528565098966,0.052,,,,9.911362062
1715328528572794170,0.059,,,,9.919057266
1715328528580489374,0.047,,,,9.92675247
1715328528588184578,0.073,,,,9.934447674
1715328528595879782,0.092,,,,9.942142878
1715328528603574986,0.097,,,,9.949838082
1715328528611270190,0.116,,,,9.957533286
1715328528618965394,0.144,,,,9.96522849
1715328528626660598,0.168,,,,9.972923694
1715328528634355802,0.187,,,,9.980618898
1715328528642051006,0.213,,,,9.988314102
1715328528649746210,0.244,,,,9.996009306
1715328528657441414,0.268,,,,10.00370451
1715328528665136618,0.294,,,,10.011399714
1715328528672831822,0.335,,,,10.019094918
1715328528680527026,0.375,,,,10.026790122
1715328528688222230,0.408,,,,10.034485326
1715328528695917434,0.437,,,,10.04218053
1715328528703612638,0.456,,,,10.049875734
1715328528711307842,0.465,,,,10.057570938
1715328528719003046,0.458,,,,10.065266142
1715328528726698250,0.43,,,,10.072961346
1715328528734393454,0.365,,,,10.08065655
1715328528742088658,0.268,,,,10.088351754
1715328528749783862,0.156,,,,10.096046958
1715328528757479066,0.059,,,,10.103742162
1715328528765174290,-0.021,,,,10.111437386
1715328528772869494,-0.076,,,,10.11913259
1715328528780564698,-0.111,,,,10.126827794
1715328528788259902,-0.13,,,,10.134522998
1715328528795955106,-0.135,,,,10.142218202
1715328528803650310,-0.13,,,,10.149913406
1715328528811345514,-0.128,,,,10.15760861
1715328528819040718,-0.125,,,,10.165303814
1715328528826735922,-0.118,,,,10.172999018
1715328528834431126,-0.114,,,,10.180694222
1715328528842126330,-0.116,,,,10.188389426
1715328528849821534,-0.114,,,,10.19608463
1715328528857516738,-0.099,,,,10.203779834
1715328528865211942,-0.087,,,,10.211475038
1715328528872907146,-0.08,,,,10.219170242
1715328528880602350,-0.073,,,,10.226865446
1715328528888297554,-0.059,,,,10.23456065
1715328528895992758,-0.049,,,,10.242255854
1715328528903687962,-0.045,,,,10.249951058
1715328528911383166,-0.038,,,,10.257646262
1715328528919078370,-0.03,,,,10.265341466
1715328528926773574,-0.021,,,,10.27303667
1715328528934468778,-0.014,,,,10.280731874
1715328528942163982,-0.011,,,,10.288427078
1715328528949859186,-0.007,,,,10.296122282
1715328528957554390,-0.004,,,,10.303817486
1715328528965249594,0.0,,,,10.31151269
1715328528972944798,0.004,,,,10.319207894
1715328528980640002,0.009,,,,10.326903098
1715328528988335206,0.011,,,,10.334598302
1715328528996030410,0.011,,,,10.342293506
1715328529003725614,0.011,,,,10.34998871
1715328529011420818,0.014,,,,10.357683914
1715328529019116022,0.016,,,,10.365379118
1715328529026811226,0.019,,,,10.373074322
1715328529034506430,0.023,,,,10.380769526
1715328529042201634,0.028,,,,10.38846473
1715328529049896838,0.028,,,,10.396159934
1715328529057592042,0.028,,,,10.403855138
1715328529065287246,0.035,,,,10.411550342
1715328529072982450,0.035,,,,10.419245546
1715328529080677654,0.021,,,,10.42694075
1715328529088372858,0.007,,,,10.434635954
1715328529096068062,0.0,,,,10.442331158
1715328529103763266,0.004,,,,10.450026362
1715328529111458470,0.03,,,,10.457721566
1715328529119153674,0.078,,,,10.46541677
1715328529126848878,0.133,,,,10.473111974
1715328529134544082,0.147,,,,10.480807178
1715328529142239286,0.099,,,,10.488502382
1715328529149934490,0.064,,,,10.496197586
1715328529157629694,0.064,,,,10.50389279
1715328529165324898,0.064,,,,10.511587994
1715328529173020102,0.057,,,,10.519283198
1715328529180715306,0.057,,,,10.526978402
1715328529188410510,0.059,,,,10.534673606
1715328529196105714,0.059,,,,10.54236881
1715328529203800918,0.059,,,,10.550064014
1715328529211496122,0.04,,,,10.557759218
1715328529219191326,0.002,,,,10.565454422
1715328529226886530,0.128,,,,10.573149626
1715328529234581734,0.7010000000000001,,,,10.58084483
1715328529242276938,1.504,,,,10.588540034
1715328529249972142,1.565,,,,10.596235238
1715328529257667346,0.456,,,,10.603930442
1715328529265362550,-0.394,,,,10.611625646
1715328529273057754,-0.04,,,,10.61932085
1715328529280752958,0.242,,,,10.627016054
1715328529288448162,-0.042,,,,10.634711258
1715328529296143366,-0.071,,,,10.642406462
1715328529303838570,0.068,,,,10.650101666
1715328529311533774,0.021,,,,10.65779687
1715328529319228978,-0.007,,,,10.665492074
1715328529326924202,0.049,77.0,776.0,,10.673187298
1715328529334619406,0.054,,781.0,,10.680882502
1715328529342314610,0.042,,,,10.688577706
1715328529350009814,0.068,,,,10.69627291
1715328529357705018,0.083,,,,10.703968114
1715328529365400222,0.09,,,,10.711663318
1715328529373095426,0.114,,,,10.719358522
1715328529380790630,0.13,,,,10.727053726
1715328529388485834,0.142,,,,10.73474893
1715328529396181038,0.166,,,,10.742444134
1715328529403876242,0.197,,,,10.750139338
1715328529411571446,0.223,,,,10.757834542
1715328529419266650,0.249,,,,10.765529746
1715328529426961854,0.287,,,,10.77322495
1715328529434657058,0.327,,,,10.780920154
1715328529442352262,0.363,,,,10.788615358
1715328529450047466,0.396,,,,10.796310562
1715328529457742670,0.42,,,,10.804005766
1715328529465437874,0.437,,,,10.81170097
1715328529473133078,0.441,,,,10.819396174
1715328529480828282,0.434,,,,10.827091378
1715328529488523486,0.406,,,,10.834786582
1715328529496218690,0.339,,,,10.842481786
1715328529503913894,0.235,,,,10.85017699
1715328529511609098,0.128,,,,10.857872194
1715328529519304302,0.04,,,,10.865567398
1715328529526999506,-0.028,,,,10.873262602
1715328529534694710,-0.078,,,,10.880957806
1715328529542389914,-0.106,,,,10.88865301
1715328529550085118,-0.121,,,,10.896348214
1715328529557780322,-0.128,,,,10.904043418
1715328529565475526,-0.13,,,,10.911738622
1715328529573170730,-0.128,,,,10.919433826
1715328529580865934,-0.123,,,,10.92712903
1715328529588561138,-0.116,,,,10.934824234
1715328529596256342,-0.109,,,,10.942519438
1715328529603951546,-0.099,,,,10.950214642
1715328529611646750,-0.085,,,,10.957909846
1715328529619341954,-0.076,,,,10.96560505
1715328529627037158,-0.068,,,,10.973300254
1715328529634732362,-0.059,,,,10.980995458
1715328529642427566,-0.047,,,,10.988690662
1715328529650122770,-0.042,,,,10.996385866
1715328529657817974,-0.038,,,,11.00408107
1715328529665513178,-0.033,,,,11.011776274
1715328529673208382,-0.035,,,,11.019471478
1715328529680903586,-0.028,,,,11.027166682
1715328529688598790,-0.021,,,,11.034861886
1715328529696293994,-0.016,,,,11.04255709
1715328529703989198,-0.011,,,,11.050252294
1715328529711684402,-0.004,,,,11.057947498
1715328529719379606,-0.002,,,,11.065642702
1715328529727074810,0.002,,,,11.073337906
1715328529734770014,0.004,,,,11.08103311
1715328529742465218,0.002,,,,11.088728314
1715328529750160422,0.004,,,,11.096423518
1715328529757855626,0.011,,,,11.104118722
1715328529765550830,0.016,,,,11.111813926
1715328529773246034,0.016,,,,11.11950913
1715328529780941238,0.019,,,,11.127204334
1715328529788636442,0.021,,,,11.134899538
1715328529796331646,0.023,,,,11.142594742
1715328529804026850,0.028,,,,11.150289946
1715328529811722054,0.028,,,,11.15798515
1715328529819417258,0.026,,,,11.165680354
1715328529827112462,0.023,,,,11.173375558
1715328529834807666,0.016,,,,11.181070762
1715328529842502870,0.009,,,,11.188765966
1715328529850198074,0.002,,,,11.19646117
1715328529857893278,-0.007,,,,11.204156374
1715328529865588482,0.0,,,,11.211851578
1715328529873283686,0.038,,,,11.219546782
1715328529880978890,0.095,,,,11.227241986
1715328529888674114,0.142,,,,11.23493721
1715328529896369318,0.135,,,,11.242632414
1715328529904064522,0.083,,,,11.250327618
1715328529911759726,0.061,,,,11.258022822
1715328529919454930,0.064,,,,11.265718026
1715328529927150134,0.059,,,,11.27341323
1715328529934845338,0.057,,,,11.281108434
1715328529942540542,0.061,,,,11.288803638
1715328529950235746,0.064,,,,11.296498842
1715328529957930950,0.059,,,,11.304194046
1715328529965626154,0.057,,,,11.31188925
1715328529973321358,0.028,,,,11.319584454
1715328529981016562,0.009,,,,11.327279658
1715328529988711766,0.244,,,,11.334974862
1715328529996406970,0.945,,,,11.342670066
1715328530004102174,1.649,,,,11.35036527
1715328530011797378,1.321,,,,11.358060474
1715328530019492582,0.097,,,,11.365755678
1715328530027187786,-0.373,,,,11.373450882
1715328530034882990,0.114,,,,11.381146086
1715328530042578194,0.182,,,,11.38884129
1715328530050273398,-0.092,,,,11.396536494
1715328530057968602,-0.019,,,,11.404231698
1715328530065663806,0.066,,,,11.411926902
1715328530073359010,-0.014,,,,11.419622106
1715328530081054214,-0.002,,,,11.42731731
1715328530088749418,0.057,,,,11.435012514
1715328530096444622,0.049,,,,11.442707718
1715328530104139826,0.052,,,,11.450402922
1715328530111835030,0.085,,,,11.458098126
1715328530119530234,0.099,,,,11.46579333
1715328530127225438,0.114,,,,11.473488534
1715328530134920642,0.133,,,,11.481183738
1715328530142615846,0.154,,,,11.488878942
1715328530150311050,0.175,,,,11.496574146
1715328530158006254,0.192,,,,11.50426935
1715328530165701458,0.209,,,,11.511964554
1715328530173396662,0.235,,,,11.519659758
1715328530181091866,0.273,,,,11.527354962
1715328530188787070,0.311,,,,11.535050166
1715328530196482274,0.344,,,,11.54274537
1715328530204177478,0.382,,,,11.550440574
1715328530211872682,0.415,,,,11.558135778
1715328530219567886,0.437,,,,11.565830982
1715328530227263090,0.451,,,,11.573526186
1715328530234958294,0.456,,,,11.58122139
1715328530242653498,0.441,,,,11.588916594
1715328530250348702,0.394,,,,11.596611798
1715328530258043906,0.308,,,,11.604307002
1715328530265739110,0.204,,,,11.612002206
1715328530273434314,0.102,,,,11.61969741
1715328530281129518,0.014,,,,11.627392614
1715328530288824722,-0.052,,,,11.635087818
1715328530296519926,-0.099,,,,11.642783022
1715328530304215130,-0.123,,,,11.650478226
1715328530311910334,-0.135,,,,11.65817343
1715328530319605538,-0.142,,,,11.665868634
1715328530327300742,-0.137,,,,11.673563838
1715328530334995946,-0.128,,,,11.681259042
1715328530342691150,-0.128,,,,11.688954246
1715328530350386354,-0.121,,,,11.69664945
1715328530358081558,-0.106,,,,11.704344654
1715328530365776762,-0.095,,,,11.712039858
1715328530373471966,-0.085,,,,11.719735062
1715328530381167170,-0.078,,,,11.727430266
1715328530388862374,-0.066,,,,11.73512547
1715328530396557578,-0.057,,,,11.742820674
1715328530404252782,-0.049,,,,11.750515878
1715328530411947986,-0.042,,,,11.758211082
1715328530419643190,-0.033,,,,11.765906286
1715328530427338394,-0.026,,,,11.77360149
1715328530435033598,-0.023,,,,11.781296694
1715328530442728802,-0.019,,,,11.788991898
1715328530450424026,-0.009,77.0,775.0,,11.796687122
1715328530458119230,-0.004,,,,11.804382326
1715328530465814434,-0.002,,,,11.81207753
1715328530473509638,0.002,,,,11.819772734
1715328530481204842,0.004,,,,11.827467938
1715328530488900046,0.002,,,,11.835163142
1715328530496595250,0.0,,,,11.842858346
1715328530504290454,0.0,,,,11.85055355
1715328530511985658,0.004,,,,11.858248754
1715328530519680862,0.009,,,,11.865943958
1715328530527376066,0.007,,,,11.873639162
1715328530535071270,0.009,,,,11.881334366
1715328530542766474,0.016,,,,11.88902957
1715328530550461678,0.019,,,,11.896724774
1715328530558156882,0.019,,,,11.904419978
1715328530565852086,0.019,,,,11.912115182
1715328530573547290,0.021,,,,11.919810386
1715328530581242494,0.023,,,,11.92750559
1715328530588937698,0.023,,,,11.935200794
1715328530596632902,0.021,,,,11.942895998
1715328530604328106,0.014,,,,11.950591202
1715328530612023310,0.002,,,,11.958286406
1715328530619718514,-0.011,,,,11.96598161
1715328530627413718,0.0,,,,11.973676814
1715328530635108922,0.045,,,,11.981372018
1715328530642804126,0.099,,,,11.989067222
1715328530650499330,0.144,,,,11.996762426
1715328530658194534,0.137,,,,12.00445763
1715328530665889738,0.078,,,,12.012152834
1715328530673584942,0.045,,,,12.019848038
1715328530681280146,0.052,,,,12.027543242
1715328530688975350,0.064,,,,12.035238446
1715328530696670554,0.057,,,,12.04293365
1715328530704365758,0.057,,,,12.050628854
1715328530712060962,0.059,,,,12.058324058
1715328530719756166,0.059,,,,12.066019262
1715328530727451370,0.057,,,,12.073714466
1715328530735146574,0.026,,,,12.08140967
1715328530742841778,0.007,,,,12.089104874
1715328530750536982,0.235,,,,12.096800078
1715328530758232186,0.919,,,,12.104495282
1715328530765927390,1.613,,,,12.112190486
1715328530773622594,1.292,,,,12.11988569
1715328530781317798,0.087,,,,12.127580894
1715328530789013002,-0.37,,,,12.135276098
1715328530796708206,0.114,,,,12.142971302
1715328530804403410,0.178,,,,12.150666506
1715328530812098614,-0.095,,,,12.15836171
1715328530819793818,-0.021,,,,12.166056914
1715328530827489022,0.068,,,,12.173752118
1715328530835184226,-0.002,,,,12.181447322
1715328530842879430,0.007,,,,12.189142526
1715328530850574634,0.059,,,,12.19683773
1715328530858269838,0.054,,,,12.204532934
1715328530865965042,0.061,,,,12.212228138
1715328530873660246,0.097,,,,12.219923342
1715328530881355450,0.109,,,,12.227618546
1715328530889050654,0.118,,,,12.23531375
1715328530896745858,0.144,,,,12.243008954
1715328530904441062,0.168,,,,12.250704158
1715328530912136266,0.185,,,,12.258399362
1715328530919831470,0.206,,,,12.266094566
1715328530927526674,0.235,,,,12.27378977
1715328530935221878,0.261,,,,12.281484974
1715328530942917082,0.289,,,,12.289180178
1715328530950612286,0.325,,,,12.296875382
1715328530958307490,0.365,,,,12.304570586
1715328530966002694,0.403,,,,12.31226579
1715328530973697898,0.434,,,,12.319960994
1715328530981393102,0.453,,,,12.327656198
1715328530989088306,0.465,,,,12.335351402
1715328530996783510,0.47,,,,12.343046606
1715328531004478714,0.453,,,,12.35074181
1715328531012173938,0.403,,,,12.358437034
1715328531019869142,0.318,,,,12.366132238
1715328531027564346,0.209,,,,12.373827442
1715328531035259550,0.092,,,,12.381522646
1715328531042954754,0.002,,,,12.38921785
1715328531050649958,-0.061,,,,12.396913054
1715328531058345162,-0.106,,,,12.404608258
1715328531066040366,-0.135,,,,12.412303462
1715328531073735570,-0.142,,,,12.419998666
1715328531081430774,-0.144,,,,12.42769387
1715328531089125978,-0.142,,,,12.435389074
1715328531096821182,-0.135,,,,12.443084278
1715328531104516386,-0.125,,,,12.450779482
1715328531112211590,-0.116,,,,12.458474686
1715328531119906794,-0.109,,,,12.46616989
1715328531127601998,-0.099,,,,12.473865094
1715328531135297202,-0.087,,,,12.481560298
1715328531142992406,-0.073,,,,12.489255502
1715328531150687610,-0.064,,,,12.496950706
1715328531158382814,-0.059,,,,12.50464591
1715328531166078018,-0.054,,,,12.512341114
1715328531173773222,-0.052,,,,12.520036318
1715328531181468426,-0.049,,,,12.527731522
1715328531189163630,-0.038,,,,12.535426726
1715328531196858834,-0.028,,,,12.54312193
1715328531204554038,-0.023,,,,12.550817134
1715328531212249242,-0.019,,,,12.558512338
1715328531219944446,-0.016,,,,12.566207542
1715328531227639650,-0.007,,,,12.573902746
1715328531235334854,0.002,,,,12.58159795
1715328531243030058,0.002,,,,12.589293154
1715328531250725262,0.002,,,,12.596988358
1715328531258420466,0.009,,,,12.604683562
1715328531266115670,0.009,,,,12.612378766
1715328531273810874,0.009,,,,12.62007397
1715328531281506078,0.011,,,,12.627769174
1715328531289201282,0.016,,,,12.635464378
1715328531296896486,0.016,,,,12.643159582
1715328531304591690,0.014,,,,12.650854786
1715328531312286894,0.016,,,,12.65854999
1715328531319982098,0.021,,,,12.666245194
1715328531327677302,0.026,,,,12.673940398
1715328531335372506,0.026,,,,12.681635602
1715328531343067710,0.028,,,,12.689330806
1715328531350762914,0.035,,,,12.69702601
1715328531358458118,0.035,,,,12.704721214
1715328531366153322,0.028,,,,12.712416418
1715328531373848526,0.023,,,,12.720111622
1715328531381543730,0.019,,,,12.727806826
1715328531389238934,0.007,,,,12.73550203
1715328531396934138,0.004,,,,12.743197234
1715328531404629342,0.035,,,,12.750892438
1715328531412324546,0.09,,,,12.758587642
1715328531420019750,0.142,,,,12.766282846
1715328531427714954,0.159,,,,12.77397805
1715328531435410158,0.116,,,,12.781673254
1715328531443105362,0.073,,,,12.789368458
1715328531450800566,0.073,,,,12.797063662
1715328531458495770,0.083,,,,12.804758866
1715328531466190974,0.083,,,,12.81245407
1715328531473886178,0.08,,,,12.820149274
1715328531481581382,0.08,,,,12.827844478
1715328531489276586,0.078,,,,12.835539682
1715328531496971790,0.078,,,,12.843234886
1715328531504666994,0.066,,,,12.85093009
1715328531512362198,0.021,,,,12.858625294
1715328531520057402,0.085,,,,12.866320498
1715328531527752606,0.548,,,,12.874015702
1715328531535447810,1.337,,,,12.881710906
1715328531543143014,1.608,,,,12.88940611
1715328531550838218,0.684,,,,12.897101314
1715328531558533422,-0.32,,,,12.904796518
1715328531566228626,-0.123,,,,12.912491722
1715328531573923852,0.27,77.0,761.0,,12.920186948
1715328531581619056,0.03,,,,12.927882152
1715328531589314260,-0.073,,,,12.935577356
1715328531597009464,0.076,,,,12.94327256
1715328531604704668,0.052,,,,12.950967764
1715328531612399872,0.007,,,,12.958662968
1715328531620095076,0.066,,,,12.966358172
1715328531627790280,0.083,,,,12.974053376
1715328531635485484,0.061,,,,12.98174858
1715328531643180688,0.083,,,,12.989443784
1715328531650875892,0.114,,,,12.997138988
1715328531658571096,0.121,,,,13.004834192
1715328531666266300,0.135,,,,13.012529396
1715328531673961504,0.154,,,,13.0202246
1715328531681656708,0.163,,,,13.027919804
1715328531689351912,0.187,,,,13.035615008
1715328531697047116,0.218,,,,13.043310212
1715328531704742320,0.244,,,,13.051005416
1715328531712437524,0.273,,,,13.05870062
1715328531720132728,0.306,,,,13.066395824
1715328531727827932,0.344,,,,13.074091028
1715328531735523136,0.384,,,,13.081786232
1715328531743218340,0.42,,,,13.089481436
1715328531750913544,0.446,,,,13.09717664
1715328531758608748,0.463,,,,13.104871844
1715328531766303952,0.47,,,,13.112567048
1715328531773999156,0.465,,,,13.120262252
1715328531781694360,0.434,,,,13.127957456
1715328531789389564,0.363,,,,13.13565266
1715328531797084768,0.259,,,,13.143347864
1715328531804779972,0.147,,,,13.151043068
1715328531812475176,0.049,,,,13.158738272
1715328531820170380,-0.028,,,,13.166433476
1715328531827865584,-0.078,,,,13.17412868
1715328531835560788,-0.104,,,,13.181823884
1715328531843255992,-0.128,,,,13.189519088
1715328531850951196,-0.137,,,,13.197214292
1715328531858646400,-0.135,,,,13.204909496
1715328531866341604,-0.13,,,,13.2126047
1715328531874036808,-0.123,,,,13.220299904
1715328531881732012,-0.118,,,,13.227995108
1715328531889427216,-0.106,,,,13.235690312
1715328531897122420,-0.097,,,,13.243385516
1715328531904817624,-0.087,,,,13.25108072
1715328531912512828,-0.078,,,,13.258775924
1715328531920208032,-0.068,,,,13.266471128
1715328531927903236,-0.057,,,,13.274166332
1715328531935598440,-0.049,,,,13.281861536
1715328531943293644,-0.04,,,,13.28955674
1715328531950988848,-0.03,,,,13.297251944
1715328531958684052,-0.026,,,,13.304947148
1715328531966379256,-0.019,,,,13.312642352
1715328531974074460,-0.007,,,,13.320337556
1715328531981769664,0.0,,,,13.32803276
1715328531989464868,0.0,,,,13.335727964
1715328531997160072,0.0,,,,13.343423168
1715328532004855276,0.004,,,,13.351118372
1715328532012550480,0.014,,,,13.358813576
1715328532020245684,0.016,,,,13.36650878
1715328532027940888,0.014,,,,13.374203984
1715328532035636092,0.016,,,,13.381899188
1715328532043331296,0.014,,,,13.389594392
1715328532051026500,0.011,,,,13.397289596
1715328532058721704,0.014,,,,13.4049848
1715328532066416908,0.021,,,,13.412680004
1715328532074112112,0.026,,,,13.420375208
1715328532081807316,0.028,,,,13.428070412
1715328532089502520,0.028,,,,13.435765616
1715328532097197724,0.028,,,,13.44346082
1715328532104892928,0.028,,,,13.451156024
1715328532112588132,0.035,,,,13.458851228
1715328532120283336,0.042,,,,13.466546432
1715328532127978540,0.042,,,,13.474241636
1715328532135673764,0.042,,,,13.48193686
1715328532143368968,0.04,,,,13.489632064
1715328532151064172,0.033,,,,13.497327268
1715328532158759376,0.028,,,,13.505022472
1715328532166454580,0.016,,,,13.512717676
1715328532174149784,0.011,,,,13.52041288
1715328532181844988,0.026,,,,13.528108084
1715328532189540192,0.066,,,,13.535803288
1715328532197235396,0.121,,,,13.543498492
1715328532204930600,0.14,,,,13.551193696
1715328532212625804,0.087,,,,13.5588889
1715328532220321008,0.047,,,,13.566584104
1715328532228016212,0.057,,,,13.574279308
1715328532235711416,0.064,,,,13.581974512
1715328532243406620,0.057,,,,13.589669716
1715328532251101824,0.061,,,,13.59736492
1715328532258797028,0.066,,,,13.605060124
1715328532266492232,0.064,,,,13.612755328
1715328532274187436,0.066,,,,13.620450532
1715328532281882640,0.049,,,,13.628145736
1715328532289577844,-0.004,,,,13.63584094
1715328532297273048,0.061,,,,13.643536144
1715328532304968252,0.546,,,,13.651231348
1715328532312663456,1.354,,,,13.658926552
1715328532320358660,1.627,,,,13.666621756
1715328532328053864,0.677,,,,13.67431696
1715328532335749068,-0.356,,,,13.682012164
1715328532343444272,-0.147,,,,13.689707368
1715328532351139476,0.254,,,,13.697402572
1715328532358834680,0.007,,,,13.705097776
1715328532366529884,-0.083,,,,13.71279298
1715328532374225088,0.08,,,,13.720488184
1715328532381920292,0.047,,,,13.728183388
1715328532389615496,-0.007,,,,13.735878592
1715328532397310700,0.059,,,,13.743573796
1715328532405005904,0.083,,,,13.751269
1715328532412701108,0.068,,,,13.758964204
1715328532420396312,0.09,,,,13.766659408
1715328532428091516,0.116,,,,13.774354612
1715328532435786720,0.125,,,,13.782049816
1715328532443481924,0.144,,,,13.78974502
1715328532451177128,0.173,,,,13.797440224
1715328532458872332,0.194,,,,13.805135428
1715328532466567536,0.211,,,,13.812830632
1715328532474262740,0.237,,,,13.820525836
1715328532481957944,0.268,,,,13.82822104
1715328532489653148,0.297,,,,13.835916244
1715328532497348352,0.327,,,,13.843611448
1715328532505043556,0.368,,,,13.851306652
1715328532512738760,0.411,,,,13.859001856
1715328532520433964,0.446,,,,13.86669706
1715328532528129168,0.472,,,,13.874392264
1715328532535824372,0.487,,,,13.882087468
1715328532543519576,0.496,,,,13.889782672
1715328532551214780,0.491,,,,13.897477876
1715328532558909984,0.456,,,,13.90517308
1715328532566605188,0.38,,,,13.912868284
1715328532574300392,0.273,,,,13.920563488
1715328532581995596,0.156,,,,13.928258692
1715328532589690800,0.054,,,,13.935953896
1715328532597386004,-0.026,,,,13.9436491
1715328532605081208,-0.085,,,,13.951344304
1715328532612776412,-0.116,,,,13.959039508
1715328532620471616,-0.133,,,,13.966734712
1715328532628166820,-0.142,,,,13.974429916
1715328532635862024,-0.14,,,,13.98212512
1715328532643557228,-0.133,,,,13.989820324
1715328532651252432,-0.13,,,,13.997515528
1715328532658947636,-0.125,,,,14.005210732
1715328532666642840,-0.114,,,,14.012905936
1715328532674338044,-0.099,,,,14.02060114
1715328532682033248,-0.09,,,,14.028296344
1715328532689728452,-0.09,,,,14.035991548
1715328532697423676,-0.09,77.0,760.0,,14.043686772
1715328532705118880,-0.08,,762.0,,14.051381976
1715328532712814084,-0.068,,,,14.05907718
1715328532720509288,-0.059,,,,14.066772384
1715328532728204492,-0.047,,,,14.074467588
1715328532735899696,-0.04,,,,14.082162792
1715328532743594900,-0.04,,,,14.089857996
1715328532751290104,-0.04,,,,14.0975532
1715328532758985308,-0.03,,,,14.105248404
1715328532766680512,-0.019,,,,14.112943608
1715328532774375716,-0.019,,,,14.120638812
1715328532782070920,-0.019,,,,14.128334016
1715328532789766124,-0.014,,,,14.13602922
1715328532797461328,-0.009,,,,14.143724424
1715328532805156532,-0.007,,,,14.151419628
1715328532812851736,-0.004,,,,14.159114832
1715328532820546940,0.0,,,,14.166810036
1715328532828242144,0.002,,,,14.17450524
1715328532835937348,0.002,,,,14.182200444
1715328532843632552,0.004,,,,14.189895648
1715328532851327756,0.014,,,,14.197590852
1715328532859022960,0.014,,,,14.205286056
1715328532866718164,0.016,,,,14.21298126
1715328532874413368,0.021,,,,14.220676464
1715328532882108572,0.023,,,,14.228371668
1715328532889803776,0.026,,,,14.236066872
1715328532897498980,0.028,,,,14.243762076
1715328532905194184,0.033,,,,14.25145728
1715328532912889388,0.035,,,,14.259152484
1715328532920584592,0.026,,,,14.266847688
1715328532928279796,0.014,,,,14.274542892
1715328532935975000,0.007,,,,14.282238096
1715328532943670204,0.007,,,,14.2899333
1715328532951365408,0.03,,,,14.297628504
1715328532959060612,0.076,,,,14.305323708
1715328532966755816,0.13,,,,14.313018912
1715328532974451020,0.156,,,,14.320714116
1715328532982146224,0.114,,,,14.32840932
1715328532989841428,0.068,,,,14.336104524
1715328532997536632,0.071,,,,14.343799728
1715328533005231836,0.085,,,,14.351494932
1715328533012927040,0.08,,,,14.359190136
1715328533020622244,0.073,,,,14.36688534
1715328533028317448,0.071,,,,14.374580544
1715328533036012652,0.073,,,,14.382275748
1715328533043707856,0.071,,,,14.389970952
1715328533051403060,0.061,,,,14.397666156
1715328533059098264,0.016,,,,14.40536136
1715328533066793468,0.068,,,,14.413056564
1715328533074488672,0.539,,,,14.420751768
1715328533082183876,1.371,,,,14.428446972
1715328533089879080,1.694,,,,14.436142176
1715328533097574284,0.76,,,,14.44383738
1715328533105269488,-0.313,,,,14.451532584
1715328533112964692,-0.149,,,,14.459227788
1715328533120659896,0.266,,,,14.466922992
1715328533128355100,0.035,,,,14.474618196
1715328533136050304,-0.08,,,,14.4823134
1715328533143745508,0.071,,,,14.490008604
1715328533151440712,0.052,,,,14.497703808
1715328533159135916,-0.002,,,,14.505399012
1715328533166831120,0.049,,,,14.513094216
1715328533174526324,0.076,,,,14.52078942
1715328533182221528,0.066,,,,14.528484624
1715328533189916732,0.09,,,,14.536179828
1715328533197611936,0.104,,,,14.543875032
1715328533205307140,0.104,,,,14.551570236
1715328533213002344,0.128,,,,14.55926544
1715328533220697548,0.156,,,,14.566960644
1715328533228392752,0.168,,,,14.574655848
1715328533236087956,0.19,,,,14.582351052
1715328533243783160,0.218,,,,14.590046256
1715328533251478364,0.242,,,,14.59774146
1715328533259173588,0.27,78.0,773.0,,14.605436684
1715328533266868792,0.306,,,,14.613131888
1715328533274563996,0.342,,,,14.620827092
1715328533282259200,0.377,,,,14.628522296
1715328533289954404,0.413,,,,14.6362175
1715328533297649608,0.441,,,,14.643912704
1715328533305344812,0.461,,,,14.651607908
1715328533313040016,0.465,,,,14.659303112
1715328533320735220,0.453,,,,14.666998316
1715328533328430424,0.422,,,,14.67469352
1715328533336125628,0.356,,,,14.682388724
1715328533343820832,0.249,,,,14.690083928
1715328533351516036,0.137,,,,14.697779132
1715328533359211240,0.042,,,,14.705474336
1715328533366906444,-0.033,,,,14.71316954
1715328533374601648,-0.087,,,,14.720864744
1715328533382296852,-0.123,,,,14.728559948
1715328533389992056,-0.137,,,,14.736255152
1715328533397687260,-0.142,,,,14.743950356
1715328533405382464,-0.142,,,,14.75164556
1715328533413077668,-0.135,,,,14.759340764
1715328533420772872,-0.125,,,,14.767035968
1715328533428468076,-0.118,,,,14.774731172
1715328533436163280,-0.116,,,,14.782426376
1715328533443858484,-0.104,,,,14.79012158
1715328533451553688,-0.087,,,,14.797816784
1715328533459248892,-0.078,,,,14.805511988
1715328533466944096,-0.071,,,,14.813207192
1715328533474639300,-0.061,,,,14.820902396
1715328533482334504,-0.052,,,,14.8285976
1715328533490029708,-0.045,,,,14.836292804
1715328533497724912,-0.035,,,,14.843988008
1715328533505420116,-0.028,,,,14.851683212
1715328533513115320,-0.021,,,,14.859378416
1715328533520810524,-0.023,,,,14.86707362
1715328533528505728,-0.019,,,,14.874768824
1715328533536200932,-0.007,,,,14.882464028
1715328533543896136,-0.002,,,,14.890159232
1715328533551591340,0.002,,,,14.897854436
1715328533559286544,0.004,,,,14.90554964
1715328533566981748,0.007,,,,14.913244844
1715328533574676952,0.009,,,,14.920940048
1715328533582372156,0.009,,,,14.928635252
1715328533590067360,0.011,,,,14.936330456
1715328533597762564,0.019,,,,14.94402566
1715328533605457768,0.021,,,,14.951720864
1715328533613152972,0.021,,,,14.959416068
1715328533620848176,0.021,,,,14.967111272
1715328533628543380,0.026,,,,14.974806476
1715328533636238584,0.03,,,,14.98250168
1715328533643933788,0.03,,,,14.990196884
1715328533651628992,0.035,,,,14.997892088
1715328533659324196,0.04,,,,15.005587292
1715328533667019400,0.04,,,,15.013282496
1715328533674714604,0.04,,,,15.0209777
1715328533682409808,0.042,,,,15.028672904
1715328533690105012,0.04,,,,15.036368108
1715328533697800216,0.03,,,,15.044063312
1715328533705495420,0.011,,,,15.051758516
1715328533713190624,-0.007,,,,15.05945372
1715328533720885828,0.002,,,,15.067148924
1715328533728581032,0.04,,,,15.074844128
1715328533736276236,0.092,,,,15.082539332
1715328533743971440,0.142,,,,15.090234536
1715328533751666644,0.142,,,,15.09792974
1715328533759361848,0.087,,,,15.105624944
1715328533767057052,0.052,,,,15.113320148
1715328533774752256,0.064,,,,15.121015352
1715328533782447460,0.073,,,,15.128710556
1715328533790142664,0.066,,,,15.13640576
1715328533797837868,0.064,,,,15.144100964
1715328533805533072,0.066,,,,15.151796168
1715328533813228276,0.066,,,,15.159491372
1715328533820923500,0.064,,,,15.167186596
1715328533828618704,0.042,,,,15.1748818
1715328533836313908,0.009,,,,15.182577004
1715328533844009112,0.154,,,,15.190272208
1715328533851704316,0.76,,,,15.197967412
1715328533859399520,1.542,,,,15.205662616
1715328533867094724,1.501,,,,15.21335782
1715328533874789928,0.356,,,,15.221053024
1715328533882485132,-0.394,,,,15.228748228
1715328533890180336,0.004,,,,15.236443432
1715328533897875540,0.228,,,,15.244138636
1715328533905570744,-0.059,,,,15.25183384
1715328533913265948,-0.054,,,,15.259529044
1715328533920961152,0.073,,,,15.267224248
1715328533928656356,0.014,,,,15.274919452
1715328533936351560,0.0,,,,15.282614656
1715328533944046764,0.057,,,,15.29030986
1715328533951741968,0.061,,,,15.298005064
1715328533959437172,0.059,,,,15.305700268
1715328533967132376,0.09,,,,15.313395472
1715328533974827580,0.109,,,,15.321090676
1715328533982522784,0.116,,,,15.32878588
1715328533990217988,0.135,,,,15.336481084
1715328533997913192,0.159,,,,15.344176288
1715328534005608396,0.175,,,,15.351871492
1715328534013303600,0.194,,,,15.359566696
1715328534020998804,0.223,,,,15.3672619
1715328534028694008,0.254,,,,15.374957104
1715328534036389212,0.285,,,,15.382652308
1715328534044084416,0.318,,,,15.390347512
1715328534051779620,0.361,,,,15.398042716
1715328534059474824,0.401,,,,15.40573792
1715328534067170028,0.434,,,,15.413433124
1715328534074865232,0.461,,,,15.421128328
1715328534082560436,0.477,,,,15.428823532
1715328534090255640,0.482,,,,15.436518736
1715328534097950844,0.472,,,,15.44421394
1715328534105646048,0.434,,,,15.451909144
1715328534113341252,0.358,,,,15.459604348
1715328534121036456,0.249,,,,15.467299552
1715328534128731660,0.135,,,,15.474994756
1715328534136426864,0.04,,,,15.48268996
1715328534144122068,-0.026,,,,15.490385164
1715328534151817272,-0.076,,,,15.498080368
1715328534159512476,-0.106,,,,15.505775572
1715328534167207680,-0.121,,,,15.513470776
1715328534174902884,-0.125,,,,15.52116598
1715328534182598088,-0.125,,,,15.528861184
1715328534190293292,-0.121,,,,15.536556388
1715328534197988496,-0.111,,,,15.544251592
1715328534205683700,-0.111,,,,15.551946796
1715328534213378904,-0.114,,,,15.559642
1715328534221074108,-0.106,,,,15.567337204
1715328534228769312,-0.09,,,,15.575032408
1715328534236464516,-0.08,,,,15.582727612
1715328534244159720,-0.076,,,,15.590422816
1715328534251854924,-0.068,,,,15.59811802
1715328534259550128,-0.061,,,,15.605813224
1715328534267245332,-0.054,,,,15.613508428
1715328534274940536,-0.047,,,,15.621203632
1715328534282635740,-0.035,,,,15.628898836
1715328534290330944,-0.028,,,,15.63659404
1715328534298026148,-0.021,,,,15.644289244
1715328534305721352,-0.019,,,,15.651984448
1715328534313416556,-0.011,,,,15.659679652
1715328534321111760,-0.004,,,,15.667374856
1715328534328806964,0.0,,,,15.67507006
1715328534336502168,0.002,,,,15.682765264
1715328534344197372,0.004,,,,15.690460468
1715328534351892576,0.009,,,,15.698155672
1715328534359587780,0.009,,,,15.705850876
1715328534367282984,0.009,,,,15.71354608
1715328534374978188,0.016,,,,15.721241284
1715328534382673412,0.019,78.0,777.0,,15.728936508
1715328534390368616,0.019,,,,15.736631712
1715328534398063820,0.021,,,,15.744326916
1715328534405759024,0.026,,,,15.75202212
1715328534413454228,0.028,,,,15.759717324
1715328534421149432,0.026,,,,15.767412528
1715328534428844636,0.021,,,,15.775107732
1715328534436539840,0.026,,,,15.782802936
1715328534444235044,0.033,,,,15.79049814
1715328534451930248,0.03,,,,15.798193344
1715328534459625452,0.028,,,,15.805888548
1715328534467320656,0.033,,,,15.813583752
1715328534475015860,0.026,,,,15.821278956
1715328534482711064,0.016,,,,15.82897416
1715328534490406268,0.002,,,,15.836669364
1715328534498101472,-0.004,,,,15.844364568
1715328534505796676,0.019,,,,15.852059772
1715328534513491880,0.068,,,,15.859754976
1715328534521187084,0.125,,,,15.86745018
1715328534528882288,0.147,,,,15.875145384
1715328534536577492,0.106,,,,15.882840588
1715328534544272696,0.059,,,,15.890535792
1715328534551967900,0.059,,,,15.898230996
1715328534559663104,0.073,,,,15.9059262
1715328534567358308,0.071,,,,15.913621404
1715328534575053512,0.068,,,,15.921316608
1715328534582748716,0.071,,,,15.929011812
1715328534590443920,0.071,,,,15.936707016
1715328534598139124,0.071,,,,15.94440222
1715328534605834328,0.057,,,,15.952097424
1715328534613529532,0.011,,,,15.959792628
1715328534621224736,0.064,,,,15.967487832
1715328534628919940,0.506,,,,15.975183036
1715328534636615144,1.306,,,,15.98287824
1715328534644310348,1.649,,,,15.990573444
1715328534652005552,0.779,,,,15.998268648
1715328534659700756,-0.289,,,,16.005963852
1715328534667395960,-0.168,,,,16.013659056
1715328534675091164,0.254,,,,16.02135426
1715328534682786368,0.045,,,,16.029049464
1715328534690481572,-0.085,,,,16.036744668
1715328534698176776,0.061,,,,16.044439872
1715328534705871980,0.052,,,,16.052135076
1715328534713567184,-0.004,,,,16.05983028
1715328534721262388,0.038,,,,16.067525484
1715328534728957592,0.054,,,,16.075220688
1715328534736652796,0.047,,,,16.082915892
1715328534744348000,0.071,,,,16.090611096
1715328534752043204,0.083,,,,16.0983063
1715328534759738408,0.087,,,,16.106001504
1715328534767433612,0.106,,,,16.113696708
1715328534775128816,0.128,,,,16.121391912
1715328534782824020,0.144,,,,16.129087116
1715328534790519224,0.173,,,,16.13678232
1715328534798214428,0.204,,,,16.144477524
1715328534805909632,0.232,,,,16.152172728
1715328534813604836,0.261,,,,16.159867932
1715328534821300040,0.294,,,,16.167563136
1715328534828995244,0.335,,,,16.17525834
1715328534836690448,0.377,,,,16.182953544
1715328534844385652,0.411,,,,16.190648748
1715328534852080856,0.439,,,,16.198343952
1715328534859776060,0.461,,,,16.206039156
1715328534867471264,0.47,,,,16.21373436
1715328534875166468,0.468,,,,16.221429564
1715328534882861672,0.441,,,,16.229124768
1715328534890556876,0.38,,,,16.236819972
1715328534898252080,0.282,,,,16.244515176
1715328534905947284,0.168,,,,16.25221038
1715328534913642488,0.066,,,,16.259905584
1715328534921337692,-0.011,,,,16.267600788
1715328534929032896,-0.068,,,,16.275295992
1715328534936728100,-0.104,,,,16.282991196
1715328534944423326,-0.121,,,,16.290686422
1715328534952118530,-0.128,,,,16.298381626
1715328534959813734,-0.133,,,,16.30607683
1715328534967508938,-0.13,,,,16.313772034
1715328534975204142,-0.118,,,,16.321467238
1715328534982899346,-0.111,,,,16.329162442
1715328534990594550,-0.109,,,,16.336857646
1715328534998289754,-0.104,,,,16.34455285
1715328535005984958,-0.092,,,,16.352248054
1715328535013680162,-0.083,,,,16.359943258
1715328535021375366,-0.08,,,,16.367638462
1715328535029070570,-0.078,,,,16.375333666
1715328535036765774,-0.064,,,,16.38302887
1715328535044460978,-0.049,,,,16.390724074
1715328535052156182,-0.047,,,,16.398419278
1715328535059851386,-0.045,,,,16.406114482
1715328535067546590,-0.033,,,,16.413809686
1715328535075241794,-0.021,,,,16.42150489
1715328535082936998,-0.019,,,,16.429200094
1715328535090632202,-0.014,,,,16.436895298
1715328535098327406,-0.009,,,,16.444590502
1715328535106022610,-0.002,,,,16.452285706
1715328535113717814,0.002,,,,16.45998091
1715328535121413018,0.004,,,,16.467676114
1715328535129108222,0.009,,,,16.475371318
1715328535136803426,0.011,,,,16.483066522
1715328535144498630,0.009,,,,16.490761726
1715328535152193834,0.014,,,,16.49845693
1715328535159889038,0.019,,,,16.506152134
1715328535167584242,0.021,,,,16.513847338
1715328535175279446,0.023,,,,16.521542542
1715328535182974650,0.023,,,,16.529237746
1715328535190669854,0.028,,,,16.53693295
1715328535198365058,0.033,,,,16.544628154
1715328535206060262,0.035,,,,16.552323358
1715328535213755466,0.035,,,,16.560018562
1715328535221450670,0.035,,,,16.567713766
1715328535229145874,0.03,,,,16.57540897
1715328535236841078,0.023,,,,16.583104174
1715328535244536282,0.021,,,,16.590799378
1715328535252231486,0.026,,,,16.598494582
1715328535259926690,0.019,,,,16.606189786
1715328535267621894,0.009,,,,16.61388499
1715328535275317098,0.0,,,,16.621580194
1715328535283012302,-0.002,,,,16.629275398
1715328535290707506,0.023,,,,16.636970602
1715328535298402710,0.078,,,,16.644665806
1715328535306097914,0.133,,,,16.65236101
1715328535313793118,0.152,,,,16.660056214
1715328535321488322,0.109,,,,16.667751418
1715328535329183526,0.066,,,,16.675446622
1715328535336878730,0.066,,,,16.683141826
1715328535344573934,0.078,,,,16.69083703
1715328535352269138,0.076,,,,16.698532234
1715328535359964342,0.073,,,,16.706227438
1715328535367659546,0.076,,,,16.713922642
1715328535375354750,0.076,,,,16.721617846
1715328535383049954,0.073,,,,16.72931305
1715328535390745158,0.064,,,,16.737008254
1715328535398440362,0.019,,,,16.744703458
1715328535406135566,0.061,,,,16.752398662
1715328535413830770,0.487,,,,16.760093866
1715328535421525974,1.268,,,,16.76778907
1715328535429221178,1.63,,,,16.775484274
1715328535436916382,0.798,,,,16.783179478
1715328535444611586,-0.268,,,,16.790874682
1715328535452306790,-0.175,,,,16.798569886
1715328535460001994,0.251,,,,16.80626509
1715328535467697198,0.054,,,,16.813960294
1715328535475392402,-0.083,,,,16.821655498
1715328535483087606,0.059,,,,16.829350702
1715328535490782810,0.047,,,,16.837045906
1715328535498478014,-0.007,,,,16.84474111
1715328535506173238,0.045,78.0,770.0,,16.852436334
1715328535513868442,0.068,,774.0,,16.860131538
1715328535521563646,0.052,,,,16.867826742
1715328535529258850,0.071,,,,16.875521946
1715328535536954054,0.097,,,,16.88321715
1715328535544649258,0.102,,,,16.890912354
1715328535552344462,0.116,,,,16.898607558
1715328535560039666,0.14,,,,16.906302762
1715328535567734870,0.149,,,,16.913997966
1715328535575430074,0.171,,,,16.92169317
1715328535583125278,0.206,,,,16.929388374
1715328535590820482,0.235,,,,16.937083578
1715328535598515686,0.261,,,,16.944778782
1715328535606210890,0.297,,,,16.952473986
1715328535613906094,0.339,,,,16.96016919
1715328535621601298,0.377,,,,16.967864394
1715328535629296502,0.411,,,,16.975559598
1715328535636991706,0.441,,,,16.983254802
1715328535644686910,0.463,,,,16.990950006
1715328535652382114,0.47,,,,16.99864521
1715328535660077318,0.465,,,,17.006340414
1715328535667772522,0.446,,,,17.014035618
1715328535675467726,0.389,,,,17.021730822
1715328535683162930,0.292,,,,17.029426026
1715328535690858134,0.18,,,,17.03712123
1715328535698553338,0.08,,,,17.044816434
1715328535706248542,-0.002,,,,17.052511638
1715328535713943746,-0.061,,,,17.060206842
1715328535721638950,-0.106,,,,17.067902046
1715328535729334154,-0.137,,,,17.07559725
1715328535737029358,-0.152,,,,17.083292454
1715328535744724562,-0.152,,,,17.090987658
1715328535752419766,-0.144,,,,17.098682862
1715328535760114970,-0.137,,,,17.106378066
1715328535767810174,-0.13,,,,17.11407327
1715328535775505378,-0.121,,,,17.121768474
1715328535783200582,-0.111,,,,17.129463678
1715328535790895786,-0.102,,,,17.137158882
1715328535798590990,-0.092,,,,17.144854086
1715328535806286194,-0.08,,,,17.15254929
1715328535813981398,-0.073,,,,17.160244494
1715328535821676602,-0.061,,,,17.167939698
1715328535829371806,-0.052,,,,17.175634902
1715328535837067010,-0.049,,,,17.183330106
1715328535844762214,-0.04,,,,17.19102531
1715328535852457418,-0.026,,,,17.198720514
1715328535860152622,-0.021,,,,17.206415718
1715328535867847826,-0.019,,,,17.214110922
1715328535875543030,-0.009,,,,17.221806126
1715328535883238234,-0.004,,,,17.22950133
1715328535890933438,-0.002,,,,17.237196534
1715328535898628642,0.0,,,,17.244891738
1715328535906323846,0.004,,,,17.252586942
1715328535914019050,0.009,,,,17.260282146
1715328535921714254,0.014,,,,17.26797735
1715328535929409458,0.014,,,,17.275672554
1715328535937104662,0.014,,,,17.283367758
1715328535944799866,0.019,,,,17.291062962
1715328535952495070,0.023,,,,17.298758166
1715328535960190274,0.026,,,,17.30645337
1715328535967885478,0.023,,,,17.314148574
1715328535975580682,0.021,,,,17.321843778
1715328535983275886,0.019,,,,17.329538982
1715328535990971090,0.023,,,,17.337234186
1715328535998666294,0.03,,,,17.34492939
1715328536006361498,0.033,,,,17.352624594
1715328536014056702,0.03,,,,17.360319798
1715328536021751906,0.03,,,,17.368015002
1715328536029447110,0.03,,,,17.375710206
1715328536037142314,0.023,,,,17.38340541
1715328536044837518,0.019,,,,17.391100614
1715328536052532722,0.014,,,,17.398795818
1715328536060227926,0.007,,,,17.406491022
1715328536067923150,0.021,,,,17.414186246
1715328536075618354,0.066,,,,17.42188145
1715328536083313558,0.123,,,,17.429576654
1715328536091008762,0.154,,,,17.437271858
1715328536098703966,0.125,,,,17.444967062
1715328536106399170,0.073,,,,17.452662266
1715328536114094374,0.064,,,,17.46035747
1715328536121789578,0.083,,,,17.468052674
1715328536129484782,0.078,,,,17.475747878
1715328536137179986,0.064,,,,17.483443082
1715328536144875190,0.061,,,,17.491138286
1715328536152570394,0.068,,,,17.49883349
1715328536160265598,0.068,,,,17.506528694
1715328536167960802,0.059,,,,17.514223898
1715328536175656006,0.019,,,,17.521919102
1715328536183351210,0.033,,,,17.529614306
1715328536191046414,0.392,,,,17.53730951
1715328536198741618,1.169,,,,17.545004714
1715328536206436822,1.675,,,,17.552699918
1715328536214132026,0.983,,,,17.560395122
1715328536221827230,-0.192,,,,17.568090326
1715328536229522434,-0.28,,,,17.57578553
1715328536237217638,0.199,,,,17.583480734
1715328536244912842,0.071,,,,17.591175938
1715328536252608046,-0.121,,,,17.598871142
1715328536260303250,0.021,,,,17.606566346
1715328536267998454,0.049,,,,17.61426155
1715328536275693658,-0.019,,,,17.621956754
1715328536283388862,0.023,,,,17.629651958
1715328536291084066,0.061,,,,17.637347162
1715328536298779270,0.047,,,,17.645042366
1715328536306474474,0.061,,,,17.65273757
1715328536314169678,0.087,,,,17.660432774
1715328536321864882,0.092,,,,17.668127978
1715328536329560086,0.106,,,,17.675823182
1715328536337255290,0.135,,,,17.683518386
1715328536344950494,0.154,,,,17.69121359
1715328536352645698,0.175,,,,17.698908794
1715328536360340902,0.209,,,,17.706603998
1715328536368036106,0.24,,,,17.714299202
1715328536375731310,0.266,,,,17.721994406
1715328536383426514,0.299,,,,17.72968961
1715328536391121718,0.339,,,,17.737384814
1715328536398816922,0.384,,,,17.745080018
1715328536406512126,0.425,,,,17.752775222
1715328536414207330,0.461,,,,17.760470426
1715328536421902534,0.487,,,,17.76816563
1715328536429597738,0.496,,,,17.775860834
1715328536437292942,0.489,,,,17.783556038
1715328536444988146,0.47,,,,17.791251242
1715328536452683350,0.42,,,,17.798946446
1715328536460378554,0.325,,,,17.80664165
1715328536468073758,0.204,,,,17.814336854
1715328536475768962,0.09,,,,17.822032058
1715328536483464166,-0.002,,,,17.829727262
1715328536491159370,-0.066,,,,17.837422466
1715328536498854574,-0.106,,,,17.84511767
1715328536506549778,-0.128,,,,17.852812874
1715328536514244982,-0.135,,,,17.860508078
1715328536521940186,-0.144,,,,17.868203282
1715328536529635390,-0.14,,,,17.875898486
1715328536537330594,-0.123,,,,17.88359369
1715328536545025798,-0.114,,,,17.891288894
1715328536552721002,-0.114,,,,17.898984098
1715328536560416206,-0.104,,,,17.906679302
1715328536568111410,-0.09,,,,17.914374506
1715328536575806614,-0.085,,,,17.92206971
1715328536583501818,-0.083,,,,17.929764914
1715328536591197022,-0.068,,,,17.937460118
1715328536598892226,-0.052,,,,17.945155322
1715328536606587430,-0.042,,,,17.952850526
1715328536614282634,-0.04,,,,17.96054573
1715328536621977838,-0.03,,,,17.968240934
1715328536629673062,-0.021,78.0,779.0,,17.975936158
1715328536637368266,-0.014,,,,17.983631362
1715328536645063470,-0.009,,,,17.991326566
1715328536652758674,0.0,,,,17.99902177
1715328536660453878,0.004,,,,18.006716974
1715328536668149082,0.0,,,,18.014412178
1715328536675844286,-0.004,,,,18.022107382
1715328536683539490,0.0,,,,18.029802586
1715328536691234694,0.007,,,,18.03749779
1715328536698929898,0.009,,,,18.045192994
1715328536706625102,0.004,,,,18.052888198
1715328536714320306,0.004,,,,18.060583402
1715328536722015510,0.007,,,,18.068278606
1715328536729710714,0.009,,,,18.07597381
1715328536737405918,0.007,,,,18.083669014
1715328536745101122,0.004,,,,18.091364218
1715328536752796326,0.007,,,,18.099059422
1715328536760491530,0.009,,,,18.106754626
1715328536768186734,0.011,,,,18.11444983
1715328536775881938,0.014,,,,18.122145034
1715328536783577142,0.009,,,,18.129840238
1715328536791272346,0.002,,,,18.137535442
1715328536798967550,-0.007,,,,18.145230646
1715328536806662754,-0.014,,,,18.15292585
1715328536814357958,0.007,,,,18.160621054
1715328536822053162,0.052,,,,18.168316258
1715328536829748366,0.102,,,,18.176011462
1715328536837443570,0.14,,,,18.183706666
1715328536845138774,0.116,,,,18.19140187
1715328536852833978,0.061,,,,18.199097074
1715328536860529182,0.052,,,,18.206792278
1715328536868224386,0.066,,,,18.214487482
1715328536875919590,0.068,,,,18.222182686
1715328536883614794,0.061,,,,18.22987789
1715328536891309998,0.064,,,,18.237573094
1715328536899005202,0.068,,,,18.245268298
1715328536906700406,0.068,,,,18.252963502
1715328536914395610,0.064,,,,18.260658706
1715328536922090814,0.03,,,,18.26835391
1715328536929786018,0.04,,,,18.276049114
1715328536937481222,0.365,,,,18.283744318
1715328536945176426,1.131,,,,18.291439522
1715328536952871630,1.715,,,,18.299134726
1715328536960566834,1.119,,,,18.30682993
1715328536968262038,-0.128,,,,18.314525134
1715328536975957242,-0.335,,,,18.322220338
1715328536983652446,0.19,,,,18.329915542
1715328536991347650,0.118,,,,18.337610746
1715328536999042854,-0.111,,,,18.34530595
1715328537006738058,0.021,,,,18.353001154
1715328537014433262,0.068,,,,18.360696358
1715328537022128466,-0.009,,,,18.368391562
1715328537029823670,0.028,,,,18.376086766
1715328537037518874,0.073,,,,18.38378197
1715328537045214078,0.061,,,,18.391477174
1715328537052909282,0.076,,,,18.399172378
1715328537060604486,0.106,,,,18.406867582
1715328537068299690,0.111,,,,18.414562786
1715328537075994894,0.123,,,,18.42225799
1715328537083690098,0.147,,,,18.429953194
1715328537091385302,0.161,,,,18.437648398
1715328537099080506,0.178,,,,18.445343602
1715328537106775710,0.209,,,,18.453038806
1715328537114470914,0.24,,,,18.46073401
1715328537122166118,0.266,,,,18.468429214
1715328537129861322,0.299,,,,18.476124418
1715328537137556526,0.339,,,,18.483819622
1715328537145251730,0.377,,,,18.491514826
1715328537152946934,0.411,,,,18.49921003
1715328537160642138,0.441,,,,18.506905234
1715328537168337342,0.468,,,,18.514600438
1715328537176032546,0.477,,,,18.522295642
1715328537183727750,0.472,,,,18.529990846
1715328537191422974,0.449,78.0,785.0,,18.53768607
1715328537199118178,0.394,,,,18.545381274
1715328537206813382,0.297,,,,18.553076478
1715328537214508586,0.175,,,,18.560771682
1715328537222203790,0.068,,,,18.568466886
1715328537229898994,-0.009,,,,18.57616209
1715328537237594198,-0.066,,,,18.583857294
1715328537245289402,-0.111,,,,18.591552498
1715328537252984606,-0.14,,,,18.599247702
1715328537260679810,-0.147,,,,18.606942906
1715328537268375014,-0.147,,,,18.61463811
1715328537276070218,-0.152,,,,18.622333314
1715328537283765422,-0.149,,,,18.630028518
1715328537291460626,-0.137,,,,18.637723722
1715328537299155830,-0.128,,,,18.645418926
1715328537306851034,-0.123,,,,18.65311413
1715328537314546238,-0.111,,,,18.660809334
1715328537322241442,-0.099,,,,18.668504538
1715328537329936646,-0.087,,,,18.676199742
1715328537337631850,-0.078,,,,18.683894946
1715328537345327054,-0.068,,,,18.69159015
1715328537353022258,-0.059,,,,18.699285354
1715328537360717462,-0.052,,,,18.706980558
1715328537368412666,-0.042,,,,18.714675762
1715328537376107870,-0.033,,,,18.722370966
1715328537383803074,-0.023,,,,18.73006617
1715328537391498278,-0.019,,,,18.737761374
1715328537399193482,-0.014,,,,18.745456578
1715328537406888686,-0.009,,,,18.753151782
1715328537414583890,0.0,,,,18.760846986
1715328537422279094,0.002,,,,18.76854219
1715328537429974298,0.004,,,,18.776237394
1715328537437669502,0.009,,,,18.783932598
1715328537445364706,0.011,,,,18.791627802
1715328537453059910,0.007,,,,18.799323006
1715328537460755114,0.007,,,,18.80701821
1715328537468450318,0.011,,,,18.814713414
1715328537476145522,0.016,,,,18.822408618
1715328537483840726,0.016,,,,18.830103822
1715328537491535930,0.016,,,,18.837799026
1715328537499231134,0.021,,,,18.84549423
1715328537506926338,0.026,,,,18.853189434
1715328537514621542,0.026,,,,18.860884638
1715328537522316746,0.023,,,,18.868579842
1715328537530011950,0.016,,,,18.876275046
1715328537537707154,0.007,,,,18.88397025
1715328537545402358,-0.004,,,,18.891665454
1715328537553097562,0.002,,,,18.899360658
1715328537560792766,0.04,,,,18.907055862
1715328537568487970,0.092,,,,18.914751066
1715328537576183174,0.142,,,,18.92244627
1715328537583878378,0.142,,,,18.930141474
1715328537591573582,0.092,,,,18.937836678
1715328537599268786,0.061,,,,18.945531882
1715328537606963990,0.068,,,,18.953227086
1715328537614659194,0.076,,,,18.96092229
1715328537622354398,0.071,,,,18.968617494
1715328537630049602,0.071,,,,18.976312698
1715328537637744806,0.073,,,,18.984007902
1715328537645440010,0.073,,,,18.991703106
1715328537653135214,0.071,,,,18.99939831
1715328537660830418,0.049,,,,19.007093514
1715328537668525622,0.011,,,,19.014788718
1715328537676220826,0.161,,,,19.022483922
1715328537683916030,0.774,,,,19.030179126
1715328537691611234,1.568,,,,19.03787433
1715328537699306438,1.539,,,,19.045569534
1715328537707001642,0.394,,,,19.053264738
1715328537714696846,-0.37,,,,19.060959942
1715328537722392050,0.014,,,,19.068655146
1715328537730087254,0.237,,,,19.07635035
1715328537737782458,-0.049,,,,19.084045554
1715328537745477662,-0.052,,,,19.091740758
1715328537753172886,0.064,,,,19.099435982
1715328537760868090,-0.002,,,,19.107131186
1715328537768563294,-0.014,,,,19.11482639
1715328537776258498,0.049,,,,19.122521594
1715328537783953702,0.052,,,,19.130216798
1715328537791648906,0.047,,,,19.137912002
1715328537799344110,0.08,,,,19.145607206
1715328537807039314,0.097,,,,19.15330241
1715328537814734518,0.097,,,,19.160997614
1715328537822429722,0.111,,,,19.168692818
1715328537830124926,0.14,,,,19.176388022
1715328537837820130,0.163,,,,19.184083226
1715328537845515334,0.182,,,,19.19177843
1715328537853210538,0.211,,,,19.199473634
1715328537860905742,0.24,,,,19.207168838
1715328537868600946,0.266,,,,19.214864042
1715328537876296150,0.301,,,,19.222559246
1715328537883991354,0.342,,,,19.23025445
1715328537891686558,0.382,,,,19.237949654
1715328537899381762,0.418,,,,19.245644858
1715328537907076966,0.441,,,,19.253340062
1715328537914772170,0.453,,,,19.261035266
1715328537922467374,0.461,,,,19.26873047
1715328537930162578,0.453,,,,19.276425674
1715328537937857782,0.408,,,,19.284120878
1715328537945552986,0.327,,,,19.291816082
1715328537953248190,0.218,,,,19.299511286
1715328537960943394,0.106,,,,19.30720649
1715328537968638598,0.011,,,,19.314901694
1715328537976333802,-0.054,,,,19.322596898
1715328537984029006,-0.099,,,,19.330292102
1715328537991724210,-0.13,,,,19.337987306
1715328537999419414,-0.142,,,,19.34568251
1715328538007114618,-0.144,,,,19.353377714
1715328538014809822,-0.14,,,,19.361072918
1715328538022505026,-0.135,,,,19.368768122
1715328538030200230,-0.13,,,,19.376463326
1715328538037895434,-0.118,,,,19.38415853
1715328538045590638,-0.109,,,,19.391853734
1715328538053285842,-0.102,,,,19.399548938
1715328538060981046,-0.092,,,,19.407244142
1715328538068676250,-0.078,,,,19.414939346
1715328538076371454,-0.071,,,,19.42263455
1715328538084066658,-0.064,,,,19.430329754
1715328538091761862,-0.054,,,,19.438024958
1715328538099457066,-0.045,,,,19.445720162
1715328538107152270,-0.038,,,,19.453415366
1715328538114847474,-0.03,,,,19.46111057
1715328538122542678,-0.023,,,,19.468805774
1715328538130237882,-0.016,,,,19.476500978
1715328538137933086,-0.009,,,,19.484196182
1715328538145628290,-0.009,,,,19.491891386
1715328538153323494,-0.004,,,,19.49958659
1715328538161018698,0.002,,,,19.507281794
1715328538168713902,0.007,,,,19.514976998
1715328538176409106,0.009,,,,19.522672202
1715328538184104310,0.011,,,,19.530367406
1715328538191799514,0.007,,,,19.53806261
1715328538199494718,0.004,,,,19.545757814
1715328538207189922,0.007,,,,19.553453018
1715328538214885126,0.014,,,,19.561148222
1715328538222580330,0.016,,,,19.568843426
1715328538230275534,0.019,,,,19.57653863
1715328538237970738,0.019,,,,19.584233834
1715328538245665942,0.016,,,,19.591929038
1715328538253361146,0.002,,,,19.599624242
1715328538261056350,-0.011,,,,19.607319446
1715328538268751554,-0.016,,,,19.61501465
1715328538276446758,-0.023,,,,19.622709854
1715328538284141962,-0.014,,,,19.630405058
1715328538291837166,0.028,,,,19.638100262
1715328538299532370,0.09,,,,19.645795466
1715328538307227574,0.13,,,,19.65349067
1715328538314922800,0.121,77.0,778.0,,19.661185896
1715328538322618004,0.071,,747.0,,19.6688811
1715328538330313208,0.042,,,,19.676576304
1715328538338008412,0.054,,,,19.684271508
1715328538345703616,0.064,,,,19.691966712
1715328538353398820,0.057,,,,19.699661916
1715328538361094024,0.059,,,,19.70735712
1715328538368789228,0.061,,,,19.715052324
1715328538376484432,0.059,,,,19.722747528
1715328538384179636,0.047,,,,19.730442732
1715328538391874840,0.011,,,,19.738137936
1715328538399570044,-0.011,,,,19.74583314
1715328538407265248,0.201,,,,19.753528344
1715328538414960452,0.874,,,,19.761223548
1715328538422655656,1.594,,,,19.768918752
1715328538430350860,1.342,,,,19.776613956
1715328538438046064,0.147,,,,19.78430916
1715328538445741268,-0.392,,,,19.792004364
1715328538453436472,0.078,,,,19.799699568
1715328538461131676,0.194,,,,19.807394772
1715328538468826880,-0.083,,,,19.815089976
1715328538476522084,-0.03,,,,19.82278518
1715328538484217288,0.076,,,,19.830480384
1715328538491912492,0.007,,,,19.838175588
1715328538499607696,0.009,,,,19.845870792
1715328538507302900,0.061,,,,19.853565996
1715328538514998104,0.054,,,,19.8612612
1715328538522693308,0.059,,,,19.868956404
1715328538530388512,0.09,,,,19.876651608
1715328538538083716,0.106,,,,19.884346812
1715328538545778920,0.118,,,,19.892042016
1715328538553474124,0.144,,,,19.89973722
1715328538561169328,0.166,,,,19.907432424
1715328538568864532,0.185,,,,19.915127628
1715328538576559736,0.213,,,,19.922822832
1715328538584254940,0.247,,,,19.930518036
1715328538591950144,0.275,,,,19.93821324
1715328538599645348,0.308,,,,19.945908444
1715328538607340552,0.346,,,,19.953603648
1715328538615035756,0.387,,,,19.961298852
1715328538622730960,0.422,,,,19.968994056
1715328538630426164,0.449,,,,19.97668926
1715328538638121368,0.47,,,,19.984384464
1715328538645816572,0.482,,,,19.992079668
1715328538653511776,0.477,,,,19.999774872
1715328538661206980,0.456,,,,20.007470076
1715328538668902184,0.408,,,,20.01516528
1715328538676597388,0.318,,,,20.022860484
1715328538684292592,0.199,,,,20.030555688
1715328538691987796,0.09,,,,20.038250892
1715328538699683000,0.002,,,,20.045946096
1715328538707378204,-0.059,,,,20.0536413
1715328538715073408,-0.104,,,,20.061336504
1715328538722768612,-0.128,,,,20.069031708
1715328538730463816,-0.135,,,,20.076726912
1715328538738159020,-0.137,,,,20.084422116
1715328538745854224,-0.142,,,,20.09211732
1715328538753549428,-0.147,,,,20.099812524
1715328538761244632,-0.142,,,,20.107507728
1715328538768939836,-0.133,,,,20.115202932
1715328538776635040,-0.123,,,,20.122898136
1715328538784330244,-0.111,,,,20.13059334
1715328538792025448,-0.099,,,,20.138288544
1715328538799720652,-0.09,,,,20.145983748
1715328538807415856,-0.085,,,,20.153678952
1715328538815111060,-0.073,,,,20.161374156
1715328538822806264,-0.059,,,,20.16906936
1715328538830501468,-0.052,,,,20.176764564
1715328538838196672,-0.047,,,,20.184459768
1715328538845891876,-0.038,,,,20.192154972
1715328538853587080,-0.028,,,,20.199850176
1715328538861282284,-0.021,,,,20.20754538
1715328538868977488,-0.016,,,,20.215240584
1715328538876672712,-0.011,,,,20.222935808
1715328538884367916,-0.007,,,,20.230631012
1715328538892063120,-0.004,,,,20.238326216
1715328538899758324,0.002,,,,20.24602142
1715328538907453528,0.007,,,,20.253716624
1715328538915148732,0.009,,,,20.261411828
1715328538922843936,0.009,,,,20.269107032
1715328538930539140,0.004,,,,20.276802236
1715328538938234344,0.004,,,,20.28449744
1715328538945929548,0.007,,,,20.292192644
1715328538953624752,0.004,,,,20.299887848
1715328538961319956,0.0,,,,20.307583052
1715328538969015160,0.004,,,,20.315278256
1715328538976710364,0.009,,,,20.32297346
1715328538984405568,0.0,,,,20.330668664
1715328538992100772,-0.009,,,,20.338363868
1715328538999795976,-0.014,,,,20.346059072
1715328539007491180,-0.021,,,,20.353754276
1715328539015186384,-0.007,,,,20.36144948
1715328539022881588,0.038,,,,20.369144684
1715328539030576792,0.097,,,,20.376839888
1715328539038271996,0.137,,,,20.384535092
1715328539045967200,0.118,,,,20.392230296
1715328539053662404,0.068,,,,20.3999255
1715328539061357608,0.049,,,,20.407620704
1715328539069052812,0.059,,,,20.415315908
1715328539076748016,0.064,,,,20.423011112
1715328539084443220,0.061,,,,20.430706316
1715328539092138424,0.066,,,,20.43840152
1715328539099833628,0.066,,,,20.446096724
1715328539107528832,0.064,,,,20.453791928
1715328539115224036,0.059,,,,20.461487132
1715328539122919240,0.028,,,,20.469182336
1715328539130614444,0.002,,,,20.47687754
1715328539138309648,0.225,,,,20.484572744
1715328539146004852,0.905,,,,20.492267948
1715328539153700056,1.592,,,,20.499963152
1715328539161395260,1.287,,,,20.507658356
1715328539169090464,0.104,,,,20.51535356
1715328539176785668,-0.363,,,,20.523048764
1715328539184480872,0.109,,,,20.530743968
1715328539192176076,0.19,,,,20.538439172
1715328539199871280,-0.073,,,,20.546134376
1715328539207566484,-0.007,,,,20.55382958
1715328539215261688,0.085,,,,20.561524784
1715328539222956892,0.019,,,,20.569219988
1715328539230652096,0.026,,,,20.576915192
1715328539238347300,0.08,,,,20.584610396
1715328539246042504,0.076,,,,20.5923056
1715328539253737708,0.076,,,,20.600000804
1715328539261432912,0.099,,,,20.607696008
1715328539269128116,0.111,,,,20.615391212
1715328539276823320,0.13,,,,20.623086416
1715328539284518524,0.152,,,,20.63078162
1715328539292213728,0.168,,,,20.638476824
1715328539299908932,0.187,,,,20.646172028
1715328539307604136,0.216,,,,20.653867232
1715328539315299340,0.244,,,,20.661562436
1715328539322994544,0.275,,,,20.66925764
1715328539330689748,0.311,,,,20.676952844
1715328539338384952,0.349,,,,20.684648048
1715328539346080156,0.384,,,,20.692343252
1715328539353775360,0.42,,,,20.700038456
1715328539361470564,0.456,,,,20.70773366
1715328539369165768,0.477,,,,20.715428864
1715328539376860972,0.489,,,,20.723124068
1715328539384556176,0.489,,,,20.730819272
1715328539392251380,0.47,,,,20.738514476
1715328539399946584,0.415,,,,20.74620968
1715328539407641788,0.318,,,,20.753904884
1715328539415336992,0.201,,,,20.761600088
1715328539423032196,0.095,,,,20.769295292
1715328539430727400,0.0,,,,20.776990496
1715328539438422624,-0.071,78.0,742.0,,20.78468572
1715328539446117828,-0.109,,,,20.792380924
1715328539453813032,-0.128,,,,20.800076128
1715328539461508236,-0.142,,,,20.807771332
1715328539469203440,-0.144,,,,20.815466536
1715328539476898644,-0.14,,,,20.82316174
1715328539484593848,-0.137,,,,20.830856944
1715328539492289052,-0.137,,,,20.838552148
1715328539499984256,-0.135,,,,20.846247352
1715328539507679460,-0.121,,,,20.853942556
1715328539515374664,-0.106,,,,20.86163776
1715328539523069868,-0.102,,,,20.869332964
1715328539530765072,-0.095,,,,20.877028168
1715328539538460276,-0.083,,,,20.884723372
1715328539546155480,-0.071,,,,20.892418576
1715328539553850684,-0.064,,,,20.90011378
1715328539561545888,-0.054,,,,20.907808984
1715328539569241092,-0.042,,,,20.915504188
1715328539576936296,-0.038,,,,20.923199392
1715328539584631500,-0.033,,,,20.930894596
1715328539592326704,-0.023,,,,20.9385898
1715328539600021908,-0.016,,,,20.946285004
1715328539607717112,-0.011,,,,20.953980208
1715328539615412316,-0.009,,,,20.961675412
1715328539623107520,-0.007,,,,20.969370616
1715328539630802724,-0.002,,,,20.97706582
1715328539638497928,0.002,,,,20.984761024
1715328539646193132,0.004,,,,20.992456228
1715328539653888336,0.007,,,,21.000151432
1715328539661583540,0.011,,,,21.007846636
1715328539669278744,0.009,,,,21.01554184
1715328539676973948,0.007,,,,21.023237044
1715328539684669152,0.011,,,,21.030932248
1715328539692364356,0.019,,,,21.038627452
1715328539700059560,0.023,,,,21.046322656
1715328539707754764,0.023,,,,21.05401786
1715328539715449968,0.028,,,,21.061713064
1715328539723145172,0.03,,,,21.069408268
1715328539730840376,0.028,,,,21.077103472
1715328539738535580,0.023,,,,21.084798676
1715328539746230784,0.014,,,,21.09249388
1715328539753925988,0.002,,,,21.100189084
1715328539761621192,-0.014,,,,21.107884288
1715328539769316396,-0.011,,,,21.115579492
1715328539777011600,0.033,,,,21.123274696
1715328539784706804,0.092,,,,21.1309699
1715328539792402008,0.135,,,,21.138665104
1715328539800097212,0.125,,,,21.146360308
1715328539807792416,0.076,,,,21.154055512
1715328539815487620,0.049,,,,21.161750716
1715328539823182824,0.061,,,,21.16944592
1715328539830878028,0.071,,,,21.177141124
1715328539838573232,0.068,,,,21.184836328
1715328539846268436,0.066,,,,21.192531532
1715328539853963640,0.066,,,,21.200226736
1715328539861658844,0.066,,,,21.20792194
1715328539869354048,0.064,,,,21.215617144
1715328539877049252,0.042,,,,21.223312348
1715328539884744456,-0.004,,,,21.231007552
1715328539892439660,0.13,,,,21.238702756
1715328539900134864,0.724,,,,21.24639796
1715328539907830068,1.497,,,,21.254093164
1715328539915525272,1.48,,,,21.261788368
1715328539923220476,0.368,,,,21.269483572
1715328539930915680,-0.384,,,,21.277178776
1715328539938610884,0.004,,,,21.28487398
1715328539946306088,0.242,,,,21.292569184
1715328539954001292,-0.035,,,,21.300264388
1715328539961696496,-0.038,,,,21.307959592
1715328539969391700,0.092,,,,21.315654796
1715328539977086904,0.033,,,,21.32335
1715328539984782108,0.014,,,,21.331045204
1715328539992477312,0.073,,,,21.338740408
1715328540000172536,0.08,,,,21.346435632
1715328540007867740,0.08,,,,21.354130836
1715328540015562944,0.111,,,,21.36182604
1715328540023258148,0.13,,,,21.369521244
1715328540030953352,0.14,,,,21.377216448
1715328540038648556,0.159,,,,21.384911652
1715328540046343760,0.182,,,,21.392606856
1715328540054038964,0.204,,,,21.40030206
1715328540061734168,0.228,,,,21.407997264
1715328540069429372,0.249,,,,21.415692468
1715328540077124576,0.273,,,,21.423387672
1715328540084819780,0.308,,,,21.431082876
1715328540092514984,0.342,,,,21.43877808
1715328540100210188,0.377,,,,21.446473284
1715328540107905392,0.418,,,,21.454168488
1715328540115600596,0.458,,,,21.461863692
1715328540123295800,0.484,,,,21.469558896
1715328540130991004,0.499,,,,21.4772541
1715328540138686208,0.503,,,,21.484949304
1715328540146381412,0.491,,,,21.492644508
1715328540154076616,0.446,,,,21.500339712
1715328540161771820,0.358,,,,21.508034916
1715328540169467024,0.244,,,,21.51573012
1715328540177162228,0.133,,,,21.523425324
1715328540184857432,0.03,,,,21.531120528
1715328540192552636,-0.049,,,,21.538815732
1715328540200247840,-0.097,,,,21.546510936
1715328540207943044,-0.123,,,,21.55420614
1715328540215638248,-0.142,,,,21.561901344
1715328540223333452,-0.152,,,,21.569596548
1715328540231028656,-0.147,,,,21.577291752
1715328540238723860,-0.137,,,,21.584986956
1715328540246419064,-0.135,,,,21.59268216
1715328540254114268,-0.13,,,,21.600377364
1715328540261809472,-0.123,,,,21.608072568
1715328540269504676,-0.125,,,,21.615767772
1715328540277199880,-0.121,,,,21.623462976
1715328540284895084,-0.106,,,,21.63115818
1715328540292590288,-0.095,,,,21.638853384
1715328540300285492,-0.085,,,,21.646548588
1715328540307980696,-0.078,,,,21.654243792
1715328540315675900,-0.071,,,,21.661938996
1715328540323371104,-0.061,,,,21.6696342
1715328540331066308,-0.054,,,,21.677329404
1715328540338761512,-0.045,,,,21.685024608
1715328540346456716,-0.035,,,,21.692719812
1715328540354151920,-0.028,,,,21.700415016
1715328540361847124,-0.019,,,,21.70811022
1715328540369542328,-0.016,,,,21.715805424
1715328540377237532,-0.016,,,,21.723500628
1715328540384932736,-0.011,,,,21.731195832
1715328540392627940,-0.004,,,,21.738891036
1715328540400323144,-0.004,,,,21.74658624
1715328540408018348,-0.007,,,,21.754281444
1715328540415713552,-0.002,,,,21.761976648
1715328540423408756,0.0,,,,21.769671852
1715328540431103960,-0.004,,,,21.777367056
1715328540438799164,0.0,,,,21.78506226
1715328540446494368,0.009,,,,21.792757464
1715328540454189572,0.014,,,,21.800452668
1715328540461884776,0.014,,,,21.808147872
1715328540469579980,0.016,,,,21.815843076
1715328540477275184,0.019,,,,21.82353828
1715328540484970388,0.011,,,,21.831233484
1715328540492665592,0.002,,,,21.838928688
1715328540500360796,-0.002,,,,21.846623892
1715328540508056000,-0.004,,,,21.854319096
1715328540515751204,0.011,,,,21.8620143
1715328540523446408,0.054,,,,21.869709504
1715328540531141612,0.109,,,,21.877404708
1715328540538836816,0.14,,,,21.885099912
1715328540546532020,0.102,,,,21.892795116
1715328540554227224,0.057,,,,21.90049032
1715328540561922448,0.057,78.0,729.0,,21.908185544
1715328540569617652,0.068,,,,21.915880748
1715328540577312856,0.066,,,,21.923575952
1715328540585008060,0.066,,,,21.931271156
1715328540592703264,0.066,,,,21.93896636
1715328540600398468,0.061,,,,21.946661564
1715328540608093672,0.054,,,,21.954356768
1715328540615788876,0.049,,,,21.962051972
1715328540623484080,0.023,,,,21.969747176
1715328540631179284,0.033,,,,21.97744238
1715328540638874488,0.358,,,,21.985137584
1715328540646569692,1.126,,,,21.992832788
1715328540654264896,1.682,,,,22.000527992
1715328540661960100,1.038,,,,22.008223196
1715328540669655304,-0.199,,,,22.0159184
1715328540677350508,-0.335,,,,22.023613604
1715328540685045712,0.201,,,,22.031308808
1715328540692740916,0.106,,,,22.039004012
1715328540700436120,-0.109,,,,22.046699216
1715328540708131324,0.04,,,,22.05439442
1715328540715826528,0.08,,,,22.062089624
1715328540723521732,0.002,,,,22.069784828
1715328540731216936,0.042,,,,22.077480032
1715328540738912140,0.087,,,,22.085175236
1715328540746607344,0.071,,,,22.09287044
1715328540754302548,0.085,,,,22.100565644
1715328540761997752,0.116,,,,22.108260848
1715328540769692956,0.125,,,,22.115956052
1715328540777388160,0.133,,,,22.123651256
1715328540785083364,0.149,,,,22.13134646
1715328540792778568,0.171,,,,22.139041664
1715328540800473772,0.201,,,,22.146736868
1715328540808168976,0.235,,,,22.154432072
1715328540815864180,0.259,,,,22.162127276
1715328540823559384,0.285,,,,22.16982248
1715328540831254588,0.32,,,,22.177517684
