time,ecg,hr,rr,marker,norm_time
1715327972074551256,0.114,,,,0.0
1715327972082246042,0.144,,,,0.007694786
1715327972089940828,0.166,,,,0.015389572
1715327972097635614,0.192,,,,0.023084358
1715327972105330400,0.223,,,,0.030779144
1715327972113025186,0.256,,,,0.03847393
1715327972120719972,0.292,,,,0.046168716
1715327972128414758,0.335,,,,0.053863502
1715327972136109544,0.377,,,,0.061558288
1715327972143804330,0.418,,,,0.069253074
1715327972151499116,0.461,,,,0.07694786
1715327972159193902,0.499,,,,0.084642646
1715327972166888688,0.529,,,,0.092337432
1715327972174583474,0.544,,,,0.100032218
1715327972182278260,0.539,,,,0.107727004
1715327972189973046,0.508,,,,0.11542179
1715327972197667832,0.432,,,,0.123116576
1715327972205362618,0.316,,,,0.130811362
1715327972213057404,0.19,,,,0.138506148
1715327972220752190,0.071,,,,0.146200934
1715327972228446976,-0.023,,,,0.15389572
1715327972236141762,-0.09,,,,0.161590506
1715327972243836548,-0.135,,,,0.169285292
1715327972251531334,-0.159,,,,0.176980078
1715327972259226120,-0.168,,,,0.184674864
1715327972266920906,-0.171,,,,0.19236965
1715327972274615692,-0.163,,,,0.200064436
1715327972282310478,-0.152,,,,0.207759222
1715327972290005264,-0.142,,,,0.215454008
1715327972297700050,-0.133,,,,0.223148794
1715327972305394836,-0.123,,,,0.23084358
1715327972313089622,-0.114,,,,0.238538366
1715327972320784408,-0.104,,,,0.246233152
1715327972328479194,-0.092,,,,0.253927938
1715327972336173980,-0.083,,,,0.261622724
1715327972343868766,-0.073,,,,0.26931751
1715327972351563552,-0.064,,,,0.277012296
1715327972359258338,-0.054,,,,0.284707082
1715327972366953124,-0.045,,,,0.292401868
1715327972374647910,-0.038,,,,0.300096654
1715327972382342696,-0.035,,,,0.30779144
1715327972390037482,-0.026,,,,0.315486226
1715327972397732268,-0.016,,,,0.323181012
1715327972405427054,-0.014,,,,0.330875798
1715327972413121840,-0.011,,,,0.338570584
1715327972420816626,-0.007,,,,0.34626537
1715327972428511412,0.0,,,,0.353960156
1715327972436206198,0.004,,,,0.361654942
1715327972443900984,0.007,,,,0.369349728
1715327972451595770,0.007,,,,0.377044514
1715327972459290556,0.009,,,,0.3847393
1715327972466985342,0.011,,,,0.392434086
1715327972474680128,0.016,,,,0.400128872
1715327972482374914,0.014,,,,0.407823658
1715327972490069700,0.011,,,,0.415518444
1715327972497764486,0.011,,,,0.42321323
1715327972505459272,0.016,,,,0.430908016
1715327972513154058,0.021,,,,0.438602802
1715327972520848844,0.021,,,,0.446297588
1715327972528543630,0.021,,,,0.453992374
1715327972536238416,0.016,,,,0.46168716
1715327972543933202,0.007,,,,0.469381946
1715327972551627988,0.002,,,,0.477076732
1715327972559322774,-0.004,,,,0.484771518
1715327972567017560,0.004,,,,0.492466304
1715327972574712346,0.045,,,,0.50016109
1715327972582407132,0.099,,,,0.507855876
1715327972590101918,0.142,,,,0.515550662
1715327972597796704,0.123,,,,0.523245448
1715327972605491490,0.073,,,,0.530940234
1715327972613186276,0.057,,,,0.53863502
1715327972620881062,0.061,,,,0.546329806
1715327972628575848,0.061,,,,0.554024592
1715327972636270650,0.057,73.0,807.0,,0.561719394
1715327972643965854,0.057,,,,0.569414598
1715327972651661058,0.057,,,,0.577109802
1715327972659356262,0.054,,,,0.584805006
1715327972667051466,0.054,,,,0.59250021
1715327972674746670,0.028,,,,0.600195414
1715327972682441874,-0.019,,,,0.607890618
1715327972690137078,0.187,,,,0.615585822
1715327972697832282,0.936,,,,0.623281026
1715327972705527486,1.782,,,,0.63097623
1715327972713222690,1.606,,,,0.638671434
1715327972720917894,0.308,,,,0.646366638
1715327972728613098,-0.43,,,,0.654061842
1715327972736308302,-0.002,,,,0.661757046
1715327972744003506,0.168,,,,0.66945225
1715327972751698710,-0.13,,,,0.677147454
1715327972759393914,-0.099,,,,0.684842658
1715327972767089118,0.019,,,,0.692537862
1715327972774784322,-0.052,,,,0.700233066
1715327972782479526,-0.057,,,,0.70792827
1715327972790174730,0.007,,,,0.715623474
1715327972797869934,0.009,,,,0.723318678
1715327972805565138,0.004,,,,0.731013882
1715327972813260342,0.04,,,,0.738709086
1715327972820955546,0.064,,,,0.74640429
1715327972828650750,0.073,,,,0.754099494
1715327972836345954,0.099,,,,0.761794698
1715327972844041158,0.13,,,,0.769489902
1715327972851736362,0.156,,,,0.777185106
1715327972859431566,0.18,,,,0.78488031
1715327972867126770,0.209,,,,0.792575514
1715327972874821974,0.242,,,,0.800270718
1715327972882517178,0.282,,,,0.807965922
1715327972890212382,0.327,,,,0.815661126
1715327972897907586,0.373,,,,0.82335633
1715327972905602790,0.418,,,,0.831051534
1715327972913297994,0.456,,,,0.838746738
1715327972920993198,0.48,,,,0.846441942
1715327972928688402,0.499,,,,0.854137146
1715327972936383606,0.513,,,,0.86183235
1715327972944078810,0.499,,,,0.869527554
1715327972951774014,0.449,,,,0.877222758
1715327972959469218,0.358,,,,0.884917962
1715327972967164422,0.244,,,,0.892613166
1715327972974859626,0.13,,,,0.90030837
1715327972982554830,0.028,,,,0.908003574
1715327972990250034,-0.054,,,,0.915698778
1715327972997945238,-0.102,,,,0.923393982
1715327973005640442,-0.13,,,,0.931089186
1715327973013335646,-0.144,,,,0.93878439
1715327973021030850,-0.149,,,,0.946479594
1715327973028726054,-0.14,,,,0.954174798
1715327973036421258,-0.133,,,,0.961870002
1715327973044116462,-0.128,,,,0.969565206
1715327973051811666,-0.118,,,,0.97726041
1715327973059506870,-0.109,,,,0.984955614
1715327973067202074,-0.097,,,,0.992650818
1715327973074897278,-0.083,,,,1.000346022
1715327973082592482,-0.076,,,,1.008041226
1715327973090287686,-0.066,,,,1.01573643
1715327973097982890,-0.054,,,,1.023431634
1715327973105678094,-0.049,,,,1.031126838
1715327973113373298,-0.042,,,,1.038822042
1715327973121068502,-0.033,,,,1.046517246
1715327973128763706,-0.026,,,,1.05421245
1715327973136458910,-0.023,,,,1.061907654
1715327973144154114,-0.021,,,,1.069602858
1715327973151849318,-0.014,,,,1.077298062
1715327973159544522,-0.009,,,,1.084993266
1715327973167239726,-0.007,,,,1.09268847
1715327973174934930,0.0,,,,1.100383674
1715327973182630134,0.007,,,,1.108078878
1715327973190325338,0.007,,,,1.115774082
1715327973198020562,0.004,73.0,791.0,,1.123469306
1715327973205715348,0.0,,,,1.131164092
1715327973213410134,0.0,,,,1.138858878
1715327973221104920,0.002,,,,1.146553664
1715327973228799706,0.004,,,,1.15424845
1715327973236494492,0.002,,,,1.161943236
1715327973244189278,0.004,,,,1.169638022
1715327973251884064,0.004,,,,1.177332808
1715327973259578850,0.002,,,,1.185027594
1715327973267273636,0.004,,,,1.19272238
1715327973274968422,0.014,,,,1.200417166
1715327973282663208,0.014,,,,1.208111952
1715327973290357994,0.016,,,,1.215806738
1715327973298052780,0.019,,,,1.223501524
1715327973305747566,0.023,,,,1.23119631
1715327973313442352,0.023,,,,1.238891096
1715327973321137138,0.019,,,,1.246585882
1715327973328831924,0.011,,,,1.254280668
1715327973336526710,0.0,,,,1.261975454
1715327973344221496,-0.007,,,,1.26967024
1715327973351916282,0.016,,,,1.277365026
1715327973359611068,0.064,,,,1.285059812
1715327973367305854,0.123,,,,1.292754598
1715327973375000640,0.149,,,,1.300449384
1715327973382695426,0.111,,,,1.30814417
1715327973390390212,0.068,,,,1.315838956
1715327973398084998,0.066,,,,1.323533742
1715327973405779784,0.071,,,,1.331228528
1715327973413474570,0.071,,,,1.338923314
1715327973421169356,0.071,,,,1.3466181
1715327973428864142,0.071,,,,1.354312886
1715327973436558928,0.066,,,,1.362007672
1715327973444253714,0.059,,,,1.369702458
1715327973451948500,0.054,,,,1.377397244
1715327973459643286,0.014,,,,1.38509203
1715327973467338072,0.014,,,,1.392786816
1715327973475032858,0.38,,,,1.400481602
1715327973482727644,1.247,,,,1.408176388
1715327973490422430,1.905,,,,1.415871174
1715327973498117216,1.295,,,,1.42356596
1715327973505812002,-0.028,,,,1.431260746
1715327973513506788,-0.323,,,,1.438955532
1715327973521201574,0.168,,,,1.446650318
1715327973528896360,0.114,,,,1.454345104
1715327973536591146,-0.121,,,,1.46203989
1715327973544285932,-0.002,,,,1.469734676
1715327973551980718,0.047,,,,1.477429462
1715327973559675504,-0.035,,,,1.485124248
1715327973567370290,-0.009,,,,1.492819034
1715327973575065076,0.038,,,,1.50051382
1715327973582759862,0.023,,,,1.508208606
1715327973590454648,0.033,,,,1.515903392
1715327973598149434,0.068,,,,1.523598178
1715327973605844220,0.078,,,,1.531292964
1715327973613539006,0.092,,,,1.53898775
1715327973621233792,0.116,,,,1.546682536
1715327973628928578,0.14,,,,1.554377322
1715327973636623364,0.163,,,,1.562072108
1715327973644318150,0.19,,,,1.569766894
1715327973652012936,0.218,,,,1.57746168
1715327973659707722,0.251,,,,1.585156466
1715327973667402508,0.292,,,,1.592851252
1715327973675097294,0.332,,,,1.600546038
1715327973682792080,0.373,,,,1.608240824
1715327973690486866,0.418,,,,1.61593561
1715327973698181652,0.453,,,,1.623630396
1715327973705876438,0.472,,,,1.631325182
1715327973713571224,0.482,,,,1.639019968
1715327973721266010,0.477,,,,1.646714754
1715327973728960796,0.458,,,,1.65440954
1715327973736655582,0.403,,,,1.662104326
1715327973744350368,0.306,,,,1.669799112
1715327973752045154,0.194,,,,1.677493898
1715327973759739956,0.085,,,,1.6851887
1715327973767434742,-0.007,,,,1.692883486
1715327973775129528,-0.076,,,,1.700578272
1715327973782824314,-0.118,,,,1.708273058
1715327973790519100,-0.149,,,,1.715967844
1715327973798213886,-0.168,,,,1.72366263
1715327973805908672,-0.171,,,,1.731357416
1715327973813603458,-0.159,,,,1.739052202
1715327973821298244,-0.154,,,,1.746746988
1715327973828993030,-0.144,,,,1.754441774
1715327973836687816,-0.135,,,,1.76213656
1715327973844382602,-0.128,,,,1.769831346
1715327973852077388,-0.114,,,,1.777526132
1715327973859772174,-0.099,,,,1.785220918
1715327973867466960,-0.09,,,,1.792915704
1715327973875161746,-0.078,,,,1.80061049
1715327973882856532,-0.071,,,,1.808305276
1715327973890551318,-0.068,,,,1.816000062
1715327973898246104,-0.057,,,,1.823694848
1715327973905940890,-0.045,,,,1.831389634
1715327973913635676,-0.042,,,,1.83908442
1715327973921330462,-0.038,,,,1.846779206
1715327973929025248,-0.03,,,,1.854473992
1715327973936720034,-0.026,,,,1.862168778
1715327973944414820,-0.026,,,,1.869863564
1715327973952109606,-0.019,,,,1.87755835
1715327973959804392,-0.011,,,,1.885253136
1715327973967499178,-0.014,,,,1.892947922
1715327973975193964,-0.016,,,,1.900642708
1715327973982888750,-0.016,,,,1.908337494
1715327973990583536,-0.007,,,,1.91603228
1715327973998278322,-0.002,,,,1.923727066
1715327974005973108,-0.002,,,,1.931421852
1715327974013667894,0.004,,,,1.939116638
1715327974021362680,0.009,,,,1.946811424
1715327974029057466,0.009,,,,1.95450621
1715327974036752252,0.011,,,,1.962200996
1715327974044447038,0.019,,,,1.969895782
1715327974052141824,0.021,,,,1.977590568
1715327974059836610,0.026,,,,1.985285354
1715327974067531396,0.026,,,,1.99298014
1715327974075226182,0.028,,,,2.000674926
1715327974082920968,0.033,,,,2.008369712
1715327974090615754,0.038,,,,2.016064498
1715327974098310540,0.04,,,,2.023759284
1715327974106005326,0.042,,,,2.03145407
1715327974113700112,0.047,,,,2.039148856
1715327974121394898,0.045,,,,2.046843642
1715327974129089684,0.038,,,,2.054538428
1715327974136784470,0.035,,,,2.062233214
1715327974144479256,0.028,,,,2.069928
1715327974152174042,0.014,,,,2.077622786
1715327974159868828,0.023,,,,2.085317572
1715327974167563614,0.066,,,,2.093012358
1715327974175258400,0.125,,,,2.100707144
1715327974182953186,0.161,,,,2.10840193
1715327974190647972,0.137,,,,2.116096716
1715327974198342758,0.092,,,,2.123791502
1715327974206037544,0.073,,,,2.131486288
1715327974213732330,0.073,,,,2.139181074
1715327974221427116,0.064,,,,2.14687586
1715327974229121902,0.064,,,,2.154570646
1715327974236816688,0.071,,,,2.162265432
1715327974244511474,0.059,,,,2.169960218
1715327974252206260,0.042,,,,2.177655004
1715327974259901046,0.047,,,,2.18534979
1715327974267595832,0.023,,,,2.193044576
1715327974275290618,0.0,,,,2.200739362
1715327974282985404,0.256,,,,2.208434148
1715327974290680190,1.038,,,,2.216128934
1715327974298374976,1.827,,,,2.22382372
1715327974306069762,1.516,,,,2.231518506
1715327974313764548,0.213,,,,2.239213292
1715327974321459350,-0.375,74.0,779.0,,2.246908094
1715327974329154136,0.085,,758.0,,2.25460288
1715327974336848922,0.185,,,,2.262297666
1715327974344543708,-0.104,,,,2.269992452
1715327974352238494,-0.045,,,,2.277687238
1715327974359933280,0.049,,,,2.285382024
1715327974367628066,-0.038,,,,2.29307681
1715327974375322852,-0.033,,,,2.300771596
1715327974383017638,0.028,,,,2.308466382
1715327974390712424,0.016,,,,2.316161168
1715327974398407210,0.014,,,,2.323855954
1715327974406101996,0.049,,,,2.33155074
1715327974413796782,0.071,,,,2.339245526
1715327974421491568,0.08,,,,2.346940312
1715327974429186354,0.102,,,,2.354635098
1715327974436881140,0.128,,,,2.362329884
1715327974444575926,0.152,,,,2.37002467
1715327974452270712,0.175,,,,2.377719456
1715327974459965498,0.201,,,,2.385414242
1715327974467660284,0.232,,,,2.393109028
1715327974475355070,0.273,,,,2.400803814
1715327974483049856,0.311,,,,2.4084986
1715327974490744642,0.346,,,,2.416193386
1715327974498439428,0.392,,,,2.423888172
1715327974506134214,0.434,,,,2.431582958
1715327974513829000,0.458,,,,2.439277744
1715327974521523786,0.475,,,,2.44697253
1715327974529218572,0.487,,,,2.454667316
1715327974536913358,0.477,,,,2.462362102
1715327974544608144,0.43,,,,2.470056888
1715327974552302930,0.349,,,,2.477751674
1715327974559997716,0.244,,,,2.48544646
1715327974567692502,0.133,,,,2.493141246
1715327974575387288,0.038,,,,2.500836032
1715327974583082074,-0.038,,,,2.508530818
1715327974590776860,-0.09,,,,2.516225604
1715327974598471646,-0.121,,,,2.52392039
1715327974606166432,-0.135,,,,2.531615176
1715327974613861218,-0.135,,,,2.539309962
1715327974621556004,-0.13,,,,2.547004748
1715327974629250790,-0.13,,,,2.554699534
1715327974636945576,-0.125,,,,2.56239432
1715327974644640362,-0.114,,,,2.570089106
1715327974652335148,-0.097,,,,2.577783892
1715327974660029934,-0.09,,,,2.585478678
1715327974667724720,-0.08,,,,2.593173464
1715327974675419506,-0.071,,,,2.60086825
1715327974683114292,-0.064,,,,2.608563036
1715327974690809078,-0.052,,,,2.616257822
1715327974698503864,-0.047,,,,2.623952608
1715327974706198650,-0.047,,,,2.631647394
1715327974713893436,-0.042,,,,2.63934218
1715327974721588222,-0.049,,,,2.647036966
1715327974729283008,-0.054,,,,2.654731752
1715327974736977794,-0.045,,,,2.662426538
1715327974744672580,-0.035,,,,2.670121324
1715327974752367366,-0.033,,,,2.67781611
1715327974760062152,-0.028,,,,2.685510896
1715327974767756938,-0.021,,,,2.693205682
1715327974775451724,-0.019,,,,2.700900468
1715327974783146510,-0.016,,,,2.708595254
1715327974790841296,-0.009,,,,2.71629004
1715327974798536082,-0.002,,,,2.723984826
1715327974806230868,-0.002,,,,2.731679612
1715327974813925654,0.0,,,,2.739374398
1715327974821620440,0.004,,,,2.747069184
1715327974829315226,0.007,,,,2.75476397
1715327974837010012,0.011,,,,2.762458756
1715327974844704798,0.019,,,,2.770153542
1715327974852399584,0.019,,,,2.777848328
1715327974860094370,0.021,,,,2.785543114
1715327974867789156,0.028,,,,2.7932379
1715327974875483942,0.03,,,,2.800932686
1715327974883178746,0.033,,,,2.80862749
1715327974890873880,0.04,,,,2.816322624
1715327974898569014,0.042,,,,2.824017758
1715327974906264148,0.03,,,,2.831712892
1715327974913959282,0.028,,,,2.839408026
1715327974921654416,0.04,,,,2.84710316
1715327974929349550,0.045,,,,2.854798294
1715327974937044684,0.042,,,,2.862493428
1715327974944739818,0.04,,,,2.870188562
1715327974952434952,0.03,,,,2.877883696
1715327974960130086,0.019,,,,2.88557883
1715327974967825220,0.011,,,,2.893273964
1715327974975520354,0.007,,,,2.900969098
1715327974983215488,0.021,,,,2.908664232
1715327974990910622,0.064,,,,2.916359366
1715327974998605756,0.121,,,,2.9240545
1715327975006300890,0.152,,,,2.931749634
1715327975013996024,0.128,,,,2.939444768
1715327975021691158,0.083,,,,2.947139902
1715327975029386292,0.066,,,,2.954835036
1715327975037081426,0.071,,,,2.96253017
1715327975044776560,0.068,,,,2.970225304
1715327975052471694,0.066,,,,2.977920438
1715327975060166828,0.066,,,,2.985615572
1715327975067861962,0.066,,,,2.993310706
1715327975075557096,0.068,,,,3.00100584
1715327975083252230,0.061,,,,3.008700974
1715327975090947364,0.021,,,,3.016396108
1715327975098642498,0.021,,,,3.024091242
1715327975106337632,0.349,,,,3.031786376
1715327975114032766,1.159,,,,3.03948151
1715327975121727900,1.832,,,,3.047176644
1715327975129423034,1.316,,,,3.054871778
1715327975137118168,0.026,,,,3.062566912
1715327975144813302,-0.332,,,,3.070262046
1715327975152508436,0.159,,,,3.07795718
1715327975160203570,0.144,,,,3.085652314
1715327975167898704,-0.118,,,,3.093347448
1715327975175593838,-0.021,,,,3.101042582
1715327975183288972,0.045,,,,3.108737716
1715327975190984106,-0.03,,,,3.11643285
1715327975198679240,-0.016,,,,3.124127984
1715327975206374374,0.026,,,,3.131823118
1715327975214069508,0.021,,,,3.139518252
1715327975221764642,0.028,,,,3.147213386
1715327975229459776,0.045,,,,3.15490852
1715327975237154910,0.054,,,,3.162603654
1715327975244850044,0.078,,,,3.170298788
1715327975252545178,0.109,,,,3.177993922
1715327975260240312,0.128,,,,3.185689056
1715327975267935446,0.147,,,,3.19338419
1715327975275630580,0.171,,,,3.201079324
1715327975283325714,0.201,,,,3.208774458
1715327975291020848,0.235,,,,3.216469592
1715327975298715982,0.275,,,,3.224164726
1715327975306411116,0.318,,,,3.23185986
1715327975314106250,0.356,,,,3.239554994
1715327975321801384,0.389,,,,3.247250128
1715327975329496518,0.425,,,,3.254945262
1715327975337191652,0.461,,,,3.262640396
1715327975344886786,0.477,,,,3.27033553
1715327975352581920,0.484,,,,3.278030664
1715327975360277054,0.472,,,,3.285725798
1715327975367972188,0.425,,,,3.293420932
1715327975375667322,0.339,,,,3.301116066
1715327975383362456,0.228,,,,3.3088112
1715327975391057590,0.116,,,,3.316506334
1715327975398752724,0.023,,,,3.324201468
1715327975406447858,-0.054,,,,3.331896602
1715327975414142992,-0.109,,,,3.339591736
1715327975421838126,-0.137,,,,3.34728687
1715327975429533260,-0.144,,,,3.354982004
1715327975437228394,-0.147,,,,3.362677138
1715327975444923572,-0.147,74.0,782.0,,3.370372316
1715327975452618427,-0.142,,,,3.378067171
1715327975460313282,-0.142,,,,3.385762026
1715327975468008137,-0.137,,,,3.393456881
1715327975475702992,-0.118,,,,3.401151736
1715327975483397847,-0.102,,,,3.408846591
1715327975491092702,-0.097,,,,3.416541446
1715327975498787557,-0.095,,,,3.424236301
1715327975506482412,-0.092,,,,3.431931156
1715327975514177267,-0.087,,,,3.439626011
1715327975521872122,-0.076,,,,3.447320866
1715327975529566977,-0.064,,,,3.455015721
1715327975537261832,-0.057,,,,3.462710576
1715327975544956687,-0.052,,,,3.470405431
1715327975552651542,-0.047,,,,3.478100286
1715327975560346397,-0.045,,,,3.485795141
1715327975568041252,-0.042,,,,3.493489996
1715327975575736107,-0.033,,,,3.501184851
1715327975583430962,-0.026,,,,3.508879706
1715327975591125817,-0.023,,,,3.516574561
1715327975598820672,-0.019,,,,3.524269416
1715327975606515527,-0.014,,,,3.531964271
1715327975614210382,-0.007,,,,3.539659126
1715327975621905237,0.0,,,,3.547353981
1715327975629600092,0.0,,,,3.555048836
1715327975637294947,-0.004,,,,3.562743691
1715327975644989802,-0.004,,,,3.570438546
1715327975652684657,0.002,,,,3.578133401
1715327975660379512,0.009,,,,3.585828256
1715327975668074367,0.019,,,,3.593523111
1715327975675769222,0.021,,,,3.601217966
1715327975683464077,0.019,,,,3.608912821
1715327975691158932,0.014,,,,3.616607676
1715327975698853787,0.014,,,,3.624302531
1715327975706548642,0.019,,,,3.631997386
1715327975714243497,0.023,,,,3.639692241
1715327975721938352,0.028,,,,3.647387096
1715327975729633207,0.033,,,,3.655081951
1715327975737328062,0.026,,,,3.662776806
1715327975745022917,0.019,,,,3.670471661
1715327975752717772,0.023,,,,3.678166516
1715327975760412627,0.03,,,,3.685861371
1715327975768107482,0.035,,,,3.693556226
1715327975775802337,0.033,,,,3.701251081
1715327975783497192,0.021,,,,3.708945936
1715327975791192047,0.014,,,,3.716640791
1715327975798886902,0.016,,,,3.724335646
1715327975806581757,0.04,,,,3.732030501
1715327975814276612,0.078,,,,3.739725356
1715327975821971467,0.121,,,,3.747420211
1715327975829666322,0.14,,,,3.755115066
1715327975837361177,0.106,,,,3.762809921
1715327975845056032,0.057,,,,3.770504776
1715327975852750887,0.054,,,,3.778199631
1715327975860445742,0.068,,,,3.785894486
1715327975868140597,0.061,,,,3.793589341
1715327975875835452,0.057,,,,3.801284196
1715327975883530307,0.064,,,,3.808979051
1715327975891225162,0.066,,,,3.816673906
1715327975898920017,0.061,,,,3.824368761
1715327975906614872,0.045,,,,3.832063616
1715327975914309727,0.004,,,,3.839758471
1715327975922004582,0.085,,,,3.847453326
1715327975929699437,0.624,,,,3.855148181
1715327975937394292,1.535,,,,3.862843036
1715327975945089147,1.844,,,,3.870537891
1715327975952784002,0.798,,,,3.878232746
1715327975960478857,-0.365,,,,3.885927601
1715327975968173712,-0.201,,,,3.893622456
1715327975975868567,0.235,,,,3.901317311
1715327975983563422,-0.014,,,,3.909012166
1715327975991258277,-0.128,,,,3.916707021
1715327975998953132,0.045,,,,3.924401876
1715327976006648052,0.019,,,,3.932096796
1715327976014343256,-0.035,,,,3.939792
1715327976022038460,0.028,,,,3.947487204
1715327976029733664,0.052,,,,3.955182408
1715327976037428868,0.04,,,,3.962877612
1715327976045124072,0.066,,,,3.970572816
1715327976052819276,0.092,,,,3.97826802
1715327976060514480,0.102,,,,3.985963224
1715327976068209684,0.121,,,,3.993658428
1715327976075904888,0.142,,,,4.001353632
1715327976083600092,0.159,,,,4.009048836
1715327976091295296,0.187,,,,4.01674404
1715327976098990500,0.22,,,,4.024439244
1715327976106685704,0.247,,,,4.032134448
1715327976114380908,0.28,,,,4.039829652
1715327976122076112,0.325,,,,4.047524856
1715327976129771316,0.373,,,,4.05522006
1715327976137466520,0.418,,,,4.062915264
1715327976145161724,0.456,,,,4.070610468
1715327976152856928,0.491,,,,4.078305672
1715327976160552132,0.52,,,,4.086000876
1715327976168247336,0.529,,,,4.09369608
1715327976175942540,0.522,,,,4.101391284
1715327976183637744,0.491,,,,4.109086488
1715327976191332948,0.42,,,,4.116781692
1715327976199028152,0.311,,,,4.124476896
1715327976206723356,0.187,,,,4.1321721
1715327976214418560,0.078,,,,4.139867304
1715327976222113764,-0.011,,,,4.147562508
1715327976229808968,-0.083,,,,4.155257712
1715327976237504172,-0.133,,,,4.162952916
1715327976245199376,-0.159,,,,4.17064812
1715327976252894580,-0.166,,,,4.178343324
1715327976260589784,-0.168,,,,4.186038528
1715327976268284988,-0.161,,,,4.193733732
1715327976275980192,-0.147,,,,4.201428936
1715327976283675396,-0.144,,,,4.20912414
1715327976291370600,-0.14,,,,4.216819344
1715327976299065804,-0.125,,,,4.224514548
1715327976306761008,-0.114,,,,4.232209752
1715327976314456212,-0.102,,,,4.239904956
1715327976322151416,-0.092,,,,4.24760016
1715327976329846620,-0.083,,,,4.255295364
1715327976337541824,-0.073,,,,4.262990568
1715327976345237028,-0.061,,,,4.270685772
1715327976352932232,-0.049,,,,4.278380976
1715327976360627436,-0.038,,,,4.28607618
1715327976368322640,-0.03,,,,4.293771384
1715327976376017844,-0.023,,,,4.301466588
1715327976383713048,-0.021,,,,4.309161792
1715327976391408252,-0.016,,,,4.316856996
1715327976399103456,-0.009,,,,4.3245522
1715327976406798660,-0.002,,,,4.332247404
1715327976414493864,0.004,,,,4.339942608
1715327976422189068,0.007,,,,4.347637812
1715327976429884272,-0.002,,,,4.355333016
1715327976437579476,-0.004,,,,4.36302822
1715327976445274680,0.004,,,,4.370723424
1715327976452969884,0.009,,,,4.378418628
1715327976460665088,0.007,,,,4.386113832
1715327976468360292,0.007,,,,4.393809036
1715327976476055496,0.009,,,,4.40150424
1715327976483750700,0.011,,,,4.409199444
1715327976491445904,0.016,,,,4.416894648
1715327976499141108,0.021,,,,4.424589852
1715327976506836312,0.021,,,,4.432285056
1715327976514531516,0.026,,,,4.43998026
1715327976522226720,0.03,,,,4.447675464
1715327976529921924,0.028,,,,4.455370668
1715327976537617128,0.035,,,,4.463065872
1715327976545312332,0.04,,,,4.470761076
1715327976553007536,0.04,,,,4.47845628
1715327976560702740,0.042,,,,4.486151484
1715327976568397964,0.045,74.0,810.0,,4.493846708
1715327976576092750,0.035,,,,4.501541494
1715327976583787536,0.019,,,,4.50923628
1715327976591482322,0.011,,,,4.516931066
1715327976599177108,0.011,,,,4.524625852
1715327976606871894,0.026,,,,4.532320638
1715327976614566680,0.057,,,,4.540015424
1715327976622261466,0.104,,,,4.54771021
1715327976629956252,0.142,,,,4.555404996
1715327976637651038,0.118,,,,4.563099782
1715327976645345824,0.066,,,,4.570794568
1715327976653040610,0.052,,,,4.578489354
1715327976660735396,0.064,,,,4.58618414
1715327976668430182,0.064,,,,4.593878926
1715327976676124968,0.059,,,,4.601573712
1715327976683819754,0.054,,,,4.609268498
1715327976691514540,0.054,,,,4.616963284
1715327976699209326,0.047,,,,4.62465807
1715327976706904112,0.03,,,,4.632352856
1715327976714598898,-0.016,,,,4.640047642
1715327976722293684,-0.014,,,,4.647742428
1715327976729988470,0.368,,,,4.655437214
1715327976737683256,1.242,,,,4.663132
1715327976745378042,1.867,,,,4.670826786
1715327976753072828,1.2,,,,4.678521572
1715327976760767614,-0.121,,,,4.686216358
1715327976768462400,-0.346,,,,4.693911144
1715327976776157186,0.168,,,,4.70160593
1715327976783851972,0.087,,,,4.709300716
1715327976791546758,-0.147,,,,4.716995502
1715327976799241544,-0.014,,,,4.724690288
1715327976806936330,0.033,,,,4.732385074
1715327976814631116,-0.042,,,,4.74007986
1715327976822325902,-0.007,,,,4.747774646
1715327976830020688,0.038,,,,4.755469432
1715327976837715474,0.023,,,,4.763164218
1715327976845410260,0.038,,,,4.770859004
1715327976853105046,0.078,,,,4.77855379
1715327976860799832,0.087,,,,4.786248576
1715327976868494618,0.104,,,,4.793943362
1715327976876189404,0.137,,,,4.801638148
1715327976883884190,0.156,,,,4.809332934
1715327976891578976,0.173,,,,4.81702772
1715327976899273762,0.204,,,,4.824722506
1715327976906968548,0.242,,,,4.832417292
1715327976914663334,0.275,,,,4.840112078
1715327976922358120,0.308,,,,4.847806864
1715327976930052906,0.344,,,,4.85550165
1715327976937747692,0.387,,,,4.863196436
1715327976945442478,0.425,,,,4.870891222
1715327976953137264,0.461,,,,4.878586008
1715327976960832050,0.491,,,,4.886280794
1715327976968526836,0.508,,,,4.89397558
1715327976976221622,0.508,,,,4.901670366
1715327976983916408,0.487,,,,4.909365152
1715327976991611194,0.434,,,,4.917059938
1715327976999305980,0.344,,,,4.924754724
1715327977007000766,0.225,,,,4.93244951
1715327977014695552,0.116,,,,4.940144296
1715327977022390338,0.026,,,,4.947839082
1715327977030085124,-0.047,,,,4.955533868
1715327977037779910,-0.095,,,,4.963228654
1715327977045474696,-0.118,,,,4.97092344
1715327977053169482,-0.125,,,,4.978618226
1715327977060864268,-0.128,,,,4.986313012
1715327977068559054,-0.133,,,,4.994007798
1715327977076253840,-0.125,,,,5.001702584
1715327977083948626,-0.114,,,,5.00939737
1715327977091643412,-0.104,,,,5.017092156
1715327977099338198,-0.095,,,,5.024786942
1715327977107032984,-0.083,,,,5.032481728
1715327977114727770,-0.073,,,,5.040176514
1715327977122422556,-0.064,,,,5.0478713
1715327977130117358,-0.054,,,,5.055566102
1715327977137812562,-0.047,,,,5.063261306
1715327977145507766,-0.038,,,,5.07095651
1715327977153202970,-0.028,,,,5.078651714
1715327977160898174,-0.03,,,,5.086346918
1715327977168593378,-0.03,,,,5.094042122
1715327977176288582,-0.023,,,,5.101737326
1715327977183983786,-0.023,,,,5.10943253
1715327977191678990,-0.028,,,,5.117127734
1715327977199374194,-0.019,,,,5.124822938
1715327977207069398,-0.009,,,,5.132518142
1715327977214764602,-0.009,,,,5.140213346
1715327977222459806,-0.007,,,,5.14790855
1715327977230155010,-0.002,,,,5.155603754
1715327977237850214,-0.004,,,,5.163298958
1715327977245545418,-0.014,,,,5.170994162
1715327977253240622,-0.014,,,,5.178689366
1715327977260935826,-0.002,,,,5.18638457
1715327977268631030,0.002,,,,5.194079774
1715327977276326234,0.0,,,,5.201774978
1715327977284021438,0.002,,,,5.209470182
1715327977291716642,0.009,,,,5.217165386
1715327977299411846,0.016,,,,5.22486059
1715327977307107050,0.014,,,,5.232555794
1715327977314802254,0.014,,,,5.240250998
1715327977322497458,0.026,,,,5.247946202
1715327977330192662,0.03,,,,5.255641406
1715327977337887866,0.03,,,,5.26333661
1715327977345583070,0.033,,,,5.271031814
1715327977353278274,0.035,,,,5.278727018
1715327977360973478,0.033,,,,5.286422222
1715327977368668682,0.028,,,,5.294117426
1715327977376363886,0.021,,,,5.30181263
1715327977384059090,0.016,,,,5.309507834
1715327977391754294,0.007,,,,5.317203038
1715327977399449498,0.007,,,,5.324898242
1715327977407144702,0.038,,,,5.332593446
1715327977414839906,0.085,,,,5.34028865
1715327977422535110,0.13,,,,5.347983854
1715327977430230314,0.13,,,,5.355679058
1715327977437925518,0.083,,,,5.363374262
1715327977445620722,0.054,,,,5.371069466
1715327977453315926,0.061,,,,5.37876467
1715327977461011130,0.066,,,,5.386459874
1715327977468706334,0.061,,,,5.394155078
1715327977476401538,0.061,,,,5.401850282
1715327977484096742,0.052,,,,5.409545486
1715327977491791946,0.042,,,,5.41724069
1715327977499487150,0.042,,,,5.424935894
1715327977507182354,0.019,,,,5.432631098
1715327977514877558,-0.021,,,,5.440326302
1715327977522572762,0.163,,,,5.448021506
1715327977530267966,0.864,,,,5.45571671
1715327977537963170,1.708,,,,5.463411914
1715327977545658374,1.599,,,,5.471107118
1715327977553353578,0.351,,,,5.478802322
1715327977561048782,-0.415,,,,5.486497526
1715327977568743986,0.007,,,,5.49419273
1715327977576439190,0.216,,,,5.501887934
1715327977584134394,-0.083,,,,5.509583138
1715327977591829598,-0.066,,,,5.517278342
1715327977599524802,0.064,,,,5.524973546
1715327977607220006,-0.004,,,,5.53266875
1715327977614915210,-0.014,,,,5.540363954
1715327977622610414,0.049,,,,5.548059158
1715327977630305618,0.047,,,,5.555754362
1715327977638000822,0.042,,,,5.563449566
1715327977645696026,0.078,,,,5.57114477
1715327977653391230,0.097,,,,5.578839974
1715327977661086434,0.104,,,,5.586535178
1715327977668781638,0.121,,,,5.594230382
1715327977676476842,0.147,,,,5.601925586
1715327977684172046,0.166,,,,5.60962079
1715327977691867270,0.192,74.0,822.0,,5.617316014
1715327977699562056,0.225,,,,5.6250108
1715327977707256842,0.256,,,,5.632705586
1715327977714951628,0.289,,,,5.640400372
1715327977722646414,0.325,,,,5.648095158
1715327977730341200,0.358,,,,5.655789944
1715327977738035986,0.394,,,,5.66348473
1715327977745730772,0.425,,,,5.671179516
1715327977753425558,0.446,,,,5.678874302
1715327977761120344,0.465,,,,5.686569088
1715327977768815130,0.475,,,,5.694263874
1715327977776509916,0.468,,,,5.70195866
1715327977784204702,0.432,,,,5.709653446
1715327977791899488,0.356,,,,5.717348232
1715327977799594274,0.247,,,,5.725043018
1715327977807289060,0.133,,,,5.732737804
1715327977814983846,0.033,,,,5.74043259
1715327977822678632,-0.042,,,,5.748127376
1715327977830373418,-0.092,,,,5.755822162
1715327977838068204,-0.118,,,,5.763516948
1715327977845762990,-0.137,,,,5.771211734
1715327977853457776,-0.149,,,,5.77890652
1715327977861152562,-0.147,,,,5.786601306
1715327977868847348,-0.135,,,,5.794296092
1715327977876542134,-0.125,,,,5.801990878
1715327977884236920,-0.118,,,,5.809685664
1715327977891931706,-0.106,,,,5.81738045
1715327977899626492,-0.097,,,,5.825075236
1715327977907321278,-0.097,,,,5.832770022
1715327977915016064,-0.087,,,,5.840464808
1715327977922710850,-0.071,,,,5.848159594
1715327977930405636,-0.066,,,,5.85585438
1715327977938100422,-0.059,,,,5.863549166
1715327977945795208,-0.047,,,,5.871243952
1715327977953489994,-0.038,,,,5.878938738
1715327977961184780,-0.035,,,,5.886633524
1715327977968879566,-0.03,,,,5.89432831
1715327977976574352,-0.019,,,,5.902023096
1715327977984269138,-0.009,,,,5.909717882
1715327977991963924,-0.009,,,,5.917412668
1715327977999658710,-0.009,,,,5.925107454
1715327978007353496,0.0,,,,5.93280224
1715327978015048282,0.007,,,,5.940497026
1715327978022743068,0.007,,,,5.948191812
1715327978030437854,0.009,,,,5.955886598
1715327978038132640,0.014,,,,5.963581384
1715327978045827426,0.009,,,,5.97127617
1715327978053522212,0.011,,,,5.978970956
1715327978061216998,0.019,,,,5.986665742
1715327978068911784,0.023,,,,5.994360528
1715327978076606570,0.028,,,,6.002055314
1715327978084301356,0.023,,,,6.0097501
1715327978091996142,0.021,,,,6.017444886
1715327978099690928,0.03,,,,6.025139672
1715327978107385714,0.038,,,,6.032834458
1715327978115080500,0.038,,,,6.040529244
1715327978122775286,0.038,,,,6.04822403
1715327978130470072,0.045,,,,6.055918816
1715327978138164858,0.045,,,,6.063613602
1715327978145859644,0.045,,,,6.071308388
1715327978153554430,0.042,,,,6.079003174
1715327978161249216,0.028,,,,6.08669796
1715327978168944002,0.014,,,,6.094392746
1715327978176638788,0.002,,,,6.102087532
1715327978184333574,0.0,,,,6.109782318
1715327978192028360,0.038,,,,6.117477104
1715327978199723146,0.097,,,,6.12517189
1715327978207417932,0.14,,,,6.132866676
1715327978215112718,0.137,,,,6.140561462
1715327978222807504,0.09,,,,6.148256248
1715327978230502290,0.057,,,,6.155951034
1715327978238197076,0.061,,,,6.16364582
1715327978245891862,0.068,,,,6.171340606
1715327978253586664,0.059,74.0,820.0,,6.179035408
1715327978261281868,0.045,,803.0,,6.186730612
1715327978268977072,0.045,,,,6.194425816
1715327978276672276,0.047,,,,6.20212102
1715327978284367480,0.038,,,,6.209816224
1715327978292062684,0.004,,,,6.217511428
1715327978299757888,-0.042,,,,6.225206632
1715327978307453092,0.13,,,,6.232901836
1715327978315148296,0.8150000000000001,,,,6.24059704
1715327978322843500,1.646,,,,6.248292244
1715327978330538704,1.573,,,,6.255987448
1715327978338233908,0.354,,,,6.263682652
1715327978345929112,-0.439,,,,6.271377856
1715327978353624316,-0.035,,,,6.27907306
1715327978361319520,0.197,,,,6.286768264
1715327978369014724,-0.097,,,,6.294463468
1715327978376709928,-0.087,,,,6.302158672
1715327978384405132,0.042,,,,6.309853876
1715327978392100336,-0.021,,,,6.31754908
1715327978399795540,-0.038,,,,6.325244284
1715327978407490744,0.019,,,,6.332939488
1715327978415185948,0.021,,,,6.340634692
1715327978422881152,0.019,,,,6.348329896
1715327978430576356,0.052,,,,6.3560251
1715327978438271560,0.078,,,,6.363720304
1715327978445966764,0.087,,,,6.371415508
1715327978453661968,0.109,,,,6.379110712
1715327978461357172,0.137,,,,6.386805916
1715327978469052376,0.156,,,,6.39450112
1715327978476747580,0.185,,,,6.402196324
1715327978484442784,0.216,,,,6.409891528
1715327978492137988,0.249,,,,6.417586732
1715327978499833192,0.285,,,,6.425281936
1715327978507528396,0.323,,,,6.43297714
1715327978515223600,0.365,,,,6.440672344
1715327978522918804,0.411,,,,6.448367548
1715327978530614008,0.449,,,,6.456062752
1715327978538309212,0.48,,,,6.463757956
1715327978546004416,0.499,,,,6.47145316
1715327978553699620,0.506,,,,6.479148364
1715327978561394824,0.496,,,,6.486843568
1715327978569090028,0.456,,,,6.494538772
1715327978576785232,0.382,,,,6.502233976
1715327978584480436,0.278,,,,6.50992918
1715327978592175640,0.163,,,,6.517624384
1715327978599870844,0.061,,,,6.525319588
1715327978607566048,-0.016,,,,6.533014792
1715327978615261252,-0.068,,,,6.540709996
1715327978622956456,-0.102,,,,6.5484052
1715327978630651660,-0.118,,,,6.556100404
1715327978638346864,-0.125,,,,6.563795608
1715327978646042068,-0.13,,,,6.571490812
1715327978653737272,-0.128,,,,6.579186016
1715327978661432476,-0.118,,,,6.58688122
1715327978669127680,-0.109,,,,6.594576424
1715327978676822884,-0.097,,,,6.602271628
1715327978684518088,-0.087,,,,6.609966832
1715327978692213292,-0.083,,,,6.617662036
1715327978699908496,-0.073,,,,6.62535724
1715327978707603700,-0.061,,,,6.633052444
1715327978715298904,-0.054,,,,6.640747648
1715327978722994108,-0.047,,,,6.648442852
1715327978730689312,-0.033,,,,6.656138056
1715327978738384516,-0.028,,,,6.66383326
1715327978746079720,-0.028,,,,6.671528464
1715327978753774924,-0.021,,,,6.679223668
1715327978761470128,-0.021,,,,6.686918872
1715327978769165332,-0.026,,,,6.694614076
1715327978776860536,-0.023,,,,6.70230928
1715327978784555740,-0.016,,,,6.710004484
1715327978792250944,-0.014,,,,6.717699688
1715327978799946148,-0.007,,,,6.725394892
1715327978807641352,-0.004,,,,6.733090096
1715327978815336578,0.0,,,,6.740785322
1715327978823031364,0.004,,,,6.748480108
1715327978830726150,0.004,,,,6.756174894
1715327978838420936,0.007,,,,6.76386968
1715327978846115722,0.007,,,,6.771564466
1715327978853810508,0.011,,,,6.779259252
1715327978861505294,0.019,,,,6.786954038
1715327978869200080,0.016,,,,6.794648824
1715327978876894866,0.014,,,,6.80234361
1715327978884589652,0.016,,,,6.810038396
1715327978892284438,0.011,,,,6.817733182
1715327978899979224,0.004,,,,6.825427968
1715327978907674010,0.007,,,,6.833122754
1715327978915368796,0.016,,,,6.84081754
1715327978923063582,0.016,,,,6.848512326
1715327978930758368,0.016,,,,6.856207112
1715327978938453154,0.014,,,,6.863901898
1715327978946147940,0.004,,,,6.871596684
1715327978953842726,-0.009,,,,6.87929147
1715327978961537512,-0.019,,,,6.886986256
1715327978969232298,0.0,,,,6.894681042
1715327978976927084,0.045,,,,6.902375828
1715327978984621870,0.097,,,,6.910070614
1715327978992316656,0.125,,,,6.9177654
1715327979000011442,0.104,,,,6.925460186
1715327979007706228,0.061,,,,6.933154972
1715327979015401014,0.042,,,,6.940849758
1715327979023095800,0.045,,,,6.948544544
1715327979030790586,0.052,,,,6.95623933
1715327979038485372,0.052,,,,6.963934116
1715327979046180158,0.049,,,,6.971628902
1715327979053874944,0.047,,,,6.979323688
1715327979061569730,0.045,,,,6.987018474
1715327979069264516,0.04,,,,6.99471326
1715327979076959302,-0.004,,,,7.002408046
1715327979084654088,0.002,,,,7.010102832
1715327979092348874,0.396,,,,7.017797618
1715327979100043660,1.276,,,,7.025492404
1715327979107738446,1.872,,,,7.03318719
1715327979115433232,1.171,,,,7.040881976
1715327979123128018,-0.142,,,,7.048576762
1715327979130822804,-0.342,,,,7.056271548
1715327979138517590,0.168,,,,7.063966334
1715327979146212376,0.073,,,,7.07166112
1715327979153907162,-0.147,,,,7.079355906
1715327979161601948,-0.007,,,,7.087050692
1715327979169296734,0.028,,,,7.094745478
1715327979176991520,-0.047,,,,7.102440264
1715327979184686306,-0.004,,,,7.11013505
1715327979192381092,0.038,,,,7.117829836
1715327979200075878,0.023,,,,7.125524622
1715327979207770664,0.045,,,,7.133219408
1715327979215465450,0.08,,,,7.140914194
1715327979223160236,0.085,,,,7.14860898
1715327979230855022,0.102,,,,7.156303766
1715327979238549808,0.133,,,,7.163998552
1715327979246244594,0.149,,,,7.171693338
1715327979253939380,0.175,,,,7.179388124
1715327979261634166,0.206,,,,7.18708291
1715327979269328952,0.23,,,,7.194777696
1715327979277023738,0.259,,,,7.202472482
1715327979284718524,0.297,,,,7.210167268
1715327979292413310,0.339,,,,7.217862054
1715327979300108096,0.389,,,,7.22555684
1715327979307802882,0.437,,,,7.233251626
1715327979315497668,0.472,,,,7.240946412
1715327979323192454,0.496,,,,7.248641198
1715327979330887240,0.518,,,,7.256335984
1715327979338582026,0.52,,,,7.26403077
1715327979346276812,0.491,,,,7.271725556
1715327979353971598,0.434,,,,7.279420342
1715327979361666384,0.339,,,,7.287115128
1715327979369361170,0.216,,,,7.294809914
1715327979377055972,0.095,74.0,796.0,,7.302504716
1715327979384750967,-0.009,,,,7.310199711
1715327979392445962,-0.08,,,,7.317894706
1715327979400140957,-0.118,,,,7.325589701
1715327979407835952,-0.144,,,,7.333284696
1715327979415530947,-0.161,,,,7.340979691
1715327979423225942,-0.161,,,,7.348674686
1715327979430920937,-0.161,,,,7.356369681
1715327979438615932,-0.163,,,,7.364064676
1715327979446310927,-0.154,,,,7.371759671
1715327979454005922,-0.135,,,,7.379454666
1715327979461700917,-0.125,,,,7.387149661
1715327979469395912,-0.123,,,,7.394844656
1715327979477090907,-0.111,,,,7.402539651
1715327979484785902,-0.097,,,,7.410234646
1715327979492480897,-0.087,,,,7.417929641
1715327979500175892,-0.08,,,,7.425624636
1715327979507870887,-0.071,,,,7.433319631
1715327979515565882,-0.059,,,,7.441014626
1715327979523260877,-0.052,,,,7.448709621
1715327979530955872,-0.042,,,,7.456404616
1715327979538650867,-0.03,,,,7.464099611
1715327979546345862,-0.028,,,,7.471794606
1715327979554040857,-0.028,,,,7.479489601
1715327979561735852,-0.021,,,,7.487184596
1715327979569430847,-0.014,,,,7.494879591
1715327979577125842,-0.011,,,,7.502574586
1715327979584820837,-0.007,,,,7.510269581
1715327979592515832,0.0,,,,7.517964576
1715327979600210827,0.004,,,,7.525659571
1715327979607905822,0.002,,,,7.533354566
1715327979615600817,0.002,,,,7.541049561
1715327979623295812,0.007,,,,7.548744556
1715327979630990807,0.007,,,,7.556439551
1715327979638685802,0.007,,,,7.564134546
1715327979646380797,0.004,,,,7.571829541
1715327979654075792,0.007,,,,7.579524536
1715327979661770787,0.014,,,,7.587219531
1715327979669465782,0.019,,,,7.594914526
1715327979677160777,0.023,,,,7.602609521
1715327979684855772,0.026,,,,7.610304516
1715327979692550767,0.026,,,,7.617999511
1715327979700245762,0.019,,,,7.625694506
1715327979707940757,0.007,,,,7.633389501
1715327979715635752,0.004,,,,7.641084496
1715327979723330747,0.0,,,,7.648779491
1715327979731025742,0.011,,,,7.656474486
1715327979738720737,0.052,,,,7.664169481
1715327979746415732,0.104,,,,7.671864476
1715327979754110727,0.14,,,,7.679559471
1715327979761805722,0.118,,,,7.687254466
1715327979769500717,0.064,,,,7.694949461
1715327979777195712,0.045,,,,7.702644456
1715327979784890707,0.057,,,,7.710339451
1715327979792585702,0.061,,,,7.718034446
1715327979800280697,0.054,,,,7.725729441
1715327979807975692,0.049,,,,7.733424436
1715327979815670687,0.052,,,,7.741119431
1715327979823365682,0.049,,,,7.748814426
1715327979831060677,0.045,,,,7.756509421
1715327979838755672,0.007,,,,7.764204416
1715327979846450667,-0.009,,,,7.771899411
1715327979854145662,0.313,,,,7.779594406
1715327979861840657,1.169,,,,7.787289401
1715327979869535652,1.915,,,,7.794984396
1715327979877230647,1.421,,,,7.802679391
1715327979884925642,0.023,,,,7.810374386
1715327979892620637,-0.42,,,,7.818069381
1715327979900315632,0.135,,,,7.825764376
1715327979908010627,0.161,,,,7.833459371
1715327979915705622,-0.13,,,,7.841154366
1715327979923400617,-0.026,,,,7.848849361
1715327979931095612,0.057,,,,7.856544356
1715327979938790626,-0.03,,,,7.86423937
1715327979946485621,-0.014,,,,7.871934365
1715327979954180616,0.04,,,,7.87962936
1715327979961875611,0.033,,,,7.887324355
1715327979969570606,0.038,,,,7.89501935
1715327979977265601,0.071,,,,7.902714345
1715327979984960596,0.083,,,,7.91040934
1715327979992655591,0.097,,,,7.918104335
1715327980000350586,0.123,,,,7.92579933
1715327980008045581,0.137,,,,7.933494325
1715327980015740576,0.159,,,,7.94118932
1715327980023435571,0.192,,,,7.948884315
1715327980031130566,0.22,,,,7.95657931
1715327980038825561,0.254,,,,7.964274305
1715327980046520556,0.297,,,,7.9719693
1715327980054215551,0.342,,,,7.979664295
1715327980061910546,0.387,,,,7.98735929
1715327980069605541,0.427,,,,7.995054285
1715327980077300536,0.465,,,,8.00274928
1715327980084995531,0.491,,,,8.010444275
1715327980092690526,0.51,,,,8.01813927
1715327980100385521,0.513,,,,8.025834265
1715327980108080516,0.489,,,,8.03352926
1715327980115775511,0.432,,,,8.041224255
1715327980123470506,0.325,,,,8.04891925
1715327980131165501,0.199,,,,8.056614245
1715327980138860496,0.092,,,,8.06430924
1715327980146555491,0.0,,,,8.072004235
1715327980154250486,-0.071,,,,8.07969923
1715327980161945481,-0.118,,,,8.087394225
1715327980169640476,-0.14,,,,8.09508922
1715327980177335471,-0.147,,,,8.102784215
1715327980185030466,-0.152,,,,8.11047921
1715327980192725461,-0.149,,,,8.118174205
1715327980200420456,-0.137,,,,8.1258692
1715327980208115451,-0.133,,,,8.133564195
1715327980215810446,-0.125,,,,8.14125919
1715327980223505441,-0.116,,,,8.148954185
1715327980231200436,-0.102,,,,8.15664918
1715327980238895431,-0.09,,,,8.164344175
1715327980246590426,-0.083,,,,8.17203917
1715327980254285421,-0.076,,,,8.179734165
1715327980261980416,-0.064,,,,8.18742916
1715327980269675411,-0.057,,,,8.195124155
1715327980277370406,-0.052,,,,8.20281915
1715327980285065401,-0.052,,,,8.210514145
1715327980292760396,-0.042,,,,8.21820914
1715327980300455391,-0.033,,,,8.225904135
1715327980308150386,-0.033,,,,8.23359913
1715327980315845381,-0.023,,,,8.241294125
1715327980323540376,-0.014,,,,8.24898912
1715327980331235371,-0.009,,,,8.256684115
1715327980338930366,-0.004,,,,8.26437911
1715327980346625361,-0.004,,,,8.272074105
1715327980354320356,-0.002,,,,8.2797691
1715327980362015351,0.002,,,,8.287464095
1715327980369710346,0.0,,,,8.29515909
1715327980377405341,0.002,,,,8.302854085
1715327980385100336,0.004,,,,8.31054908
1715327980392795331,0.009,,,,8.318244075
1715327980400490326,0.009,,,,8.32593907
1715327980408185321,0.009,,,,8.333634065
1715327980415880316,0.016,,,,8.34132906
1715327980423575311,0.019,,,,8.349024055
1715327980431270306,0.019,,,,8.35671905
1715327980438965301,0.026,,,,8.364414045
1715327980446660296,0.028,,,,8.37210904
1715327980454355291,0.03,,,,8.379804035
1715327980462050286,0.035,,,,8.38749903
1715327980469745281,0.033,,,,8.395194025
1715327980477440276,0.035,,,,8.40288902
1715327980485135271,0.026,,,,8.410584015
1715327980492830266,0.014,,,,8.41827901
1715327980500525278,0.009,74.0,785.0,,8.425974022
1715327980508220133,0.009,,,,8.433668877
1715327980515914988,0.038,,,,8.441363732
1715327980523609843,0.087,,,,8.449058587
1715327980531304698,0.14,,,,8.456753442
1715327980538999553,0.144,,,,8.464448297
1715327980546694408,0.085,,,,8.472143152
1715327980554389263,0.049,,,,8.479838007
1715327980562084118,0.061,,,,8.487532862
1715327980569778973,0.068,,,,8.495227717
1715327980577473828,0.064,,,,8.502922572
1715327980585168683,0.059,,,,8.510617427
1715327980592863538,0.061,,,,8.518312282
1715327980600558393,0.064,,,,8.526007137
1715327980608253248,0.054,,,,8.533701992
1715327980615948103,0.03,,,,8.541396847
1715327980623642958,-0.021,,,,8.549091702
1715327980631337813,0.083,,,,8.556786557
1715327980639032668,0.7010000000000001,,,,8.564481412
1715327980646727523,1.637,,,,8.572176267
1715327980654422378,1.858,,,,8.579871122
1715327980662117233,0.727,,,,8.587565977
1715327980669812088,-0.382,,,,8.595260832
1715327980677506943,-0.135,,,,8.602955687
1715327980685201798,0.256,,,,8.610650542
1715327980692896653,-0.028,,,,8.618345397
1715327980700591508,-0.114,,,,8.626040252
1715327980708286363,0.049,,,,8.633735107
1715327980715981218,0.014,,,,8.641429962
1715327980723676073,-0.038,,,,8.649124817
1715327980731370928,0.021,,,,8.656819672
1715327980739065783,0.04,,,,8.664514527
1715327980746760638,0.023,,,,8.672209382
1715327980754455493,0.047,,,,8.679904237
1715327980762150348,0.071,,,,8.687599092
1715327980769845203,0.08,,,,8.695293947
1715327980777540058,0.102,,,,8.702988802
1715327980785234913,0.121,,,,8.710683657
1715327980792929768,0.135,,,,8.718378512
1715327980800624623,0.166,,,,8.726073367
1715327980808319478,0.194,,,,8.733768222
1715327980816014333,0.22,,,,8.741463077
1715327980823709188,0.256,,,,8.749157932
1715327980831404043,0.304,,,,8.756852787
1715327980839098898,0.351,,,,8.764547642
1715327980846793753,0.392,,,,8.772242497
1715327980854488608,0.43,,,,8.779937352
1715327980862183463,0.461,,,,8.787632207
1715327980869878318,0.477,,,,8.795327062
1715327980877573173,0.491,,,,8.803021917
1715327980885268028,0.489,,,,8.810716772
1715327980892962883,0.453,,,,8.818411627
1715327980900657738,0.375,,,,8.826106482
1715327980908352593,0.261,,,,8.833801337
1715327980916047448,0.144,,,,8.841496192
1715327980923742303,0.045,,,,8.849191047
1715327980931437158,-0.038,,,,8.856885902
1715327980939132013,-0.095,,,,8.864580757
1715327980946826868,-0.13,,,,8.872275612
1715327980954521723,-0.149,,,,8.879970467
1715327980962216578,-0.154,,,,8.887665322
1715327980969911433,-0.154,,,,8.895360177
1715327980977606288,-0.142,,,,8.903055032
1715327980985301143,-0.135,,,,8.910749887
1715327980992995998,-0.13,,,,8.918444742
1715327981000690853,-0.118,,,,8.926139597
1715327981008385708,-0.109,,,,8.933834452
1715327981016080563,-0.095,,,,8.941529307
1715327981023775418,-0.087,,,,8.949224162
1715327981031470273,-0.078,,,,8.956919017
1715327981039165128,-0.068,,,,8.964613872
1715327981046859983,-0.059,,,,8.972308727
1715327981054554838,-0.052,,,,8.980003582
1715327981062249760,-0.042,,,,8.987698504
1715327981069944894,-0.035,,,,8.995393638
1715327981077640028,-0.026,,,,9.003088772
1715327981085335162,-0.023,,,,9.010783906
1715327981093030296,-0.023,,,,9.01847904
1715327981100725430,-0.016,,,,9.026174174
1715327981108420564,-0.016,,,,9.033869308
1715327981116115698,-0.026,,,,9.041564442
1715327981123810832,-0.026,,,,9.049259576
1715327981131505966,-0.016,,,,9.05695471
1715327981139201100,-0.014,,,,9.064649844
1715327981146896234,-0.016,,,,9.072344978
1715327981154591368,-0.011,,,,9.080040112
1715327981162286502,-0.002,,,,9.087735246
1715327981169981636,0.0,,,,9.09543038
1715327981177676770,0.002,,,,9.103125514
1715327981185371904,0.002,,,,9.110820648
1715327981193067038,0.004,,,,9.118515782
1715327981200762172,0.011,,,,9.126210916
1715327981208457306,0.014,,,,9.13390605
1715327981216152440,0.016,,,,9.141601184
1715327981223847574,0.021,,,,9.149296318
1715327981231542708,0.021,,,,9.156991452
1715327981239237842,0.026,,,,9.164686586
1715327981246932976,0.03,,,,9.17238172
1715327981254628110,0.035,,,,9.180076854
1715327981262323244,0.04,,,,9.187771988
1715327981270018378,0.038,,,,9.195467122
1715327981277713512,0.028,,,,9.203162256
1715327981285408646,0.021,,,,9.21085739
1715327981293103780,0.007,,,,9.218552524
1715327981300798914,-0.004,,,,9.226247658
1715327981308494048,0.019,,,,9.233942792
1715327981316189182,0.071,,,,9.241637926
1715327981323884316,0.121,,,,9.24933306
1715327981331579450,0.14,,,,9.257028194
1715327981339274584,0.106,,,,9.264723328
1715327981346969718,0.064,,,,9.272418462
1715327981354664852,0.057,,,,9.280113596
1715327981362359986,0.064,,,,9.28780873
1715327981370055120,0.061,,,,9.295503864
1715327981377750254,0.061,,,,9.303198998
1715327981385445388,0.061,,,,9.310894132
1715327981393140522,0.061,,,,9.318589266
1715327981400835656,0.061,,,,9.3262844
1715327981408530790,0.052,,,,9.333979534
1715327981416225924,0.0,,,,9.341674668
1715327981423921058,0.007,,,,9.349369802
1715327981431616192,0.394,,,,9.357064936
1715327981439311326,1.257,,,,9.36476007
1715327981447006460,1.879,,,,9.372455204
1715327981454701594,1.23,,,,9.380150338
1715327981462396728,-0.097,,,,9.387845472
1715327981470091862,-0.339,,,,9.395540606
1715327981477786996,0.187,,,,9.40323574
1715327981485482130,0.116,,,,9.410930874
1715327981493177264,-0.123,,,,9.418626008
1715327981500872398,0.009,,,,9.426321142
1715327981508567532,0.059,,,,9.434016276
1715327981516262666,-0.023,,,,9.44171141
1715327981523957800,0.009,,,,9.449406544
1715327981531652934,0.057,,,,9.457101678
1715327981539348068,0.04,,,,9.464796812
1715327981547043202,0.047,,,,9.472491946
1715327981554738336,0.076,,,,9.48018708
1715327981562433470,0.087,,,,9.487882214
1715327981570128604,0.099,,,,9.495577348
1715327981577823738,0.13,,,,9.503272482
1715327981585518872,0.156,,,,9.510967616
1715327981593214006,0.175,,,,9.51866275
1715327981600909140,0.197,,,,9.526357884
1715327981608604274,0.223,,,,9.534053018
1715327981616299408,0.263,,,,9.541748152
1715327981623994584,0.299,75.0,781.0,,9.549443328
1715327981631689370,0.337,,763.0,,9.557138114
1715327981639384156,0.382,,,,9.5648329
1715327981647078942,0.425,,,,9.572527686
1715327981654773728,0.453,,,,9.580222472
1715327981662468514,0.477,,,,9.587917258
1715327981670163300,0.494,,,,9.595612044
1715327981677858086,0.499,,,,9.60330683
1715327981685552872,0.472,,,,9.611001616
1715327981693247658,0.406,,,,9.618696402
1715327981700942444,0.308,,,,9.626391188
1715327981708637230,0.199,,,,9.634085974
1715327981716332016,0.087,,,,9.64178076
1715327981724026802,0.0,,,,9.649475546
1715327981731721588,-0.061,,,,9.657170332
1715327981739416374,-0.104,,,,9.664865118
1715327981747111160,-0.133,,,,9.672559904
1715327981754805946,-0.142,,,,9.68025469
1715327981762500732,-0.142,,,,9.687949476
1715327981770195518,-0.14,,,,9.695644262
1715327981777890304,-0.135,,,,9.703339048
1715327981785585090,-0.13,,,,9.711033834
1715327981793279876,-0.125,,,,9.71872862
1715327981800974662,-0.121,,,,9.726423406
1715327981808669448,-0.114,,,,9.734118192
1715327981816364234,-0.099,,,,9.741812978
1715327981824059020,-0.092,,,,9.749507764
1715327981831753806,-0.085,,,,9.75720255
1715327981839448592,-0.073,,,,9.764897336
1715327981847143378,-0.066,,,,9.772592122
1715327981854838164,-0.059,,,,9.780286908
1715327981862532950,-0.049,,,,9.787981694
1715327981870227736,-0.045,,,,9.79567648
1715327981877922522,-0.04,,,,9.803371266
1715327981885617308,-0.03,,,,9.811066052
1715327981893312094,-0.026,,,,9.818760838
1715327981901006880,-0.021,,,,9.826455624
1715327981908701666,-0.014,,,,9.83415041
1715327981916396452,-0.009,,,,9.841845196
1715327981924091238,-0.009,,,,9.849539982
1715327981931786024,-0.007,,,,9.857234768
1715327981939480810,0.0,,,,9.864929554
1715327981947175596,0.007,,,,9.87262434
1715327981954870382,0.011,,,,9.880319126
1715327981962565168,0.014,,,,9.888013912
1715327981970259954,0.009,,,,9.895708698
1715327981977954740,0.009,,,,9.903403484
1715327981985649526,0.014,,,,9.91109827
1715327981993344312,0.019,,,,9.918793056
1715327982001039098,0.021,,,,9.926487842
1715327982008733884,0.023,,,,9.934182628
1715327982016428670,0.026,,,,9.941877414
1715327982024123456,0.03,,,,9.9495722
1715327982031818242,0.038,,,,9.957266986
1715327982039513028,0.04,,,,9.964961772
1715327982047207814,0.04,,,,9.972656558
1715327982054902600,0.04,,,,9.980351344
1715327982062597386,0.047,,,,9.98804613
1715327982070292172,0.052,,,,9.995740916
1715327982077986958,0.052,,,,10.003435702
1715327982085681744,0.052,,,,10.011130488
1715327982093376530,0.052,,,,10.018825274
1715327982101071316,0.042,,,,10.02652006
1715327982108766102,0.028,,,,10.034214846
1715327982116460888,0.019,,,,10.041909632
1715327982124155674,0.011,,,,10.049604418
1715327982131850460,0.016,,,,10.057299204
1715327982139545246,0.045,,,,10.06499399
1715327982147240032,0.095,,,,10.072688776
1715327982154934818,0.147,,,,10.080383562
1715327982162629604,0.152,,,,10.088078348
1715327982170324390,0.104,,,,10.095773134
1715327982178019176,0.073,,,,10.10346792
1715327982185713980,0.078,75.0,781.0,,10.111162724
1715327982193409184,0.08,,,,10.118857928
1715327982201104388,0.076,,,,10.126553132
1715327982208799592,0.071,,,,10.134248336
1715327982216494796,0.073,,,,10.14194354
1715327982224190000,0.071,,,,10.149638744
1715327982231885204,0.068,,,,10.157333948
1715327982239580408,0.064,,,,10.165029152
1715327982247275612,0.023,,,,10.172724356
1715327982254970816,0.08,,,,10.18041956
1715327982262666020,0.591,,,,10.188114764
1715327982270361224,1.504,,,,10.195809968
1715327982278056428,1.879,,,,10.203505172
1715327982285751632,0.919,,,,10.211200376
1715327982293446836,-0.268,,,,10.21889558
1715327982301142040,-0.204,,,,10.226590784
1715327982308837244,0.22,,,,10.234285988
1715327982316532448,0.002,,,,10.241981192
1715327982324227652,-0.144,,,,10.249676396
1715327982331922856,0.002,,,,10.2573716
1715327982339618060,-0.011,,,,10.265066804
1715327982347313264,-0.073,,,,10.272762008
1715327982355008468,-0.014,,,,10.280457212
1715327982362703672,0.016,,,,10.288152416
1715327982370398876,0.0,,,,10.29584762
1715327982378094080,0.021,,,,10.303542824
1715327982385789284,0.049,,,,10.311238028
1715327982393484488,0.059,,,,10.318933232
1715327982401179692,0.083,,,,10.326628436
1715327982408874896,0.111,,,,10.33432364
1715327982416570100,0.137,,,,10.342018844
1715327982424265304,0.163,,,,10.349714048
1715327982431960508,0.192,,,,10.357409252
1715327982439655712,0.223,,,,10.365104456
1715327982447350916,0.261,,,,10.37279966
1715327982455046120,0.306,,,,10.380494864
1715327982462741324,0.354,,,,10.388190068
1715327982470436528,0.394,,,,10.395885272
1715327982478131732,0.432,,,,10.403580476
1715327982485826936,0.47,,,,10.41127568
1715327982493522140,0.499,,,,10.418970884
1715327982501217344,0.513,,,,10.426666088
1715327982508912548,0.515,,,,10.434361292
1715327982516607752,0.491,,,,10.442056496
1715327982524302956,0.418,,,,10.4497517
1715327982531998160,0.313,,,,10.457446904
1715327982539693364,0.199,,,,10.465142108
1715327982547388568,0.085,,,,10.472837312
1715327982555083772,-0.009,,,,10.480532516
1715327982562778976,-0.073,,,,10.48822772
1715327982570474180,-0.116,,,,10.495922924
1715327982578169384,-0.133,,,,10.503618128
1715327982585864588,-0.144,,,,10.511313332
1715327982593559792,-0.152,,,,10.519008536
1715327982601254996,-0.142,,,,10.52670374
1715327982608950200,-0.135,,,,10.534398944
1715327982616645404,-0.133,,,,10.542094148
1715327982624340608,-0.123,,,,10.549789352
1715327982632035812,-0.109,,,,10.557484556
1715327982639731016,-0.095,,,,10.56517976
1715327982647426220,-0.085,,,,10.572874964
1715327982655121424,-0.078,,,,10.580570168
1715327982662816628,-0.071,,,,10.588265372
1715327982670511832,-0.061,,,,10.595960576
1715327982678207036,-0.054,,,,10.60365578
1715327982685902240,-0.047,,,,10.611350984
1715327982693597444,-0.04,,,,10.619046188
1715327982701292648,-0.033,,,,10.626741392
1715327982708987852,-0.033,,,,10.634436596
1715327982716683056,-0.026,,,,10.6421318
1715327982724378260,-0.009,,,,10.649827004
1715327982732073464,-0.002,,,,10.657522208
1715327982739768668,-0.007,,,,10.665217412
1715327982747463892,-0.011,,,,10.672912636
1715327982755158678,-0.004,,,,10.680607422
1715327982762853464,0.0,,,,10.688302208
1715327982770548250,-0.002,,,,10.695996994
1715327982778243036,0.002,,,,10.70369178
1715327982785937822,0.009,,,,10.711386566
1715327982793632608,0.014,,,,10.719081352
1715327982801327394,0.007,,,,10.726776138
1715327982809022180,-0.002,,,,10.734470924
1715327982816716966,0.007,,,,10.74216571
1715327982824411752,0.019,,,,10.749860496
1715327982832106538,0.019,,,,10.757555282
1715327982839801324,0.016,,,,10.765250068
1715327982847496110,0.019,,,,10.772944854
1715327982855190896,0.014,,,,10.78063964
1715327982862885682,0.004,,,,10.788334426
1715327982870580468,0.011,,,,10.796029212
1715327982878275254,0.021,,,,10.803723998
1715327982885970040,0.019,,,,10.811418784
1715327982893664826,0.021,,,,10.81911357
1715327982901359612,0.035,,,,10.826808356
1715327982909054398,0.033,,,,10.834503142
1715327982916749184,0.03,,,,10.842197928
1715327982924443970,0.033,,,,10.849892714
1715327982932138756,0.026,,,,10.8575875
1715327982939833542,0.016,,,,10.865282286
1715327982947528328,0.007,,,,10.872977072
1715327982955223114,0.009,,,,10.880671858
1715327982962917900,0.04,,,,10.888366644
1715327982970612686,0.083,,,,10.89606143
1715327982978307472,0.121,,,,10.903756216
1715327982986002258,0.133,,,,10.911451002
1715327982993697044,0.099,,,,10.919145788
1715327983001391830,0.064,,,,10.926840574
1715327983009086616,0.061,,,,10.93453536
1715327983016781402,0.073,,,,10.942230146
1715327983024476188,0.076,,,,10.949924932
1715327983032170974,0.068,,,,10.957619718
1715327983039865760,0.064,,,,10.965314504
1715327983047560546,0.066,,,,10.97300929
1715327983055255332,0.071,,,,10.980704076
1715327983062950118,0.061,,,,10.988398862
1715327983070644904,0.009,,,,10.996093648
1715327983078339690,0.047,,,,11.003788434
1715327983086034476,0.537,,,,11.01148322
1715327983093729262,1.456,,,,11.019178006
1715327983101424048,1.891,,,,11.026872792
1715327983109118834,0.967,,,,11.034567578
1715327983116813620,-0.27,,,,11.042262364
1715327983124508406,-0.24,,,,11.04995715
1715327983132203192,0.235,,,,11.057651936
1715327983139897978,0.033,,,,11.065346722
1715327983147592764,-0.13,,,,11.073041508
1715327983155287550,0.033,,,,11.080736294
1715327983162982336,0.033,,,,11.08843108
1715327983170677122,-0.035,,,,11.096125866
1715327983178371908,0.021,,,,11.103820652
1715327983186066694,0.052,,,,11.111515438
1715327983193761480,0.035,,,,11.119210224
1715327983201456266,0.059,,,,11.12690501
1715327983209151052,0.085,,,,11.134599796
1715327983216845838,0.095,,,,11.142294582
1715327983224540624,0.114,,,,11.149989368
1715327983232235410,0.144,,,,11.157684154
1715327983239930196,0.171,,,,11.16537894
1715327983247624982,0.194,,,,11.173073726
1715327983255319768,0.223,,,,11.180768512
1715327983263014554,0.251,,,,11.188463298
1715327983270709340,0.28,,,,11.196158084
1715327983278404126,0.32,,,,11.20385287
1715327983286098912,0.368,,,,11.211547656
1715327983293793698,0.413,,,,11.219242442
1715327983301488484,0.453,,,,11.226937228
1715327983309183286,0.48,75.0,796.0,,11.23463203
1715327983316878490,0.496,,,,11.242327234
1715327983324573694,0.506,,,,11.250022438
1715327983332268898,0.501,,,,11.257717642
1715327983339964102,0.47,,,,11.265412846
1715327983347659306,0.401,,,,11.27310805
1715327983355354510,0.301,,,,11.280803254
1715327983363049714,0.18,,,,11.288498458
1715327983370744918,0.064,,,,11.296193662
1715327983378440122,-0.021,,,,11.303888866
1715327983386135326,-0.083,,,,11.31158407
1715327983393830530,-0.125,,,,11.319279274
1715327983401525734,-0.144,,,,11.326974478
1715327983409220938,-0.152,,,,11.334669682
1715327983416916142,-0.154,,,,11.342364886
1715327983424611346,-0.147,,,,11.35006009
1715327983432306550,-0.135,,,,11.357755294
1715327983440001754,-0.125,,,,11.365450498
1715327983447696958,-0.123,,,,11.373145702
1715327983455392162,-0.114,,,,11.380840906
1715327983463087366,-0.097,,,,11.38853611
1715327983470782570,-0.085,,,,11.396231314
1715327983478477774,-0.078,,,,11.403926518
1715327983486172978,-0.071,,,,11.411621722
1715327983493868182,-0.059,,,,11.419316926
1715327983501563386,-0.049,,,,11.42701213
1715327983509258590,-0.045,,,,11.434707334
1715327983516953794,-0.038,,,,11.442402538
1715327983524648998,-0.028,,,,11.450097742
1715327983532344202,-0.021,,,,11.457792946
1715327983540039406,-0.016,,,,11.46548815
1715327983547734610,-0.014,,,,11.473183354
1715327983555429814,-0.004,,,,11.480878558
1715327983563125018,0.002,,,,11.488573762
1715327983570820222,-0.004,,,,11.496268966
1715327983578515426,-0.009,,,,11.50396417
1715327983586210630,-0.007,,,,11.511659374
1715327983593905834,0.0,,,,11.519354578
1715327983601601038,0.002,,,,11.527049782
1715327983609296242,0.004,,,,11.534744986
1715327983616991446,0.011,,,,11.54244019
1715327983624686650,0.014,,,,11.550135394
1715327983632381854,0.009,,,,11.557830598
1715327983640077058,0.011,,,,11.565525802
1715327983647772262,0.019,,,,11.573221006
1715327983655467466,0.028,,,,11.58091621
1715327983663162670,0.028,,,,11.588611414
1715327983670857874,0.028,,,,11.596306618
1715327983678553078,0.033,,,,11.604001822
1715327983686248282,0.035,,,,11.611697026
1715327983693943486,0.038,,,,11.61939223
1715327983701638690,0.04,,,,11.627087434
1715327983709333894,0.042,,,,11.634782638
1715327983717029098,0.049,,,,11.642477842
1715327983724724302,0.049,,,,11.650173046
1715327983732419506,0.045,,,,11.65786825
1715327983740114710,0.045,,,,11.665563454
1715327983747809914,0.045,,,,11.673258658
1715327983755505118,0.047,,,,11.680953862
1715327983763200322,0.045,,,,11.688649066
1715327983770895526,0.038,,,,11.69634427
1715327983778590730,0.028,,,,11.704039474
1715327983786285934,0.011,,,,11.711734678
1715327983793981138,0.014,,,,11.719429882
1715327983801676342,0.054,,,,11.727125086
1715327983809371546,0.102,,,,11.73482029
1715327983817066750,0.142,,,,11.742515494
1715327983824761954,0.137,,,,11.750210698
1715327983832457158,0.09,,,,11.757905902
1715327983840152362,0.061,,,,11.765601106
1715327983847847566,0.061,,,,11.77329631
1715327983855542770,0.064,,,,11.780991514
1715327983863237974,0.059,,,,11.788686718
1715327983870933198,0.057,,,,11.796381942
1715327983878627984,0.054,,,,11.804076728
1715327983886322770,0.052,,,,11.811771514
1715327983894017556,0.054,,,,11.8194663
1715327983901712342,0.03,,,,11.827161086
1715327983909407128,-0.028,,,,11.834855872
1715327983917101914,0.09,,,,11.842550658
1715327983924796700,0.72,,,,11.850245444
1715327983932491486,1.611,,,,11.85794023
1715327983940186272,1.727,,,,11.865635016
1715327983947881058,0.584,,,,11.873329802
1715327983955575844,-0.38,,,,11.881024588
1715327983963270630,-0.076,,,,11.888719374
1715327983970965416,0.24,,,,11.89641416
1715327983978660202,-0.045,,,,11.904108946
1715327983986354988,-0.092,,,,11.911803732
1715327983994049774,0.057,,,,11.919498518
1715327984001744560,0.007,,,,11.927193304
1715327984009439346,-0.026,,,,11.93488809
1715327984017134132,0.038,,,,11.942582876
1715327984024828918,0.047,,,,11.950277662
1715327984032523704,0.038,,,,11.957972448
1715327984040218490,0.068,,,,11.965667234
1715327984047913276,0.092,,,,11.97336202
1715327984055608062,0.104,,,,11.981056806
1715327984063302848,0.125,,,,11.988751592
1715327984070997634,0.144,,,,11.996446378
1715327984078692420,0.171,,,,12.004141164
1715327984086387206,0.194,,,,12.01183595
1715327984094081992,0.218,,,,12.019530736
1715327984101776778,0.251,,,,12.027225522
1715327984109471564,0.287,,,,12.034920308
1715327984117166350,0.323,,,,12.042615094
1715327984124861136,0.363,,,,12.05030988
1715327984132555922,0.408,,,,12.058004666
1715327984140250708,0.446,,,,12.065699452
1715327984147945494,0.472,,,,12.073394238
1715327984155640280,0.499,,,,12.081089024
1715327984163335066,0.51,,,,12.08878381
1715327984171029852,0.506,,,,12.096478596
1715327984178724638,0.472,,,,12.104173382
1715327984186419424,0.406,,,,12.111868168
1715327984194114210,0.304,,,,12.119562954
1715327984201808996,0.192,,,,12.12725774
1715327984209503782,0.085,,,,12.134952526
1715327984217198568,0.004,,,,12.142647312
1715327984224893354,-0.052,,,,12.150342098
1715327984232588140,-0.09,,,,12.158036884
1715327984240282926,-0.111,,,,12.16573167
1715327984247977712,-0.121,,,,12.173426456
1715327984255672498,-0.116,,,,12.181121242
1715327984263367284,-0.111,,,,12.188816028
1715327984271062070,-0.111,,,,12.196510814
1715327984278756856,-0.102,,,,12.2042056
1715327984286451642,-0.09,,,,12.211900386
1715327984294146428,-0.08,,,,12.219595172
1715327984301841214,-0.073,,,,12.227289958
1715327984309536000,-0.071,,,,12.234984744
1715327984317230786,-0.071,,,,12.24267953
1715327984324925572,-0.073,,,,12.250374316
1715327984332620358,-0.066,,,,12.258069102
1715327984340315144,-0.052,,,,12.265763888
1715327984348009930,-0.045,,,,12.273458674
1715327984355704716,-0.038,,,,12.28115346
1715327984363399502,-0.033,,,,12.288848246
1715327984371094288,-0.028,,,,12.296543032
1715327984378789074,-0.023,,,,12.304237818
1715327984386483860,-0.019,,,,12.311932604
1715327984394178646,-0.014,,,,12.31962739
1715327984401873432,-0.007,,,,12.327322176
1715327984409568218,-0.004,,,,12.335016962
1715327984417263004,-0.002,,,,12.342711748
1715327984424957790,0.0,,,,12.350406534
1715327984432652592,0.007,75.0,829.0,,12.358101336
1715327984440347796,0.011,,,,12.36579654
1715327984448043000,0.011,,,,12.373491744
1715327984455738204,0.014,,,,12.381186948
1715327984463433408,0.019,,,,12.388882152
1715327984471128612,0.014,,,,12.396577356
1715327984478823816,0.009,,,,12.40427256
1715327984486519020,0.011,,,,12.411967764
1715327984494214224,0.019,,,,12.419662968
1715327984501909428,0.021,,,,12.427358172
1715327984509604632,0.019,,,,12.435053376
1715327984517299836,0.021,,,,12.44274858
1715327984524995040,0.021,,,,12.450443784
1715327984532690244,0.016,,,,12.458138988
1715327984540385448,0.026,,,,12.465834192
1715327984548080652,0.042,,,,12.473529396
1715327984555775856,0.035,,,,12.4812246
1715327984563471060,0.023,,,,12.488919804
1715327984571166264,0.026,,,,12.496615008
1715327984578861468,0.038,,,,12.504310212
1715327984586556672,0.04,,,,12.512005416
1715327984594251876,0.038,,,,12.51970062
1715327984601947080,0.033,,,,12.527395824
1715327984609642284,0.023,,,,12.535091028
1715327984617337488,0.019,,,,12.542786232
1715327984625032692,0.009,,,,12.550481436
1715327984632727896,0.016,,,,12.55817664
1715327984640423100,0.059,,,,12.565871844
1715327984648118304,0.114,,,,12.573567048
1715327984655813508,0.142,,,,12.581262252
1715327984663508712,0.114,,,,12.588957456
1715327984671203916,0.064,,,,12.59665266
1715327984678899120,0.052,,,,12.604347864
1715327984686594324,0.054,,,,12.612043068
1715327984694289528,0.054,,,,12.619738272
1715327984701984732,0.059,,,,12.627433476
1715327984709679936,0.059,,,,12.63512868
1715327984717375140,0.057,,,,12.642823884
1715327984725070344,0.057,,,,12.650519088
1715327984732765548,0.054,,,,12.658214292
1715327984740460752,0.016,,,,12.665909496
1715327984748155956,0.011,,,,12.6736047
1715327984755851160,0.327,,,,12.681299904
1715327984763546364,1.114,,,,12.688995108
1715327984771241568,1.772,,,,12.696690312
1715327984778936772,1.273,,,,12.704385516
1715327984786631976,-0.014,,,,12.71208072
1715327984794327180,-0.363,,,,12.719775924
1715327984802022384,0.159,,,,12.727471128
1715327984809717588,0.152,,,,12.735166332
1715327984817412792,-0.109,,,,12.742861536
1715327984825107996,-0.007,,,,12.75055674
1715327984832803200,0.049,,,,12.758251944
1715327984840498404,-0.028,,,,12.765947148
1715327984848193608,0.002,,,,12.773642352
1715327984855888812,0.057,,,,12.781337556
1715327984863584016,0.045,,,,12.78903276
1715327984871279220,0.049,,,,12.796727964
1715327984878974424,0.085,,,,12.804423168
1715327984886669628,0.102,,,,12.812118372
1715327984894364832,0.116,,,,12.819813576
1715327984902060036,0.144,,,,12.82750878
1715327984909755240,0.168,,,,12.835203984
1715327984917450444,0.19,,,,12.842899188
1715327984925145648,0.213,,,,12.850594392
1715327984932840852,0.244,,,,12.858289596
1715327984940536056,0.28,,,,12.8659848
1715327984948231260,0.316,,,,12.873680004
1715327984955926464,0.354,,,,12.881375208
1715327984963621668,0.394,,,,12.889070412
1715327984971316872,0.437,,,,12.896765616
1715327984979012076,0.475,,,,12.90446082
1715327984986707280,0.501,,,,12.912156024
1715327984994402504,0.518,,,,12.919851248
1715327985002097290,0.522,,,,12.927546034
1715327985009792076,0.503,,,,12.93524082
1715327985017486862,0.449,,,,12.942935606
1715327985025181648,0.358,,,,12.950630392
1715327985032876434,0.251,,,,12.958325178
1715327985040571220,0.142,,,,12.966019964
1715327985048266006,0.04,,,,12.97371475
1715327985055960792,-0.038,,,,12.981409536
1715327985063655578,-0.087,,,,12.989104322
1715327985071350364,-0.118,,,,12.996799108
1715327985079045150,-0.133,,,,13.004493894
1715327985086739936,-0.137,,,,13.01218868
1715327985094434722,-0.135,,,,13.019883466
1715327985102129508,-0.128,,,,13.027578252
1715327985109824294,-0.125,,,,13.035273038
1715327985117519080,-0.116,,,,13.042967824
1715327985125213866,-0.102,,,,13.05066261
1715327985132908652,-0.09,,,,13.058357396
1715327985140603438,-0.08,,,,13.066052182
1715327985148298224,-0.073,,,,13.073746968
1715327985155993010,-0.064,,,,13.081441754
1715327985163687796,-0.054,,,,13.08913654
1715327985171382582,-0.045,,,,13.096831326
1715327985179077368,-0.035,,,,13.104526112
1715327985186772154,-0.028,,,,13.112220898
1715327985194466940,-0.026,,,,13.119915684
1715327985202161726,-0.021,,,,13.12761047
1715327985209856512,-0.016,,,,13.135305256
1715327985217551298,-0.009,,,,13.143000042
1715327985225246084,-0.002,,,,13.150694828
1715327985232940870,0.0,,,,13.158389614
1715327985240635656,0.002,,,,13.1660844
1715327985248330442,0.002,,,,13.173779186
1715327985256025228,0.004,,,,13.181473972
1715327985263720014,0.011,,,,13.189168758
1715327985271414800,0.016,,,,13.196863544
1715327985279109586,0.016,,,,13.20455833
1715327985286804372,0.016,,,,13.212253116
1715327985294499158,0.016,,,,13.219947902
1715327985302193944,0.016,,,,13.227642688
1715327985309888730,0.019,,,,13.235337474
1715327985317583516,0.019,,,,13.24303226
1715327985325278302,0.011,,,,13.250727046
1715327985332973088,0.004,,,,13.258421832
1715327985340667874,0.004,,,,13.266116618
1715327985348362660,0.009,,,,13.273811404
1715327985356057446,0.014,,,,13.28150619
1715327985363752232,0.019,,,,13.289200976
1715327985371447018,0.021,,,,13.296895762
1715327985379141804,0.021,,,,13.304590548
1715327985386836590,0.026,,,,13.312285334
1715327985394531376,0.033,,,,13.31998012
1715327985402226162,0.033,,,,13.327674906
1715327985409920948,0.033,,,,13.335369692
1715327985417615734,0.04,,,,13.343064478
1715327985425310520,0.04,,,,13.350759264
1715327985433005306,0.023,,,,13.35845405
1715327985440700092,0.014,,,,13.366148836
1715327985448394878,0.002,,,,13.373843622
1715327985456089664,-0.002,,,,13.381538408
1715327985463784450,0.023,,,,13.389233194
1715327985471479236,0.073,,,,13.39692798
1715327985479174022,0.123,,,,13.404622766
1715327985486868808,0.14,,,,13.412317552
1715327985494563594,0.102,,,,13.420012338
1715327985502258380,0.059,,,,13.427707124
1715327985509953166,0.052,,,,13.43540191
1715327985517647952,0.061,,,,13.443096696
1715327985525342738,0.061,,,,13.450791482
1715327985533037524,0.057,,,,13.458486268
1715327985540732310,0.054,,,,13.466181054
1715327985548427096,0.049,,,,13.47387584
1715327985556121900,0.052,75.0,823.0,,13.481570644
1715327985563817104,0.04,,,,13.489265848
1715327985571512308,-0.004,,,,13.496961052
1715327985579207512,0.08,,,,13.504656256
1715327985586902716,0.591,,,,13.51235146
1715327985594597920,1.409,,,,13.520046664
1715327985602293124,1.661,,,,13.527741868
1715327985609988328,0.684,,,,13.535437072
1715327985617683532,-0.354,,,,13.543132276
1715327985625378736,-0.152,,,,13.55082748
1715327985633073940,0.254,,,,13.558522684
1715327985640769144,0.019,,,,13.566217888
1715327985648464348,-0.087,,,,13.573913092
1715327985656159552,0.064,,,,13.581608296
1715327985663854756,0.045,,,,13.5893035
1715327985671549960,-0.004,,,,13.596998704
1715327985679245164,0.057,,,,13.604693908
1715327985686940368,0.08,,,,13.612389112
1715327985694635572,0.071,,,,13.620084316
1715327985702330776,0.095,,,,13.62777952
1715327985710025980,0.116,,,,13.635474724
1715327985717721184,0.128,,,,13.643169928
1715327985725416388,0.152,,,,13.650865132
1715327985733111592,0.175,,,,13.658560336
1715327985740806796,0.199,,,,13.66625554
1715327985748502000,0.22,,,,13.673950744
1715327985756197204,0.247,,,,13.681645948
1715327985763892408,0.275,,,,13.689341152
1715327985771587612,0.308,,,,13.697036356
1715327985779282816,0.351,,,,13.70473156
1715327985786978020,0.387,,,,13.712426764
1715327985794673224,0.415,,,,13.720121968
1715327985802368428,0.451,,,,13.727817172
1715327985810063632,0.489,,,,13.735512376
1715327985817758836,0.515,,,,13.74320758
1715327985825454040,0.525,,,,13.750902784
1715327985833149244,0.515,,,,13.758597988
1715327985840844448,0.487,,,,13.766293192
1715327985848539652,0.427,,,,13.773988396
1715327985856234856,0.33,,,,13.7816836
1715327985863930060,0.206,,,,13.789378804
1715327985871625264,0.106,,,,13.797074008
1715327985879320468,0.026,,,,13.804769212
1715327985887015672,-0.047,,,,13.812464416
1715327985894710876,-0.095,,,,13.82015962
1715327985902406080,-0.111,,,,13.827854824
1715327985910101284,-0.118,,,,13.835550028
1715327985917796488,-0.125,,,,13.843245232
1715327985925491692,-0.121,,,,13.850940436
1715327985933186896,-0.111,,,,13.85863564
1715327985940882100,-0.106,,,,13.866330844
1715327985948577304,-0.102,,,,13.874026048
1715327985956272508,-0.09,,,,13.881721252
1715327985963967712,-0.076,,,,13.889416456
1715327985971662916,-0.064,,,,13.89711166
1715327985979358120,-0.057,,,,13.904806864
1715327985987053324,-0.049,,,,13.912502068
1715327985994748528,-0.038,,,,13.920197272
1715327986002443732,-0.026,,,,13.927892476
1715327986010138936,-0.023,,,,13.93558768
1715327986017834140,-0.016,,,,13.943282884
1715327986025529344,-0.009,,,,13.950978088
1715327986033224548,-0.009,,,,13.958673292
1715327986040919752,-0.009,,,,13.966368496
1715327986048614956,0.0,,,,13.9740637
1715327986056310160,0.004,,,,13.981758904
1715327986064005364,0.004,,,,13.989454108
1715327986071700568,0.007,,,,13.997149312
1715327986079395772,0.014,,,,14.004844516
1715327986087090976,0.016,,,,14.01253972
1715327986094786180,0.016,,,,14.020234924
1715327986102481384,0.019,,,,14.027930128
1715327986110176588,0.026,,,,14.035625332
1715327986117871812,0.028,,,,14.043320556
1715327986125567016,0.023,,,,14.05101576
1715327986133262220,0.021,,,,14.058710964
1715327986140957424,0.026,,,,14.066406168
1715327986148652628,0.023,,,,14.074101372
1715327986156347832,0.026,,,,14.081796576
1715327986164043036,0.03,,,,14.08949178
1715327986171738240,0.028,,,,14.097186984
1715327986179433444,0.028,,,,14.104882188
1715327986187128648,0.026,,,,14.112577392
1715327986194823852,0.023,,,,14.120272596
1715327986202519056,0.03,,,,14.1279678
1715327986210214260,0.035,,,,14.135663004
1715327986217909464,0.033,,,,14.143358208
1715327986225604668,0.026,,,,14.151053412
1715327986233299872,0.021,,,,14.158748616
1715327986240995076,0.019,,,,14.16644382
1715327986248690280,0.009,,,,14.174139024
1715327986256385484,0.004,,,,14.181834228
1715327986264080688,0.035,,,,14.189529432
1715327986271775892,0.085,,,,14.197224636
1715327986279471096,0.13,,,,14.20491984
1715327986287166300,0.125,,,,14.212615044
1715327986294861504,0.08,,,,14.220310248
1715327986302556708,0.049,,,,14.228005452
1715327986310251912,0.047,,,,14.235700656
1715327986317947116,0.059,,,,14.24339586
1715327986325642320,0.061,,,,14.251091064
1715327986333337524,0.052,,,,14.258786268
1715327986341032728,0.042,,,,14.266481472
1715327986348727932,0.04,,,,14.274176676
1715327986356423136,0.042,,,,14.28187188
1715327986364118340,0.021,,,,14.289567084
1715327986371813544,-0.009,,,,14.297262288
1715327986379508748,0.19,,,,14.304957492
1715327986387203952,0.883,,,,14.312652696
1715327986394899156,1.706,,,,14.3203479
1715327986402594360,1.582,,,,14.328043104
1715327986410289564,0.327,,,,14.335738308
1715327986417984768,-0.425,,,,14.343433512
1715327986425679972,0.016,,,,14.351128716
1715327986433375176,0.225,,,,14.35882392
1715327986441070380,-0.076,,,,14.366519124
1715327986448765584,-0.052,,,,14.374214328
1715327986456460788,0.08,,,,14.381909532
1715327986464155992,0.009,,,,14.389604736
1715327986471851196,-0.002,,,,14.39729994
1715327986479546400,0.066,,,,14.404995144
1715327986487241604,0.064,,,,14.412690348
1715327986494936808,0.061,,,,14.420385552
1715327986502632012,0.095,,,,14.428080756
1715327986510327216,0.109,,,,14.43577596
1715327986518022420,0.118,,,,14.443471164
1715327986525717624,0.147,,,,14.451166368
1715327986533412828,0.166,,,,14.458861572
1715327986541108032,0.185,,,,14.466556776
1715327986548803236,0.213,,,,14.47425198
1715327986556498440,0.244,,,,14.481947184
1715327986564193644,0.275,,,,14.489642388
1715327986571888848,0.306,,,,14.497337592
1715327986579584052,0.344,,,,14.505032796
1715327986587279256,0.387,,,,14.512728
1715327986594974460,0.43,,,,14.520423204
1715327986602669664,0.468,,,,14.528118408
1715327986610364868,0.496,,,,14.535813612
1715327986618060072,0.52,,,,14.543508816
1715327986625755276,0.529,,,,14.55120402
1715327986633450480,0.515,,,,14.558899224
1715327986641145684,0.477,,,,14.566594428
1715327986648840888,0.403,,,,14.574289632
1715327986656536092,0.297,,,,14.581984836
1715327986664231296,0.182,,,,14.58968004
1715327986671926500,0.083,,,,14.597375244
1715327986679621724,0.002,75.0,837.0,,14.605070468
1715327986687316510,-0.054,,835.0,,14.612765254
1715327986695011296,-0.09,,,,14.62046004
1715327986702706082,-0.106,,,,14.628154826
1715327986710400868,-0.109,,,,14.635849612
1715327986718095654,-0.109,,,,14.643544398
1715327986725790440,-0.116,,,,14.651239184
1715327986733485226,-0.116,,,,14.65893397
1715327986741180012,-0.102,,,,14.666628756
1715327986748874798,-0.092,,,,14.674323542
1715327986756569584,-0.087,,,,14.682018328
1715327986764264370,-0.078,,,,14.689713114
1715327986771959156,-0.071,,,,14.6974079
1715327986779653942,-0.066,,,,14.705102686
1715327986787348728,-0.057,,,,14.712797472
1715327986795043514,-0.045,,,,14.720492258
1715327986802738300,-0.035,,,,14.728187044
1715327986810433086,-0.03,,,,14.73588183
1715327986818127872,-0.028,,,,14.743576616
1715327986825822658,-0.026,,,,14.751271402
1715327986833517444,-0.019,,,,14.758966188
1715327986841212230,-0.016,,,,14.766660974
1715327986848907016,-0.011,,,,14.77435576
1715327986856601802,-0.002,,,,14.782050546
1715327986864296588,-0.004,,,,14.789745332
1715327986871991374,-0.009,,,,14.797440118
1715327986879686160,0.0,,,,14.805134904
1715327986887380946,0.011,,,,14.81282969
1715327986895075732,0.009,,,,14.820524476
1715327986902770518,0.0,,,,14.828219262
1715327986910465304,0.004,,,,14.835914048
1715327986918160090,0.019,,,,14.843608834
1715327986925854876,0.021,,,,14.85130362
1715327986933549662,0.019,,,,14.858998406
1715327986941244448,0.021,,,,14.866693192
1715327986948939234,0.028,,,,14.874387978
1715327986956634020,0.028,,,,14.882082764
1715327986964328806,0.028,,,,14.88977755
1715327986972023592,0.028,,,,14.897472336
1715327986979718378,0.033,,,,14.905167122
1715327986987413164,0.033,,,,14.912861908
1715327986995107950,0.021,,,,14.920556694
1715327987002802736,0.014,,,,14.92825148
1715327987010497522,0.007,,,,14.935946266
1715327987018192308,-0.002,,,,14.943641052
1715327987025887094,0.009,,,,14.951335838
1715327987033581880,0.052,,,,14.959030624
1715327987041276666,0.111,,,,14.96672541
1715327987048971452,0.14,,,,14.974420196
1715327987056666238,0.111,,,,14.982114982
1715327987064361024,0.068,,,,14.989809768
1715327987072055810,0.064,,,,14.997504554
1715327987079750596,0.068,,,,15.00519934
1715327987087445382,0.061,,,,15.012894126
1715327987095140168,0.057,,,,15.020588912
1715327987102834954,0.059,,,,15.028283698
1715327987110529740,0.052,,,,15.035978484
1715327987118224526,0.049,,,,15.04367327
1715327987125919312,0.045,,,,15.051368056
1715327987133614098,0.0,,,,15.059062842
1715327987141308884,0.03,,,,15.066757628
1715327987149003670,0.463,,,,15.074452414
1715327987156698456,1.344,,,,15.0821472
1715327987164393242,1.867,,,,15.089841986
1715327987172088028,1.066,,,,15.097536772
1715327987179782814,-0.223,,,,15.105231558
1715327987187477600,-0.294,,,,15.112926344
1715327987195172386,0.23,,,,15.12062113
1715327987202867172,0.085,,,,15.128315916
1715327987210561958,-0.135,,,,15.136010702
1715327987218256744,0.011,,,,15.143705488
1715327987225951530,0.045,,,,15.151400274
1715327987233646316,-0.03,,,,15.15909506
1715327987241341118,0.009,74.0,828.0,,15.166789862
1715327987249036322,0.054,,,,15.174485066
1715327987256731526,0.047,,,,15.18218027
1715327987264426730,0.059,,,,15.189875474
1715327987272121934,0.083,,,,15.197570678
1715327987279817138,0.097,,,,15.205265882
1715327987287512342,0.116,,,,15.212961086
1715327987295207546,0.14,,,,15.22065629
1715327987302902750,0.159,,,,15.228351494
1715327987310597954,0.185,,,,15.236046698
1715327987318293158,0.209,,,,15.243741902
1715327987325988362,0.228,,,,15.251437106
1715327987333683566,0.263,,,,15.25913231
1715327987341378770,0.299,,,,15.266827514
1715327987349073974,0.327,,,,15.274522718
1715327987356769178,0.368,,,,15.282217922
1715327987364464382,0.415,,,,15.289913126
1715327987372159586,0.446,,,,15.29760833
1715327987379854790,0.47,,,,15.305303534
1715327987387549994,0.484,,,,15.312998738
1715327987395245198,0.484,,,,15.320693942
1715327987402940402,0.465,,,,15.328389146
1715327987410635606,0.406,,,,15.33608435
1715327987418330810,0.299,,,,15.343779554
1715327987426026014,0.182,,,,15.351474758
1715327987433721218,0.083,,,,15.359169962
1715327987441416422,0.0,,,,15.366865166
1715327987449111626,-0.068,,,,15.37456037
1715327987456806830,-0.109,,,,15.382255574
1715327987464502034,-0.128,,,,15.389950778
1715327987472197238,-0.14,,,,15.397645982
1715327987479892442,-0.14,,,,15.405341186
1715327987487587646,-0.13,,,,15.41303639
1715327987495282850,-0.123,,,,15.420731594
1715327987502978054,-0.121,,,,15.428426798
1715327987510673258,-0.116,,,,15.436122002
1715327987518368462,-0.106,,,,15.443817206
1715327987526063666,-0.095,,,,15.45151241
1715327987533758870,-0.08,,,,15.459207614
1715327987541454074,-0.073,,,,15.466902818
1715327987549149278,-0.066,,,,15.474598022
1715327987556844482,-0.059,,,,15.482293226
1715327987564539686,-0.052,,,,15.48998843
1715327987572234890,-0.045,,,,15.497683634
1715327987579930094,-0.035,,,,15.505378838
1715327987587625298,-0.028,,,,15.513074042
1715327987595320502,-0.026,,,,15.520769246
1715327987603015706,-0.019,,,,15.52846445
1715327987610710910,-0.011,,,,15.536159654
1715327987618406114,-0.002,,,,15.543854858
1715327987626101318,-0.004,,,,15.551550062
1715327987633796522,-0.004,,,,15.559245266
1715327987641491726,0.002,,,,15.56694047
1715327987649186930,0.007,,,,15.574635674
1715327987656882134,0.004,,,,15.582330878
1715327987664577338,0.009,,,,15.590026082
1715327987672272542,0.019,,,,15.597721286
1715327987679967746,0.019,,,,15.60541649
1715327987687662950,0.016,,,,15.613111694
1715327987695358154,0.019,,,,15.620806898
1715327987703053358,0.023,,,,15.628502102
1715327987710748562,0.026,,,,15.636197306
1715327987718443766,0.026,,,,15.64389251
1715327987726138970,0.03,,,,15.651587714
1715327987733834174,0.033,,,,15.659282918
1715327987741529378,0.033,,,,15.666978122
1715327987749224582,0.03,,,,15.674673326
1715327987756919786,0.026,,,,15.68236853
1715327987764614990,0.011,,,,15.690063734
1715327987772310194,0.002,,,,15.697758938
1715327987780005398,-0.004,,,,15.705454142
1715327987787700602,0.0,,,,15.713149346
1715327987795395806,0.033,,,,15.72084455
1715327987803091030,0.083,,,,15.728539774
1715327987810786234,0.133,,,,15.736234978
1715327987818481438,0.133,,,,15.743930182
1715327987826176642,0.078,,,,15.751625386
1715327987833871846,0.033,,,,15.75932059
1715327987841567050,0.033,,,,15.767015794
1715327987849262254,0.038,,,,15.774710998
1715327987856957458,0.03,,,,15.782406202
1715327987864652662,0.023,,,,15.790101406
1715327987872347866,0.026,,,,15.79779661
1715327987880043070,0.03,,,,15.805491814
1715327987887738274,0.03,,,,15.813187018
1715327987895433478,0.002,,,,15.820882222
1715327987903128682,-0.019,,,,15.828577426
1715327987910823886,0.204,,,,15.83627263
1715327987918519090,0.907,,,,15.843967834
1715327987926214294,1.682,,,,15.851663038
1715327987933909498,1.492,,,,15.859358242
1715327987941604702,0.249,,,,15.867053446
1715327987949299906,-0.441,,,,15.87474865
1715327987956995110,-0.004,,,,15.882443854
1715327987964690314,0.175,,,,15.890139058
1715327987972385518,-0.114,,,,15.897834262
1715327987980080722,-0.083,,,,15.905529466
1715327987987775926,0.033,,,,15.91322467
1715327987995471130,-0.035,,,,15.920919874
1715327988003166334,-0.042,,,,15.928615078
1715327988010861538,0.009,,,,15.936310282
1715327988018556742,0.009,,,,15.944005486
1715327988026251946,0.019,,,,15.95170069
1715327988033947150,0.052,,,,15.959395894
1715327988041642354,0.068,,,,15.967091098
1715327988049337558,0.083,,,,15.974786302
1715327988057032762,0.106,,,,15.982481506
1715327988064727966,0.13,,,,15.99017671
1715327988072423170,0.154,,,,15.997871914
1715327988080118374,0.182,,,,16.005567118
1715327988087813578,0.211,,,,16.013262322
1715327988095508782,0.242,,,,16.020957526
1715327988103203986,0.275,,,,16.02865273
1715327988110899190,0.308,,,,16.036347934
1715327988118594394,0.349,,,,16.044043138
1715327988126289598,0.392,,,,16.051738342
1715327988133984802,0.425,,,,16.059433546
1715327988141680006,0.449,,,,16.06712875
1715327988149375210,0.463,,,,16.074823954
1715327988157070414,0.468,,,,16.082519158
1715327988164765618,0.458,,,,16.090214362
1715327988172460822,0.418,,,,16.097909566
1715327988180156026,0.346,,,,16.10560477
1715327988187851230,0.244,,,,16.113299974
1715327988195546434,0.133,,,,16.120995178
1715327988203241638,0.04,,,,16.128690382
1715327988210936842,-0.028,,,,16.136385586
1715327988218632046,-0.076,,,,16.14408079
1715327988226327250,-0.106,,,,16.151775994
1715327988234022454,-0.123,,,,16.159471198
1715327988241717658,-0.128,,,,16.167166402
1715327988249412862,-0.133,,,,16.174861606
1715327988257108066,-0.133,,,,16.18255681
1715327988264803270,-0.123,,,,16.190252014
1715327988272498474,-0.111,,,,16.197947218
1715327988280193678,-0.102,,,,16.205642422
1715327988287888882,-0.095,,,,16.213337626
1715327988295584086,-0.085,,,,16.22103283
1715327988303279290,-0.073,,,,16.228728034
1715327988310974494,-0.064,,,,16.236423238
1715327988318669698,-0.054,,,,16.244118442
1715327988326364902,-0.045,,,,16.251813646
1715327988334060106,-0.038,,,,16.25950885
1715327988341755310,-0.035,,,,16.267204054
1715327988349450514,-0.038,,,,16.274899258
1715327988357145718,-0.038,,,,16.282594462
1715327988364840942,-0.035,74.0,798.0,,16.290289686
1715327988372536076,-0.023,,,,16.29798482
1715327988380231210,-0.021,,,,16.305679954
1715327988387926344,-0.023,,,,16.313375088
1715327988395621478,-0.016,,,,16.321070222
1715327988403316612,-0.019,,,,16.328765356
1715327988411011746,-0.023,,,,16.33646049
1715327988418706880,-0.014,,,,16.344155624
1715327988426402014,-0.007,,,,16.351850758
1715327988434097148,-0.011,,,,16.359545892
1715327988441792282,-0.009,,,,16.367241026
1715327988449487416,0.0,,,,16.37493616
1715327988457182550,0.007,,,,16.382631294
1715327988464877684,0.007,,,,16.390326428
1715327988472572818,0.009,,,,16.398021562
1715327988480267952,0.014,,,,16.405716696
1715327988487963086,0.016,,,,16.41341183
1715327988495658220,0.019,,,,16.421106964
1715327988503353354,0.019,,,,16.428802098
1715327988511048488,0.019,,,,16.436497232
1715327988518743622,0.014,,,,16.444192366
1715327988526438756,0.004,,,,16.4518875
1715327988534133890,-0.002,,,,16.459582634
1715327988541829024,-0.004,,,,16.467277768
1715327988549524158,0.019,,,,16.474972902
1715327988557219292,0.076,,,,16.482668036
1715327988564914426,0.133,,,,16.49036317
1715327988572609560,0.137,,,,16.498058304
1715327988580304694,0.092,,,,16.505753438
1715327988587999828,0.061,,,,16.513448572
1715327988595694962,0.073,,,,16.521143706
1715327988603390096,0.085,,,,16.52883884
1715327988611085230,0.076,,,,16.536533974
1715327988618780364,0.068,,,,16.544229108
1715327988626475498,0.061,,,,16.551924242
1715327988634170632,0.054,,,,16.559619376
1715327988641865766,0.061,,,,16.56731451
1715327988649560900,0.049,,,,16.575009644
1715327988657256034,-0.002,,,,16.582704778
1715327988664951168,0.099,,,,16.590399912
1715327988672646302,0.67,,,,16.598095046
1715327988680341436,1.513,,,,16.60579018
1715327988688036570,1.701,,,,16.613485314
1715327988695731704,0.643,,,,16.621180448
1715327988703426838,-0.396,,,,16.628875582
1715327988711121972,-0.159,,,,16.636570716
1715327988718817106,0.247,,,,16.64426585
1715327988726512240,0.002,,,,16.651960984
1715327988734207374,-0.087,,,,16.659656118
1715327988741902508,0.066,,,,16.667351252
1715327988749597642,0.028,,,,16.675046386
1715327988757292776,-0.03,,,,16.68274152
1715327988764987910,0.026,,,,16.690436654
1715327988772683044,0.042,,,,16.698131788
1715327988780378178,0.028,,,,16.705826922
1715327988788073312,0.054,,,,16.713522056
1715327988795768446,0.078,,,,16.72121719
1715327988803463580,0.087,,,,16.728912324
1715327988811158714,0.111,,,,16.736607458
1715327988818853848,0.135,,,,16.744302592
1715327988826548982,0.156,,,,16.751997726
1715327988834244116,0.182,,,,16.75969286
1715327988841939250,0.213,,,,16.767387994
1715327988849634384,0.24,,,,16.775083128
1715327988857329518,0.263,,,,16.782778262
1715327988865024652,0.297,,,,16.790473396
1715327988872719786,0.342,,,,16.79816853
1715327988880414920,0.389,,,,16.805863664
1715327988888110054,0.422,,,,16.813558798
1715327988895805188,0.451,,,,16.821253932
1715327988903500322,0.47,,,,16.828949066
1715327988911195456,0.477,,,,16.8366442
1715327988918890590,0.472,,,,16.844339334
1715327988926585770,0.441,,,,16.852034514
1715327988934280625,0.375,,,,16.859729369
1715327988941975480,0.273,,,,16.867424224
1715327988949670335,0.161,,,,16.875119079
1715327988957365190,0.064,,,,16.882813934
1715327988965060045,-0.009,,,,16.890508789
1715327988972754900,-0.064,,,,16.898203644
1715327988980449755,-0.104,,,,16.905898499
1715327988988144610,-0.128,,,,16.913593354
1715327988995839465,-0.137,,,,16.921288209
1715327989003534320,-0.137,,,,16.928983064
1715327989011229175,-0.14,,,,16.936677919
1715327989018924030,-0.133,,,,16.944372774
1715327989026618885,-0.125,,,,16.952067629
1715327989034313740,-0.125,,,,16.959762484
1715327989042008595,-0.114,,,,16.967457339
1715327989049703450,-0.092,,,,16.975152194
1715327989057398305,-0.078,,,,16.982847049
1715327989065093160,-0.076,,,,16.990541904
1715327989072788015,-0.071,,,,16.998236759
1715327989080482870,-0.057,,,,17.005931614
1715327989088177725,-0.047,,,,17.013626469
1715327989095872580,-0.04,,,,17.021321324
1715327989103567435,-0.028,,,,17.029016179
1715327989111262290,-0.016,,,,17.036711034
1715327989118957145,-0.011,,,,17.044405889
1715327989126652000,-0.011,,,,17.052100744
1715327989134346855,-0.004,,,,17.059795599
1715327989142041710,0.009,,,,17.067490454
1715327989149736565,0.007,,,,17.075185309
1715327989157431420,0.004,,,,17.082880164
1715327989165126275,0.004,,,,17.090575019
1715327989172821130,0.007,,,,17.098269874
1715327989180515985,0.019,,,,17.105964729
1715327989188210840,0.016,,,,17.113659584
1715327989195905695,0.011,,,,17.121354439
1715327989203600550,0.019,,,,17.129049294
1715327989211295405,0.026,,,,17.136744149
1715327989218990260,0.026,,,,17.144439004
1715327989226685115,0.028,,,,17.152133859
1715327989234379970,0.028,,,,17.159828714
1715327989242074825,0.023,,,,17.167523569
1715327989249769680,0.016,,,,17.175218424
1715327989257464535,0.023,,,,17.182913279
1715327989265159390,0.019,,,,17.190608134
1715327989272854245,0.0,,,,17.198302989
1715327989280549100,-0.002,,,,17.205997844
1715327989288243955,0.0,,,,17.213692699
1715327989295938810,0.019,,,,17.221387554
1715327989303633665,0.054,,,,17.229082409
1715327989311328520,0.095,,,,17.236777264
1715327989319023375,0.137,,,,17.244472119
1715327989326718230,0.128,,,,17.252166974
1715327989334413085,0.068,,,,17.259861829
1715327989342107940,0.047,,,,17.267556684
1715327989349802795,0.066,,,,17.275251539
1715327989357497650,0.073,,,,17.282946394
1715327989365192505,0.057,,,,17.290641249
1715327989372887360,0.038,,,,17.298336104
1715327989380582215,0.045,,,,17.306030959
1715327989388277070,0.054,,,,17.313725814
1715327989395971925,0.054,,,,17.321420669
1715327989403666780,0.021,,,,17.329115524
1715327989411361635,-0.023,,,,17.336810379
1715327989419056490,0.178,,,,17.344505234
1715327989426751345,0.855,,,,17.352200089
1715327989434446200,1.625,,,,17.359894944
1715327989442141055,1.492,,,,17.367589799
1715327989449835910,0.266,,,,17.375284654
1715327989457530765,-0.453,,,,17.382979509
1715327989465225620,0.007,,,,17.390674364
1715327989472920475,0.23,,,,17.398369219
1715327989480615330,-0.068,,,,17.406064074
1715327989488310250,-0.059,74.0,766.0,,17.413758994
1715327989496005454,0.068,,765.0,,17.421454198
1715327989503700658,0.009,,,,17.429149402
1715327989511395862,-0.002,,,,17.436844606
1715327989519091066,0.064,,,,17.44453981
1715327989526786270,0.066,,,,17.452235014
1715327989534481474,0.059,,,,17.459930218
1715327989542176678,0.085,,,,17.467625422
1715327989549871882,0.092,,,,17.475320626
1715327989557567086,0.109,,,,17.48301583
1715327989565262290,0.144,,,,17.490711034
1715327989572957494,0.163,,,,17.498406238
1715327989580652698,0.182,,,,17.506101442
1715327989588347902,0.211,,,,17.513796646
1715327989596043106,0.24,,,,17.52149185
1715327989603738310,0.261,,,,17.529187054
1715327989611433514,0.299,,,,17.536882258
1715327989619128718,0.349,,,,17.544577462
1715327989626823922,0.377,,,,17.552272666
1715327989634519126,0.401,,,,17.55996787
1715327989642214330,0.446,,,,17.567663074
1715327989649909534,0.477,,,,17.575358278
1715327989657604738,0.491,,,,17.583053482
1715327989665299942,0.496,,,,17.590748686
1715327989672995146,0.48,,,,17.59844389
1715327989680690350,0.437,,,,17.606139094
1715327989688385554,0.351,,,,17.613834298
1715327989696080758,0.237,,,,17.621529502
1715327989703775962,0.13,,,,17.629224706
1715327989711471166,0.033,,,,17.63691991
1715327989719166370,-0.045,,,,17.644615114
1715327989726861574,-0.104,,,,17.652310318
1715327989734556778,-0.137,,,,17.660005522
1715327989742251982,-0.147,,,,17.667700726
1715327989749947186,-0.159,,,,17.67539593
1715327989757642390,-0.159,,,,17.683091134
1715327989765337594,-0.142,,,,17.690786338
1715327989773032798,-0.133,,,,17.698481542
1715327989780728002,-0.13,,,,17.706176746
1715327989788423206,-0.125,,,,17.71387195
1715327989796118410,-0.106,,,,17.721567154
1715327989803813614,-0.087,,,,17.729262358
1715327989811508818,-0.083,,,,17.736957562
1715327989819204022,-0.083,,,,17.744652766
1715327989826899226,-0.073,,,,17.75234797
1715327989834594430,-0.057,,,,17.760043174
1715327989842289634,-0.045,,,,17.767738378
1715327989849984838,-0.04,,,,17.775433582
1715327989857680042,-0.035,,,,17.783128786
1715327989865375246,-0.038,,,,17.79082399
1715327989873070450,-0.038,,,,17.798519194
1715327989880765654,-0.023,,,,17.806214398
1715327989888460858,-0.019,,,,17.813909602
1715327989896156062,-0.016,,,,17.821604806
1715327989903851266,-0.009,,,,17.82930001
1715327989911546470,-0.014,,,,17.836995214
1715327989919241674,-0.019,,,,17.844690418
1715327989926936878,-0.007,,,,17.852385622
1715327989934632082,0.002,,,,17.860080826
1715327989942327286,0.002,,,,17.86777603
1715327989950022490,-0.002,,,,17.875471234
1715327989957717694,0.002,,,,17.883166438
1715327989965412898,0.009,,,,17.890861642
1715327989973108102,0.007,,,,17.898556846
1715327989980803306,0.009,,,,17.90625205
1715327989988498510,0.011,,,,17.913947254
1715327989996193714,0.016,,,,17.921642458
1715327990003888918,0.009,,,,17.929337662
1715327990011584122,0.0,,,,17.937032866
1715327990019279326,0.0,,,,17.94472807
1715327990026974530,-0.011,,,,17.952423274
1715327990034669734,-0.011,,,,17.960118478
1715327990042364938,0.028,,,,17.967813682
1715327990050060162,0.08,,,,17.975508906
1715327990057755087,0.125,,,,17.983203831
1715327990065450012,0.123,,,,17.990898756
1715327990073144937,0.076,,,,17.998593681
1715327990080839862,0.052,,,,18.006288606
1715327990088534787,0.057,,,,18.013983531
1715327990096229712,0.057,,,,18.021678456
1715327990103924637,0.054,,,,18.029373381
1715327990111619562,0.059,,,,18.037068306
1715327990119314487,0.054,,,,18.044763231
1715327990127009412,0.045,,,,18.052458156
1715327990134704337,0.045,,,,18.060153081
1715327990142399262,0.023,,,,18.067848006
1715327990150094187,-0.021,,,,18.075542931
1715327990157789112,0.168,,,,18.083237856
1715327990165484037,0.881,,,,18.090932781
1715327990173178962,1.748,,,,18.098627706
1715327990180873887,1.677,,,,18.106322631
1715327990188568812,0.389,,,,18.114017556
1715327990196263737,-0.465,,,,18.121712481
1715327990203958662,-0.023,,,,18.129407406
1715327990211653587,0.242,,,,18.137102331
1715327990219348512,-0.078,,,,18.144797256
1715327990227043437,-0.076,,,,18.152492181
1715327990234738362,0.073,,,,18.160187106
1715327990242433287,0.004,,,,18.167882031
1715327990250128212,-0.014,,,,18.175576956
1715327990257823137,0.054,,,,18.183271881
1715327990265518062,0.054,,,,18.190966806
1715327990273212987,0.042,,,,18.198661731
1715327990280907912,0.076,,,,18.206356656
1715327990288602837,0.099,,,,18.214051581
1715327990296297762,0.116,,,,18.221746506
1715327990303992687,0.14,,,,18.229441431
1715327990311687612,0.161,,,,18.237136356
1715327990319382537,0.178,,,,18.244831281
1715327990327077462,0.199,,,,18.252526206
1715327990334772387,0.23,,,,18.260221131
1715327990342467312,0.275,,,,18.267916056
1715327990350162237,0.32,,,,18.275610981
1715327990357857162,0.354,,,,18.283305906
1715327990365552087,0.38,,,,18.291000831
1715327990373247012,0.422,,,,18.298695756
1715327990380941937,0.463,,,,18.306390681
1715327990388636862,0.477,,,,18.314085606
1715327990396331787,0.489,,,,18.321780531
1715327990404026712,0.499,,,,18.329475456
1715327990411721637,0.477,,,,18.337170381
1715327990419416562,0.422,,,,18.344865306
1715327990427111487,0.337,,,,18.352560231
1715327990434806412,0.218,,,,18.360255156
1715327990442501337,0.095,,,,18.367950081
1715327990450196262,-0.007,,,,18.375645006
1715327990457891187,-0.08,,,,18.383339931
1715327990465586112,-0.137,,,,18.391034856
1715327990473281037,-0.175,,,,18.398729781
1715327990480975962,-0.182,,,,18.406424706
1715327990488670887,-0.185,,,,18.414119631
1715327990496365812,-0.18,,,,18.421814556
1715327990504060737,-0.171,,,,18.429509481
1715327990511755662,-0.171,,,,18.437204406
1715327990519450587,-0.168,,,,18.444899331
1715327990527145512,-0.144,,,,18.452594256
1715327990534840437,-0.123,,,,18.460289181
1715327990542535362,-0.123,,,,18.467984106
1715327990550230287,-0.125,,,,18.475679031
1715327990557925212,-0.104,,,,18.483373956
1715327990565620137,-0.09,,,,18.491068881
1715327990573315062,-0.095,,,,18.498763806
1715327990581009987,-0.085,,,,18.506458731
1715327990588704912,-0.061,,,,18.514153656
1715327990596399837,-0.052,,,,18.521848581
1715327990604094762,-0.059,,,,18.529543506
1715327990611789730,-0.059,75.0,757.0,,18.537238474
1715327990619484794,-0.045,,,,18.544933538
1715327990627179858,-0.035,,,,18.552628602
1715327990634874922,-0.033,,,,18.560323666
1715327990642569986,-0.026,,,,18.56801873
1715327990650265050,-0.023,,,,18.575713794
1715327990657960114,-0.03,,,,18.583408858
1715327990665655178,-0.03,,,,18.591103922
1715327990673350242,-0.014,,,,18.598798986
1715327990681045306,-0.011,,,,18.60649405
1715327990688740370,-0.038,,,,18.614189114
1715327990696435434,-0.052,,,,18.621884178
1715327990704130498,-0.033,,,,18.629579242
1715327990711825562,-0.021,,,,18.637274306
1715327990719520626,-0.035,,,,18.64496937
1715327990727215690,-0.033,,,,18.652664434
1715327990734910754,-0.019,,,,18.660359498
1715327990742605818,-0.028,,,,18.668054562
1715327990750300882,-0.052,,,,18.675749626
1715327990757995946,-0.059,,,,18.68344469
1715327990765691010,-0.04,,,,18.691139754
1715327990773386074,-0.004,,,,18.698834818
1715327990781081138,0.042,,,,18.706529882
1715327990788776202,0.09,,,,18.714224946
1715327990796471266,0.095,,,,18.72192001
1715327990804166330,0.042,,,,18.729615074
1715327990811861394,0.011,,,,18.737310138
1715327990819556458,0.033,,,,18.745005202
1715327990827251522,0.045,,,,18.752700266
1715327990834946586,0.038,,,,18.76039533
1715327990842641650,0.033,,,,18.768090394
1715327990850336714,0.04,,,,18.775785458
1715327990858031778,0.038,,,,18.783480522
1715327990865726842,0.028,,,,18.791175586
1715327990873421906,0.011,,,,18.79887065
1715327990881116970,-0.038,,,,18.806565714
1715327990888812034,0.064,,,,18.814260778
1715327990896507098,0.677,,,,18.821955842
1715327990904202162,1.615,,,,18.829650906
1715327990911897226,1.867,,,,18.83734597
1715327990919592290,0.76,,,,18.845041034
1715327990927287354,-0.394,,,,18.852736098
1715327990934982418,-0.182,,,,18.860431162
1715327990942677482,0.251,,,,18.868126226
1715327990950372546,-0.014,,,,18.87582129
1715327990958067610,-0.114,,,,18.883516354
1715327990965762674,0.061,,,,18.891211418
1715327990973457738,0.026,,,,18.898906482
1715327990981152802,-0.028,,,,18.906601546
1715327990988847866,0.047,,,,18.91429661
1715327990996542930,0.068,,,,18.921991674
1715327991004237994,0.04,,,,18.929686738
1715327991011933058,0.068,,,,18.937381802
1715327991019628122,0.102,,,,18.945076866
1715327991027323186,0.097,,,,18.95277193
1715327991035018250,0.121,,,,18.960466994
1715327991042713314,0.163,,,,18.968162058
1715327991050408378,0.18,,,,18.975857122
1715327991058103442,0.204,,,,18.983552186
1715327991065798506,0.242,,,,18.99124725
1715327991073493570,0.273,,,,18.998942314
1715327991081188634,0.306,,,,19.006637378
1715327991088883698,0.346,,,,19.014332442
1715327991096578762,0.392,,,,19.022027506
1715327991104273826,0.439,,,,19.02972257
1715327991111968890,0.47,,,,19.037417634
1715327991119663954,0.494,,,,19.045112698
1715327991127359018,0.525,,,,19.052807762
1715327991135054082,0.537,,,,19.060502826
1715327991142749146,0.522,,,,19.06819789
1715327991150444210,0.472,,,,19.075892954
1715327991158139274,0.373,,,,19.083588018
1715327991165834338,0.249,,,,19.091283082
1715327991173529468,0.133,75.0,752.0,,19.098978212
1715327991181224672,0.03,,,,19.106673416
1715327991188919876,-0.052,,,,19.11436862
1715327991196615080,-0.111,,,,19.122063824
1715327991204310284,-0.14,,,,19.129759028
1715327991212005488,-0.161,,,,19.137454232
1715327991219700692,-0.175,,,,19.145149436
1715327991227395896,-0.173,,,,19.15284464
1715327991235091100,-0.163,,,,19.160539844
1715327991242786304,-0.159,,,,19.168235048
1715327991250481508,-0.159,,,,19.175930252
1715327991258176712,-0.152,,,,19.183625456
1715327991265871916,-0.125,,,,19.19132066
1715327991273567120,-0.106,,,,19.199015864
1715327991281262324,-0.106,,,,19.206711068
1715327991288957528,-0.109,,,,19.214406272
1715327991296652732,-0.09,,,,19.222101476
1715327991304347936,-0.071,,,,19.22979668
1715327991312043140,-0.064,,,,19.237491884
1715327991319738344,-0.057,,,,19.245187088
1715327991327433548,-0.054,,,,19.252882292
1715327991335128752,-0.047,,,,19.260577496
1715327991342823956,-0.033,,,,19.2682727
1715327991350519160,-0.028,,,,19.275967904
1715327991358214364,-0.028,,,,19.283663108
1715327991365909568,-0.021,,,,19.291358312
1715327991373604772,-0.026,,,,19.299053516
1715327991381299976,-0.03,,,,19.30674872
1715327991388995180,-0.026,,,,19.314443924
1715327991396690384,-0.014,,,,19.322139128
1715327991404385588,-0.011,,,,19.329834332
1715327991412080792,-0.009,,,,19.337529536
1715327991419775996,-0.002,,,,19.34522474
1715327991427471200,0.004,,,,19.352919944
1715327991435166404,0.004,,,,19.360615148
1715327991442861608,0.0,,,,19.368310352
1715327991450556812,-0.004,,,,19.376005556
1715327991458252016,-0.002,,,,19.38370076
1715327991465947220,-0.002,,,,19.391395964
1715327991473642424,-0.011,,,,19.399091168
1715327991481337628,-0.026,,,,19.406786372
1715327991489032832,-0.021,,,,19.414481576
1715327991496728036,0.014,,,,19.42217678
1715327991504423240,0.064,,,,19.429871984
1715327991512118444,0.109,,,,19.437567188
1715327991519813648,0.118,,,,19.445262392
1715327991527508852,0.078,,,,19.452957596
1715327991535204056,0.045,,,,19.4606528
1715327991542899260,0.054,,,,19.468348004
1715327991550594464,0.064,,,,19.476043208
1715327991558289668,0.054,,,,19.483738412
1715327991565984872,0.047,,,,19.491433616
1715327991573680076,0.052,,,,19.49912882
1715327991581375280,0.057,,,,19.506824024
1715327991589070484,0.061,,,,19.514519228
1715327991596765688,0.052,,,,19.522214432
1715327991604460892,-0.004,,,,19.529909636
1715327991612156096,0.0,,,,19.53760484
1715327991619851300,0.451,,,,19.545300044
1715327991627546504,1.416,,,,19.552995248
1715327991635241708,2.022,,,,19.560690452
1715327991642936912,1.221,,,,19.568385656
1715327991650632116,-0.18,,,,19.57608086
1715327991658327320,-0.339,,,,19.583776064
1715327991666022524,0.228,,,,19.591471268
1715327991673717728,0.114,,,,19.599166472
1715327991681412932,-0.123,,,,19.606861676
1715327991689108136,0.03,,,,19.61455688
1715327991696803340,0.073,,,,19.622252084
1715327991704498544,-0.016,,,,19.629947288
1715327991712193748,0.016,,,,19.637642492
1715327991719888952,0.064,,,,19.645337696
1715327991727584156,0.054,,,,19.6530329
1715327991735279380,0.068,,,,19.660728124
1715327991742974166,0.099,,,,19.66842291
1715327991750668952,0.114,,,,19.676117696
1715327991758363738,0.133,,,,19.683812482
1715327991766058524,0.152,,,,19.691507268
1715327991773753310,0.163,,,,19.699202054
1715327991781448096,0.194,,,,19.70689684
1715327991789142882,0.23,,,,19.714591626
1715327991796837668,0.254,,,,19.722286412
1715327991804532454,0.282,,,,19.729981198
1715327991812227240,0.327,,,,19.737675984
1715327991819922026,0.373,,,,19.74537077
1715327991827616812,0.411,,,,19.753065556
1715327991835311598,0.451,,,,19.760760342
1715327991843006384,0.487,,,,19.768455128
1715327991850701170,0.508,,,,19.776149914
1715327991858395956,0.518,,,,19.7838447
1715327991866090742,0.51,,,,19.791539486
1715327991873785528,0.47,,,,19.799234272
1715327991881480314,0.384,,,,19.806929058
1715327991889175100,0.27,,,,19.814623844
1715327991896869886,0.152,,,,19.82231863
1715327991904564672,0.045,,,,19.830013416
1715327991912259458,-0.038,,,,19.837708202
1715327991919954244,-0.099,,,,19.845402988
1715327991927649030,-0.14,,,,19.853097774
1715327991935343816,-0.163,,,,19.86079256
1715327991943038602,-0.175,,,,19.868487346
1715327991950733388,-0.178,,,,19.876182132
1715327991958428174,-0.168,,,,19.883876918
1715327991966122960,-0.154,,,,19.891571704
1715327991973817746,-0.147,,,,19.89926649
1715327991981512532,-0.14,,,,19.906961276
1715327991989207318,-0.128,,,,19.914656062
1715327991996902104,-0.121,,,,19.922350848
1715327992004596890,-0.123,,,,19.930045634
1715327992012291676,-0.109,,,,19.93774042
1715327992019986462,-0.083,,,,19.945435206
1715327992027681248,-0.073,,,,19.953129992
1715327992035376034,-0.073,,,,19.960824778
1715327992043070820,-0.059,,,,19.968519564
1715327992050765606,-0.045,,,,19.97621435
1715327992058460392,-0.04,,,,19.983909136
1715327992066155178,-0.033,,,,19.991603922
1715327992073849964,-0.026,,,,19.999298708
1715327992081544750,-0.021,,,,20.006993494
1715327992089239536,-0.016,,,,20.01468828
1715327992096934322,-0.016,,,,20.022383066
1715327992104629108,-0.009,,,,20.030077852
1715327992112323894,0.0,,,,20.037772638
1715327992120018680,0.0,,,,20.045467424
1715327992127713466,-0.007,,,,20.05316221
1715327992135408252,0.002,,,,20.060856996
1715327992143103038,0.019,,,,20.068551782
1715327992150797824,0.023,,,,20.076246568
1715327992158492610,0.019,,,,20.083941354
1715327992166187396,0.019,,,,20.09163614
1715327992173882182,0.035,,,,20.099330926
1715327992181576968,0.045,,,,20.107025712
1715327992189271754,0.035,,,,20.114720498
1715327992196966540,0.033,,,,20.122415284
1715327992204661326,0.038,,,,20.13011007
1715327992212356112,0.038,,,,20.137804856
1715327992220050898,0.038,,,,20.145499642
1715327992227745684,0.035,,,,20.153194428
1715327992235440470,0.03,,,,20.160889214
1715327992243135256,0.028,,,,20.168584
1715327992250830042,0.021,,,,20.176278786
1715327992258524828,0.038,,,,20.183973572
1715327992266219614,0.083,,,,20.191668358
1715327992273914400,0.135,,,,20.199363144
1715327992281609186,0.18,,,,20.20705793
1715327992289303972,0.173,,,,20.214752716
1715327992296998776,0.118,76.0,739.0,,20.22244752
1715327992304693980,0.09,,732.0,,20.230142724
1715327992312389184,0.099,,,,20.237837928
1715327992320084388,0.109,,,,20.245533132
1715327992327779592,0.109,,,,20.253228336
1715327992335474796,0.111,,,,20.26092354
1715327992343170000,0.114,,,,20.268618744
1715327992350865204,0.104,,,,20.276313948
1715327992358560408,0.095,,,,20.284009152
1715327992366255612,0.076,,,,20.291704356
1715327992373950816,0.035,,,,20.29939956
1715327992381646020,0.147,,,,20.307094764
1715327992389341224,0.798,,,,20.314789968
1715327992397036428,1.777,,,,20.322485172
1715327992404731632,1.962,,,,20.330180376
1715327992412426836,0.798,,,,20.33787558
1715327992420122040,-0.292,,,,20.345570784
1715327992427817244,-0.083,,,,20.353265988
1715327992435512448,0.256,,,,20.360961192
1715327992443207652,-0.023,,,,20.368656396
1715327992450902856,-0.109,,,,20.3763516
1715327992458598060,0.045,,,,20.384046804
1715327992466293264,0.011,,,,20.391742008
1715327992473988468,-0.035,,,,20.399437212
1715327992481683672,0.019,,,,20.407132416
1715327992489378876,0.04,,,,20.41482762
1715327992497074080,0.035,,,,20.422522824
1715327992504769284,0.061,,,,20.430218028
1715327992512464488,0.08,,,,20.437913232
1715327992520159692,0.09,,,,20.445608436
1715327992527854896,0.121,,,,20.45330364
1715327992535550100,0.149,,,,20.460998844
1715327992543245304,0.163,,,,20.468694048
1715327992550940508,0.182,,,,20.476389252
1715327992558635712,0.209,,,,20.484084456
1715327992566330916,0.242,,,,20.49177966
1715327992574026120,0.282,,,,20.499474864
1715327992581721324,0.32,,,,20.507170068
1715327992589416528,0.363,,,,20.514865272
1715327992597111732,0.413,,,,20.522560476
1715327992604806936,0.453,,,,20.53025568
1715327992612502140,0.487,,,,20.537950884
1715327992620197344,0.52,,,,20.545646088
1715327992627892548,0.534,,,,20.553341292
1715327992635587752,0.525,,,,20.561036496
1715327992643282956,0.487,,,,20.5687317
1715327992650978160,0.411,,,,20.576426904
1715327992658673364,0.297,,,,20.584122108
1715327992666368568,0.173,,,,20.591817312
1715327992674063772,0.059,,,,20.599512516
1715327992681758976,-0.035,,,,20.60720772
1715327992689454180,-0.106,,,,20.614902924
1715327992697149384,-0.152,,,,20.622598128
1715327992704844588,-0.18,,,,20.630293332
1715327992712539792,-0.192,,,,20.637988536
1715327992720234996,-0.201,,,,20.64568374
1715327992727930200,-0.22,,,,20.653378944
1715327992735625404,-0.244,,,,20.661074148
1715327992743320608,-0.301,,,,20.668769352
1715327992751015812,-0.456,,,,20.676464556
1715327992758711016,-0.641,,,,20.68415976
1715327992766406220,-0.731,,,,20.691854964
1715327992774101424,-0.731,,,,20.699550168
1715327992781796628,-0.724,,,,20.707245372
1715327992789491832,-0.7030000000000001,,,,20.714940576
1715327992797187036,-0.643,,,,20.72263578
1715327992804882240,-0.577,,,,20.730330984
1715327992812577444,-0.487,,,,20.738026188
1715327992820272648,-0.406,,,,20.745721392
1715327992827967852,-0.456,,,,20.753416596
1715327992835663056,-0.56,,,,20.7611118
1715327992843358260,-0.56,,,,20.768807004
1715327992851053464,-0.56,,,,20.776502208
1715327992858748688,-0.61,,,,20.784197432
1715327992866444310,-0.556,,,,20.791893054
1715327992874139932,-0.396,,,,20.799588676
1715327992881835554,-0.259,,,,20.807284298
1715327992889531176,-0.197,,,,20.81497992
1715327992897226798,-0.187,,,,20.822675542
1715327992904922420,-0.123,,,,20.830371164
1715327992912618042,0.066,,,,20.838066786
1715327992920313664,0.27,,,,20.845762408
1715327992928009286,0.422,,,,20.85345803
1715327992935704908,0.624,,,,20.861153652
1715327992943400530,0.883,,,,20.868849274
1715327992951096152,1.195,,,,20.876544896
1715327992958791774,1.611,,,,20.884240518
1715327992966487396,1.91,,,,20.89193614
1715327992974183018,1.939,,,,20.899631762
1715327992981878640,1.825,,,,20.907327384
1715327992989574262,1.594,,,,20.915023006
1715327992997269884,1.283,,,,20.922718628
1715327993004965506,0.995,,,,20.93041425
1715327993012661128,0.72,,,,20.938109872
1715327993020356750,0.458,,,,20.945805494
1715327993028052372,0.249,,,,20.953501116
1715327993035747994,0.099,,,,20.961196738
1715327993043443616,0.023,,,,20.96889236
1715327993051139238,0.085,,,,20.976587982
1715327993058834860,0.294,,,,20.984283604
1715327993066530482,0.503,,,,20.991979226
1715327993074226104,0.5650000000000001,,,,20.999674848
1715327993081921726,0.432,,,,21.00737047
1715327993089617348,0.116,,,,21.015066092
1715327993097312970,-0.384,,,,21.022761714
1715327993105008592,-0.948,,,,21.030457336
1715327993112704214,-1.354,,,,21.038152958
1715327993120399836,-1.402,,,,21.04584858
1715327993128095458,-1.085,,,,21.053544202
1715327993135791080,-0.855,,,,21.061239824
1715327993143486702,-0.8310000000000001,,,,21.068935446
1715327993151182324,-0.655,,,,21.076631068
1715327993158877946,-0.387,,,,21.08432669
1715327993166573568,-0.361,,,,21.092022312
1715327993174269190,-0.544,,,,21.099717934
1715327993181964812,-0.636,,,,21.107413556
1715327993189660434,-0.19,,,,21.115109178
1715327993197356056,0.957,,,,21.1228048
1715327993205051678,1.784,,,,21.130500422
1715327993212747300,1.147,,,,21.138196044
1715327993220442922,-0.185,,,,21.145891666
1715327993228138544,-0.62,,,,21.153587288
1715327993235834166,-0.477,,,,21.16128291
1715327993243529788,-0.857,,,,21.168978532
1715327993251225410,-1.475,,,,21.176674154
1715327993258921032,-1.927,,,,21.184369776
1715327993266616654,-2.186,,,,21.192065398
1715327993274312276,-1.92,,,,21.19976102
1715327993282007898,-1.197,,,,21.207456642
1715327993289703520,-0.603,,,,21.215152264
1715327993297399142,-0.32,,,,21.222847886
1715327993305094764,-0.171,,,,21.230543508
1715327993312790386,-0.173,,,,21.23823913
1715327993320486008,-0.313,,,,21.245934752
1715327993328181630,-0.47,,,,21.253630374
1715327993335877252,-0.641,,,,21.261325996
1715327993343572874,-0.774,,,,21.269021618
1715327993351268496,-0.736,,,,21.27671724
1715327993358964118,-0.5750000000000001,,,,21.284412862
1715327993366659740,-0.427,,,,21.292108484
1715327993374355362,-0.278,,,,21.299804106
1715327993382050984,-0.106,,,,21.307499728
1715327993389746606,0.064,,,,21.31519535
1715327993397442228,0.232,,,,21.322890972
1715327993405137850,0.306,,,,21.330586594
1715327993412833472,0.259,,,,21.338282216
1715327993420529118,0.197,77.0,726.0,,21.345977862
1715327993428224461,0.152,,,,21.353673205
1715327993435919804,0.118,,,,21.361368548
1715327993443615147,0.078,,,,21.369063891
1715327993451310490,-0.028,,,,21.376759234
1715327993459005833,-0.218,,,,21.384454577
1715327993466701176,-0.43,,,,21.39214992
1715327993474396519,-0.558,,,,21.399845263
1715327993482091862,-0.613,,,,21.407540606
1715327993489787205,-0.6980000000000001,,,,21.415235949
1715327993497482548,-0.843,,,,21.422931292
1715327993505177891,-0.969,,,,21.430626635
1715327993512873234,-1.043,,,,21.438321978
1715327993520568577,-1.131,,,,21.446017321
1715327993528263920,-1.276,,,,21.453712664
1715327993535959263,-1.425,,,,21.461408007
1715327993543654606,-1.561,,,,21.46910335
1715327993551349949,-1.737,,,,21.476798693
1715327993559045292,-1.972,,,,21.484494036
1715327993566740635,-2.231,,,,21.492189379
1715327993574435978,-2.442,,,,21.499884722
1715327993582131321,-2.571,,,,21.507580065
1715327993589826664,-2.642,,,,21.515275408
1715327993597522007,-2.642,,,,21.522970751
1715327993605217350,-2.5420000000000003,,,,21.530666094
1715327993612912693,-2.402,,,,21.538361437
1715327993620608036,-2.29,,,,21.54605678
1715327993628303379,-2.186,,,,21.553752123
1715327993635998722,-2.067,,,,21.561447466
1715327993643694065,-1.993,,,,21.569142809
1715327993651389408,-1.974,,,,21.576838152
1715327993659084751,-1.936,,,,21.584533495
1715327993666780094,-1.948,,,,21.592228838
1715327993674475437,-2.1,,,,21.599924181
1715327993682170780,-2.295,,,,21.607619524
1715327993689866123,-2.464,,,,21.615314867
1715327993697561466,-2.699,,,,21.62301021
1715327993705256809,-2.922,,,,21.630705553
1715327993712952152,-2.92,,,,21.638400896
1715327993720647495,-2.6870000000000003,,,,21.646096239
1715327993728342838,-2.331,,,,21.653791582
1715327993736038181,-1.948,,,,21.661486925
1715327993743733524,-1.668,,,,21.669182268
1715327993751428867,-1.459,,,,21.676877611
1715327993759124210,-1.24,,,,21.684572954
1715327993766819553,-1.081,,,,21.692268297
1715327993774514896,-0.943,,,,21.69996364
1715327993782210239,-0.724,,,,21.707658983
1715327993789905582,-0.5670000000000001,,,,21.715354326
1715327993797600925,-0.508,,,,21.723049669
1715327993805296268,-0.434,,,,21.730745012
1715327993812991611,-0.361,,,,21.738440355
1715327993820686954,-0.304,,,,21.746135698
1715327993828382297,-0.251,,,,21.753831041
1715327993836077640,-0.187,,,,21.761526384
1715327993843772983,-0.106,,,,21.769221727
1715327993851468326,-0.03,,,,21.77691707
1715327993859163669,0.057,,,,21.784612413
1715327993866859012,0.209,,,,21.792307756
1715327993874554355,0.408,,,,21.800003099
1715327993882249698,0.601,,,,21.807698442
1715327993889945041,0.731,,,,21.815393785
1715327993897640384,0.803,,,,21.823089128
1715327993905335727,0.907,,,,21.830784471
1715327993913031070,1.033,,,,21.838479814
1715327993920726413,1.15,,,,21.846175157
1715327993928421756,1.285,,,,21.8538705
1715327993936117099,1.411,,,,21.861565843
1715327993943812442,1.504,,,,21.869261186
1715327993951507785,1.57,,,,21.876956529
1715327993959203128,1.627,,,,21.884651872
1715327993966898471,1.682,,,,21.892347215
1715327993974593814,1.67,,,,21.900042558
1715327993982289204,1.775,,,,21.907737948
1715327993989984686,2.449,,,,21.91543343
1715327993997680168,3.319,,,,21.923128912
1715327994005375650,3.208,,,,21.930824394
1715327994013071132,2.0340000000000003,,,,21.938519876
1715327994020766614,1.335,,,,21.946215358
1715327994028462096,1.706,,,,21.95391084
1715327994036157578,1.882,,,,21.961606322
1715327994043853060,1.558,,,,21.969301804
1715327994051548542,1.473,,,,21.976997286
1715327994059244024,1.508,,,,21.984692768
1715327994066939506,1.404,,,,21.99238825
1715327994074634988,1.371,,,,22.000083732
1715327994082330470,1.404,,,,22.007779214
1715327994090025952,1.344,,,,22.015474696
1715327994097721434,1.292,,,,22.023170178
1715327994105416916,1.297,,,,22.03086566
1715327994113112398,1.249,,,,22.038561142
1715327994120807880,1.183,,,,22.046256624
1715327994128503362,1.178,,,,22.053952106
1715327994136198844,1.2,,,,22.061647588
1715327994143894326,1.219,,,,22.06934307
1715327994151589808,1.252,,,,22.077038552
1715327994159285290,1.299,,,,22.084734034
1715327994166980772,1.359,,,,22.092429516
1715327994174676254,1.432,,,,22.100124998
1715327994182371736,1.442,,,,22.10782048
1715327994190067218,1.38,,,,22.115515962
1715327994197762700,1.397,,,,22.123211444
