HRV_ULF,HRV_VLF,HRV_LF,HRV_HF,HRV_VHF,HRV_TP,HRV_LFHF,HRV_LFn,HRV_HFn,HRV_LnHF,time
,,0.006856329074155053,0.002555868625162601,0.00016141517351723862,0.009573612872834893,2.6825827457069953,0.7161694508882716,0.26697012497913647,-5.969363142393983,0.0
,,0.006856329074155053,0.002555868625162601,0.00016141517351723862,0.009573612872834893,2.6825827457069953,0.7161694508882716,0.26697012497913647,-5.969363142393983,0.1
,,0.006856329074155053,0.002555868625162601,0.00016141517351723862,0.009573612872834893,2.6825827457069953,0.7161694508882716,0.26697012497913647,-5.969363142393983,0.2
,,0.006856329074155053,0.002555868625162601,0.00016141517351723862,0.009573612872834893,2.6825827457069953,0.7161694508882716,0.26697012497913647,-5.969363142393983,0.3
,,0.0070000472259336725,0.002656924279485193,0.00010773767229911421,0.009764709177717979,2.672994816999597,0.71687206434238,0.27209456330230597,-5.930586111110666,0.4
,,0.0070000472259336725,0.002656924279485193,0.00010773767229911421,0.009764709177717979,2.666602864527998,0.71687206434238,0.27209456330230597,-5.930586111110666,0.5
,,0.0070000472259336725,0.002656924279485193,0.00010773767229911421,0.009764709177717979,2.662037184191142,0.71687206434238,0.27209456330230597,-5.930586111110666,0.6
,,0.004130835265716931,0.0025032743092037817,0.00015197934232542373,0.006786088917246137,2.535554140647884,0.6087210639428617,0.368883216788093,-5.990155680366375,0.7
,,0.004130835265716931,0.0025032743092037817,0.00015197934232542373,0.006786088917246137,2.437178440114239,0.6087210639428617,0.368883216788093,-5.990155680366375,0.8
,,0.004130835265716931,0.0025032743092037817,0.00015197934232542373,0.006786088917246137,2.3584778796873227,0.6087210639428617,0.368883216788093,-5.990155680366375,0.9
,,0.004130835265716931,0.0025032743092037817,0.00015197934232542373,0.006786088917246137,2.2940865120653005,0.6087210639428617,0.368883216788093,-5.990155680366375,1.0
,,0.004130835265716931,0.0025032743092037817,0.00015197934232542373,0.006786088917246137,2.2404270390469487,0.6087210639428617,0.368883216788093,-5.990155680366375,1.1
,,0.004130835265716931,0.0025032743092037817,0.00015197934232542373,0.006786088917246137,2.1950228695698817,0.6087210639428617,0.368883216788093,-5.990155680366375,1.2
,,0.004130835265716931,0.0025032743092037817,0.00015197934232542373,0.006786088917246137,2.1561050100181096,0.6087210639428617,0.368883216788093,-5.990155680366375,1.3
,,0.007110551688871455,0.0026340152505620385,0.0001006267743823557,0.00984519371381585,2.192332039211534,0.7222358336020502,0.2675432629492806,-5.93924588579093,1.4
,,0.007110551688871455,0.0026340152505620385,0.0001006267743823557,0.00984519371381585,2.2240306897557804,0.7222358336020502,0.2675432629492806,-5.93924588579093,1.5
,,0.008003001838128104,0.0035925798082764803,0.00017657572929752674,0.011772157375702112,2.2242434500073465,0.679824571037965,0.30517599226897973,-5.628884725010394,1.6
,,0.008003001838128104,0.0035925798082764803,0.00017657572929752674,0.011772157375702112,2.2244325702309613,0.679824571037965,0.30517599226897973,-5.628884725010394,1.7
,,0.008003001838128104,0.0035925798082764803,0.00017657572929752674,0.011772157375702112,2.224601783062616,0.679824571037965,0.30517599226897973,-5.628884725010394,1.8
,,0.008003001838128104,0.0035925798082764803,0.00017657572929752674,0.011772157375702112,2.2247540746111056,0.679824571037965,0.30517599226897973,-5.628884725010394,1.9
,,0.008003001838128104,0.0035925798082764803,0.00017657572929752674,0.011772157375702112,2.224891862202596,0.679824571037965,0.30517599226897973,-5.628884725010394,2.0
,,0.008003001838128104,0.0035925798082764803,0.00017657572929752674,0.011772157375702112,2.2250171236494056,0.679824571037965,0.30517599226897973,-5.628884725010394,2.1
,,0.008003001838128104,0.0035925798082764803,0.00017657572929752674,0.011772157375702112,2.225131492796493,0.679824571037965,0.30517599226897973,-5.628884725010394,2.2
,,0.008145029163449419,0.004087622258227518,0.00013720123761165007,0.012369852659288588,2.2154430175050663,0.658458058296537,0.3304503595002889,-5.4997918329363396,2.3
,,0.008145029163449419,0.004087622258227518,0.00013720123761165007,0.012369852659288588,2.206529620236954,0.658458058296537,0.3304503595002889,-5.4997918329363396,2.4
,,0.008145029163449419,0.004087622258227518,0.00013720123761165007,0.012369852659288588,2.198301868912542,0.658458058296537,0.3304503595002889,-5.4997918329363396,2.5
,,0.006981333306479309,0.0025400485763974147,0.00013801381896629334,0.009659395701843017,2.218679720283581,0.7227505241500012,0.2629614372162818,-5.975572073568653,2.6
,,0.006981333306479309,0.0025400485763974147,0.00013801381896629334,0.009659395701843017,2.237602010842403,0.7227505241500012,0.2629614372162818,-5.975572073568653,2.7
,,0.006981333306479309,0.0025400485763974147,0.00013801381896629334,0.009659395701843017,2.255219315845444,0.7227505241500012,0.2629614372162818,-5.975572073568653,2.8
,,0.006981333306479309,0.0025400485763974147,0.00013801381896629334,0.009659395701843017,2.2716621338482823,0.7227505241500012,0.2629614372162818,-5.975572073568653,2.9
,,0.006981333306479309,0.0025400485763974147,0.00013801381896629334,0.009659395701843017,2.2870441248831956,0.7227505241500012,0.2629614372162818,-5.975572073568653,3.0
,,0.006981333306479309,0.0025400485763974147,0.00013801381896629334,0.009659395701843017,2.301464741478427,0.7227505241500012,0.2629614372162818,-5.975572073568653,3.1
,,0.0066474280518724164,0.0027056252941920385,9.048601440269884e-05,0.009443539360467153,2.306174646212945,0.7039127808054777,0.28650542883512653,-5.912422231034549,3.2
,,0.0066474280518724164,0.0027056252941920385,9.048601440269884e-05,0.009443539360467153,2.3106074977277853,0.7039127808054777,0.28650542883512653,-5.912422231034549,3.3
,,0.0066474280518724164,0.0027056252941920385,9.048601440269884e-05,0.009443539360467153,2.3147870434417777,0.7039127808054777,0.28650542883512653,-5.912422231034549,3.4
,,0.006575730028083628,0.0025923395144962936,0.0001326770967197648,0.009300746639299688,2.320948531769106,0.707010983429902,0.27872380734924385,-5.955194523538987,3.5
,,0.006575730028083628,0.0025923395144962936,0.0001326770967197648,0.009300746639299688,2.3267769666733353,0.707010983429902,0.27872380734924385,-5.955194523538987,3.6
,,0.006575730028083628,0.0025923395144962936,0.0001326770967197648,0.009300746639299688,2.332298641845763,0.707010983429902,0.27872380734924385,-5.955194523538987,3.7
,,0.006575730028083628,0.0025923395144962936,0.0001326770967197648,0.009300746639299688,2.3375371541888357,0.707010983429902,0.27872380734924385,-5.955194523538987,3.8
,,0.006575730028083628,0.0025923395144962936,0.0001326770967197648,0.009300746639299688,2.3425137409147547,0.707010983429902,0.27872380734924385,-5.955194523538987,3.9
,,0.006575730028083628,0.0025923395144962936,0.0001326770967197648,0.009300746639299688,2.34724756731258,0.707010983429902,0.27872380734924385,-5.955194523538987,4.0
,,0.006185506116553,0.002772444476444615,8.801396652373968e-05,0.009045964559521355,2.3444813352964835,0.6837862425674031,0.30648411876945403,-5.888025865470632,4.1
,,0.006185506116553,0.002772444476444615,8.801396652373968e-05,0.009045964559521355,2.341843765234624,0.6837862425674031,0.30648411876945403,-5.888025865470632,4.2
,,0.006185506116553,0.002772444476444615,8.801396652373968e-05,0.009045964559521355,2.339326084721031,0.6837862425674031,0.30648411876945403,-5.888025865470632,4.3
,,0.006185506116553,0.002772444476444615,8.801396652373968e-05,0.009045964559521355,2.336920301119153,0.6837862425674031,0.30648411876945403,-5.888025865470632,4.4
,,0.0073626561968702705,0.004365731246495492,0.0001991420310541847,0.011927529474419947,2.322779984670723,0.6172825825046496,0.36602141758344336,-5.433969578750982,4.5
,,0.0073626561968702705,0.004365731246495492,0.0001991420310541847,0.011927529474419947,2.309241383815843,0.6172825825046496,0.36602141758344336,-5.433969578750982,4.6
,,0.0073626561968702705,0.004365731246495492,0.0001991420310541847,0.011927529474419947,2.2962668913299167,0.6172825825046496,0.36602141758344336,-5.433969578750982,4.7
,,0.0073626561968702705,0.004365731246495492,0.0001991420310541847,0.011927529474419947,2.2838219699658646,0.6172825825046496,0.36602141758344336,-5.433969578750982,4.8
,,0.005701695172655457,0.0028263215519138607,8.445434270198941e-05,0.008612471067271307,2.2784926394706604,0.6620277883223041,0.32816615926343257,-5.868779217783633,4.9
,,0.0073626561968702705,0.004365731246495492,0.0001991420310541847,0.011927529474419947,2.26688426898087,0.6172825825046496,0.36602141758344336,-5.433969578750982,5.0
,,0.005646410284593811,0.002831931038783019,8.607272446839266e-05,0.008564414047845224,2.261633369455528,0.6592874016891358,0.3306625558926034,-5.866796454159358,5.1
,,0.005646410284593811,0.002831931038783019,8.607272446839266e-05,0.008564414047845224,2.2565806170820855,0.6592874016891358,0.3306625558926034,-5.866796454159358,5.2
,,0.005646410284593811,0.002831931038783019,8.607272446839266e-05,0.008564414047845224,2.251715003685437,0.6592874016891358,0.3306625558926034,-5.866796454159358,5.3
,,0.0054724618945211035,0.00269254932963876,0.0001247550372990403,0.008289766261458904,2.2477282997925143,0.6601467064233019,0.32480401071825904,-5.917266827972958,5.4
,,0.0054724618945211035,0.00269254932963876,0.0001247550372990403,0.008289766261458904,2.243883978181482,0.6601467064233019,0.32480401071825904,-5.917266827972958,5.5
,,0.0054724618945211035,0.00269254932963876,0.0001247550372990403,0.008289766261458904,2.2401745450480295,0.6601467064233019,0.32480401071825904,-5.917266827972958,5.6
,,0.0054724618945211035,0.00269254932963876,0.0001247550372990403,0.008289766261458904,2.2365930234019373,0.6601467064233019,0.32480401071825904,-5.917266827972958,5.7
,,0.00518189671744114,0.0028716323308807506,8.09460362354683e-05,0.00813447508455736,2.2292696263585277,0.6370290232099365,0.35301999219744506,-5.8528746544867865,5.8
,,0.0054724618945211035,0.00269254932963876,0.0001247550372990403,0.008289766261458904,2.2259892374121297,0.6601467064233019,0.32480401071825904,-5.917266827972958,5.9
,,0.005132162081431541,0.0028765697009060444,8.240078760169728e-05,0.008091132569939282,2.2187455737203945,0.6342946475131175,0.3555212667746007,-5.851156770803429,6.0
,,0.005132162081431541,0.0028765697009060444,8.240078760169728e-05,0.008091132569939282,2.2117355765993607,0.6342946475131175,0.3555212667746007,-5.851156770803429,6.1
,,0.005132162081431541,0.0028765697009060444,8.240078760169728e-05,0.008091132569939282,2.20494811906947,0.6342946475131175,0.3555212667746007,-5.851156770803429,6.2
,,0.005132162081431541,0.0028765697009060444,8.240078760169728e-05,0.008091132569939282,2.198372769587389,0.6342946475131175,0.3555212667746007,-5.851156770803429,6.3
,,0.006052106715758168,0.004325742402667581,0.0001945820729709726,0.010572431191396723,2.186076125028905,0.5724422894029376,0.4091530438323059,-5.443171499533149,6.4
,,0.006052106715758168,0.004325742402667581,0.0001945820729709726,0.010572431191396723,2.174152106063102,0.5724422894029376,0.4091530438323059,-5.443171499533149,6.5
,,0.006052106715758168,0.004325742402667581,0.0001945820729709726,0.010572431191396723,2.162584027961951,0.5724422894029376,0.4091530438323059,-5.443171499533149,6.6
,,0.006052106715758168,0.004325742402667581,0.0001945820729709726,0.010572431191396723,2.1513561874520093,0.5724422894029376,0.4091530438323059,-5.443171499533149,6.7
,,0.006052106715758168,0.004325742402667581,0.0001945820729709726,0.010572431191396723,2.14045379159453,0.5724422894029376,0.4091530438323059,-5.443171499533149,6.8
,,0.003897069566493089,0.004512597878861201,0.00012718039751429122,0.008536847842868582,2.1222129916070482,0.4564998273629276,0.5286023555674458,-5.400882264952015,6.9
,,0.003897069566493089,0.004512597878861201,0.00012718039751429122,0.008536847842868582,2.104486016971327,0.4564998273629276,0.5286023555674458,-5.400882264952015,7.0
,,0.003897069566493089,0.004512597878861201,0.00012718039751429122,0.008536847842868582,2.0872514582977093,0.4564998273629276,0.5286023555674458,-5.400882264952015,7.1
,,0.003897069566493089,0.004512597878861201,0.00012718039751429122,0.008536847842868582,2.070489079313779,0.4564998273629276,0.5286023555674458,-5.400882264952015,7.2
,,0.004512421256525406,0.0027242760707411806,0.00011674016409151706,0.0073534374913581035,2.0648929355662835,0.6136478703774237,0.3704765388898458,-5.905552548274688,7.3
,,0.004512421256525406,0.0027242760707411806,0.00011674016409151706,0.0073534374913581035,2.059446022318721,0.6136478703774237,0.3704765388898458,-5.905552548274688,7.4
,,0.004512421256525406,0.0027242760707411806,0.00011674016409151706,0.0073534374913581035,2.0541424488934625,0.6136478703774237,0.3704765388898458,-5.905552548274688,7.5
,,0.004512421256525406,0.0027242760707411806,0.00011674016409151706,0.0073534374913581035,2.048976630622107,0.6136478703774237,0.3704765388898458,-5.905552548274688,7.6
,,0.004512421256525406,0.0027242760707411806,0.00011674016409151706,0.0073534374913581035,2.0439432692295045,0.6136478703774237,0.3704765388898458,-5.905552548274688,7.7
,,0.004359268661633323,0.0029073038601301754,7.754187886125514e-05,0.0073441144006247535,2.037050565733883,0.5935730877588844,0.39586854201002847,-5.840529135819406,7.8
,,0.004359268661633323,0.0029073038601301754,7.754187886125514e-05,0.0073441144006247535,2.030330179825652,0.5935730877588844,0.39586854201002847,-5.840529135819406,7.9
,,0.004359268661633323,0.0029073038601301754,7.754187886125514e-05,0.0073441144006247535,2.023775729371945,0.5935730877588844,0.39586854201002847,-5.840529135819406,8.0
,,0.004359268661633323,0.0029073038601301754,7.754187886125514e-05,0.0073441144006247535,2.0173811435634508,0.5935730877588844,0.39586854201002847,-5.840529135819406,8.1
,,0.004238632671718048,0.00272410340889691,0.00011128786067140874,0.007074023941286367,2.0118220151340926,0.5991826868128014,0.3850854098751536,-5.905615929265301,8.2
,,0.004238632671718048,0.00272410340889691,0.00011128786067140874,0.007074023941286367,2.006395246905434,0.5991826868128014,0.3850854098751536,-5.905615929265301,8.3
,,0.004238632671718048,0.00272410340889691,0.00011128786067140874,0.007074023941286367,2.001096167340979,0.5991826868128014,0.3850854098751536,-5.905615929265301,8.4
,,0.004844748626340795,0.004083685067797976,0.0001119208458098979,0.009040354539948668,1.991622570730404,0.5359025030414685,0.4517173579589682,-5.5007554953167,8.5
,,0.004238632671718048,0.00272410340889691,0.00011128786067140874,0.007074023941286367,1.986615109962546,0.5991826868128014,0.3850854098751536,-5.905615929265301,8.6
,,0.00484342623466746,0.004090770402408921,0.00011468480316813343,0.009048881440244513,1.9774943561481337,0.5352513751729058,0.45207470441765263,-5.499021964218236,8.7
,,0.00484342623466746,0.004090770402408921,0.00011468480316813343,0.009048881440244513,1.9685785630935961,0.5352513751729058,0.45207470441765263,-5.499021964218236,8.8
,,0.00484342623466746,0.004090770402408921,0.00011468480316813343,0.009048881440244513,1.9598608987736037,0.5352513751729058,0.45207470441765263,-5.499021964218236,8.9
,,0.00484342623466746,0.004090770402408921,0.00011468480316813343,0.009048881440244513,1.9432098546467955,0.5352513751729058,0.45207470441765263,-5.499021964218236,9.0
,,0.0041765463850818195,0.0027353680530351047,0.00010738044575505264,0.007019294883871977,1.9303685814682983,0.5950093925642225,0.38969271106134573,-5.901489280668484,9.1
,,0.0041765463850818195,0.0027353680530351047,0.00010738044575505264,0.007019294883871977,1.9175273082898006,0.5950093925642225,0.38969271106134573,-5.901489280668484,9.2
,,0.0041765463850818195,0.0027353680530351047,0.00010738044575505264,0.007019294883871977,1.904686035111303,0.5950093925642225,0.38969271106134573,-5.901489280668484,9.3
,,0.0041765463850818195,0.0027353680530351047,0.00010738044575505264,0.007019294883871977,1.8923774246387723,0.5950093925642225,0.38969271106134573,-5.901489280668484,9.4
,,0.004281613324669865,0.0029316081064498928,7.178397011413701e-05,0.007285005401233895,1.8793313889770897,0.587729601949872,0.40241673752957724,-5.832204164719959,9.5
,,0.004281613324669865,0.0029316081064498928,7.178397011413701e-05,0.007285005401233895,1.8662853533154073,0.587729601949872,0.40241673752957724,-5.832204164719959,9.6
,,0.004281613324669865,0.0029316081064498928,7.178397011413701e-05,0.007285005401233895,1.8641778761684464,0.587729601949872,0.40241673752957724,-5.832204164719959,9.7
,,0.004281613324669865,0.0029316081064498928,7.178397011413701e-05,0.007285005401233895,1.8620703990214855,0.587729601949872,0.40241673752957724,-5.832204164719959,9.8
,,0.004281613324669865,0.0029316081064498928,7.178397011413701e-05,0.007285005401233895,1.8599629218745244,0.587729601949872,0.40241673752957724,-5.832204164719959,9.9
,,0.004281613324669865,0.0029316081064498928,7.178397011413701e-05,0.007285005401233895,1.8578554447275637,0.587729601949872,0.40241673752957724,-5.832204164719959,10.0
,,0.004392882641956503,0.0027698973191295382,0.00010406531044653015,0.007266845271532571,1.857141713207536,0.6045102761669299,0.3811691615315444,-5.888945028376263,10.1
,,0.004392882641956503,0.0027698973191295382,0.00010406531044653015,0.007266845271532571,1.856427981687509,0.6045102761669299,0.3811691615315444,-5.888945028376263,10.2
,,0.004392882641956503,0.0027698973191295382,0.00010406531044653015,0.007266845271532571,1.855714250167482,0.6045102761669299,0.3811691615315444,-5.888945028376263,10.3
,,0.004655339965378142,0.002979344809885336,6.92031325264045e-05,0.007703887907789882,1.8430812247764903,0.6042844887022353,0.38673262715475576,-5.816051865092702,10.4
,,0.004655339965378142,0.002979344809885336,6.92031325264045e-05,0.007703887907789882,1.830448199385499,0.6042844887022353,0.38673262715475576,-5.816051865092702,10.5
,,0.004655339965378142,0.002979344809885336,6.92031325264045e-05,0.007703887907789882,1.8230580943710306,0.6042844887022353,0.38673262715475576,-5.816051865092702,10.6
,,0.004655339965378142,0.002979344809885336,6.92031325264045e-05,0.007703887907789882,1.8156679893565622,0.6042844887022353,0.38673262715475576,-5.816051865092702,10.7
,,0.004655339965378142,0.002979344809885336,6.92031325264045e-05,0.007703887907789882,1.8082778843420937,0.6042844887022353,0.38673262715475576,-5.816051865092702,10.8
,,0.004655339965378142,0.002979344809885336,6.92031325264045e-05,0.007703887907789882,1.8008877793276254,0.6042844887022353,0.38673262715475576,-5.816051865092702,10.9
,,0.0049626621754432524,0.0028465320587553453,0.00010272218216759374,0.007911916416366191,1.7955073212627939,0.6272389537859298,0.35977782233229266,-5.861653847119311,11.0
,,0.0049626621754432524,0.0028465320587553453,0.00010272218216759374,0.007911916416366191,1.7901268631979623,0.6272389537859298,0.35977782233229266,-5.861653847119311,11.1
,,0.0049626621754432524,0.0028465320587553453,0.00010272218216759374,0.007911916416366191,1.7847464051331308,0.6272389537859298,0.35977782233229266,-5.861653847119311,11.2
,,0.005396051495990328,0.0030657285899460393,6.020836793955961e-05,0.008521988453875928,1.782163208856038,0.6331915990259436,0.3597433400125883,-5.787470024973357,11.3
,,0.005396051495990328,0.0030657285899460393,6.020836793955961e-05,0.008521988453875928,1.7795800125789454,0.6331915990259436,0.3597433400125883,-5.787470024973357,11.4
,,0.005396051495990328,0.0030657285899460393,6.020836793955961e-05,0.008521988453875928,1.7769968163018528,0.6331915990259436,0.3597433400125883,-5.787470024973357,11.5
,,0.005396051495990328,0.0030657285899460393,6.020836793955961e-05,0.008521988453875928,1.7660147781344449,0.6331915990259436,0.3597433400125883,-5.787470024973357,11.6
,,0.005396051495990328,0.0030657285899460393,6.020836793955961e-05,0.008521988453875928,1.7550327399670373,0.6331915990259436,0.3597433400125883,-5.787470024973357,11.7
,,0.005396051495990328,0.0030657285899460393,6.020836793955961e-05,0.008521988453875928,1.7440507017996298,0.6331915990259436,0.3597433400125883,-5.787470024973357,11.8
,,0.005396051495990328,0.0030657285899460393,6.020836793955961e-05,0.008521988453875928,1.7330686636322221,0.6331915990259436,0.3597433400125883,-5.787470024973357,11.9
,,0.0059609557011931534,0.00296536208960582,0.00010489799838484797,0.009031215789183823,1.7248652306087475,0.6600391176935727,0.3283458350266934,-5.820756132705063,12.0
,,0.0059609557011931534,0.00296536208960582,0.00010489799838484797,0.009031215789183823,1.7166617975852732,0.6600391176935727,0.3283458350266934,-5.820756132705063,12.1
,,0.006528391735270191,0.0031963591429933313,5.9658563888426516e-05,0.009784409442151948,1.7120568492425743,0.6672238906055387,0.3266788007892621,-5.7457428847402126,12.2
,,0.006528391735270191,0.0031963591429933313,5.9658563888426516e-05,0.009784409442151948,1.7074519008998759,0.6672238906055387,0.3266788007892621,-5.7457428847402126,12.3
,,0.006528391735270191,0.0031963591429933313,5.9658563888426516e-05,0.009784409442151948,1.7028469525571772,0.6672238906055387,0.3266788007892621,-5.7457428847402126,12.4
,,0.006528391735270191,0.0031963591429933313,5.9658563888426516e-05,0.009784409442151948,1.6973563483755003,0.6672238906055387,0.3266788007892621,-5.7457428847402126,12.5
,,0.006528391735270191,0.0031963591429933313,5.9658563888426516e-05,0.009784409442151948,1.691865744193823,0.6672238906055387,0.3266788007892621,-5.7457428847402126,12.6
,,0.006528391735270191,0.0031963591429933313,5.9658563888426516e-05,0.009784409442151948,1.6863751400121458,0.6672238906055387,0.3266788007892621,-5.7457428847402126,12.7
,,0.006528391735270191,0.0031963591429933313,5.9658563888426516e-05,0.009784409442151948,1.6808845358304685,0.6672238906055387,0.3266788007892621,-5.7457428847402126,12.8
,,0.007051175112449256,0.0032933362569672756,8.481673883138005e-05,0.010429328108247912,1.6764894530605625,0.6760910232436658,0.3157764548957645,-5.715854168147764,12.9
,,0.008248253019155022,0.0033608912486979207,7.237954116645657e-05,0.0116815238090194,1.6755737375672959,0.7060939269572416,0.28771000287676074,-5.695549087591606,13.0
,,0.008248253019155022,0.0033608912486979207,7.237954116645657e-05,0.0116815238090194,1.678052853191685,0.7060939269572416,0.28771000287676074,-5.695549087591606,13.1
,,0.008248253019155022,0.0033608912486979207,7.237954116645657e-05,0.0116815238090194,1.6805319688160745,0.7060939269572416,0.28771000287676074,-5.695549087591606,13.2
,,0.008248253019155022,0.0033608912486979207,7.237954116645657e-05,0.0116815238090194,1.6830110844404642,0.7060939269572416,0.28771000287676074,-5.695549087591606,13.3
,,0.008248253019155022,0.0033608912486979207,7.237954116645657e-05,0.0116815238090194,1.6854902000648537,0.7060939269572416,0.28771000287676074,-5.695549087591606,13.4
,,0.008248253019155022,0.0033608912486979207,7.237954116645657e-05,0.0116815238090194,1.694020427668634,0.7060939269572416,0.28771000287676074,-5.695549087591606,13.5
,,0.008248253019155022,0.0033608912486979207,7.237954116645657e-05,0.0116815238090194,1.7025506552724141,0.7060939269572416,0.28771000287676074,-5.695549087591606,13.6
,,0.008248253019155022,0.0033608912486979207,7.237954116645657e-05,0.0116815238090194,1.7110808828761936,0.7060939269572416,0.28771000287676074,-5.695549087591606,13.7
,,0.008248253019155022,0.0033608912486979207,7.237954116645657e-05,0.0116815238090194,1.719611110479974,0.7060939269572416,0.28771000287676074,-5.695549087591606,13.8
,,0.008542973403593697,0.003304739157955,0.00010365841449501133,0.011951370976043707,1.7259190208899642,0.7148111644026383,0.27651548634707146,-5.712397732256043,13.9
,,0.009782991475960555,0.0034520631360485977,7.021352579413257e-05,0.013305268137803285,1.7386689011566618,0.7352720271878518,0.2594508506176214,-5.668783216226994,14.0
,,0.009782991475960555,0.0034520631360485977,7.021352579413257e-05,0.013305268137803285,1.7480035397658964,0.7352720271878518,0.2594508506176214,-5.668783216226994,14.1
,,0.009782991475960555,0.0034520631360485977,7.021352579413257e-05,0.013305268137803285,1.7573381783751312,0.7352720271878518,0.2594508506176214,-5.668783216226994,14.2
,,0.009782991475960555,0.0034520631360485977,7.021352579413257e-05,0.013305268137803285,1.7666728169843657,0.7352720271878518,0.2594508506176214,-5.668783216226994,14.3
,,0.009782991475960555,0.0034520631360485977,7.021352579413257e-05,0.013305268137803285,1.7755784689723602,0.7352720271878518,0.2594508506176214,-5.668783216226994,14.4
,,0.009782991475960555,0.0034520631360485977,7.021352579413257e-05,0.013305268137803285,1.7844841209603548,0.7352720271878518,0.2594508506176214,-5.668783216226994,14.5
,,0.009782991475960555,0.0034520631360485977,7.021352579413257e-05,0.013305268137803285,1.7933897729483492,0.7352720271878518,0.2594508506176214,-5.668783216226994,14.6
,,0.009782991475960555,0.0034520631360485977,7.021352579413257e-05,0.013305268137803285,1.8022954249363434,0.7352720271878518,0.2594508506176214,-5.668783216226994,14.7
,,0.010494594862565602,0.0038175198889747576,0.0001024737675460798,0.014414588519086438,1.8127904066559233,0.7280537247851127,0.2648372434579009,-5.568154310937512,14.8
,,0.010494594862565602,0.0038175198889747576,0.0001024737675460798,0.014414588519086438,1.820752791800682,0.7280537247851127,0.2648372434579009,-5.568154310937512,14.9
,,0.011972387510385811,0.0039567634675384674,0.00018489777653550978,0.01611404875445979,1.8345492077430117,0.742978235502253,0.24554744296919034,-5.532328894069692,15.0
,,0.011972387510385811,0.0039567634675384674,0.00018489777653550978,0.01611404875445979,1.8483456236853413,0.742978235502253,0.24554744296919034,-5.532328894069692,15.1
,,0.011972387510385811,0.0039567634675384674,0.00018489777653550978,0.01611404875445979,1.8621420396276713,0.742978235502253,0.24554744296919034,-5.532328894069692,15.2
,,0.011972387510385811,0.0039567634675384674,0.00018489777653550978,0.01611404875445979,1.8759384555700014,0.742978235502253,0.24554744296919034,-5.532328894069692,15.3
,,0.011972387510385811,0.0039567634675384674,0.00018489777653550978,0.01611404875445979,1.8940130368337795,0.742978235502253,0.24554744296919034,-5.532328894069692,15.4
,,0.011972387510385811,0.0039567634675384674,0.00018489777653550978,0.01611404875445979,1.912087618097558,0.742978235502253,0.24554744296919034,-5.532328894069692,15.5
,,0.011972387510385811,0.0039567634675384674,0.00018489777653550978,0.01611404875445979,1.9301621993613358,0.742978235502253,0.24554744296919034,-5.532328894069692,15.6
,,0.01225098925775764,0.004255330484646482,0.0001177860893774931,0.016624105831781616,1.946605354172551,0.7369412455457578,0.2559734958202221,-5.459582850255784,15.7
,,0.01225098925775764,0.004255330484646482,0.0001177860893774931,0.016624105831781616,1.9630485089837666,0.7369412455457578,0.2559734958202221,-5.459582850255784,15.8
,,0.01225098925775764,0.004255330484646482,0.0001177860893774931,0.016624105831781616,1.9854415869151498,0.7369412455457578,0.2559734958202221,-5.459582850255784,15.9
,,0.013704776472617225,0.004508285831952643,0.00021279232143861483,0.018425854626008483,2.009622817126066,0.743779691676968,0.2446717356376568,-5.401838279323824,16.0
,,0.013704776472617225,0.004508285831952643,0.00021279232143861483,0.018425854626008483,2.0338040473369827,0.743779691676968,0.2446717356376568,-5.401838279323824,16.1
,,0.013704776472617225,0.004508285831952643,0.00021279232143861483,0.018425854626008483,2.0579852775478993,0.743779691676968,0.2446717356376568,-5.401838279323824,16.2
,,0.013704776472617225,0.004508285831952643,0.00021279232143861483,0.018425854626008483,2.0733578783196127,0.743779691676968,0.2446717356376568,-5.401838279323824,16.3
,,0.013704776472617225,0.004508285831952643,0.00021279232143861483,0.018425854626008483,2.088730479091326,0.743779691676968,0.2446717356376568,-5.401838279323824,16.4
,,0.013704776472617225,0.004508285831952643,0.00021279232143861483,0.018425854626008483,2.10410307986304,0.743779691676968,0.2446717356376568,-5.401838279323824,16.5
,,0.01355860159376124,0.004800753932537222,0.00013559040916820807,0.01849494593546667,2.1170796422862876,0.7330976603592393,0.25957112550035083,-5.338982304123792,16.6
,,0.01355860159376124,0.004800753932537222,0.00013559040916820807,0.01849494593546667,2.1300562047095353,0.7330976603592393,0.25957112550035083,-5.338982304123792,16.7
,,0.01355860159376124,0.004800753932537222,0.00013559040916820807,0.01849494593546667,2.1447767087874907,0.7330976603592393,0.25957112550035083,-5.338982304123792,16.8
,,0.01355860159376124,0.004800753932537222,0.00013559040916820807,0.01849494593546667,2.159497212865446,0.7330976603592393,0.25957112550035083,-5.338982304123792,16.9
,,0.008081103642588842,0.005069195988145879,0.00024091096261011932,0.013391210593344841,2.1605498701551866,0.6034632631798791,0.3785465065171304,-5.284573056174283,17.0
,,0.008081103642588842,0.005069195988145879,0.00024091096261011932,0.013391210593344841,2.1616025274449275,0.6034632631798791,0.3785465065171304,-5.284573056174283,17.1
,,0.008081103642588842,0.005069195988145879,0.00024091096261011932,0.013391210593344841,2.1620268092807646,0.6034632631798791,0.3785465065171304,-5.284573056174283,17.2
,,0.008081103642588842,0.005069195988145879,0.00024091096261011932,0.013391210593344841,2.1624510911166013,0.6034632631798791,0.3785465065171304,-5.284573056174283,17.3
,,0.008081103642588842,0.005069195988145879,0.00024091096261011932,0.013391210593344841,2.162875372952438,0.6034632631798791,0.3785465065171304,-5.284573056174283,17.4
,,0.014178704428992078,0.005396048823730145,0.00015352255859752125,0.019728275811319747,2.178889170351916,0.7186996250760332,0.2735185210982292,-5.222088292543732,17.5
,,0.014178704428992078,0.005396048823730145,0.00015352255859752125,0.019728275811319747,2.1907962274725588,0.7186996250760332,0.2735185210982292,-5.222088292543732,17.6
,,0.014178704428992078,0.005396048823730145,0.00015352255859752125,0.019728275811319747,2.2068364480335623,0.7186996250760332,0.2735185210982292,-5.222088292543732,17.7
,,0.014178704428992078,0.005396048823730145,0.00015352255859752125,0.019728275811319747,2.2228766685945653,0.7186996250760332,0.2735185210982292,-5.222088292543732,17.8
,,0.014178704428992078,0.005396048823730145,0.00015352255859752125,0.019728275811319747,2.2389168891555693,0.7186996250760332,0.2735185210982292,-5.222088292543732,17.9
,,0.014178704428992078,0.005396048823730145,0.00015352255859752125,0.019728275811319747,2.254957109716573,0.7186996250760332,0.2735185210982292,-5.222088292543732,18.0
,,0.014544099976998497,0.0055870866001651144,0.00026061602701724757,0.02039180260418086,2.266915946967109,0.7132326778220466,0.27398689113534347,-5.18729730832722,18.1
,,0.014544099976998497,0.0055870866001651144,0.00026061602701724757,0.02039180260418086,2.2788747842176464,0.7132326778220466,0.27398689113534347,-5.18729730832722,18.2
,,0.014115646135144613,0.005991432599294314,0.00015674567478103567,0.020263824409219963,2.2880870466835637,0.6965933897809561,0.2956713638205548,-5.117424730292558,18.3
,,0.014115646135144613,0.005991432599294314,0.00015674567478103567,0.020263824409219963,2.297299309149481,0.6965933897809561,0.2956713638205548,-5.117424730292558,18.4
,,0.014115646135144613,0.005991432599294314,0.00015674567478103567,0.020263824409219963,2.30724899680455,0.6965933897809561,0.2956713638205548,-5.117424730292558,18.5
,,0.014115646135144613,0.005991432599294314,0.00015674567478103567,0.020263824409219963,2.317198684459618,0.6965933897809561,0.2956713638205548,-5.117424730292558,18.6
,,0.014115646135144613,0.005991432599294314,0.00015674567478103567,0.020263824409219963,2.3271483721146873,0.6965933897809561,0.2956713638205548,-5.117424730292558,18.7
,,0.014115646135144613,0.005991432599294314,0.00015674567478103567,0.020263824409219963,2.3370980597697555,0.6965933897809561,0.2956713638205548,-5.117424730292558,18.8
,,0.014115646135144613,0.005991432599294314,0.00015674567478103567,0.020263824409219963,2.3470477474248246,0.6965933897809561,0.2956713638205548,-5.117424730292558,18.9
,,0.014115646135144613,0.005991432599294314,0.00015674567478103567,0.020263824409219963,2.3569974350798932,0.6965933897809561,0.2956713638205548,-5.117424730292558,19.0
,,0.013771942243887125,0.0066890761664981846,0.00017084370113628808,0.0206318621115216,2.362252252840939,0.667508447344477,0.3242109767088234,-5.0072795060818445,19.1
,,0.013771942243887125,0.0066890761664981846,0.00017084370113628808,0.0206318621115216,2.3675070706019854,0.667508447344477,0.3242109767088234,-5.0072795060818445,19.2
,,0.013771942243887125,0.0066890761664981846,0.00017084370113628808,0.0206318621115216,2.3727618883630317,0.667508447344477,0.3242109767088234,-5.0072795060818445,19.3
,,0.013771942243887125,0.0066890761664981846,0.00017084370113628808,0.0206318621115216,2.3782766931942154,0.667508447344477,0.3242109767088234,-5.0072795060818445,19.4
,,0.013771942243887125,0.0066890761664981846,0.00017084370113628808,0.0206318621115216,2.3837914980253987,0.667508447344477,0.3242109767088234,-5.0072795060818445,19.5
,,0.013771942243887125,0.0066890761664981846,0.00017084370113628808,0.0206318621115216,2.3893063028565824,0.667508447344477,0.3242109767088234,-5.0072795060818445,19.6
,,0.013771942243887125,0.0066890761664981846,0.00017084370113628808,0.0206318621115216,2.394821107687766,0.667508447344477,0.3242109767088234,-5.0072795060818445,19.7
,,0.013771942243887125,0.0066890761664981846,0.00017084370113628808,0.0206318621115216,2.40033591251895,0.667508447344477,0.3242109767088234,-5.0072795060818445,19.8
,,0.012524339083250648,0.006417713910638745,0.00016632676432784478,0.01910837975821724,2.40465800570449,0.6554369989357557,0.33585861239119,-5.0486933133804515,19.9
,,0.012971853271268638,0.007321196973588135,0.0001854890911966371,0.02047853933605341,2.40497372775409,0.6334364506374287,0.3575058188207218,-4.91698144339503,20.0
,,0.012971853271268638,0.007321196973588135,0.0001854890911966371,0.02047853933605341,2.40528944980369,0.6334364506374287,0.3575058188207218,-4.91698144339503,20.1
,,0.012971853271268638,0.007321196973588135,0.0001854890911966371,0.02047853933605341,2.4056051718532903,0.6334364506374287,0.3575058188207218,-4.91698144339503,20.2
,,0.012971853271268638,0.007321196973588135,0.0001854890911966371,0.02047853933605341,2.4057351824288196,0.6334364506374287,0.3575058188207218,-4.91698144339503,20.3
,,0.012971853271268638,0.007321196973588135,0.0001854890911966371,0.02047853933605341,2.4058651930043493,0.6334364506374287,0.3575058188207218,-4.91698144339503,20.4
,,0.012905117059634198,0.007606811999678539,0.00023460623272149943,0.020746535292034237,2.4051585338813695,0.622037216237701,0.36665457111767585,-4.878711117393768,20.5
,,0.012905117059634198,0.007606811999678539,0.00023460623272149943,0.020746535292034237,2.4044518747583905,0.622037216237701,0.36665457111767585,-4.878711117393768,20.6
,,0.012971853271268638,0.007321196973588135,0.0001854890911966371,0.02047853933605341,2.40458188533392,0.6334364506374287,0.3575058188207218,-4.91698144339503,20.7
,,0.012572524925631547,0.00758576204902328,0.0002485945808077342,0.02040688155546256,2.4034403758123357,0.6160924142898309,0.3717256861812238,-4.881482203327969,20.8
,,0.012572524925631547,0.00758576204902328,0.0002485945808077342,0.02040688155546256,2.402298866290752,0.6160924142898309,0.3717256861812238,-4.881482203327969,20.9
,,0.01211191776594314,0.007656554687923486,0.0003813755595218693,0.020149848013388497,2.3975400544272896,0.6010922642143711,0.3799807662487635,-4.872193176055296,21.0
,,0.01211191776594314,0.007656554687923486,0.0003813755595218693,0.020149848013388497,2.392781242563827,0.6010922642143711,0.3799807662487635,-4.872193176055296,21.1
,,0.01211191776594314,0.007656554687923486,0.0003813755595218693,0.020149848013388497,2.387664082221956,0.6010922642143711,0.3799807662487635,-4.872193176055296,21.2
,,0.01211191776594314,0.007656554687923486,0.0003813755595218693,0.020149848013388497,2.382546921880085,0.6010922642143711,0.3799807662487635,-4.872193176055296,21.3
,,0.01211191776594314,0.007656554687923486,0.0003813755595218693,0.020149848013388497,2.3774297615382145,0.6010922642143711,0.3799807662487635,-4.872193176055296,21.4
,,0.012074173954463332,0.008401557884213533,0.00025999762990618313,0.02073572946858305,2.3707040824252377,0.5822883623533504,0.4051730081134996,-4.779338127922522,21.5
,,0.006754585816483893,0.008384721109124334,0.000265396259634671,0.015404703185242898,2.3569611535258668,0.43847555744887845,0.5442961807376184,-4.781344144948923,21.6
,,0.006754585816483893,0.008384721109124334,0.000265396259634671,0.015404703185242898,2.3432182246264954,0.43847555744887845,0.5442961807376184,-4.781344144948923,21.7
,,0.006754585816483893,0.008384721109124334,0.000265396259634671,0.015404703185242898,2.329475295727124,0.43847555744887845,0.5442961807376184,-4.781344144948923,21.8
,,0.006754585816483893,0.008384721109124334,0.000265396259634671,0.015404703185242898,2.314636845415982,0.43847555744887845,0.5442961807376184,-4.781344144948923,21.9
,,0.011704659604580173,0.008417516782276887,0.00031336203849408235,0.020435538425351143,2.302818244864789,0.5727600301472875,0.41190579896023705,-4.777440413194544,22.0
,,0.011704659604580173,0.008417516782276887,0.00031336203849408235,0.020435538425351143,2.290999644313596,0.5727600301472875,0.41190579896023705,-4.777440413194544,22.1
,,0.011704659604580173,0.008417516782276887,0.00031336203849408235,0.020435538425351143,2.279181043762403,0.5727600301472875,0.41190579896023705,-4.777440413194544,22.2
,,0.011704659604580173,0.008417516782276887,0.00031336203849408235,0.020435538425351143,2.26736244321121,0.5727600301472875,0.41190579896023705,-4.777440413194544,22.3
,,0.0119869077467215,0.009499682268881605,0.00026741620296129835,0.021754006218564406,2.25411395139007,0.5510207005683454,0.4366865658415956,-4.6564969263158345,22.4
,,0.0119869077467215,0.009499682268881605,0.00026741620296129835,0.021754006218564406,2.2408654595689304,0.5510207005683454,0.4366865658415956,-4.6564969263158345,22.5
,,0.0119869077467215,0.009499682268881605,0.00026741620296129835,0.021754006218564406,2.2276169677477906,0.5510207005683454,0.4366865658415956,-4.6564969263158345,22.6
,,0.0119869077467215,0.009499682268881605,0.00026741620296129835,0.021754006218564406,2.2143684759266513,0.5510207005683454,0.4366865658415956,-4.6564969263158345,22.7
,,0.0119869077467215,0.009499682268881605,0.00026741620296129835,0.021754006218564406,2.2011199841055116,0.5510207005683454,0.4366865658415956,-4.6564969263158345,22.8
,,0.0119869077467215,0.009499682268881605,0.00026741620296129835,0.021754006218564406,2.1864172572480034,0.5510207005683454,0.4366865658415956,-4.6564969263158345,22.9
,,0.0119869077467215,0.009499682268881605,0.00026741620296129835,0.021754006218564406,2.168949112763946,0.5510207005683454,0.4366865658415956,-4.6564969263158345,23.0
,,0.01203239936750773,0.009512986638880434,0.000438718146677296,0.02198410415306546,2.1515144942324533,0.54732270570279,0.4327211412685172,-4.6550973992704785,23.1
,,0.012522201890430198,0.01066183890950515,0.0002874383976978706,0.023471479197633222,2.1330759723949813,0.5335071464815431,0.4542465696231131,-4.541084369539719,23.2
,,0.012522201890430198,0.01066183890950515,0.0002874383976978706,0.023471479197633222,2.114637450557509,0.5335071464815431,0.4542465696231131,-4.541084369539719,23.3
,,0.012522201890430198,0.01066183890950515,0.0002874383976978706,0.023471479197633222,2.0961989287200375,0.5335071464815431,0.4542465696231131,-4.541084369539719,23.4
,,0.012522201890430198,0.01066183890950515,0.0002874383976978706,0.023471479197633222,2.077760406882566,0.5335071464815431,0.4542465696231131,-4.541084369539719,23.5
,,0.012522201890430198,0.01066183890950515,0.0002874383976978706,0.023471479197633222,2.059321885045094,0.5335071464815431,0.4542465696231131,-4.541084369539719,23.6
,,0.012522201890430198,0.01066183890950515,0.0002874383976978706,0.023471479197633222,2.040883363207622,0.5335071464815431,0.4542465696231131,-4.541084369539719,23.7
,,0.012522201890430198,0.01066183890950515,0.0002874383976978706,0.023471479197633222,2.0233881082133864,0.5335071464815431,0.4542465696231131,-4.541084369539719,23.8
,,0.012522201890430198,0.01066183890950515,0.0002874383976978706,0.023471479197633222,2.0058928532191507,0.5335071464815431,0.4542465696231131,-4.541084369539719,23.9
,,0.012457818273403594,0.010994817361286493,0.00023093385962840612,0.02368356949431849,1.9848624042000824,0.526011008450062,0.4642381868967879,-4.510331266183274,24.0
,,0.012457818273403594,0.010994817361286493,0.00023093385962840612,0.02368356949431849,1.9638319551810137,0.526011008450062,0.4642381868967879,-4.510331266183274,24.1
,,0.013228764743387272,0.010860002636685817,0.000561630266510006,0.024650397646583094,1.9437465642668441,0.5366552269480721,0.4405609512831195,-4.522668721687628,24.2
,,0.013228764743387272,0.010860002636685817,0.000561630266510006,0.024650397646583094,1.9236611733526747,0.5366552269480721,0.4405609512831195,-4.522668721687628,24.3
,,0.013228764743387272,0.010860002636685817,0.000561630266510006,0.024650397646583094,1.9035757824385056,0.5366552269480721,0.4405609512831195,-4.522668721687628,24.4
,,0.013228764743387272,0.010860002636685817,0.000561630266510006,0.024650397646583094,1.883490391524336,0.5366552269480721,0.4405609512831195,-4.522668721687628,24.5
,,0.013228764743387272,0.010860002636685817,0.000561630266510006,0.024650397646583094,1.8634050006101666,0.5366552269480721,0.4405609512831195,-4.522668721687628,24.6
,,0.013228764743387272,0.010860002636685817,0.000561630266510006,0.024650397646583094,1.8449510361485602,0.5366552269480721,0.4405609512831195,-4.522668721687628,24.7
,,0.013580285049777069,0.011825409252968842,0.00037804501675884716,0.02578373931950476,1.8257224131556,0.5266995947133207,0.4586382567102365,-4.437504736072465,24.8
,,0.013580285049777069,0.011825409252968842,0.00037804501675884716,0.02578373931950476,1.8064937901626403,0.5266995947133207,0.4586382567102365,-4.437504736072465,24.9
,,0.013580285049777069,0.011825409252968842,0.00037804501675884716,0.02578373931950476,1.785477014890147,0.5266995947133207,0.4586382567102365,-4.437504736072465,25.0
,,0.013580285049777069,0.011825409252968842,0.00037804501675884716,0.02578373931950476,1.7644602396176539,0.5266995947133207,0.4586382567102365,-4.437504736072465,25.1
,,0.013580285049777069,0.011825409252968842,0.00037804501675884716,0.02578373931950476,1.7434434643451608,0.5266995947133207,0.4586382567102365,-4.437504736072465,25.2
,,0.01455672301798607,0.011073023721415522,0.0005473772705580574,0.026177124009959647,1.7242734962407835,0.5560856499150806,0.4230038302604424,-4.503243423993059,25.3
,,0.014887788936590058,0.011877677719326542,0.00033043955754070807,0.027095906213457307,1.7044236894948779,0.5494479062374363,0.4383569099241803,-4.433094462327152,25.4
,,0.01455672301798607,0.011073023721415522,0.0005473772705580574,0.026177124009959647,1.6852537213905006,0.5560856499150806,0.4230038302604424,-4.503243423993059,25.5
,,0.014910318939791934,0.01190812537176135,0.000338878542698539,0.027157322854251823,1.6677853654996033,0.5490349332227177,0.4384867181374979,-4.430534307519792,25.6
,,0.014910318939791934,0.01190812537176135,0.000338878542698539,0.027157322854251823,1.6503170096087063,0.5490349332227177,0.4384867181374979,-4.430534307519792,25.7
,,0.014910318939791934,0.01190812537176135,0.000338878542698539,0.027157322854251823,1.632848653717809,0.5490349332227177,0.4384867181374979,-4.430534307519792,25.8
,,0.014910318939791934,0.01190812537176135,0.000338878542698539,0.027157322854251823,1.6153802978269118,0.5490349332227177,0.4384867181374979,-4.430534307519792,25.9
,,0.014910318939791934,0.01190812537176135,0.000338878542698539,0.027157322854251823,1.6115797887242296,0.5490349332227177,0.4384867181374979,-4.430534307519792,26.0
,,0.014910318939791934,0.01190812537176135,0.000338878542698539,0.027157322854251823,1.6077792796215473,0.5490349332227177,0.4384867181374979,-4.430534307519792,26.1
,,0.014910318939791934,0.01190812537176135,0.000338878542698539,0.027157322854251823,1.6039787705188646,0.5490349332227177,0.4384867181374979,-4.430534307519792,26.2
,,0.014910318939791934,0.01190812537176135,0.000338878542698539,0.027157322854251823,1.6001782614161821,0.5490349332227177,0.4384867181374979,-4.430534307519792,26.3
,,0.016182590192964356,0.011216763849748158,0.000312144681261419,0.027711498723973934,1.5984955487473835,0.5839666181231973,0.4047692967267861,-4.490345847429303,26.4
,,0.016182590192964356,0.011216763849748158,0.000312144681261419,0.027711498723973934,1.585330060793779,0.5839666181231973,0.4047692967267861,-4.490345847429303,26.5
,,0.016182590192964356,0.011216763849748158,0.000312144681261419,0.027711498723973934,1.5721645728401743,0.5839666181231973,0.4047692967267861,-4.490345847429303,26.6
,,0.016182590192964356,0.011216763849748158,0.000312144681261419,0.027711498723973934,1.5589990848865698,0.5839666181231973,0.4047692967267861,-4.490345847429303,26.7
,,0.016182590192964356,0.011216763849748158,0.000312144681261419,0.027711498723973934,1.545833596932965,0.5839666181231973,0.4047692967267861,-4.490345847429303,26.8
,,0.016182590192964356,0.011216763849748158,0.000312144681261419,0.027711498723973934,1.5326681089793601,0.5839666181231973,0.4047692967267861,-4.490345847429303,26.9
,,0.016182590192964356,0.011216763849748158,0.000312144681261419,0.027711498723973934,1.5195026210257554,0.5839666181231973,0.4047692967267861,-4.490345847429303,27.0
,,0.016182590192964356,0.011216763849748158,0.000312144681261419,0.027711498723973934,1.5066087454343071,0.5839666181231973,0.4047692967267861,-4.490345847429303,27.1
,,0.016328902784249408,0.011417577686872989,0.00039612067506222245,0.028142601146184616,1.4935753145699562,0.5802200976174929,0.4057044204110787,-4.47260120873532,27.2
,,0.016328902784249408,0.011417577686872989,0.00039612067506222245,0.028142601146184616,1.4832884584902253,0.5802200976174929,0.4057044204110787,-4.47260120873532,27.3
,,0.016328902784249408,0.011417577686872989,0.00039612067506222245,0.028142601146184616,1.4730016024104937,0.5802200976174929,0.4057044204110787,-4.47260120873532,27.4
,,0.017084717903157833,0.00958433055138425,0.0005408857357607736,0.027209934190302855,1.4666304457585855,0.627885307758169,0.35223644733400117,-4.647625748284749,27.5
,,0.017084717903157833,0.00958433055138425,0.0005408857357607736,0.027209934190302855,1.4602592891066775,0.627885307758169,0.35223644733400117,-4.647625748284749,27.6
,,0.017084717903157833,0.00958433055138425,0.0005408857357607736,0.027209934190302855,1.4538881324547692,0.627885307758169,0.35223644733400117,-4.647625748284749,27.7
,,0.017084717903157833,0.00958433055138425,0.0005408857357607736,0.027209934190302855,1.447516975802861,0.627885307758169,0.35223644733400117,-4.647625748284749,27.8
,,0.017084717903157833,0.00958433055138425,0.0005408857357607736,0.027209934190302855,1.4411458191509527,0.627885307758169,0.35223644733400117,-4.647625748284749,27.9
,,0.017442330729664203,0.008799311876890951,0.00019035868278859547,0.02643200128934375,1.436993222024197,0.6598944415418216,0.3329037321301303,-4.7330817563632746,28.0
,,0.017442330729664203,0.008799311876890951,0.00019035868278859547,0.02643200128934375,1.4361417491645296,0.6598944415418216,0.3329037321301303,-4.7330817563632746,28.1
,,0.017442330729664203,0.008799311876890951,0.00019035868278859547,0.02643200128934375,1.435290276304863,0.6598944415418216,0.3329037321301303,-4.7330817563632746,28.2
,,0.017442330729664203,0.008799311876890951,0.00019035868278859547,0.02643200128934375,1.4344388034451956,0.6598944415418216,0.3329037321301303,-4.7330817563632746,28.3
,,0.017442330729664203,0.008799311876890951,0.00019035868278859547,0.02643200128934375,1.4335873305855285,0.6598944415418216,0.3329037321301303,-4.7330817563632746,28.4
,,0.017935851207997372,0.006844803534782172,0.0003059902059312597,0.025086644948710806,1.4398261046744962,0.7149561547455587,0.2728465105149074,-4.984265522657701,28.5
,,0.017935851207997372,0.006844803534782172,0.0003059902059312597,0.025086644948710806,1.4460648787634638,0.7149561547455587,0.2728465105149074,-4.984265522657701,28.6
,,0.017935851207997372,0.006844803534782172,0.0003059902059312597,0.025086644948710806,1.4523036528524313,0.7149561547455587,0.2728465105149074,-4.984265522657701,28.7
,,0.017110712218826228,0.008804785260365103,0.00028859723074239695,0.026204094709933727,1.451020005833875,0.6529785672137614,0.3360079925610745,-4.732459925705577,28.8
,,0.017110712218826228,0.008804785260365103,0.00028859723074239695,0.026204094709933727,1.4509290704609619,0.6529785672137614,0.3360079925610745,-4.732459925705577,28.9
,,0.017110712218826228,0.008804785260365103,0.00028859723074239695,0.026204094709933727,1.4528348592743523,0.6529785672137614,0.3360079925610745,-4.732459925705577,29.0
,,0.017110712218826228,0.008804785260365103,0.00028859723074239695,0.026204094709933727,1.4547406480877425,0.6529785672137614,0.3360079925610745,-4.732459925705577,29.1
,,0.017110712218826228,0.008804785260365103,0.00028859723074239695,0.026204094709933727,1.4566464369011332,0.6529785672137614,0.3360079925610745,-4.732459925705577,29.2
,,0.017110712218826228,0.008804785260365103,0.00028859723074239695,0.026204094709933727,1.4585522257145234,0.6529785672137614,0.3360079925610745,-4.732459925705577,29.3
,,0.017110712218826228,0.008804785260365103,0.00028859723074239695,0.026204094709933727,1.4604580145279142,0.6529785672137614,0.3360079925610745,-4.732459925705577,29.4
,,0.017045786375001107,0.007346176377262349,0.0004010564914306596,0.024793019243694116,1.4673895768548877,0.6875236213651772,0.2963001926088846,-4.913575321899803,29.5
,,0.016714455822676354,0.007744350793334599,0.00025951468616868694,0.02471832130217964,1.4725202003004207,0.6761970450316336,0.31330407508910035,-4.860791631307759,29.6
,,0.016714455822676354,0.007744350793334599,0.00025951468616868694,0.02471832130217964,1.4768141540474446,0.6761970450316336,0.31330407508910035,-4.860791631307759,29.7
,,0.016714455822676354,0.007744350793334599,0.00025951468616868694,0.02471832130217964,1.482379627891582,0.6761970450316336,0.31330407508910035,-4.860791631307759,29.8
,,0.016714455822676354,0.007744350793334599,0.00025951468616868694,0.02471832130217964,1.4879451017357197,0.6761970450316336,0.31330407508910035,-4.860791631307759,29.9
,,0.016714455822676354,0.007744350793334599,0.00025951468616868694,0.02471832130217964,1.4943492727778023,0.6761970450316336,0.31330407508910035,-4.860791631307759,30.0
,,0.016714455822676354,0.007744350793334599,0.00025951468616868694,0.02471832130217964,1.500753443819885,0.6761970450316336,0.31330407508910035,-4.860791631307759,30.1
,,0.016714455822676354,0.007744350793334599,0.00025951468616868694,0.02471832130217964,1.5071576148619672,0.6761970450316336,0.31330407508910035,-4.860791631307759,30.2
,,0.016714455822676354,0.007744350793334599,0.00025951468616868694,0.02471832130217964,1.5135617859040502,0.6761970450316336,0.31330407508910035,-4.860791631307759,30.3
,,0.01640285662891187,0.007879916372363382,0.00031716541830322523,0.024599938419578478,1.5191140199671127,0.666784458934143,0.32032260560831133,-4.843437987812905,30.4
,,0.016022389915597155,0.007075426587031506,0.00024230273487485854,0.02334011923750352,1.5283070986991178,0.6864742100311105,0.30314440620605415,-4.95112754228372,30.5
,,0.016022389915597155,0.007075426587031506,0.00024230273487485854,0.02334011923750352,1.5445174272175175,0.6864742100311105,0.30314440620605415,-4.95112754228372,30.6
,,0.016022389915597155,0.007075426587031506,0.00024230273487485854,0.02334011923750352,1.5607277557359172,0.6864742100311105,0.30314440620605415,-4.95112754228372,30.7
,,0.016022389915597155,0.007075426587031506,0.00024230273487485854,0.02334011923750352,1.576938084254317,0.6864742100311105,0.30314440620605415,-4.95112754228372,30.8
,,0.016022389915597155,0.007075426587031506,0.00024230273487485854,0.02334011923750352,1.5931484127727167,0.6864742100311105,0.30314440620605415,-4.95112754228372,30.9
,,0.016022389915597155,0.007075426587031506,0.00024230273487485854,0.02334011923750352,1.602859524254528,0.6864742100311105,0.30314440620605415,-4.95112754228372,31.0
,,0.015685452105468702,0.0071870104872394005,0.00029115740604699887,0.0231636199987551,1.611659082384599,0.6771589287991988,0.31027147257750115,-4.935479981301209,31.1
,,0.015714800387292154,0.007243549310520578,0.0002977276603653125,0.023256077358178046,1.6203143801434339,0.6757287630781815,0.3114690925283395,-4.9276439564513,31.2
,,0.015714800387292154,0.007243549310520578,0.0002977276603653125,0.023256077358178046,1.6289696779022682,0.6757287630781815,0.3114690925283395,-4.9276439564513,31.3
,,0.015714800387292154,0.007243549310520578,0.0002977276603653125,0.023256077358178046,1.6390548669310498,0.6757287630781815,0.3114690925283395,-4.9276439564513,31.4
,,0.015323297501526105,0.006790977318397907,0.00024044845791319243,0.022354723277837205,1.6501059569634704,0.6854612920535609,0.3037826607825014,-4.992160412806302,31.5
,,0.015323297501526105,0.006790977318397907,0.00024044845791319243,0.022354723277837205,1.6611570469958916,0.6854612920535609,0.3037826607825014,-4.992160412806302,31.6
,,0.015323297501526105,0.006790977318397907,0.00024044845791319243,0.022354723277837205,1.6722081370283122,0.6854612920535609,0.3037826607825014,-4.992160412806302,31.7
,,0.015323297501526105,0.006790977318397907,0.00024044845791319243,0.022354723277837205,1.6832592270607332,0.6854612920535609,0.3037826607825014,-4.992160412806302,31.8
,,0.015323297501526105,0.006790977318397907,0.00024044845791319243,0.022354723277837205,1.6943103170931537,0.6854612920535609,0.3037826607825014,-4.992160412806302,31.9
,,0.015323297501526105,0.006790977318397907,0.00024044845791319243,0.022354723277837205,1.705361407125575,0.6854612920535609,0.3037826607825014,-4.992160412806302,32.0
,,0.015120358434452613,0.007025260052137949,0.00029632126245795825,0.02244193974904852,1.7152219095235617,0.6737545240532818,0.313041569966598,-4.958243046349552,32.1
,,0.015120358434452613,0.007025260052137949,0.00029632126245795825,0.02244193974904852,1.7260863152275276,0.6737545240532818,0.313041569966598,-4.958243046349552,32.2
,,0.015120358434452613,0.007025260052137949,0.00029632126245795825,0.02244193974904852,1.736950720931494,0.6737545240532818,0.313041569966598,-4.958243046349552,32.3
,,0.015530741626644402,0.0038138621444043673,0.00015645797974972111,0.01950106175079849,1.7691473233781643,0.7964049252861055,0.19557202541795987,-5.569112917081063,32.4
,,0.015530741626644402,0.0038138621444043673,0.00015645797974972111,0.01950106175079849,1.8013439258248347,0.7964049252861055,0.19557202541795987,-5.569112917081063,32.5
,,0.015530741626644402,0.0038138621444043673,0.00015645797974972111,0.01950106175079849,1.833540528271505,0.7964049252861055,0.19557202541795987,-5.569112917081063,32.6
,,0.015530741626644402,0.0038138621444043673,0.00015645797974972111,0.01950106175079849,1.8657371307181754,0.7964049252861055,0.19557202541795987,-5.569112917081063,32.7
,,0.015103193718658687,0.003775193407778277,0.00020028277369422027,0.019078669900131184,1.8971388312384903,0.7916271835362505,0.19787508393089387,-5.579303663745008,32.8
,,0.015530741626644402,0.0038138621444043673,0.00015645797974972111,0.01950106175079849,1.929335433685161,0.7964049252861055,0.19557202541795987,-5.569112917081063,32.9
,,0.01446821636519461,0.006988685777286065,0.00030152763761658654,0.02175842978009726,1.9397484496040902,0.6649476323162294,0.321194399040629,-4.963462755107808,33.0
,,0.01446821636519461,0.006988685777286065,0.00030152763761658654,0.02175842978009726,1.9501614655230195,0.6649476323162294,0.321194399040629,-4.963462755107808,33.1
,,0.01446821636519461,0.006988685777286065,0.00030152763761658654,0.02175842978009726,1.9596294233370501,0.6649476323162294,0.321194399040629,-4.963462755107808,33.2
,,0.013742564715042913,0.0068084187708138,0.00025506185327868664,0.0208060453391354,1.9685221835927482,0.6605082557036276,0.32723271817578026,-4.989595378026179,33.3
,,0.013742564715042913,0.0068084187708138,0.00025506185327868664,0.0208060453391354,1.9774149438484465,0.6605082557036276,0.32723271817578026,-4.989595378026179,33.4
,,0.013742564715042913,0.0068084187708138,0.00025506185327868664,0.0208060453391354,1.9863077041041448,0.6605082557036276,0.32723271817578026,-4.989595378026179,33.5
,,0.013742564715042913,0.0068084187708138,0.00025506185327868664,0.0208060453391354,1.9952004643598429,0.6605082557036276,0.32723271817578026,-4.989595378026179,33.6
,,0.013506974356805278,0.006923580307178502,0.0003023135906048336,0.020732868254588616,2.0033421038363524,0.6514763992587423,0.3339422323125103,-4.972822257719834,33.7
,,0.013742564715042913,0.0068084187708138,0.00025506185327868664,0.0208060453391354,2.0130095226234035,0.6605082557036276,0.32723271817578026,-4.989595378026179,33.8
,,0.013339580932628744,0.0034429472261860027,0.00020402724205295541,0.016986555400867704,2.0432991555395126,0.7853022945397943,0.2026866039014673,-5.671427422600905,33.9
,,0.013339580932628744,0.0034429472261860027,0.00020402724205295541,0.016986555400867704,2.0735887884556212,0.7853022945397943,0.2026866039014673,-5.671427422600905,34.0
,,0.01236707389731113,0.00666351764990696,0.0002533342861784325,0.019283925833396522,2.081450332950351,0.6413151556460269,0.3455477742175748,-5.011107758203803,34.1
,,0.01236707389731113,0.00666351764990696,0.0002533342861784325,0.019283925833396522,2.0893118774450805,0.6413151556460269,0.3455477742175748,-5.011107758203803,34.2
,,0.01236707389731113,0.00666351764990696,0.0002533342861784325,0.019283925833396522,2.0953266147716945,0.6413151556460269,0.3455477742175748,-5.011107758203803,34.3
,,0.01236707389731113,0.00666351764990696,0.0002533342861784325,0.019283925833396522,2.102021190739836,0.6413151556460269,0.3455477742175748,-5.011107758203803,34.4
,,0.01236707389731113,0.00666351764990696,0.0002533342861784325,0.019283925833396522,2.1080359280664496,0.6413151556460269,0.3455477742175748,-5.011107758203803,34.5
,,0.01236707389731113,0.00666351764990696,0.0002533342861784325,0.019283925833396522,2.1147450915280492,0.6413151556460269,0.3455477742175748,-5.011107758203803,34.6
,,0.01236707389731113,0.00666351764990696,0.0002533342861784325,0.019283925833396522,2.1214542549896485,0.6413151556460269,0.3455477742175748,-5.011107758203803,34.7
,,0.01208012796489523,0.0033327072930931156,0.0002092943827058311,0.015622129640694177,2.1478165452737947,0.773270241813103,0.21333245656928407,-5.703970304367163,34.8
,,0.011111783034176675,0.0065599482368543785,0.0002860371986543135,0.01795776846968537,2.1527250975073,0.6187730425934911,0.36529863094784143,-5.026772566780689,34.9
,,0.011111783034176675,0.0065599482368543785,0.0002860371986543135,0.01795776846968537,2.157633649740805,0.6187730425934911,0.36529863094784143,-5.026772566780689,35.0
,,0.011111783034176675,0.0065599482368543785,0.0002860371986543135,0.01795776846968537,2.1625422019743095,0.6187730425934911,0.36529863094784143,-5.026772566780689,35.1
,,0.011111783034176675,0.0065599482368543785,0.0002860371986543135,0.01795776846968537,2.1674507542078145,0.6187730425934911,0.36529863094784143,-5.026772566780689,35.2
,,0.011111783034176675,0.0065599482368543785,0.0002860371986543135,0.01795776846968537,2.1723593064413196,0.6187730425934911,0.36529863094784143,-5.026772566780689,35.3
,,0.011111783034176675,0.0065599482368543785,0.0002860371986543135,0.01795776846968537,2.1751500622409408,0.6187730425934911,0.36529863094784143,-5.026772566780689,35.4
,,0.011111783034176675,0.0065599482368543785,0.0002860371986543135,0.01795776846968537,2.177940818040562,0.6187730425934911,0.36529863094784143,-5.026772566780689,35.5
,,0.011111783034176675,0.0065599482368543785,0.0002860371986543135,0.01795776846968537,2.180731573840183,0.6187730425934911,0.36529863094784143,-5.026772566780689,35.6
,,0.009955390379740494,0.006388668762309091,0.00029662822304477997,0.016640687365094366,2.1820157293646907,0.5982559591031676,0.3839185619044807,-5.053229363703724,35.7
,,0.009913329488637667,0.006494601235269534,0.0002854358948177505,0.01669336661872495,2.1829455148861925,0.5938484258482578,0.38905281262945124,-5.036784026391857,35.8
,,0.009913329488637667,0.006494601235269534,0.0002854358948177505,0.01669336661872495,2.1838753004076947,0.5938484258482578,0.38905281262945124,-5.036784026391857,35.9
,,0.009913329488637667,0.006494601235269534,0.0002854358948177505,0.01669336661872495,2.1848050859291965,0.5938484258482578,0.38905281262945124,-5.036784026391857,36.0
,,0.009913329488637667,0.006494601235269534,0.0002854358948177505,0.01669336661872495,2.1857348714506983,0.5938484258482578,0.38905281262945124,-5.036784026391857,36.1
,,0.009913329488637667,0.006494601235269534,0.0002854358948177505,0.01669336661872495,2.186804212245103,0.5938484258482578,0.38905281262945124,-5.036784026391857,36.2
,,0.009913329488637667,0.006494601235269534,0.0002854358948177505,0.01669336661872495,2.1878735530395073,0.5938484258482578,0.38905281262945124,-5.036784026391857,36.3
,,0.009160792738443469,0.003363508972098222,0.00022498441696880737,0.012749286127510499,2.2022449679117355,0.7185337788188977,0.26381939651039904,-5.694770513013477,36.4
,,0.009160792738443469,0.003363508972098222,0.00022498441696880737,0.012749286127510499,2.212700683356141,0.7185337788188977,0.26381939651039904,-5.694770513013477,36.5
,,0.009160792738443469,0.003363508972098222,0.00022498441696880737,0.012749286127510499,2.2231563988005467,0.7185337788188977,0.26381939651039904,-5.694770513013477,36.6
,,0.009554498298762901,0.0036278446016646975,0.00021589995212369686,0.013398242852551295,2.232612946672355,0.7131157722628929,0.2707701779695599,-5.61911658070485,36.7
,,0.009554498298762901,0.0036278446016646975,0.00021589995212369686,0.013398242852551295,2.2420694945441633,0.7131157722628929,0.2707701779695599,-5.61911658070485,36.8
,,0.009554498298762901,0.0036278446016646975,0.00021589995212369686,0.013398242852551295,2.251526042415972,0.7131157722628929,0.2707701779695599,-5.61911658070485,36.9
,,0.009554498298762901,0.0036278446016646975,0.00021589995212369686,0.013398242852551295,2.258764030762628,0.7131157722628929,0.2707701779695599,-5.61911658070485,37.0
,,0.009554498298762901,0.0036278446016646975,0.00021589995212369686,0.013398242852551295,2.2660020191092847,0.7131157722628929,0.2707701779695599,-5.61911658070485,37.1
,,0.009554498298762901,0.0036278446016646975,0.00021589995212369686,0.013398242852551295,2.2732400074559407,0.7131157722628929,0.2707701779695599,-5.61911658070485,37.2
,,0.008959456557157994,0.003713656064645255,0.00024159868536055437,0.012914711307163804,2.2780214777013246,0.6937403666304314,0.2875523870661581,-5.595738425443334,37.3
,,0.008959456557157994,0.003713656064645255,0.00024159868536055437,0.012914711307163804,2.282802947946709,0.6937403666304314,0.2875523870661581,-5.595738425443334,37.4
,,0.008959456557157994,0.003713656064645255,0.00024159868536055437,0.012914711307163804,2.2804941712434585,0.6937403666304314,0.2875523870661581,-5.595738425443334,37.5
,,0.008471472311592402,0.0064644010753625546,0.0002856413568568542,0.015221514743811811,2.2659399529294255,0.5565459452737063,0.42468842189247996,-5.041444912138312,37.6
,,0.008471472311592402,0.0064644010753625546,0.0002856413568568542,0.015221514743811811,2.2513857346153925,0.5565459452737063,0.42468842189247996,-5.041444912138312,37.7
,,0.008471472311592402,0.0064644010753625546,0.0002856413568568542,0.015221514743811811,2.2443539374088837,0.5565459452737063,0.42468842189247996,-5.041444912138312,37.8
,,0.008471472311592402,0.0064644010753625546,0.0002856413568568542,0.015221514743811811,2.2373221402023744,0.5565459452737063,0.42468842189247996,-5.041444912138312,37.9
,,0.008471472311592402,0.0064644010753625546,0.0002856413568568542,0.015221514743811811,2.2302903429958656,0.5565459452737063,0.42468842189247996,-5.041444912138312,38.0
,,0.008471472311592402,0.0064644010753625546,0.0002856413568568542,0.015221514743811811,2.2232585457893563,0.5565459452737063,0.42468842189247996,-5.041444912138312,38.1
,,0.008471472311592402,0.0064644010753625546,0.0002856413568568542,0.015221514743811811,2.2162267485828475,0.5565459452737063,0.42468842189247996,-5.041444912138312,38.2
,,0.007986011871776858,0.006340562129535687,0.00024623948119005935,0.014572813482502604,2.208628629521303,0.5480075540228085,0.43509526400984416,-5.0607878504988,38.3
,,0.007778171067177712,0.0063363986707536775,0.0002903915563939758,0.014404961294325365,2.200675249284015,0.5399647321677854,0.43987613304103873,-5.061444704929022,38.4
,,0.008757941549070872,0.004145384436895972,0.00022840851920730184,0.013131734505174145,2.1983678643909355,0.6669295320903786,0.3156768388260221,-5.485759747555467,38.5
,,0.008757941549070872,0.004145384436895972,0.00022840851920730184,0.013131734505174145,2.1978614183792966,0.6669295320903786,0.3156768388260221,-5.485759747555467,38.6
,,0.008757941549070872,0.004145384436895972,0.00022840851920730184,0.013131734505174145,2.1973549723676578,0.6669295320903786,0.3156768388260221,-5.485759747555467,38.7
,,0.008757941549070872,0.004145384436895972,0.00022840851920730184,0.013131734505174145,2.1968485263560193,0.6669295320903786,0.3156768388260221,-5.485759747555467,38.8
,,0.008757941549070872,0.004145384436895972,0.00022840851920730184,0.013131734505174145,2.19634208034438,0.6669295320903786,0.3156768388260221,-5.485759747555467,38.9
,,0.008757941549070872,0.004145384436895972,0.00022840851920730184,0.013131734505174145,2.1958356343327416,0.6669295320903786,0.3156768388260221,-5.485759747555467,39.0
,,0.007489799403796417,0.006162288531327412,0.00028516306989586406,0.013937251005019694,2.1853594984249356,0.5373943111951461,0.442145192700338,-5.089307055605375,39.1
,,0.007489799403796417,0.006162288531327412,0.00028516306989586406,0.013937251005019694,2.17488336251713,0.5373943111951461,0.442145192700338,-5.089307055605375,39.2
,,0.007766453744834297,0.006107353537105383,0.00026739515700362383,0.014141202438943304,2.165032017514811,0.5492074509481841,0.4318836084466487,-5.098261735945894,39.3
,,0.007766453744834297,0.006107353537105383,0.00026739515700362383,0.014141202438943304,2.156032609491513,0.5492074509481841,0.4318836084466487,-5.098261735945894,39.4
,,0.007766453744834297,0.006107353537105383,0.00026739515700362383,0.014141202438943304,2.1450008755703776,0.5492074509481841,0.4318836084466487,-5.098261735945894,39.5
,,0.007766453744834297,0.006107353537105383,0.00026739515700362383,0.014141202438943304,2.1339691416492426,0.5492074509481841,0.4318836084466487,-5.098261735945894,39.6
,,0.007766453744834297,0.006107353537105383,0.00026739515700362383,0.014141202438943304,2.122937407728107,0.5492074509481841,0.4318836084466487,-5.098261735945894,39.7
,,0.007766453744834297,0.006107353537105383,0.00026739515700362383,0.014141202438943304,2.111905673806972,0.5492074509481841,0.4318836084466487,-5.098261735945894,39.8
,,0.007766453744834297,0.006107353537105383,0.00026739515700362383,0.014141202438943304,2.1008739398858367,0.5492074509481841,0.4318836084466487,-5.098261735945894,39.9
,,0.007435033673178836,0.0059645086415221265,0.0002789006794153061,0.01367844299411627,2.0895632028568385,0.5435584793076952,0.43605172343721704,-5.121928600417416,40.0
,,0.007435033673178836,0.0059645086415221265,0.0002789006794153061,0.01367844299411627,2.07916401917958,0.5435584793076952,0.43605172343721704,-5.121928600417416,40.1
,,0.0078116593372389844,0.0059335014403488155,0.0002568435865997965,0.014002004364187595,2.0696867471794667,0.5578957936349866,0.4237608620894813,-5.12714077811051,40.2
,,0.0078116593372389844,0.0059335014403488155,0.0002568435865997965,0.014002004364187595,2.0602094751793527,0.5578957936349866,0.4237608620894813,-5.12714077811051,40.3
,,0.0078116593372389844,0.0059335014403488155,0.0002568435865997965,0.014002004364187595,2.0507322031792383,0.5578957936349866,0.4237608620894813,-5.12714077811051,40.4
,,0.0078116593372389844,0.0059335014403488155,0.0002568435865997965,0.014002004364187595,2.040289030175485,0.5578957936349866,0.4237608620894813,-5.12714077811051,40.5
,,0.0078116593372389844,0.0059335014403488155,0.0002568435865997965,0.014002004364187595,2.0298458571717313,0.5578957936349866,0.4237608620894813,-5.12714077811051,40.6
,,0.0078116593372389844,0.0059335014403488155,0.0002568435865997965,0.014002004364187595,2.0194026841679777,0.5578957936349866,0.4237608620894813,-5.12714077811051,40.7
,,0.007643218533051282,0.0058090368317335415,0.000273890486349589,0.013726145851134413,2.0089507530605255,0.5568364649439886,0.42320960994695,-5.148340499531601,40.8
,,0.007643218533051282,0.0058090368317335415,0.000273890486349589,0.013726145851134413,1.998498821953073,0.5568364649439886,0.42320960994695,-5.148340499531601,40.9
,,0.007643218533051282,0.0058090368317335415,0.000273890486349589,0.013726145851134413,1.9880468908456201,0.5568364649439886,0.42320960994695,-5.148340499531601,41.0
,,0.008391353495057976,0.005048786507561594,0.00023344400766491254,0.013673584010284484,1.982599880012277,0.6136908574040634,0.3692365150032491,-5.288607360102824,41.1
,,0.008391353495057976,0.005048786507561594,0.00023344400766491254,0.013673584010284484,1.977152869178934,0.6136908574040634,0.3692365150032491,-5.288607360102824,41.2
,,0.008391353495057976,0.005048786507561594,0.00023344400766491254,0.013673584010284484,1.9717058583455904,0.6136908574040634,0.3692365150032491,-5.288607360102824,41.3
,,0.008391353495057976,0.005048786507561594,0.00023344400766491254,0.013673584010284484,1.9449266507695433,0.6136908574040634,0.3692365150032491,-5.288607360102824,41.4
,,0.008391353495057976,0.005048786507561594,0.00023344400766491254,0.013673584010284484,1.9181474431934955,0.6136908574040634,0.3692365150032491,-5.288607360102824,41.5
,,0.008119193180812433,0.005789476163463351,0.00027235910376366304,0.014181028448039446,1.8884832573155736,0.5725390940834708,0.40825502781244033,-5.151713464121674,41.6
,,0.008119193180812433,0.005789476163463351,0.00027235910376366304,0.014181028448039446,1.8588190714376518,0.5725390940834708,0.40825502781244033,-5.151713464121674,41.7
,,0.008119193180812433,0.005789476163463351,0.00027235910376366304,0.014181028448039446,1.8299497874860848,0.5725390940834708,0.40825502781244033,-5.151713464121674,41.8
,,0.008119193180812433,0.005789476163463351,0.00027235910376366304,0.014181028448039446,1.8002856016081628,0.5725390940834708,0.40825502781244033,-5.151713464121674,41.9
,,0.008509036171581134,0.005542723445778884,0.0002401807218609364,0.014291940339220955,1.7943404706421313,0.595373054296206,0.38782161933381076,-5.1952693023060315,42.0
,,0.008509036171581134,0.005542723445778884,0.0002401807218609364,0.014291940339220955,1.7883953396760999,0.595373054296206,0.38782161933381076,-5.1952693023060315,42.1
,,0.008509036171581134,0.005542723445778884,0.0002401807218609364,0.014291940339220955,1.782450208710068,0.595373054296206,0.38782161933381076,-5.1952693023060315,42.2
,,0.008509036171581134,0.005542723445778884,0.0002401807218609364,0.014291940339220955,1.7770802753023687,0.595373054296206,0.38782161933381076,-5.1952693023060315,42.3
,,0.008796947469962181,0.0059116611632899,0.0002734523873738082,0.01498206102062589,1.7711869475334736,0.5871653745003023,0.39458263820653794,-5.130828410359986,42.4
,,0.008796947469962181,0.0059116611632899,0.0002734523873738082,0.01498206102062589,1.7652936197645792,0.5871653745003023,0.39458263820653794,-5.130828410359986,42.5
,,0.008796947469962181,0.0059116611632899,0.0002734523873738082,0.01498206102062589,1.7594002919956846,0.5871653745003023,0.39458263820653794,-5.130828410359986,42.6
,,0.008796947469962181,0.0059116611632899,0.0002734523873738082,0.01498206102062589,1.7542580850059784,0.5871653745003023,0.39458263820653794,-5.130828410359986,42.7
,,0.008796947469962181,0.0059116611632899,0.0002734523873738082,0.01498206102062589,1.748364757237084,0.5871653745003023,0.39458263820653794,-5.130828410359986,42.8
,,0.009405184247417831,0.006137541573692951,0.00024357349122649342,0.015786299312337274,1.7223418331544382,0.5957814470214379,0.3887891298815266,-5.093331012166647,42.9
,,0.009405184247417831,0.006137541573692951,0.00024357349122649342,0.015786299312337274,1.6963189090717927,0.5957814470214379,0.3887891298815266,-5.093331012166647,43.0
,,0.009405184247417831,0.006137541573692951,0.00024357349122649342,0.015786299312337274,1.692724073410526,0.5957814470214379,0.3887891298815266,-5.093331012166647,43.1
,,0.009653349820655162,0.006187917634377602,0.0002766200682857,0.016117887523318462,1.689436232373294,0.5989215278174161,0.3839161692514151,-5.085156656900045,43.2
,,0.009653349820655162,0.006187917634377602,0.0002766200682857,0.016117887523318462,1.6861483913360622,0.5989215278174161,0.3839161692514151,-5.085156656900045,43.3
,,0.009653349820655162,0.006187917634377602,0.0002766200682857,0.016117887523318462,1.6828605502988303,0.5989215278174161,0.3839161692514151,-5.085156656900045,43.4
,,0.009653349820655162,0.006187917634377602,0.0002766200682857,0.016117887523318462,1.6795727092615982,0.5989215278174161,0.3839161692514151,-5.085156656900045,43.5
,,0.009653349820655162,0.006187917634377602,0.0002766200682857,0.016117887523318462,1.6762848682243663,0.5989215278174161,0.3839161692514151,-5.085156656900045,43.6
,,0.009653349820655162,0.006187917634377602,0.0002766200682857,0.016117887523318462,1.6729970271871342,0.5989215278174161,0.3839161692514151,-5.085156656900045,43.7
,,0.010339552233353304,0.0065507861011150385,0.0002505754022413377,0.01714091373670968,1.6502597939521224,0.6032089299422643,0.38217251435584837,-5.028170221098843,43.8
,,0.010339552233353304,0.0065507861011150385,0.0002505754022413377,0.01714091373670968,1.6489762987677514,0.6032089299422643,0.38217251435584837,-5.028170221098843,43.9
,,0.010339552233353304,0.0065507861011150385,0.0002505754022413377,0.01714091373670968,1.6476928035833809,0.6032089299422643,0.38217251435584837,-5.028170221098843,44.0
,,0.010606446633147169,0.006698472680311886,0.00023102995478448045,0.017535949268243537,1.646465358663506,0.6048401755104729,0.381985176727352,-5.0058757367340325,44.1
,,0.010606446633147169,0.006698472680311886,0.00023102995478448045,0.017535949268243537,1.6452379137436306,0.6048401755104729,0.381985176727352,-5.0058757367340325,44.2
,,0.010606446633147169,0.006698472680311886,0.00023102995478448045,0.017535949268243537,1.6440104688237558,0.6048401755104729,0.381985176727352,-5.0058757367340325,44.3
,,0.010606446633147169,0.006698472680311886,0.00023102995478448045,0.017535949268243537,1.6427830239038808,0.6048401755104729,0.381985176727352,-5.0058757367340325,44.4
,,0.010606446633147169,0.006698472680311886,0.00023102995478448045,0.017535949268243537,1.641555578984006,0.6048401755104729,0.381985176727352,-5.0058757367340325,44.5
,,0.010606446633147169,0.006698472680311886,0.00023102995478448045,0.017535949268243537,1.6403281340641311,0.6048401755104729,0.381985176727352,-5.0058757367340325,44.6
,,0.010606446633147169,0.006698472680311886,0.00023102995478448045,0.017535949268243537,1.64060728941937,0.6048401755104729,0.381985176727352,-5.0058757367340325,44.7
,,0.011434015571934174,0.007189436138674475,0.0002664159046029569,0.018889867615211605,1.6413183531863393,0.6052988726467626,0.38059748671213434,-4.93514253331824,44.8
,,0.011434015571934174,0.007189436138674475,0.0002664159046029569,0.018889867615211605,1.6420294169533085,0.6052988726467626,0.38059748671213434,-4.93514253331824,44.9
,,0.011772802119490739,0.0074395462124012875,0.0002514816300924483,0.019463829961984473,1.6426523835026507,0.6048553723745345,0.3822241679531593,-4.900945424954099,45.0
,,0.011772802119490739,0.0074395462124012875,0.0002514816300924483,0.019463829961984473,1.6432753500519937,0.6048553723745345,0.3822241679531593,-4.900945424954099,45.1
,,0.011772802119490739,0.0074395462124012875,0.0002514816300924483,0.019463829961984473,1.643898316601336,0.6048553723745345,0.3822241679531593,-4.900945424954099,45.2
,,0.011772802119490739,0.0074395462124012875,0.0002514816300924483,0.019463829961984473,1.6445212831506786,0.6048553723745345,0.3822241679531593,-4.900945424954099,45.3
,,0.011772802119490739,0.0074395462124012875,0.0002514816300924483,0.019463829961984473,1.6318421756221968,0.6048553723745345,0.3822241679531593,-4.900945424954099,45.4
,,0.011772802119490739,0.0074395462124012875,0.0002514816300924483,0.019463829961984473,1.6191630680937152,0.6048553723745345,0.3822241679531593,-4.900945424954099,45.5
,,0.011772802119490739,0.0074395462124012875,0.0002514816300924483,0.019463829961984473,1.6064839605652332,0.6048553723745345,0.3822241679531593,-4.900945424954099,45.6
,,0.011772802119490739,0.0074395462124012875,0.0002514816300924483,0.019463829961984473,1.5948040206093488,0.6048553723745345,0.3822241679531593,-4.900945424954099,45.7
,,0.012756717238623514,0.00811002255603848,0.0002959186014333572,0.021162658396095352,1.583018465819606,0.6027937038844425,0.38322324181799544,-4.814654629596232,45.8
,,0.013203908292431687,0.008486256633907978,0.00028470598830949723,0.02197487091464916,1.5710435735299815,0.6008639752067684,0.38618004478245943,-4.769307290624407,45.9
,,0.013203908292431687,0.008486256633907978,0.00028470598830949723,0.02197487091464916,1.5590686812403567,0.6008639752067684,0.38618004478245943,-4.769307290624407,46.0
,,0.013203908292431687,0.008486256633907978,0.00028470598830949723,0.02197487091464916,1.5470937889507324,0.6008639752067684,0.38618004478245943,-4.769307290624407,46.1
,,0.013203908292431687,0.008486256633907978,0.00028470598830949723,0.02197487091464916,1.5351188966611073,0.6008639752067684,0.38618004478245943,-4.769307290624407,46.2
,,0.013203908292431687,0.008486256633907978,0.00028470598830949723,0.02197487091464916,1.5256005224727551,0.6008639752067684,0.38618004478245943,-4.769307290624407,46.3
,,0.013203908292431687,0.008486256633907978,0.00028470598830949723,0.02197487091464916,1.5160821482844025,0.6008639752067684,0.38618004478245943,-4.769307290624407,46.4
,,0.013203908292431687,0.008486256633907978,0.00028470598830949723,0.02197487091464916,1.5065637740960498,0.6008639752067684,0.38618004478245943,-4.769307290624407,46.5
,,0.013203908292431687,0.008486256633907978,0.00028470598830949723,0.02197487091464916,1.5092908415184796,0.6008639752067684,0.38618004478245943,-4.769307290624407,46.6
,,0.014550684175607018,0.009599656263695045,0.0003658459845422981,0.02451618642384436,1.5115716184492676,0.5935133598696685,0.39156400990483786,-4.646027987014492,46.7
,,0.014550684175607018,0.009599656263695045,0.0003658459845422981,0.02451618642384436,1.5138523953800551,0.5935133598696685,0.39156400990483786,-4.646027987014492,46.8
,,0.014550684175607018,0.009599656263695045,0.0003658459845422981,0.02451618642384436,1.516133172310843,0.5935133598696685,0.39156400990483786,-4.646027987014492,46.9
,,0.014550684175607018,0.009599656263695045,0.0003658459845422981,0.02451618642384436,1.5184139492416306,0.5935133598696685,0.39156400990483786,-4.646027987014492,47.0
,,0.014550684175607018,0.009599656263695045,0.0003658459845422981,0.02451618642384436,1.5206947261724186,0.5935133598696685,0.39156400990483786,-4.646027987014492,47.1
,,0.014550684175607018,0.009599656263695045,0.0003658459845422981,0.02451618642384436,1.5229755031032066,0.5935133598696685,0.39156400990483786,-4.646027987014492,47.2
,,0.014550684175607018,0.009599656263695045,0.0003658459845422981,0.02451618642384436,1.5258226018890295,0.5935133598696685,0.39156400990483786,-4.646027987014492,47.3
,,0.014550684175607018,0.009599656263695045,0.0003658459845422981,0.02451618642384436,1.529024961850596,0.5935133598696685,0.39156400990483786,-4.646027987014492,47.4
,,0.015024692063894056,0.010064194357716704,0.0004102989315761077,0.025499185353186866,1.522138169112084,0.5892224341989138,0.39468689757411757,-4.5987712670367715,47.5
,,0.008979595480816232,0.01224327672525129,0.0005273624275675447,0.021750234633635065,1.5068129876552214,0.41285051090575264,0.562903202263299,-4.402778331413518,47.6
,,0.008979595480816232,0.01224327672525129,0.0005273624275675447,0.021750234633635065,1.491487806198359,0.41285051090575264,0.562903202263299,-4.402778331413518,47.7
,,0.008979595480816232,0.01224327672525129,0.0005273624275675447,0.021750234633635065,1.476162624741496,0.41285051090575264,0.562903202263299,-4.402778331413518,47.8
,,0.008979595480816232,0.01224327672525129,0.0005273624275675447,0.021750234633635065,1.4608374432846334,0.41285051090575264,0.562903202263299,-4.402778331413518,47.9
,,0.008979595480816232,0.01224327672525129,0.0005273624275675447,0.021750234633635065,1.4455122618277707,0.41285051090575264,0.562903202263299,-4.402778331413518,48.0
,,0.008979595480816232,0.01224327672525129,0.0005273624275675447,0.021750234633635065,1.4401567702670752,0.41285051090575264,0.562903202263299,-4.402778331413518,48.1
,,0.008979595480816232,0.01224327672525129,0.0005273624275675447,0.021750234633635065,1.4348012787063795,0.41285051090575264,0.562903202263299,-4.402778331413518,48.2
,,0.00908066324040011,0.01123426575883182,0.0004628352920423046,0.020777764291274235,1.4296528830913688,0.4370375519282215,0.540686938274188,-4.488786728499421,48.3
,,0.01667417113172854,0.011676115422972193,0.00047923115040976076,0.028829517705110493,1.4313906823572287,0.5783714907160162,0.40500557596571984,-4.450209940549905,48.4
,,0.01667417113172854,0.011676115422972193,0.00047923115040976076,0.028829517705110493,1.4331284816230887,0.5783714907160162,0.40500557596571984,-4.450209940549905,48.5
,,0.01667417113172854,0.011676115422972193,0.00047923115040976076,0.028829517705110493,1.434866280888949,0.5783714907160162,0.40500557596571984,-4.450209940549905,48.6
,,0.01667417113172854,0.011676115422972193,0.00047923115040976076,0.028829517705110493,1.4366040801548088,0.5783714907160162,0.40500557596571984,-4.450209940549905,48.7
,,0.01667417113172854,0.011676115422972193,0.00047923115040976076,0.028829517705110493,1.4383418794206688,0.5783714907160162,0.40500557596571984,-4.450209940549905,48.8
,,0.01667417113172854,0.011676115422972193,0.00047923115040976076,0.028829517705110493,1.4400796786865286,0.5783714907160162,0.40500557596571984,-4.450209940549905,48.9
,,0.01667417113172854,0.011676115422972193,0.00047923115040976076,0.028829517705110493,1.4420964810602521,0.5783714907160162,0.40500557596571984,-4.450209940549905,49.0
,,0.007927058494754006,0.013710716481669858,0.0005684181019409404,0.022206193078364803,1.434670028540218,0.3569751225155848,0.6174275992866164,-4.289577526987132,49.1
,,0.007927058494754006,0.013710716481669858,0.0005684181019409404,0.022206193078364803,1.426465924714276,0.3569751225155848,0.6174275992866164,-4.289577526987132,49.2
,,0.01728332804343402,0.012431524284523484,0.0005354719462311203,0.030250324274188625,1.427285344624546,0.5713435626930182,0.4109550751206591,-4.387519751490892,49.3
,,0.01728332804343402,0.012431524284523484,0.0005354719462311203,0.030250324274188625,1.4281047645348162,0.5713435626930182,0.4109550751206591,-4.387519751490892,49.4
,,0.01728332804343402,0.012431524284523484,0.0005354719462311203,0.030250324274188625,1.4289241844450862,0.5713435626930182,0.4109550751206591,-4.387519751490892,49.5
,,0.01728332804343402,0.012431524284523484,0.0005354719462311203,0.030250324274188625,1.4297436043553564,0.5713435626930182,0.4109550751206591,-4.387519751490892,49.6
,,0.01728332804343402,0.012431524284523484,0.0005354719462311203,0.030250324274188625,1.4305630242656264,0.5713435626930182,0.4109550751206591,-4.387519751490892,49.7
,,0.01778048891780877,0.012959361606178986,0.0005115594388356829,0.03125140996282344,1.431188275612186,0.5689499750238589,0.41468086149058214,-4.345936848053748,49.8
,,0.0177624947863002,0.013000701987971609,0.0005935509387238036,0.03135674771299561,1.431749672358782,0.5664648307559856,0.4146061991812865,-4.342751923903759,49.9
,,0.01778048891780877,0.012959361606178986,0.0005115594388356829,0.03125140996282344,1.4323749237053416,0.5689499750238589,0.41468086149058214,-4.345936848053748,50.0
,,0.005996185430679633,0.011970486848090304,0.0005984821252968662,0.018565154404066805,1.4194733741556584,0.32298063889876044,0.6447825096174853,-4.425311087884274,50.1
,,0.005996185430679633,0.011970486848090304,0.0005984821252968662,0.018565154404066805,1.4065718246059753,0.32298063889876044,0.6447825096174853,-4.425311087884274,50.2
,,0.005996185430679633,0.011970486848090304,0.0005984821252968662,0.018565154404066805,1.3936702750562922,0.32298063889876044,0.6447825096174853,-4.425311087884274,50.3
,,0.005996185430679633,0.011970486848090304,0.0005984821252968662,0.018565154404066805,1.3807687255066092,0.32298063889876044,0.6447825096174853,-4.425311087884274,50.4
,,0.017338032909004274,0.01279357876921792,0.0005391360350484969,0.030670747713270694,1.377359393664473,0.5652954101768576,0.4171264062037315,-4.358811892584217,50.5
,,0.017338032909004274,0.01279357876921792,0.0005391360350484969,0.030670747713270694,1.3768350401242118,0.5652954101768576,0.4171264062037315,-4.358811892584217,50.6
,,0.017338032909004274,0.01279357876921792,0.0005391360350484969,0.030670747713270694,1.37631068658395,0.5652954101768576,0.4171264062037315,-4.358811892584217,50.7
,,0.017338032909004274,0.01279357876921792,0.0005391360350484969,0.030670747713270694,1.3757863330436884,0.5652954101768576,0.4171264062037315,-4.358811892584217,50.8
,,0.016484748298796092,0.012147930590583233,0.0006017689817791526,0.02923444787115848,1.375281833485046,0.5638809520688529,0.4155348048343984,-4.410596445464675,50.9
,,0.016484748298796092,0.012147930590583233,0.0006017689817791526,0.02923444787115848,1.3733021458512755,0.5638809520688529,0.4155348048343984,-4.410596445464675,51.0
,,0.01589488950619397,0.011699681522851094,0.0005362548963509348,0.028130825925395998,1.371339947232677,0.5650345833552066,0.415902524649617,-4.4481936578180425,51.1
,,0.01589488950619397,0.011699681522851094,0.0005362548963509348,0.028130825925395998,1.3693777486140786,0.5650345833552066,0.415902524649617,-4.4481936578180425,51.2
,,0.01589488950619397,0.011699681522851094,0.0005362548963509348,0.028130825925395998,1.36741554999548,0.5650345833552066,0.415902524649617,-4.4481936578180425,51.3
,,0.01589488950619397,0.011699681522851094,0.0005362548963509348,0.028130825925395998,1.3659767457380767,0.5650345833552066,0.415902524649617,-4.4481936578180425,51.4
,,0.01589488950619397,0.011699681522851094,0.0005362548963509348,0.028130825925395998,1.3645379414806733,0.5650345833552066,0.415902524649617,-4.4481936578180425,51.5
,,0.01589488950619397,0.011699681522851094,0.0005362548963509348,0.028130825925395998,1.36309913722327,0.5650345833552066,0.415902524649617,-4.4481936578180425,51.6
,,0.015260625554893967,0.011112588460182668,0.0006077131971181084,0.026980927212194743,1.3618236569894935,0.5656078990493894,0.4118682939539617,-4.49967671775241,51.7
,,0.015260625554893967,0.011112588460182668,0.0006077131971181084,0.026980927212194743,1.3605481767557168,0.5656078990493894,0.4118682939539617,-4.49967671775241,51.8
,,0.003716153214838233,0.009060367024139352,0.0004775768083694911,0.013254097047347075,1.3480787577450917,0.28037769767062737,0.6835899112382661,-4.703845649357116,51.9
,,0.003716153214838233,0.009060367024139352,0.0004775768083694911,0.013254097047347075,1.3356093387344663,0.28037769767062737,0.6835899112382661,-4.703845649357116,52.0
,,0.003716153214838233,0.009060367024139352,0.0004775768083694911,0.013254097047347075,1.323139919723841,0.28037769767062737,0.6835899112382661,-4.703845649357116,52.1
,,0.003716153214838233,0.009060367024139352,0.0004775768083694911,0.013254097047347075,1.3103635060891812,0.28037769767062737,0.6835899112382661,-4.703845649357116,52.2
,,0.003716153214838233,0.009060367024139352,0.0004775768083694911,0.013254097047347075,1.2975870924545214,0.28037769767062737,0.6835899112382661,-4.703845649357116,52.3
,,0.014556070801295845,0.010265839042069855,0.0006226762195484409,0.02544458606291414,1.2960079964308295,0.5720694675599982,0.4034586774839488,-4.578933493705507,52.4
,,0.003716153214838233,0.009060367024139352,0.0004775768083694911,0.013254097047347075,1.2832315827961698,0.28037769767062737,0.6835899112382661,-4.703845649357116,52.5
,,0.014436369542338134,0.009914810485786296,0.0006206017838970962,0.024971781812021525,1.282076125549389,0.5781073073203131,0.3970405700490809,-4.613725631082481,52.6
,,0.014436369542338134,0.009914810485786296,0.0006206017838970962,0.024971781812021525,1.2809206683026086,0.5781073073203131,0.3970405700490809,-4.613725631082481,52.7
,,0.014436369542338134,0.009914810485786296,0.0006206017838970962,0.024971781812021525,1.2795614764310612,0.5781073073203131,0.3970405700490809,-4.613725631082481,52.8
,,0.014436369542338134,0.009914810485786296,0.0006206017838970962,0.024971781812021525,1.2782022845595138,0.5781073073203131,0.3970405700490809,-4.613725631082481,52.9
,,0.014436369542338134,0.009914810485786296,0.0006206017838970962,0.024971781812021525,1.2768430926879664,0.5781073073203131,0.3970405700490809,-4.613725631082481,53.0
,,0.014436369542338134,0.009914810485786296,0.0006206017838970962,0.024971781812021525,1.2754278505519232,0.5781073073203131,0.3970405700490809,-4.613725631082481,53.1
,,0.014409572827679951,0.00960545074511547,0.0006557331237118294,0.024670756696507253,1.2745026585511199,0.5840750247324185,0.38934560716069794,-4.645424555688272,53.2
,,0.014436369542338134,0.009914810485786296,0.0006206017838970962,0.024971781812021525,1.273087416415077,0.5781073073203131,0.3970405700490809,-4.613725631082481,53.3
,,0.014529605485512284,0.009328081324094465,0.0006538337072990861,0.024511520516905836,1.2728008303403389,0.5927663881761669,0.38055906477367635,-4.674725931134296,53.4
,,0.014529605485512284,0.009328081324094465,0.0006538337072990861,0.024511520516905836,1.2725142442656006,0.5927663881761669,0.38055906477367635,-4.674725931134296,53.5
,,0.014529605485512284,0.009328081324094465,0.0006538337072990861,0.024511520516905836,1.2722276581908627,0.5927663881761669,0.38055906477367635,-4.674725931134296,53.6
,,0.014529605485512284,0.009328081324094465,0.0006538337072990861,0.024511520516905836,1.2719410721161246,0.5927663881761669,0.38055906477367635,-4.674725931134296,53.7
,,0.014529605485512284,0.009328081324094465,0.0006538337072990861,0.024511520516905836,1.271576947632662,0.5927663881761669,0.38055906477367635,-4.674725931134296,53.8
,,0.014529605485512284,0.009328081324094465,0.0006538337072990861,0.024511520516905836,1.271212823149199,0.5927663881761669,0.38055906477367635,-4.674725931134296,53.9
,,0.014529605485512284,0.009328081324094465,0.0006538337072990861,0.024511520516905836,1.2709367958833628,0.5927663881761669,0.38055906477367635,-4.674725931134296,54.0
,,0.014529605485512284,0.009328081324094465,0.0006538337072990861,0.024511520516905836,1.2706607686175266,0.5927663881761669,0.38055906477367635,-4.674725931134296,54.1
,,0.015229881133251324,0.008975244714018619,0.0007100322570725743,0.024915158104342517,1.2719320355759431,0.6112696965224906,0.360232300209819,-4.713285078793592,54.2
,,0.015229881133251324,0.008975244714018619,0.0007100322570725743,0.024915158104342517,1.2732033025343594,0.6112696965224906,0.360232300209819,-4.713285078793592,54.3
,,0.015229881133251324,0.008975244714018619,0.0007100322570725743,0.024915158104342517,1.274474569492776,0.6112696965224906,0.360232300209819,-4.713285078793592,54.4
,,0.015229881133251324,0.008975244714018619,0.0007100322570725743,0.024915158104342517,1.2757458364511924,0.6112696965224906,0.360232300209819,-4.713285078793592,54.5
,,0.015229881133251324,0.008975244714018619,0.0007100322570725743,0.024915158104342517,1.277017103409609,0.6112696965224906,0.360232300209819,-4.713285078793592,54.6
,,0.015229881133251324,0.008975244714018619,0.0007100322570725743,0.024915158104342517,1.2782883703680255,0.6112696965224906,0.360232300209819,-4.713285078793592,54.7
,,0.015229881133251324,0.008975244714018619,0.0007100322570725743,0.024915158104342517,1.2796652521602996,0.6112696965224906,0.360232300209819,-4.713285078793592,54.8
,,0.015616407359698551,0.008765835652374317,0.0007901731752912257,0.025172416187364093,1.2821718236143917,0.6203777676112628,0.34823179416422256,-4.736893425464452,54.9
,,0.016658320532224952,0.008927057532275124,0.0007935096337376527,0.02637888769823773,1.2856177304445469,0.6315020073169283,0.3384167533671825,-4.71866844205659,55.0
,,0.016658320532224952,0.008927057532275124,0.0007935096337376527,0.02637888769823773,1.2890636372747017,0.6315020073169283,0.3384167533671825,-4.71866844205659,55.1
,,0.016658320532224952,0.008927057532275124,0.0007935096337376527,0.02637888769823773,1.2925095441048566,0.6315020073169283,0.3384167533671825,-4.71866844205659,55.2
,,0.016658320532224952,0.008927057532275124,0.0007935096337376527,0.02637888769823773,1.2959554509350115,0.6315020073169283,0.3384167533671825,-4.71866844205659,55.3
,,0.016658320532224952,0.008927057532275124,0.0007935096337376527,0.02637888769823773,1.2994013577651666,0.6315020073169283,0.3384167533671825,-4.71866844205659,55.4
,,0.016658320532224952,0.008927057532275124,0.0007935096337376527,0.02637888769823773,1.3028472645953215,0.6315020073169283,0.3384167533671825,-4.71866844205659,55.5
,,0.016658320532224952,0.008927057532275124,0.0007935096337376527,0.02637888769823773,1.3062931714254764,0.6315020073169283,0.3384167533671825,-4.71866844205659,55.6
,,0.003822112587109217,0.007015758068972516,0.00054281242843933,0.011380683084521063,1.2955047174039016,0.3358421070794684,0.6164619484497105,-4.959596507264422,55.7
,,0.018813424371438923,0.009247309317740147,0.0009032764381574189,0.02896401012733649,1.301268328207363,0.6495448761662546,0.3192689574781102,-4.683422654341558,55.8
,,0.018813424371438923,0.009247309317740147,0.0009032764381574189,0.02896401012733649,1.3070319390108247,0.6495448761662546,0.3192689574781102,-4.683422654341558,55.9
,,0.018813424371438923,0.009247309317740147,0.0009032764381574189,0.02896401012733649,1.312795549814286,0.6495448761662546,0.3192689574781102,-4.683422654341558,56.0
,,0.018813424371438923,0.009247309317740147,0.0009032764381574189,0.02896401012733649,1.3185591606177476,0.6495448761662546,0.3192689574781102,-4.683422654341558,56.1
,,0.018813424371438923,0.009247309317740147,0.0009032764381574189,0.02896401012733649,1.3243227714212091,0.6495448761662546,0.3192689574781102,-4.683422654341558,56.2
,,0.018813424371438923,0.009247309317740147,0.0009032764381574189,0.02896401012733649,1.3300863822246707,0.6495448761662546,0.3192689574781102,-4.683422654341558,56.3
,,0.020209463999587705,0.009592179204840573,0.0010267576288833288,0.030828400833311606,1.3366543639324764,0.6555469454565539,0.3111474791282638,-4.646807178691601,56.4
,,0.019885578839332924,0.009347642845407789,0.0010314658730520149,0.030264687557792727,1.3437038134812922,0.6570554809581264,0.3088630215513625,-4.67263106956004,56.5
,,0.021856309199076183,0.009993183498562925,0.0010478094096292901,0.0328973021072684,1.3598559360818376,0.6643799886023847,0.3037690892091425,-4.605852068560887,56.6
,,0.021856309199076183,0.009993183498562925,0.0010478094096292901,0.0328973021072684,1.3760080586823829,0.6643799886023847,0.3037690892091425,-4.605852068560887,56.7
,,0.021856309199076183,0.009993183498562925,0.0010478094096292901,0.0328973021072684,1.392160181282928,0.6643799886023847,0.3037690892091425,-4.605852068560887,56.8
,,0.021856309199076183,0.009993183498562925,0.0010478094096292901,0.0328973021072684,1.4083123038834735,0.6643799886023847,0.3037690892091425,-4.605852068560887,56.9
,,0.021856309199076183,0.009993183498562925,0.0010478094096292901,0.0328973021072684,1.4244644264840187,0.6643799886023847,0.3037690892091425,-4.605852068560887,57.0
,,0.021856309199076183,0.009993183498562925,0.0010478094096292901,0.0328973021072684,1.4406165490845642,0.6643799886023847,0.3037690892091425,-4.605852068560887,57.1
,,0.0237685706007678,0.010591242081495072,0.0012111650601684591,0.035570977742431335,1.4574025648683355,0.6682012165331944,0.2977495349772509,-4.547727838097807,57.2
,,0.010828600466585027,0.009266587053925223,0.0005020307320459682,0.02059721825255622,1.4614054925609932,0.5257312096132759,0.44989507516507443,-4.681340138293594,57.3
,,0.010828600466585027,0.009266587053925223,0.0005020307320459682,0.02059721825255622,1.45852222537278,0.5257312096132759,0.44989507516507443,-4.681340138293594,57.4
,,0.010828600466585027,0.009266587053925223,0.0005020307320459682,0.02059721825255622,1.4556389581845672,0.5257312096132759,0.44989507516507443,-4.681340138293594,57.5
,,0.010828600466585027,0.009266587053925223,0.0005020307320459682,0.02059721825255622,1.4527556909963542,0.5257312096132759,0.44989507516507443,-4.681340138293594,57.6
,,0.010828600466585027,0.009266587053925223,0.0005020307320459682,0.02059721825255622,1.449872423808141,0.5257312096132759,0.44989507516507443,-4.681340138293594,57.7
,,0.010828600466585027,0.009266587053925223,0.0005020307320459682,0.02059721825255622,1.4469891566199282,0.5257312096132759,0.44989507516507443,-4.681340138293594,57.8
,,0.010828600466585027,0.009266587053925223,0.0005020307320459682,0.02059721825255622,1.444105889431715,0.5257312096132759,0.44989507516507443,-4.681340138293594,57.9
,,0.010828600466585027,0.009266587053925223,0.0005020307320459682,0.02059721825255622,1.4412226222435018,0.5257312096132759,0.44989507516507443,-4.681340138293594,58.0
,,0.011848597151492266,0.00975331681225543,0.0005536191274048985,0.02215553309115259,1.4482966479453987,0.5347917878005737,0.44022036265740944,-4.630147865950124,58.1
,,0.013217792971466583,0.010467411673477638,0.000489069141728349,0.02417427378667257,1.4559032193601076,0.5467710462828312,0.43299797817497987,-4.559488498274464,58.2
,,0.013217792971466583,0.010467411673477638,0.000489069141728349,0.02417427378667257,1.4544862670386047,0.5467710462828312,0.43299797817497987,-4.559488498274464,58.3
,,0.013217792971466583,0.010467411673477638,0.000489069141728349,0.02417427378667257,1.4530693147171014,0.5467710462828312,0.43299797817497987,-4.559488498274464,58.4
,,0.013217792971466583,0.010467411673477638,0.000489069141728349,0.02417427378667257,1.4516523623955986,0.5467710462828312,0.43299797817497987,-4.559488498274464,58.5
,,0.013217792971466583,0.010467411673477638,0.000489069141728349,0.02417427378667257,1.450235410074095,0.5467710462828312,0.43299797817497987,-4.559488498274464,58.6
,,0.013217792971466583,0.010467411673477638,0.000489069141728349,0.02417427378667257,1.4488184577525922,0.5467710462828312,0.43299797817497987,-4.559488498274464,58.7
,,0.013217792971466583,0.010467411673477638,0.000489069141728349,0.02417427378667257,1.4476044320984987,0.5467710462828312,0.43299797817497987,-4.559488498274464,58.8
,,0.026242581532469177,0.011117662701625623,0.0013251482439066919,0.03868539247800149,1.4586507492649132,0.6783589321833057,0.28738658158755137,-4.499220200955174,58.9
,,0.026242581532469177,0.011117662701625623,0.0013251482439066919,0.03868539247800149,1.4696332118313649,0.6783589321833057,0.28738658158755137,-4.499220200955174,59.0
,,0.026837679883049984,0.01131337993312172,0.001166443234663342,0.03931750305083504,1.4904253561621494,0.6825886132278177,0.2877441102629085,-4.481769188837766,59.1
,,0.026837679883049984,0.01131337993312172,0.001166443234663342,0.03931750305083504,1.5112175004929334,0.6825886132278177,0.2877441102629085,-4.481769188837766,59.2
,,0.026837679883049984,0.01131337993312172,0.001166443234663342,0.03931750305083504,1.5320096448237175,0.6825886132278177,0.2877441102629085,-4.481769188837766,59.3
,,0.026837679883049984,0.01131337993312172,0.001166443234663342,0.03931750305083504,1.552801789154502,0.6825886132278177,0.2877441102629085,-4.481769188837766,59.4
,,0.026837679883049984,0.01131337993312172,0.001166443234663342,0.03931750305083504,1.564101715777739,0.6825886132278177,0.2877441102629085,-4.481769188837766,59.5
,,0.026837679883049984,0.01131337993312172,0.001166443234663342,0.03931750305083504,1.575401642400976,0.6825886132278177,0.2877441102629085,-4.481769188837766,59.6
,,0.026343006910392257,0.011300556486748175,0.0013348231623688967,0.038978386559509325,1.5862450987776864,0.6758362578752124,0.289918528810712,-4.482903307861534,59.7
,,0.026343006910392257,0.011300556486748175,0.0013348231623688967,0.038978386559509325,1.5970885551543963,0.6758362578752124,0.289918528810712,-4.482903307861534,59.8
,,0.026343006910392257,0.011300556486748175,0.0013348231623688967,0.038978386559509325,1.6079121575494872,0.6758362578752124,0.289918528810712,-4.482903307861534,59.9
,,0.026343006910392257,0.011300556486748175,0.0013348231623688967,0.038978386559509325,1.6187357599445784,0.6758362578752124,0.289918528810712,-4.482903307861534,60.0
,,0.017751714587461213,0.013179054562863715,0.0005365931117079828,0.031467362262032915,1.6186067560237398,0.5641310015005492,0.4188166282613704,-4.329126485192092,60.1
,,0.017751714587461213,0.013179054562863715,0.0005365931117079828,0.031467362262032915,1.618477752102901,0.5641310015005492,0.4188166282613704,-4.329126485192092,60.2
,,0.017751714587461213,0.013179054562863715,0.0005365931117079828,0.031467362262032915,1.6183487481820622,0.5641310015005492,0.4188166282613704,-4.329126485192092,60.3
,,0.017751714587461213,0.013179054562863715,0.0005365931117079828,0.031467362262032915,1.6182197442612234,0.5641310015005492,0.4188166282613704,-4.329126485192092,60.4
,,0.017751714587461213,0.013179054562863715,0.0005365931117079828,0.031467362262032915,1.6180907403403848,0.5641310015005492,0.4188166282613704,-4.329126485192092,60.5
,,0.02592284350935067,0.011503375440127956,0.0013273479305920006,0.038753566880070624,1.6280343439024987,0.6689150340554002,0.296833978552918,-4.4651147701476175,60.6
,,0.02592284350935067,0.011503375440127956,0.0013273479305920006,0.038753566880070624,1.6378146234409854,0.6689150340554002,0.296833978552918,-4.4651147701476175,60.7
,,0.02592284350935067,0.011503375440127956,0.0013273479305920006,0.038753566880070624,1.6475949029794723,0.6689150340554002,0.296833978552918,-4.4651147701476175,60.8
,,0.02592284350935067,0.011503375440127956,0.0013273479305920006,0.038753566880070624,1.6680765034795018,0.6689150340554002,0.296833978552918,-4.4651147701476175,60.9
,,0.02608275151943467,0.011464603810126166,0.0014179956738803368,0.03896535100344117,1.68879775933616,0.6693832045072866,0.2942256008193968,-4.4684909197345855,61.0
,,0.02608275151943467,0.011464603810126166,0.0014179956738803368,0.03896535100344117,1.7095190151928183,0.6693832045072866,0.2942256008193968,-4.4684909197345855,61.1
,,0.02608275151943467,0.011464603810126166,0.0014179956738803368,0.03896535100344117,1.730240271049477,0.6693832045072866,0.2942256008193968,-4.4684909197345855,61.2
,,0.02001145447026389,0.01491585317760046,0.0004917307967307269,0.035419038444595076,1.7405899195557768,0.5649914664275033,0.4211252996303916,-4.205330659996359,61.3
,,0.02608275151943467,0.011464603810126166,0.0014179956738803368,0.03896535100344117,1.7501138578014674,0.6693832045072866,0.2942256008193968,-4.4684909197345855,61.4
,,0.02516973080422687,0.011681309728016965,0.0013000943206889094,0.03815113485293274,1.7694977052355847,0.659737407583094,0.30618511803244575,-4.449765173620603,61.5
,,0.02516973080422687,0.011681309728016965,0.0013000943206889094,0.03815113485293274,1.7772605962818226,0.659737407583094,0.30618511803244575,-4.449765173620603,61.6
,,0.02516973080422687,0.011681309728016965,0.0013000943206889094,0.03815113485293274,1.7850234873280606,0.659737407583094,0.30618511803244575,-4.449765173620603,61.7
,,0.02516973080422687,0.011681309728016965,0.0013000943206889094,0.03815113485293274,1.7927863783742986,0.659737407583094,0.30618511803244575,-4.449765173620603,61.8
,,0.025066186926675282,0.011525881476706364,0.0013870199836465739,0.03797908838702822,1.800772301333001,0.6599996996040761,0.30347967700675604,-4.463160209145091,61.9
,,0.025066186926675282,0.011525881476706364,0.0013870199836465739,0.03797908838702822,1.8087582242917033,0.6599996996040761,0.30347967700675604,-4.463160209145091,62.0
,,0.025066186926675282,0.011525881476706364,0.0013870199836465739,0.03797908838702822,1.8167441472504053,0.6599996996040761,0.30347967700675604,-4.463160209145091,62.1
,,0.025066186926675282,0.011525881476706364,0.0013870199836465739,0.03797908838702822,1.8242400200738678,0.6599996996040761,0.30347967700675604,-4.463160209145091,62.2
,,0.025066186926675282,0.011525881476706364,0.0013870199836465739,0.03797908838702822,1.83222594303257,0.6599996996040761,0.30347967700675604,-4.463160209145091,62.3
,,0.023848748030509646,0.011696721223424219,0.0012416484006927137,0.036787117654626576,1.837573787190722,0.6482907482562793,0.3179569906302014,-4.448446713766409,62.4
,,0.023848748030509646,0.011696721223424219,0.0012416484006927137,0.036787117654626576,1.8429216313488737,0.6482907482562793,0.3179569906302014,-4.448446713766409,62.5
,,0.023848748030509646,0.011696721223424219,0.0012416484006927137,0.036787117654626576,1.8482694755070257,0.6482907482562793,0.3179569906302014,-4.448446713766409,62.6
,,0.023848748030509646,0.011696721223424219,0.0012416484006927137,0.036787117654626576,1.8536173196651775,0.6482907482562793,0.3179569906302014,-4.448446713766409,62.7
,,0.013782184174369376,0.016020901054088942,0.0004701954131542863,0.030273280641612603,1.8458689062719957,0.4552590232135219,0.5292092800826868,-4.133861093350055,62.8
,,0.013782184174369376,0.016020901054088942,0.0004701954131542863,0.030273280641612603,1.8381204928788142,0.4552590232135219,0.5292092800826868,-4.133861093350055,62.9
,,0.013782184174369376,0.016020901054088942,0.0004701954131542863,0.030273280641612603,1.8303720794856322,0.4552590232135219,0.5292092800826868,-4.133861093350055,63.0
,,0.013782184174369376,0.016020901054088942,0.0004701954131542863,0.030273280641612603,1.8226236660924506,0.4552590232135219,0.5292092800826868,-4.133861093350055,63.1
,,0.022450034552573342,0.011593499217540555,0.0011646479507507349,0.03520818172086463,1.8252854059313521,0.637636863231403,0.32928423596127265,-4.45731075024046,63.2
,,0.022450034552573342,0.011593499217540555,0.0011646479507507349,0.03520818172086463,1.827947145770254,0.637636863231403,0.32928423596127265,-4.45731075024046,63.3
,,0.022450034552573342,0.011593499217540555,0.0011646479507507349,0.03520818172086463,1.8306088856091556,0.637636863231403,0.32928423596127265,-4.45731075024046,63.4
,,0.022450034552573342,0.011593499217540555,0.0011646479507507349,0.03520818172086463,1.8332706254480573,0.637636863231403,0.32928423596127265,-4.45731075024046,63.5
,,0.022450034552573342,0.011593499217540555,0.0011646479507507349,0.03520818172086463,1.8359323652869588,0.637636863231403,0.32928423596127265,-4.45731075024046,63.6
,,0.022450034552573342,0.011593499217540555,0.0011646479507507349,0.03520818172086463,1.8385941051258605,0.637636863231403,0.32928423596127265,-4.45731075024046,63.7
,,0.02217753347556281,0.011253012733386062,0.001264865150736582,0.03469541135968545,1.8416377952117668,0.6392065292337803,0.3243372046155236,-4.487119387660126,63.8
,,0.02217753347556281,0.011253012733386062,0.001264865150736582,0.03469541135968545,1.8437411331357376,0.6392065292337803,0.3243372046155236,-4.487119387660126,63.9
,,0.02110034736333724,0.01138026260589288,0.0009512169351026113,0.03343182690433273,1.8436085719239872,0.631145507654045,0.3404020557553799,-4.475874774461196,64.0
,,0.02110034736333724,0.01138026260589288,0.0009512169351026113,0.03343182690433273,1.843476010712237,0.631145507654045,0.3404020557553799,-4.475874774461196,64.1
,,0.02110034736333724,0.01138026260589288,0.0009512169351026113,0.03343182690433273,1.8433434495004866,0.631145507654045,0.3404020557553799,-4.475874774461196,64.2
,,0.02110034736333724,0.01138026260589288,0.0009512169351026113,0.03343182690433273,1.8432108882887361,0.631145507654045,0.3404020557553799,-4.475874774461196,64.3
,,0.02110034736333724,0.01138026260589288,0.0009512169351026113,0.03343182690433273,1.843078327076986,0.631145507654045,0.3404020557553799,-4.475874774461196,64.4
,,0.02110034736333724,0.01138026260589288,0.0009512169351026113,0.03343182690433273,1.8429457658652357,0.631145507654045,0.3404020557553799,-4.475874774461196,64.5
,,0.02110034736333724,0.01138026260589288,0.0009512169351026113,0.03343182690433273,1.842813204653485,0.631145507654045,0.3404020557553799,-4.475874774461196,64.6
,,0.02157051021169911,0.015992979601872567,0.0004363812937863883,0.037999871107358064,1.851746082499793,0.5676469309792561,0.42086931181131776,-4.135605427915187,64.7
,,0.02157051021169911,0.015992979601872567,0.0004363812937863883,0.037999871107358064,1.8441268955210637,0.5676469309792561,0.42086931181131776,-4.135605427915187,64.8
,,0.02157051021169911,0.015992979601872567,0.0004363812937863883,0.037999871107358064,1.836507708542335,0.5676469309792561,0.42086931181131776,-4.135605427915187,64.9
,,0.02157051021169911,0.015992979601872567,0.0004363812937863883,0.037999871107358064,1.828888521563606,0.5676469309792561,0.42086931181131776,-4.135605427915187,65.0
,,0.02157051021169911,0.015992979601872567,0.0004363812937863883,0.037999871107358064,1.8212693345848772,0.5676469309792561,0.42086931181131776,-4.135605427915187,65.1
,,0.02157051021169911,0.015992979601872567,0.0004363812937863883,0.037999871107358064,1.813650147606148,0.5676469309792561,0.42086931181131776,-4.135605427915187,65.2
,,0.02157051021169911,0.015992979601872567,0.0004363812937863883,0.037999871107358064,1.8060309606274192,0.5676469309792561,0.42086931181131776,-4.135605427915187,65.3
,,0.02157051021169911,0.015992979601872567,0.0004363812937863883,0.037999871107358064,1.7976074027443458,0.5676469309792561,0.42086931181131776,-4.135605427915187,65.4
,,0.01925871727151443,0.011077348628420287,0.000991653222640333,0.03132771912257505,1.7932877496814428,0.6147500619550823,0.3535957592405074,-4.502852919762121,65.5
,,0.01960945943878892,0.014170755023813212,0.0004247115445793706,0.0342049260071815,1.7843619276257836,0.573293432491911,0.4142898897321979,-4.256574943437709,65.6
,,0.01960945943878892,0.014170755023813212,0.0004247115445793706,0.0342049260071815,1.7754361055701244,0.573293432491911,0.4142898897321979,-4.256574943437709,65.7
,,0.01960945943878892,0.014170755023813212,0.0004247115445793706,0.0342049260071815,1.7665102835144657,0.573293432491911,0.4142898897321979,-4.256574943437709,65.8
,,0.01960945943878892,0.014170755023813212,0.0004247115445793706,0.0342049260071815,1.7575844614588063,0.573293432491911,0.4142898897321979,-4.256574943437709,65.9
,,0.01960945943878892,0.014170755023813212,0.0004247115445793706,0.0342049260071815,1.7486586394031471,0.573293432491911,0.4142898897321979,-4.256574943437709,66.0
,,0.01960945943878892,0.014170755023813212,0.0004247115445793706,0.0342049260071815,1.7397328173474877,0.573293432491911,0.4142898897321979,-4.256574943437709,66.1
,,0.01960945943878892,0.014170755023813212,0.0004247115445793706,0.0342049260071815,1.7301731021086024,0.573293432491911,0.4142898897321979,-4.256574943437709,66.2
,,0.01960945943878892,0.014170755023813212,0.0004247115445793706,0.0342049260071815,1.7325645881096585,0.573293432491911,0.4142898897321979,-4.256574943437709,66.3
,,0.01960945943878892,0.014170755023813212,0.0004247115445793706,0.0342049260071815,1.7349560741107148,0.573293432491911,0.4142898897321979,-4.256574943437709,66.4
,,0.018170866381160368,0.010440227751991849,0.0007334462168098986,0.029344540349962114,1.7413105455232152,0.6192247745050751,0.35578092645112186,-4.5620888814407055,66.5
,,0.018170866381160368,0.010440227751991849,0.0007334462168098986,0.029344540349962114,1.7476650169357153,0.6192247745050751,0.35578092645112186,-4.5620888814407055,66.6
,,0.018170866381160368,0.010440227751991849,0.0007334462168098986,0.029344540349962114,1.7540194883482156,0.6192247745050751,0.35578092645112186,-4.5620888814407055,66.7
,,0.018170866381160368,0.010440227751991849,0.0007334462168098986,0.029344540349962114,1.760373959760716,0.6192247745050751,0.35578092645112186,-4.5620888814407055,66.8
,,0.018170866381160368,0.010440227751991849,0.0007334462168098986,0.029344540349962114,1.7667284311732163,0.6192247745050751,0.35578092645112186,-4.5620888814407055,66.9
,,0.018170866381160368,0.010440227751991849,0.0007334462168098986,0.029344540349962114,1.7730829025857164,0.6192247745050751,0.35578092645112186,-4.5620888814407055,67.0
,,0.018170866381160368,0.010440227751991849,0.0007334462168098986,0.029344540349962114,1.7789233360018641,0.6192247745050751,0.35578092645112186,-4.5620888814407055,67.1
,,0.018170866381160368,0.010440227751991849,0.0007334462168098986,0.029344540349962114,1.7842312237051996,0.6192247745050751,0.35578092645112186,-4.5620888814407055,67.2
,,0.018170866381160368,0.010440227751991849,0.0007334462168098986,0.029344540349962114,1.789539111408535,0.6192247745050751,0.35578092645112186,-4.5620888814407055,67.3
,,0.018068763880796167,0.009721107385911172,0.0009905571238439444,0.028780428390551283,1.796160866785802,0.6278142783561973,0.3377679878143387,-4.633455738407474,67.4
,,0.0177369608504888,0.010021399139297548,0.000674494534268986,0.02843285452405533,1.8017958895903887,0.6238192101142227,0.352458425544964,-4.6030325584129965,67.5
,,0.0177369608504888,0.010021399139297548,0.000674494534268986,0.02843285452405533,1.8074309123949754,0.6238192101142227,0.352458425544964,-4.6030325584129965,67.6
,,0.0177369608504888,0.010021399139297548,0.000674494534268986,0.02843285452405533,1.8130659351995624,0.6238192101142227,0.352458425544964,-4.6030325584129965,67.7
,,0.0177369608504888,0.010021399139297548,0.000674494534268986,0.02843285452405533,1.8187009580041493,0.6238192101142227,0.352458425544964,-4.6030325584129965,67.8
,,0.0177369608504888,0.010021399139297548,0.000674494534268986,0.02843285452405533,1.8121394925881913,0.6238192101142227,0.352458425544964,-4.6030325584129965,67.9
,,0.0177369608504888,0.010021399139297548,0.000674494534268986,0.02843285452405533,1.8055780271722335,0.6238192101142227,0.352458425544964,-4.6030325584129965,68.0
,,0.0177369608504888,0.010021399139297548,0.000674494534268986,0.02843285452405533,1.7988858222959445,0.6238192101142227,0.352458425544964,-4.6030325584129965,68.1
,,0.0177369608504888,0.010021399139297548,0.000674494534268986,0.02843285452405533,1.7921936174196562,0.6238192101142227,0.352458425544964,-4.6030325584129965,68.2
,,0.01694361746143671,0.008743674876471803,0.0008768108384270665,0.02656410317633558,1.7873670301151101,0.637838866569785,0.32915377637371307,-4.739424711270388,68.3
,,0.01694361746143671,0.008743674876471803,0.0008768108384270665,0.02656410317633558,1.7825404428105631,0.637838866569785,0.32915377637371307,-4.739424711270388,68.4
,,0.0158788303227026,0.008874242297891816,0.0005194412571559741,0.02527251387775039,1.776063883598984,0.628304346750488,0.35114204866278026,-4.72460232215073,68.5
,,0.0158788303227026,0.008874242297891816,0.0005194412571559741,0.02527251387775039,1.7695873243874047,0.628304346750488,0.35114204866278026,-4.72460232215073,68.6
,,0.0158788303227026,0.008874242297891816,0.0005194412571559741,0.02527251387775039,1.7635672354223522,0.628304346750488,0.35114204866278026,-4.72460232215073,68.7
,,0.0158788303227026,0.008874242297891816,0.0005194412571559741,0.02527251387775039,1.7575471464572998,0.628304346750488,0.35114204866278026,-4.72460232215073,68.8
,,0.0158788303227026,0.008874242297891816,0.0005194412571559741,0.02527251387775039,1.7515270574922472,0.628304346750488,0.35114204866278026,-4.72460232215073,68.9
,,0.0158788303227026,0.008874242297891816,0.0005194412571559741,0.02527251387775039,1.7455069685271951,0.628304346750488,0.35114204866278026,-4.72460232215073,69.0
,,0.0158788303227026,0.008874242297891816,0.0005194412571559741,0.02527251387775039,1.7504219968629005,0.628304346750488,0.35114204866278026,-4.72460232215073,69.1
,,0.01290412313837342,0.008000282950921896,0.0007862545747442826,0.021690660664039598,1.7533774874325574,0.5949160949148424,0.3688353745806076,-4.828278369062527,69.2
,,0.01290412313837342,0.008000282950921896,0.0007862545747442826,0.021690660664039598,1.7563329780022148,0.5949160949148424,0.3688353745806076,-4.828278369062527,69.3
,,0.01290412313837342,0.008000282950921896,0.0007862545747442826,0.021690660664039598,1.7592884685718717,0.5949160949148424,0.3688353745806076,-4.828278369062527,69.4
,,0.016281951744648533,0.008719863690973455,0.0005976013980239086,0.025599416833645895,1.7650691496441855,0.6360282287074912,0.3406274348997177,-4.7421516729525255,69.5
,,0.016281951744648533,0.008719863690973455,0.0005976013980239086,0.025599416833645895,1.7607772232335472,0.6360282287074912,0.3406274348997177,-4.7421516729525255,69.6
,,0.016281951744648533,0.008719863690973455,0.0005976013980239086,0.025599416833645895,1.7564852968229085,0.6360282287074912,0.3406274348997177,-4.7421516729525255,69.7
,,0.016281951744648533,0.008719863690973455,0.0005976013980239086,0.025599416833645895,1.75219337041227,0.6360282287074912,0.3406274348997177,-4.7421516729525255,69.8
,,0.016281951744648533,0.008719863690973455,0.0005976013980239086,0.025599416833645895,1.7479014440016316,0.6360282287074912,0.3406274348997177,-4.7421516729525255,69.9
,,0.0168228185078049,0.007941157500512507,0.0007576814786849365,0.02552165748700234,1.7461610685545474,0.6591585407951038,0.31115367426887447,-4.835696233427128,70.0
,,0.0168228185078049,0.007941157500512507,0.0007576814786849365,0.02552165748700234,1.7444206931074633,0.6591585407951038,0.31115367426887447,-4.835696233427128,70.1
,,0.0168228185078049,0.007941157500512507,0.0007576814786849365,0.02552165748700234,1.7426803176603787,0.6591585407951038,0.31115367426887447,-4.835696233427128,70.2
,,0.0168228185078049,0.007941157500512507,0.0007576814786849365,0.02552165748700234,1.7513115495636526,0.6591585407951038,0.31115367426887447,-4.835696233427128,70.3
,,0.01717866453241588,0.009124018875861225,0.0006042537332927678,0.026906937141569873,1.7469529713902259,0.6384474175574484,0.3390954097768739,-4.696844905747884,70.4
,,0.01717866453241588,0.009124018875861225,0.0006042537332927678,0.026906937141569873,1.7439318016393401,0.6384474175574484,0.3390954097768739,-4.696844905747884,70.5
,,0.01717866453241588,0.009124018875861225,0.0006042537332927678,0.026906937141569873,1.7409106318884542,0.6384474175574484,0.3390954097768739,-4.696844905747884,70.6
,,0.01717866453241588,0.009124018875861225,0.0006042537332927678,0.026906937141569873,1.7378894621375685,0.6384474175574484,0.3390954097768739,-4.696844905747884,70.7
,,0.01717866453241588,0.009124018875861225,0.0006042537332927678,0.026906937141569873,1.7348682923866827,0.6384474175574484,0.3390954097768739,-4.696844905747884,70.8
,,0.01828514888184244,0.00854618783106028,0.0007796305397569668,0.02761096725265969,1.7344771135684955,0.662242242892852,0.30952149386353167,-4.762269963174281,70.9
,,0.01828514888184244,0.00854618783106028,0.0007796305397569668,0.02761096725265969,1.7340859347503081,0.662242242892852,0.30952149386353167,-4.762269963174281,71.0
,,0.01828514888184244,0.00854618783106028,0.0007796305397569668,0.02761096725265969,1.733694755932121,0.662242242892852,0.30952149386353167,-4.762269963174281,71.1
,,0.01828514888184244,0.00854618783106028,0.0007796305397569668,0.02761096725265969,1.7333035771139338,0.662242242892852,0.30952149386353167,-4.762269963174281,71.2
,,0.019275479483912714,0.010313138606191109,0.000664415073387074,0.0302530331634909,1.7299063293619172,0.6371420472038551,0.3408960202587857,-4.574336603789805,71.3
,,0.019275479483912714,0.010313138606191109,0.000664415073387074,0.0302530331634909,1.7280185043491456,0.6371420472038551,0.3408960202587857,-4.574336603789805,71.4
