time,ecg,hr,rr,marker,norm_time
1716194935244381700,0.166,68.0,822.0,,0.0
1716194935252076904,0.161,,,,0.007695204
1716194935259772108,0.151,,,,0.015390408
1716194935267467312,0.131,,,,0.023085612
1716194935275162516,0.107,,,,0.030780816
1716194935282857720,0.087,,,,0.03847602
1716194935290552924,0.063,,,,0.046171224
1716194935298248128,0.043,,,,0.053866428
1716194935305943332,0.029,,,,0.061561632
1716194935313638536,0.021,,,,0.069256836
1716194935321333740,0.024,,,,0.07695204
1716194935329028944,0.024,,,,0.084647244
1716194935336724148,0.019,,,,0.092342448
1716194935344419352,0.017,,,,0.100037652
1716194935352114556,0.012,,,,0.107732856
1716194935359809760,0.019,,,,0.11542806
1716194935367504964,0.026,,,,0.123123264
1716194935375200168,0.021,,,,0.130818468
1716194935382895372,0.012,,,,0.138513672
1716194935390590576,0.017,,,,0.146208876
1716194935398285780,0.034,,,,0.15390408
1716194935405980984,0.034,,,,0.161599284
1716194935413676188,0.036,,,,0.169294488
1716194935421371392,0.056,,,,0.176989692
1716194935429066596,0.053,,,,0.184684896
1716194935436761800,0.043,,,,0.1923801
1716194935444457004,0.058,,,,0.200075304
1716194935452152208,0.063,,,,0.207770508
1716194935459847412,0.056,,,,0.215465712
1716194935467542616,0.061,,,,0.223160916
1716194935475237820,0.068,,,,0.23085612
1716194935482933024,0.061,,,,0.238551324
1716194935490628228,0.056,,,,0.246246528
1716194935498323432,0.07,,,,0.253941732
1716194935506018636,0.073,,,,0.261636936
1716194935513713840,0.063,,,,0.26933214
1716194935521409044,0.065,,,,0.277027344
1716194935529104248,0.068,,,,0.284722548
1716194935536799452,0.068,,,,0.292417752
1716194935544494656,0.068,,,,0.300112956
1716194935552189860,0.063,,,,0.30780816
1716194935559885064,0.063,,,,0.315503364
1716194935567580268,0.073,,,,0.323198568
1716194935575275472,0.075,,,,0.330893772
1716194935582970676,0.075,,,,0.338588976
1716194935590665880,0.078,,,,0.34628418
1716194935598361084,0.083,,,,0.353979384
1716194935606056288,0.09,,,,0.361674588
1716194935613751492,0.087,,,,0.369369792
1716194935621446696,0.08,,,,0.377064996
1716194935629141900,0.083,,,,0.3847602
1716194935636837104,0.09,,,,0.392455404
1716194935644532308,0.092,,,,0.400150608
1716194935652227512,0.09,,,,0.407845812
1716194935659922716,0.097,,,,0.415541016
1716194935667617920,0.097,,,,0.42323622
1716194935675313124,0.097,,,,0.430931424
1716194935683008328,0.102,,,,0.438626628
1716194935690703532,0.1,,,,0.446321832
1716194935698398736,0.097,,,,0.454017036
1716194935706093940,0.102,,,,0.46171224
1716194935713789144,0.104,,,,0.469407444
1716194935721484348,0.107,,,,0.477102648
1716194935729179552,0.102,,,,0.484797852
1716194935736874756,0.097,,,,0.492493056
1716194935744569960,0.107,,,,0.50018826
1716194935752265164,0.112,,,,0.507883464
1716194935759960368,0.112,,,,0.515578668
1716194935767655572,0.112,,,,0.523273872
1716194935775350776,0.109,,,,0.530969076
1716194935783045980,0.107,,,,0.53866428
1716194935790741184,0.1,,,,0.546359484
1716194935798436388,0.107,,,,0.554054688
1716194935806131612,0.109,68.0,869.0,,0.561749912
1716194935813826398,0.097,,,,0.569444698
1716194935821521184,0.09,,,,0.577139484
1716194935829215970,0.1,,,,0.58483427
1716194935836910756,0.107,,,,0.592529056
1716194935844605542,0.107,,,,0.600223842
1716194935852300328,0.112,,,,0.607918628
1716194935859995114,0.124,,,,0.615613414
1716194935867689900,0.112,,,,0.6233082
1716194935875384686,0.097,,,,0.631002986
1716194935883079472,0.1,,,,0.638697772
1716194935890774258,0.097,,,,0.646392558
1716194935898469044,0.095,,,,0.654087344
1716194935906163830,0.097,,,,0.66178213
1716194935913858616,0.097,,,,0.669476916
1716194935921553402,0.1,,,,0.677171702
1716194935929248188,0.085,,,,0.684866488
1716194935936942974,0.031,,,,0.692561274
1716194935944637760,0.08,,,,0.70025606
1716194935952332546,0.468,,,,0.707950846
1716194935960027332,1.04,,,,0.715645632
1716194935967722118,1.137,,,,0.723340418
1716194935975416904,0.227,,,,0.731035204
1716194935983111690,-0.778,,,,0.73872999
1716194935990806476,-0.546,,,,0.746424776
1716194935998501262,0.061,,,,0.754119562
1716194936006196048,0.019,,,,0.761814348
1716194936013890834,-0.007,,,,0.769509134
1716194936021585620,0.168,,,,0.77720392
1716194936029280406,0.134,,,,0.784898706
1716194936036975192,0.075,,,,0.792593492
1716194936044669978,0.134,,,,0.800288278
1716194936052364764,0.148,,,,0.807983064
1716194936060059550,0.126,,,,0.81567785
1716194936067754336,0.131,,,,0.823372636
1716194936075449122,0.134,,,,0.831067422
1716194936083143908,0.129,,,,0.838762208
1716194936090838694,0.134,,,,0.846456994
1716194936098533480,0.146,,,,0.85415178
1716194936106228266,0.151,,,,0.861846566
1716194936113923052,0.146,,,,0.869541352
1716194936121617838,0.151,,,,0.877236138
1716194936129312624,0.156,,,,0.884930924
1716194936137007410,0.166,,,,0.89262571
1716194936144702196,0.173,,,,0.900320496
1716194936152396982,0.175,,,,0.908015282
1716194936160091768,0.18,,,,0.915710068
1716194936167786554,0.183,,,,0.923404854
1716194936175481340,0.183,,,,0.93109964
1716194936183176126,0.19,,,,0.938794426
1716194936190870912,0.19,,,,0.946489212
1716194936198565698,0.187,,,,0.954183998
1716194936206260484,0.185,,,,0.961878784
1716194936213955270,0.173,,,,0.96957357
1716194936221650056,0.163,,,,0.977268356
1716194936229344842,0.156,,,,0.984963142
1716194936237039628,0.146,,,,0.992657928
1716194936244734414,0.139,,,,1.000352714
1716194936252429200,0.134,,,,1.0080475
1716194936260123986,0.122,,,,1.015742286
1716194936267818772,0.097,,,,1.023437072
1716194936275513558,0.07,,,,1.031131858
1716194936283208344,0.051,,,,1.038826644
1716194936290903130,0.036,,,,1.04652143
1716194936298597916,0.024,,,,1.054216216
1716194936306292702,0.014,,,,1.061911002
1716194936313987488,0.009,,,,1.069605788
1716194936321682274,0.014,,,,1.077300574
1716194936329377060,0.014,,,,1.08499536
1716194936337071846,0.017,,,,1.092690146
1716194936344766632,0.024,,,,1.100384932
1716194936352461418,0.029,,,,1.108079718
1716194936360156204,0.036,,,,1.115774504
1716194936367851006,0.043,,,,1.123469306
1716194936375546210,0.046,,,,1.13116451
1716194936383241414,0.043,,,,1.138859714
1716194936390936618,0.041,,,,1.146554918
1716194936398631822,0.051,,,,1.154250122
1716194936406327026,0.058,,,,1.161945326
1716194936414022230,0.056,,,,1.16964053
1716194936421717434,0.053,,,,1.177335734
1716194936429412638,0.056,,,,1.185030938
1716194936437107842,0.061,,,,1.192726142
1716194936444803046,0.063,,,,1.200421346
1716194936452498250,0.061,,,,1.20811655
1716194936460193454,0.068,,,,1.215811754
1716194936467888658,0.073,,,,1.223506958
1716194936475583862,0.07,,,,1.231202162
1716194936483279066,0.07,,,,1.238897366
1716194936490974270,0.07,,,,1.24659257
1716194936498669474,0.073,,,,1.254287774
1716194936506364678,0.073,,,,1.261982978
1716194936514059882,0.07,,,,1.269678182
1716194936521755086,0.073,,,,1.277373386
1716194936529450290,0.07,,,,1.28506859
1716194936537145494,0.068,,,,1.292763794
1716194936544840698,0.073,,,,1.300458998
1716194936552535902,0.075,,,,1.308154202
1716194936560231106,0.078,,,,1.315849406
1716194936567926310,0.083,,,,1.32354461
1716194936575621514,0.08,,,,1.331239814
1716194936583316718,0.08,,,,1.338935018
1716194936591011922,0.078,,,,1.346630222
1716194936598707126,0.08,,,,1.354325426
1716194936606402330,0.085,,,,1.36202063
1716194936614097534,0.085,,,,1.369715834
1716194936621792738,0.087,,,,1.377411038
1716194936629487942,0.085,,,,1.385106242
1716194936637183146,0.085,,,,1.392801446
1716194936644878350,0.092,,,,1.40049665
1716194936652573554,0.092,,,,1.408191854
1716194936660268758,0.092,,,,1.415887058
1716194936667963962,0.092,,,,1.423582262
1716194936675659166,0.092,,,,1.431277466
1716194936683354370,0.095,,,,1.43897267
1716194936691049574,0.095,,,,1.446667874
1716194936698744778,0.097,,,,1.454363078
1716194936706439982,0.095,,,,1.462058282
1716194936714135186,0.087,,,,1.469753486
1716194936721830390,0.09,,,,1.47744869
1716194936729525594,0.092,,,,1.485143894
1716194936737220798,0.095,,,,1.492839098
1716194936744916002,0.095,,,,1.500534302
1716194936752611206,0.092,,,,1.508229506
1716194936760306410,0.095,,,,1.51592471
1716194936768001614,0.09,,,,1.523619914
1716194936775696818,0.083,,,,1.531315118
1716194936783392022,0.09,,,,1.539010322
1716194936791087226,0.092,,,,1.546705526
1716194936798782430,0.092,,,,1.55440073
1716194936806477634,0.092,,,,1.562095934
1716194936814172838,0.09,,,,1.569791138
1716194936821868042,0.092,,,,1.577486342
1716194936829563246,0.092,,,,1.585181546
1716194936837258450,0.085,,,,1.59287675
1716194936844953654,0.08,,,,1.600571954
1716194936852648858,0.083,,,,1.608267158
1716194936860344062,0.092,,,,1.615962362
1716194936868039266,0.095,,,,1.623657566
1716194936875734470,0.097,,,,1.63135277
1716194936883429674,0.1,,,,1.639047974
1716194936891124878,0.08,,,,1.646743178
1716194936898820082,0.063,,,,1.654438382
1716194936906515286,0.063,,,,1.662133586
1716194936914210490,0.07,,,,1.66982879
1716194936921905694,0.075,,,,1.677523994
1716194936929600918,0.073,69.0,1011.0,,1.685219218
1716194936937296122,0.075,,,,1.692914422
1716194936944991326,0.08,,,,1.700609626
1716194936952686530,0.073,,,,1.70830483
1716194936960381734,0.046,,,,1.716000034
1716194936968076938,0.004,,,,1.723695238
1716194936975772142,0.117,,,,1.731390442
1716194936983467346,0.5760000000000001,,,,1.739085646
1716194936991162550,1.086,,,,1.74678085
1716194936998857754,0.949,,,,1.754476054
1716194937006552958,-0.095,,,,1.762171258
1716194937014248162,-0.852,,,,1.769866462
1716194937021943366,-0.378,,,,1.777561666
1716194937029638570,0.097,,,,1.78525687
1716194937037333774,-0.029,,,,1.792952074
1716194937045028978,0.017,,,,1.800647278
1716194937052724182,0.156,,,,1.808342482
1716194937060419386,0.092,,,,1.816037686
1716194937068114590,0.07,,,,1.82373289
1716194937075809794,0.126,,,,1.831428094
1716194937083504998,0.122,,,,1.839123298
1716194937091200202,0.107,,,,1.846818502
1716194937098895406,0.126,,,,1.854513706
1716194937106590610,0.136,,,,1.86220891
1716194937114285814,0.131,,,,1.869904114
1716194937121981018,0.141,,,,1.877599318
1716194937129676222,0.148,,,,1.885294522
1716194937137371426,0.146,,,,1.892989726
1716194937145066630,0.153,,,,1.90068493
1716194937152761834,0.161,,,,1.908380134
1716194937160457038,0.168,,,,1.916075338
1716194937168152242,0.173,,,,1.923770542
1716194937175847446,0.175,,,,1.931465746
1716194937183542650,0.183,,,,1.93916095
1716194937191237854,0.185,,,,1.946856154
1716194937198933058,0.19,,,,1.954551358
1716194937206628262,0.197,,,,1.962246562
1716194937214323466,0.2,,,,1.969941766
1716194937222018670,0.2,,,,1.97763697
1716194937229713874,0.197,,,,1.985332174
1716194937237409078,0.192,,,,1.993027378
1716194937245104282,0.192,,,,2.000722582
1716194937252799486,0.18,,,,2.008417786
1716194937260494690,0.168,,,,2.01611299
1716194937268189894,0.158,,,,2.023808194
1716194937275885098,0.146,,,,2.031503398
1716194937283580302,0.139,,,,2.039198602
1716194937291275506,0.124,,,,2.046893806
1716194937298970710,0.104,,,,2.05458901
1716194937306665914,0.085,,,,2.062284214
1716194937314361118,0.063,,,,2.069979418
1716194937322056322,0.048,,,,2.077674622
1716194937329751526,0.041,,,,2.085369826
1716194937337446730,0.039,,,,2.09306503
1716194937345141934,0.034,,,,2.100760234
1716194937352837138,0.026,,,,2.108455438
1716194937360532342,0.031,,,,2.116150642
1716194937368227546,0.036,,,,2.123845846
1716194937375922750,0.034,,,,2.13154105
1716194937383617954,0.039,,,,2.139236254
1716194937391313158,0.039,,,,2.146931458
1716194937399008362,0.034,,,,2.154626662
1716194937406703566,0.041,,,,2.162321866
1716194937414398770,0.048,,,,2.17001707
1716194937422093974,0.056,,,,2.177712274
1716194937429789178,0.061,,,,2.185407478
1716194937437484382,0.068,,,,2.193102682
1716194937445179586,0.078,,,,2.200797886
1716194937452874790,0.08,,,,2.20849309
1716194937460569994,0.083,,,,2.216188294
1716194937468265198,0.083,,,,2.223883498
1716194937475960402,0.087,,,,2.231578702
1716194937483655606,0.095,,,,2.239273906
1716194937491350832,0.092,,,,2.246969132
1716194937499045618,0.09,,,,2.254663918
1716194937506740404,0.087,,,,2.262358704
1716194937514435190,0.083,,,,2.27005349
1716194937522129976,0.083,,,,2.277748276
1716194937529824762,0.08,,,,2.285443062
1716194937537519548,0.08,,,,2.293137848
1716194937545214334,0.085,,,,2.300832634
1716194937552909120,0.078,,,,2.30852742
1716194937560603906,0.07,,,,2.316222206
1716194937568298692,0.073,,,,2.323916992
1716194937575993478,0.078,,,,2.331611778
1716194937583688264,0.08,,,,2.339306564
1716194937591383050,0.078,,,,2.34700135
1716194937599077836,0.08,,,,2.354696136
1716194937606772622,0.085,,,,2.362390922
1716194937614467408,0.085,,,,2.370085708
1716194937622162194,0.087,,,,2.377780494
1716194937629856980,0.087,,,,2.38547528
1716194937637551766,0.083,,,,2.393170066
1716194937645246552,0.08,,,,2.400864852
1716194937652941338,0.085,,,,2.408559638
1716194937660636124,0.097,,,,2.416254424
1716194937668330910,0.092,,,,2.42394921
1716194937676025696,0.085,,,,2.431643996
1716194937683720482,0.09,,,,2.439338782
1716194937691415268,0.09,,,,2.447033568
1716194937699110054,0.083,,,,2.454728354
1716194937706804840,0.08,,,,2.46242314
1716194937714499626,0.083,,,,2.470117926
1716194937722194412,0.092,,,,2.477812712
1716194937729889198,0.095,,,,2.485507498
1716194937737583984,0.087,,,,2.493202284
1716194937745278770,0.078,,,,2.50089707
1716194937752973556,0.08,,,,2.508591856
1716194937760668342,0.087,,,,2.516286642
1716194937768363128,0.083,,,,2.523981428
1716194937776057914,0.075,,,,2.531676214
1716194937783752700,0.087,,,,2.539371
1716194937791447486,0.092,,,,2.547065786
1716194937799142272,0.09,,,,2.554760572
1716194937806837058,0.097,,,,2.562455358
1716194937814531844,0.1,,,,2.570150144
1716194937822226630,0.092,,,,2.57784493
1716194937829921416,0.087,,,,2.585539716
1716194937837616202,0.1,,,,2.593234502
1716194937845310988,0.114,,,,2.600929288
1716194937853005774,0.102,,,,2.608624074
1716194937860700560,0.09,,,,2.61631886
1716194937868395346,0.095,,,,2.624013646
1716194937876090132,0.102,,,,2.631708432
1716194937883784918,0.109,,,,2.639403218
1716194937891479704,0.109,,,,2.647098004
1716194937899174490,0.109,,,,2.65479279
1716194937906869276,0.117,,,,2.662487576
1716194937914564062,0.109,,,,2.670182362
1716194937922258848,0.1,,,,2.677877148
1716194937929953634,0.1,,,,2.685571934
1716194937937648420,0.102,,,,2.69326672
1716194937945343206,0.112,,,,2.700961506
1716194937953037992,0.112,,,,2.708656292
1716194937960732778,0.104,,,,2.716351078
1716194937968427564,0.104,,,,2.724045864
1716194937976122350,0.107,,,,2.73174065
1716194937983817136,0.078,,,,2.739435436
1716194937991511922,0.043,,,,2.747130222
1716194937999206708,0.231,,,,2.754825008
1716194938006901494,0.756,,,,2.762519794
1716194938014596280,1.201,,,,2.77021458
1716194938022291066,0.8270000000000001,,,,2.777909366
1716194938029985852,-0.314,,,,2.785604152
1716194938037680638,-0.795,,,,2.793298938
1716194938045375424,-0.183,,,,2.800993724
1716194938053070226,0.124,68.0,998.0,,2.808688526
1716194938060765430,-0.024,,,,2.81638373
1716194938068460634,0.087,,,,2.824078934
1716194938076155838,0.187,,,,2.831774138
1716194938083851042,0.109,,,,2.839469342
1716194938091546246,0.114,,,,2.847164546
1716194938099241450,0.161,,,,2.85485975
1716194938106936654,0.153,,,,2.862554954
1716194938114631858,0.148,,,,2.870250158
1716194938122327062,0.156,,,,2.877945362
1716194938130022266,0.151,,,,2.885640566
1716194938137717470,0.153,,,,2.89333577
1716194938145412674,0.166,,,,2.901030974
1716194938153107878,0.163,,,,2.908726178
1716194938160803082,0.163,,,,2.916421382
1716194938168498286,0.178,,,,2.924116586
1716194938176193490,0.192,,,,2.93181179
1716194938183888694,0.195,,,,2.939506994
1716194938191583898,0.19,,,,2.947202198
1716194938199279102,0.19,,,,2.954897402
1716194938206974306,0.2,,,,2.962592606
1716194938214669510,0.209,,,,2.97028781
1716194938222364714,0.219,,,,2.977983014
1716194938230059918,0.224,,,,2.985678218
1716194938237755122,0.217,,,,2.993373422
1716194938245450326,0.212,,,,3.001068626
1716194938253145530,0.209,,,,3.00876383
1716194938260840734,0.209,,,,3.016459034
1716194938268535938,0.202,,,,3.024154238
1716194938276231142,0.19,,,,3.031849442
1716194938283926346,0.183,,,,3.039544646
1716194938291621550,0.173,,,,3.04723985
1716194938299316754,0.168,,,,3.054935054
1716194938307011958,0.158,,,,3.062630258
1716194938314707162,0.131,,,,3.070325462
1716194938322402366,0.109,,,,3.078020666
1716194938330097570,0.095,,,,3.08571587
1716194938337792774,0.078,,,,3.093411074
1716194938345487978,0.056,,,,3.101106278
1716194938353183182,0.039,,,,3.108801482
1716194938360878386,0.034,,,,3.116496686
1716194938368573590,0.036,,,,3.12419189
1716194938376268794,0.031,,,,3.131887094
1716194938383963998,0.034,,,,3.139582298
1716194938391659202,0.034,,,,3.147277502
1716194938399354406,0.021,,,,3.154972706
1716194938407049610,0.019,,,,3.16266791
1716194938414744814,0.036,,,,3.170363114
1716194938422440018,0.048,,,,3.178058318
1716194938430135222,0.043,,,,3.185753522
1716194938437830426,0.046,,,,3.193448726
1716194938445525630,0.061,,,,3.20114393
1716194938453220834,0.063,,,,3.208839134
1716194938460916038,0.065,,,,3.216534338
1716194938468611242,0.073,,,,3.224229542
1716194938476306446,0.07,,,,3.231924746
1716194938484001650,0.073,,,,3.23961995
1716194938491696854,0.075,,,,3.247315154
1716194938499392058,0.068,,,,3.255010358
1716194938507087262,0.075,,,,3.262705562
1716194938514782466,0.08,,,,3.270400766
1716194938522477670,0.073,,,,3.27809597
1716194938530172874,0.068,,,,3.285791174
1716194938537868078,0.07,,,,3.293486378
1716194938545563282,0.073,,,,3.301181582
1716194938553258486,0.068,,,,3.308876786
1716194938560953690,0.065,,,,3.31657199
1716194938568648894,0.065,,,,3.324267194
1716194938576344098,0.061,,,,3.331962398
1716194938584039302,0.058,,,,3.339657602
1716194938591734506,0.061,,,,3.347352806
1716194938599429710,0.065,,,,3.35504801
1716194938607124914,0.063,,,,3.362743214
1716194938614820138,0.058,,,,3.370438438
1716194938622514924,0.065,,,,3.378133224
1716194938630209710,0.068,,,,3.38582801
1716194938637904496,0.065,,,,3.393522796
1716194938645599282,0.07,,,,3.401217582
1716194938653294068,0.07,,,,3.408912368
1716194938660988854,0.061,,,,3.416607154
1716194938668683640,0.056,,,,3.42430194
1716194938676378426,0.058,,,,3.431996726
1716194938684073212,0.063,,,,3.439691512
1716194938691767998,0.061,,,,3.447386298
1716194938699462784,0.063,,,,3.455081084
1716194938707157570,0.068,,,,3.46277587
1716194938714852356,0.068,,,,3.470470656
1716194938722547142,0.073,,,,3.478165442
1716194938730241928,0.073,,,,3.485860228
1716194938737936714,0.07,,,,3.493555014
1716194938745631500,0.07,,,,3.5012498
1716194938753326286,0.073,,,,3.508944586
1716194938761021072,0.075,,,,3.516639372
1716194938768715858,0.068,,,,3.524334158
1716194938776410644,0.056,,,,3.532028944
1716194938784105430,0.061,,,,3.53972373
1716194938791800216,0.068,,,,3.547418516
1716194938799495002,0.08,,,,3.555113302
1716194938807189788,0.097,,,,3.562808088
1716194938814884574,0.104,,,,3.570502874
1716194938822579360,0.104,,,,3.57819766
1716194938830274146,0.1,,,,3.585892446
1716194938837968932,0.092,,,,3.593587232
1716194938845663718,0.09,,,,3.601282018
1716194938853358504,0.097,,,,3.608976804
1716194938861053290,0.102,,,,3.61667159
1716194938868748076,0.1,,,,3.624366376
1716194938876442862,0.097,,,,3.632061162
1716194938884137648,0.104,,,,3.639755948
1716194938891832434,0.092,,,,3.647450734
1716194938899527220,0.034,,,,3.65514552
1716194938907222006,0.083,,,,3.662840306
1716194938914916792,0.49,,,,3.670535092
1716194938922611578,1.059,,,,3.678229878
1716194938930306364,1.088,,,,3.685924664
1716194938938001150,0.126,,,,3.69361945
1716194938945695936,-0.81,,,,3.701314236
1716194938953390722,-0.5,,,,3.709009022
1716194938961085508,0.078,,,,3.716703808
1716194938968780294,0.012,,,,3.724398594
1716194938976475080,0.004,,,,3.73209338
1716194938984169866,0.17,,,,3.739788166
1716194938991864652,0.124,,,,3.747482952
1716194938999559438,0.078,,,,3.755177738
1716194939007254224,0.139,,,,3.762872524
1716194939014949010,0.144,,,,3.77056731
1716194939022643796,0.122,,,,3.778262096
1716194939030338582,0.134,,,,3.785956882
1716194939038033368,0.148,,,,3.793651668
1716194939045728154,0.148,,,,3.801346454
1716194939053422940,0.153,,,,3.80904124
1716194939061117726,0.161,,,,3.816736026
1716194939068812512,0.166,,,,3.824430812
1716194939076507298,0.17,,,,3.832125598
1716194939084202084,0.178,,,,3.839820384
1716194939091896870,0.18,,,,3.84751517
1716194939099591656,0.187,,,,3.855209956
1716194939107286442,0.197,,,,3.862904742
1716194939114981228,0.2,,,,3.870599528
1716194939122676014,0.2,,,,3.878294314
1716194939130370800,0.207,,,,3.8859891
1716194939138065586,0.214,,,,3.893683886
1716194939145760372,0.219,,,,3.901378672
1716194939153455158,0.219,,,,3.909073458
1716194939161149944,0.222,,,,3.916768244
1716194939168844730,0.217,,,,3.92446303
1716194939176539532,0.207,67.0,1029.0,,3.932157832
1716194939184234736,0.202,,,,3.939853036
1716194939191929940,0.197,,,,3.94754824
1716194939199625144,0.187,,,,3.955243444
1716194939207320348,0.17,,,,3.962938648
1716194939215015552,0.148,,,,3.970633852
1716194939222710756,0.134,,,,3.978329056
1716194939230405960,0.104,,,,3.98602426
1716194939238101164,0.063,,,,3.993719464
1716194939245796368,0.041,,,,4.001414668
1716194939253491572,0.034,,,,4.009109872
1716194939261186776,0.021,,,,4.016805076
1716194939268881980,0.009,,,,4.02450028
1716194939276577184,0.007,,,,4.032195484
1716194939284272388,0.012,,,,4.039890688
1716194939291967592,0.009,,,,4.047585892
1716194939299662796,0.012,,,,4.055281096
1716194939307358000,0.019,,,,4.0629763
1716194939315053204,0.024,,,,4.070671504
1716194939322748408,0.034,,,,4.078366708
1716194939330443612,0.041,,,,4.086061912
1716194939338138816,0.046,,,,4.093757116
1716194939345834020,0.058,,,,4.10145232
1716194939353529224,0.063,,,,4.109147524
1716194939361224428,0.068,,,,4.116842728
1716194939368919632,0.075,,,,4.124537932
1716194939376614836,0.083,,,,4.132233136
1716194939384310040,0.083,,,,4.13992834
1716194939392005244,0.075,,,,4.147623544
1716194939399700448,0.07,,,,4.155318748
1716194939407395652,0.061,,,,4.163013952
1716194939415090856,0.053,,,,4.170709156
1716194939422786060,0.061,,,,4.17840436
1716194939430481264,0.061,,,,4.186099564
1716194939438176468,0.056,,,,4.193794768
1716194939445871672,0.058,,,,4.201489972
1716194939453566876,0.058,,,,4.209185176
1716194939461262080,0.065,,,,4.21688038
1716194939468957284,0.068,,,,4.224575584
1716194939476652488,0.061,,,,4.232270788
1716194939484347692,0.058,,,,4.239965992
1716194939492042896,0.061,,,,4.247661196
1716194939499738100,0.063,,,,4.2553564
1716194939507433304,0.063,,,,4.263051604
1716194939515128508,0.065,,,,4.270746808
1716194939522823712,0.073,,,,4.278442012
1716194939530518916,0.068,,,,4.286137216
1716194939538214120,0.058,,,,4.29383242
1716194939545909324,0.061,,,,4.301527624
1716194939553604528,0.063,,,,4.309222828
1716194939561299732,0.058,,,,4.316918032
1716194939568994936,0.056,,,,4.324613236
1716194939576690140,0.053,,,,4.33230844
1716194939584385344,0.053,,,,4.340003644
1716194939592080548,0.053,,,,4.347698848
1716194939599775752,0.053,,,,4.355394052
1716194939607470956,0.056,,,,4.363089256
1716194939615166160,0.061,,,,4.37078446
1716194939622861364,0.061,,,,4.378479664
1716194939630556568,0.058,,,,4.386174868
1716194939638251772,0.058,,,,4.393870072
1716194939645946976,0.063,,,,4.401565276
1716194939653642180,0.063,,,,4.40926048
1716194939661337384,0.065,,,,4.416955684
1716194939669032588,0.068,,,,4.424650888
1716194939676727792,0.068,,,,4.432346092
1716194939684422996,0.068,,,,4.440041296
1716194939692118200,0.068,,,,4.4477365
1716194939699813404,0.073,,,,4.455431704
1716194939707508608,0.075,,,,4.463126908
1716194939715203812,0.068,,,,4.470822112
1716194939722899016,0.058,,,,4.478517316
1716194939730594220,0.053,,,,4.48621252
1716194939738289444,0.063,,,,4.493907744
1716194939745984230,0.075,,,,4.50160253
1716194939753679016,0.083,,,,4.509297316
1716194939761373802,0.095,,,,4.516992102
1716194939769068588,0.092,,,,4.524686888
1716194939776763374,0.073,,,,4.532381674
1716194939784458160,0.068,,,,4.54007646
1716194939792152946,0.075,,,,4.547771246
1716194939799847732,0.08,,,,4.555466032
1716194939807542518,0.08,,,,4.563160818
1716194939815237304,0.078,,,,4.570855604
1716194939822932090,0.085,,,,4.57855039
1716194939830626876,0.087,,,,4.586245176
1716194939838321662,0.075,,,,4.593939962
1716194939846016448,0.034,,,,4.601634748
1716194939853711234,0.083,,,,4.609329534
1716194939861406020,0.471,,,,4.61702432
1716194939869100806,1.037,,,,4.624719106
1716194939876795592,1.115,,,,4.632413892
1716194939884490378,0.202,,,,4.640108678
1716194939892185164,-0.788,,,,4.647803464
1716194939899879950,-0.544,,,,4.65549825
1716194939907574736,0.058,,,,4.663193036
1716194939915269522,0.002,,,,4.670887822
1716194939922964308,-0.026,,,,4.678582608
1716194939930659094,0.141,,,,4.686277394
1716194939938353880,0.112,,,,4.69397218
1716194939946048666,0.061,,,,4.701666966
1716194939953743452,0.114,,,,4.709361752
1716194939961438238,0.126,,,,4.717056538
1716194939969133024,0.102,,,,4.724751324
1716194939976827810,0.112,,,,4.73244611
1716194939984522596,0.129,,,,4.740140896
1716194939992217382,0.122,,,,4.747835682
1716194939999912168,0.124,,,,4.755530468
1716194940007606954,0.136,,,,4.763225254
1716194940015301740,0.141,,,,4.77092004
1716194940022996526,0.148,,,,4.778614826
1716194940030691312,0.156,,,,4.786309612
1716194940038386098,0.161,,,,4.794004398
1716194940046080884,0.163,,,,4.801699184
1716194940053775670,0.168,,,,4.80939397
1716194940061470456,0.178,,,,4.817088756
1716194940069165242,0.185,,,,4.824783542
1716194940076860028,0.183,,,,4.832478328
1716194940084554814,0.185,,,,4.840173114
1716194940092249600,0.19,,,,4.8478679
1716194940099944386,0.192,,,,4.855562686
1716194940107639172,0.195,,,,4.863257472
1716194940115333958,0.192,,,,4.870952258
1716194940123028744,0.19,,,,4.878647044
1716194940130723530,0.183,,,,4.88634183
1716194940138418316,0.17,,,,4.894036616
1716194940146113102,0.163,,,,4.901731402
1716194940153807888,0.158,,,,4.909426188
1716194940161502674,0.146,,,,4.917120974
1716194940169197460,0.126,,,,4.92481576
1716194940176892246,0.102,,,,4.932510546
1716194940184587032,0.078,,,,4.940205332
1716194940192281818,0.056,,,,4.947900118
1716194940199976604,0.041,,,,4.955594904
1716194940207671390,0.031,,,,4.96328969
1716194940215366176,0.019,,,,4.970984476
1716194940223060962,0.009,,,,4.978679262
1716194940230755748,0.004,,,,4.986374048
1716194940238450534,0.009,,,,4.994068834
1716194940246145320,0.017,,,,5.00176362
1716194940253840106,0.017,,,,5.009458406
1716194940261534892,0.021,,,,5.017153192
1716194940269229678,0.029,,,,5.024847978
1716194940276924464,0.029,,,,5.032542764
1716194940284619250,0.034,,,,5.04023755
1716194940292314036,0.041,,,,5.047932336
1716194940300008840,0.051,66.0,1021.0,,5.05562714
1716194940307704044,0.061,,,,5.063322344
1716194940315399248,0.063,,,,5.071017548
1716194940323094452,0.068,,,,5.078712752
1716194940330789656,0.073,,,,5.086407956
1716194940338484860,0.07,,,,5.09410316
1716194940346180064,0.07,,,,5.101798364
1716194940353875268,0.065,,,,5.109493568
1716194940361570472,0.07,,,,5.117188772
1716194940369265676,0.073,,,,5.124883976
1716194940376960880,0.068,,,,5.13257918
1716194940384656084,0.07,,,,5.140274384
1716194940392351288,0.073,,,,5.147969588
1716194940400046492,0.07,,,,5.155664792
1716194940407741696,0.065,,,,5.163359996
1716194940415436900,0.053,,,,5.1710552
1716194940423132104,0.051,,,,5.178750404
1716194940430827308,0.058,,,,5.186445608
1716194940438522512,0.058,,,,5.194140812
1716194940446217716,0.061,,,,5.201836016
1716194940453912920,0.061,,,,5.20953122
1716194940461608124,0.056,,,,5.217226424
1716194940469303328,0.051,,,,5.224921628
1716194940476998532,0.053,,,,5.232616832
1716194940484693736,0.063,,,,5.240312036
1716194940492388940,0.061,,,,5.24800724
1716194940500084144,0.058,,,,5.255702444
1716194940507779348,0.063,,,,5.263397648
1716194940515474552,0.065,,,,5.271092852
1716194940523169756,0.068,,,,5.278788056
1716194940530864960,0.068,,,,5.28648326
1716194940538560164,0.07,,,,5.294178464
1716194940546255368,0.073,,,,5.301873668
1716194940553950572,0.065,,,,5.309568872
1716194940561645776,0.061,,,,5.317264076
1716194940569340980,0.061,,,,5.32495928
1716194940577036184,0.063,,,,5.332654484
1716194940584731388,0.068,,,,5.340349688
1716194940592426592,0.065,,,,5.348044892
1716194940600121796,0.063,,,,5.355740096
1716194940607817000,0.07,,,,5.3634353
1716194940615512204,0.07,,,,5.371130504
1716194940623207408,0.065,,,,5.378825708
1716194940630902612,0.068,,,,5.386520912
1716194940638597816,0.073,,,,5.394216116
1716194940646293020,0.078,,,,5.40191132
1716194940653988224,0.068,,,,5.409606524
1716194940661683428,0.065,,,,5.417301728
1716194940669378632,0.078,,,,5.424996932
1716194940677073836,0.078,,,,5.432692136
1716194940684769040,0.073,,,,5.44038734
1716194940692464244,0.075,,,,5.448082544
1716194940700159448,0.08,,,,5.455777748
1716194940707854652,0.075,,,,5.463472952
1716194940715549856,0.073,,,,5.471168156
1716194940723245060,0.078,,,,5.47886336
1716194940730940264,0.078,,,,5.486558564
1716194940738635468,0.068,,,,5.494253768
1716194940746330672,0.068,,,,5.501948972
1716194940754025876,0.07,,,,5.509644176
1716194940761721080,0.07,,,,5.51733938
1716194940769416284,0.078,,,,5.525034584
1716194940777111488,0.087,,,,5.532729788
1716194940784806692,0.102,,,,5.540424992
1716194940792501896,0.109,,,,5.548120196
1716194940800197100,0.102,,,,5.5558154
1716194940807892304,0.09,,,,5.563510604
1716194940815587508,0.085,,,,5.571205808
1716194940823282712,0.09,,,,5.578901012
1716194940830977916,0.092,,,,5.586596216
1716194940838673120,0.097,,,,5.59429142
1716194940846368324,0.104,,,,5.601986624
1716194940854063528,0.104,,,,5.609681828
1716194940861758752,0.097,66.0,911.0,,5.617377052
1716194940869454234,0.07,,,,5.625072534
1716194940877149716,0.043,,,,5.632768016
1716194940884845198,0.244,,,,5.640463498
1716194940892540680,0.783,,,,5.64815898
1716194940900236162,1.228,,,,5.655854462
1716194940907931644,0.8300000000000001,,,,5.663549944
1716194940915627126,-0.351,,,,5.671245426
1716194940923322608,-0.8320000000000001,,,,5.678940908
1716194940931018090,-0.195,,,,5.68663639
1716194940938713572,0.119,,,,5.694331872
1716194940946409054,-0.041,,,,5.702027354
1716194940954104536,0.065,,,,5.709722836
1716194940961800018,0.168,,,,5.717418318
1716194940969495500,0.078,,,,5.7251138
1716194940977190982,0.07,,,,5.732809282
1716194940984886464,0.126,,,,5.740504764
1716194940992581946,0.114,,,,5.748200246
1716194941000277428,0.102,,,,5.755895728
1716194941007972910,0.126,,,,5.76359121
1716194941015668392,0.139,,,,5.771286692
1716194941023363874,0.134,,,,5.778982174
1716194941031059356,0.131,,,,5.786677656
1716194941038754838,0.141,,,,5.794373138
1716194941046450320,0.161,,,,5.80206862
1716194941054145802,0.163,,,,5.809764102
1716194941061841284,0.153,,,,5.817459584
1716194941069536766,0.158,,,,5.825155066
1716194941077232248,0.17,,,,5.832850548
1716194941084927730,0.178,,,,5.84054603
1716194941092623212,0.183,,,,5.848241512
1716194941100318694,0.192,,,,5.855936994
1716194941108014176,0.197,,,,5.863632476
1716194941115709658,0.197,,,,5.871327958
1716194941123405140,0.212,,,,5.87902344
1716194941131100622,0.209,,,,5.886718922
1716194941138796104,0.195,,,,5.894414404
1716194941146491586,0.197,,,,5.902109886
1716194941154187068,0.195,,,,5.909805368
1716194941161882550,0.183,,,,5.91750085
1716194941169578032,0.173,,,,5.925196332
1716194941177273514,0.17,,,,5.932891814
1716194941184968996,0.173,,,,5.940587296
1716194941192664478,0.156,,,,5.948282778
1716194941200359960,0.122,,,,5.95597826
1716194941208055442,0.092,,,,5.963673742
1716194941215750924,0.068,,,,5.971369224
1716194941223446406,0.053,,,,5.979064706
1716194941231141888,0.036,,,,5.986760188
1716194941238837370,0.012,,,,5.99445567
1716194941246532852,0.002,,,,6.002151152
1716194941254228334,0.012,,,,6.009846634
1716194941261923816,0.007,,,,6.017542116
1716194941269619298,-0.002,,,,6.025237598
1716194941277314780,0.002,,,,6.03293308
1716194941285010262,0.0,,,,6.040628562
1716194941292705744,-0.009,,,,6.048324044
1716194941300401226,0.007,,,,6.056019526
1716194941308096708,0.017,,,,6.063715008
1716194941315792190,0.0,,,,6.07141049
1716194941323487672,0.0,,,,6.079105972
1716194941331183154,0.012,,,,6.086801454
1716194941338878636,0.026,,,,6.094496936
1716194941346574118,0.036,,,,6.102192418
1716194941354269600,0.031,,,,6.1098879
1716194941361965082,0.026,,,,6.117583382
1716194941369660564,0.029,,,,6.125278864
1716194941377356046,0.029,,,,6.132974346
1716194941385051528,0.031,,,,6.140669828
1716194941392747010,0.031,,,,6.14836531
1716194941400442492,0.026,,,,6.156060792
1716194941408137974,0.026,,,,6.163756274
1716194941415833456,0.024,,,,6.171451756
1716194941423529010,0.009,,,,6.17914731
1716194941431224144,-0.002,,,,6.186842444
1716194941438919278,-0.004,,,,6.194537578
1716194941446614412,-0.007,,,,6.202232712
1716194941454309546,-0.004,,,,6.209927846
1716194941462004680,-0.009,,,,6.21762298
1716194941469699814,-0.019,,,,6.225318114
1716194941477394948,0.0,,,,6.233013248
1716194941485090082,0.012,,,,6.240708382
1716194941492785216,-0.019,,,,6.248403516
1716194941500480350,-0.017,,,,6.25609865
1716194941508175484,0.007,,,,6.263793784
1716194941515870618,-0.009,,,,6.271488918
1716194941523565752,-0.017,,,,6.279184052
1716194941531260886,0.007,,,,6.286879186
1716194941538956020,0.012,,,,6.29457432
1716194941546651154,0.0,,,,6.302269454
1716194941554346288,0.004,,,,6.309964588
1716194941562041422,0.012,,,,6.317659722
1716194941569736556,0.014,,,,6.325354856
1716194941577431690,0.021,,,,6.33304999
1716194941585126824,0.024,,,,6.340745124
1716194941592821958,0.017,,,,6.348440258
1716194941600517092,0.012,,,,6.356135392
1716194941608212226,0.009,,,,6.363830526
1716194941615907360,0.012,,,,6.37152566
1716194941623602494,0.024,,,,6.379220794
1716194941631297628,0.029,,,,6.386915928
1716194941638992762,0.021,,,,6.394611062
1716194941646687896,0.021,,,,6.402306196
1716194941654383030,0.026,,,,6.41000133
1716194941662078164,0.031,,,,6.417696464
1716194941669773298,0.041,,,,6.425391598
1716194941677468432,0.041,,,,6.433086732
1716194941685163566,0.039,,,,6.440781866
1716194941692858700,0.041,,,,6.448477
1716194941700553834,0.043,,,,6.456172134
1716194941708248968,0.034,,,,6.463867268
1716194941715944102,0.034,,,,6.471562402
1716194941723639236,0.051,,,,6.479257536
1716194941731334370,0.039,,,,6.48695267
1716194941739029504,0.026,,,,6.494647804
1716194941746724638,0.051,,,,6.502342938
1716194941754419772,0.061,,,,6.510038072
1716194941762114906,0.061,,,,6.517733206
1716194941769810040,0.085,,,,6.52542834
1716194941777505174,0.083,,,,6.533123474
1716194941785200308,0.056,,,,6.540818608
1716194941792895442,0.063,,,,6.548513742
1716194941800590576,0.085,,,,6.556208876
1716194941808285710,0.073,,,,6.56390401
1716194941815980844,0.061,,,,6.571599144
1716194941823675978,0.073,,,,6.579294278
1716194941831371112,0.09,,,,6.586989412
1716194941839066246,0.09,,,,6.594684546
1716194941846761380,0.041,,,,6.60237968
1716194941854456514,0.048,,,,6.610074814
1716194941862151648,0.407,,,,6.617769948
1716194941869846782,1.032,,,,6.625465082
1716194941877541916,1.267,,,,6.633160216
1716194941885237050,0.471,,,,6.64085535
1716194941892932184,-0.683,,,,6.648550484
1716194941900627318,-0.6880000000000001,,,,6.656245618
1716194941908322452,-0.012,,,,6.663940752
1716194941916017586,0.048,,,,6.671635886
1716194941923712720,-0.051,,,,6.67933102
1716194941931407854,0.114,,,,6.687026154
1716194941939102988,0.131,,,,6.694721288
1716194941946798122,0.053,,,,6.702416422
1716194941954493256,0.095,,,,6.710111556
1716194941962188390,0.129,,,,6.71780669
1716194941969883524,0.1,,,,6.725501824
1716194941977578658,0.1,,,,6.733196958
1716194941985273835,0.126,65.0,947.0,,6.740892135
1716194941992967994,0.129,,,,6.748586294
1716194942000662153,0.126,,,,6.756280453
1716194942008356312,0.139,,,,6.763974612
1716194942016050471,0.148,,,,6.771668771
1716194942023744630,0.141,,,,6.77936293
1716194942031438789,0.139,,,,6.787057089
1716194942039132948,0.168,,,,6.794751248
1716194942046827107,0.175,,,,6.802445407
1716194942054521266,0.158,,,,6.810139566
1716194942062215425,0.17,,,,6.817833725
1716194942069909584,0.187,,,,6.825527884
1716194942077603743,0.173,,,,6.833222043
1716194942085297902,0.173,,,,6.840916202
1716194942092992061,0.202,,,,6.848610361
1716194942100686220,0.214,,,,6.85630452
1716194942108380379,0.205,,,,6.863998679
1716194942116074538,0.2,,,,6.871692838
1716194942123768697,0.192,,,,6.879386997
1716194942131462856,0.18,,,,6.887081156
1716194942139157015,0.175,,,,6.894775315
1716194942146851174,0.166,,,,6.902469474
1716194942154545333,0.148,,,,6.910163633
1716194942162239492,0.131,,,,6.917857792
1716194942169933651,0.122,,,,6.925551951
1716194942177627810,0.112,,,,6.93324611
1716194942185321969,0.078,,,,6.940940269
1716194942193016128,0.034,,,,6.948634428
1716194942200710287,0.014,,,,6.956328587
1716194942208404446,0.007,,,,6.964022746
1716194942216098605,-0.007,,,,6.971716905
1716194942223792764,-0.021,,,,6.979411064
1716194942231486923,-0.012,,,,6.987105223
1716194942239181082,0.004,,,,6.994799382
1716194942246875241,0.009,,,,7.002493541
1716194942254569400,0.012,,,,7.0101877
1716194942262263559,0.024,,,,7.017881859
1716194942269957718,0.036,,,,7.025576018
1716194942277651877,0.043,,,,7.033270177
1716194942285346036,0.063,,,,7.040964336
1716194942293040195,0.078,,,,7.048658495
1716194942300734354,0.08,,,,7.056352654
1716194942308428513,0.08,,,,7.064046813
1716194942316122672,0.085,,,,7.071740972
1716194942323816831,0.097,,,,7.079435131
1716194942331510990,0.1,,,,7.08712929
1716194942339205149,0.09,,,,7.094823449
1716194942346899308,0.083,,,,7.102517608
1716194942354593467,0.08,,,,7.110211767
1716194942362287626,0.08,,,,7.117905926
1716194942369981785,0.08,,,,7.125600085
1716194942377675944,0.083,,,,7.133294244
1716194942385370103,0.085,,,,7.140988403
1716194942393064262,0.07,,,,7.148682562
1716194942400758421,0.068,,,,7.156376721
1716194942408452580,0.078,,,,7.16407088
1716194942416146739,0.075,,,,7.171765039
1716194942423840898,0.065,,,,7.179459198
1716194942431535057,0.056,,,,7.187153357
1716194942439229216,0.048,,,,7.194847516
1716194942446923375,0.051,,,,7.202541675
1716194942454617534,0.046,,,,7.210235834
1716194942462311693,0.043,,,,7.217929993
1716194942470005852,0.046,,,,7.225624152
1716194942477700011,0.041,,,,7.233318311
1716194942485394170,0.041,,,,7.24101247
1716194942493088329,0.043,,,,7.248706629
1716194942500782488,0.043,,,,7.256400788
1716194942508476647,0.046,,,,7.264094947
1716194942516170806,0.043,,,,7.271789106
1716194942523864965,0.043,,,,7.279483265
1716194942531559124,0.041,,,,7.287177424
1716194942539253283,0.039,,,,7.294871583
1716194942546947452,0.043,,,,7.302565752
1716194942554643004,0.051,,,,7.310261304
1716194942562338556,0.053,,,,7.317956856
1716194942570034108,0.039,,,,7.325652408
1716194942577729660,0.029,,,,7.33334796
1716194942585425212,0.036,,,,7.341043512
1716194942593120764,0.031,,,,7.348739064
1716194942600816316,0.019,,,,7.356434616
1716194942608511868,0.031,,,,7.364130168
1716194942616207420,0.053,,,,7.37182572
1716194942623902972,0.056,,,,7.379521272
1716194942631598524,0.034,,,,7.387216824
1716194942639294076,0.031,,,,7.394912376
1716194942646989628,0.046,,,,7.402607928
1716194942654685180,0.046,,,,7.41030348
1716194942662380732,0.046,,,,7.417999032
1716194942670076284,0.048,,,,7.425694584
1716194942677771836,0.041,,,,7.433390136
1716194942685467388,0.036,,,,7.441085688
1716194942693162940,0.041,,,,7.44878124
1716194942700858492,0.014,,,,7.456476792
1716194942708554044,0.021,,,,7.464172344
1716194942716249596,0.329,,,,7.471867896
1716194942723945148,0.915,,,,7.479563448
1716194942731640700,1.176,,,,7.487259
1716194942739336252,0.463,,,,7.494954552
1716194942747031804,-0.656,,,,7.502650104
1716194942754727356,-0.739,,,,7.510345656
1716194942762422908,-0.073,,,,7.518041208
1716194942770118460,0.048,,,,7.52573676
1716194942777814012,-0.073,,,,7.533432312
1716194942785509564,0.083,,,,7.541127864
1716194942793205116,0.129,,,,7.548823416
1716194942800900668,0.051,,,,7.556518968
1716194942808596220,0.08,,,,7.56421452
1716194942816291772,0.114,,,,7.571910072
1716194942823987324,0.092,,,,7.579605624
1716194942831682876,0.092,,,,7.587301176
1716194942839378428,0.102,,,,7.594996728
1716194942847073980,0.104,,,,7.60269228
1716194942854769532,0.109,,,,7.610387832
1716194942862465084,0.117,,,,7.618083384
1716194942870160636,0.117,,,,7.625778936
1716194942877856188,0.119,,,,7.633474488
1716194942885551740,0.134,,,,7.64117004
1716194942893247292,0.141,,,,7.648865592
1716194942900942844,0.141,,,,7.656561144
1716194942908638396,0.146,,,,7.664256696
1716194942916333948,0.153,,,,7.671952248
1716194942924029500,0.156,,,,7.6796478
1716194942931725052,0.156,,,,7.687343352
1716194942939420604,0.158,,,,7.695038904
1716194942947116156,0.166,,,,7.702734456
1716194942954811708,0.168,,,,7.710430008
1716194942962507260,0.173,,,,7.71812556
1716194942970202812,0.168,,,,7.725821112
1716194942977898364,0.161,,,,7.733516664
1716194942985593916,0.166,,,,7.741212216
1716194942993289468,0.161,,,,7.748907768
1716194943000985020,0.141,,,,7.75660332
1716194943008680572,0.124,,,,7.764298872
1716194943016376124,0.109,,,,7.771994424
1716194943024071676,0.1,,,,7.779689976
1716194943031767228,0.075,,,,7.787385528
1716194943039462780,0.039,,,,7.79508108
1716194943047158332,0.019,,,,7.802776632
1716194943054853884,0.007,,,,7.810472184
1716194943062549436,0.002,,,,7.818167736
1716194943070244988,0.004,,,,7.825863288
1716194943077940540,-0.004,,,,7.83355884
1716194943085636092,-0.012,,,,7.841254392
1716194943093331644,-0.012,,,,7.848949944
1716194943101027196,-0.009,,,,7.856645496
1716194943108722794,0.009,65.0,1027.0,,7.864341094
1716194943116417231,0.026,,,,7.872035531
1716194943124111668,0.029,,,,7.879729968
1716194943131806105,0.039,,,,7.887424405
1716194943139500542,0.048,,,,7.895118842
1716194943147194979,0.061,,,,7.902813279
1716194943154889416,0.07,,,,7.910507716
1716194943162583853,0.073,,,,7.918202153
1716194943170278290,0.07,,,,7.92589659
1716194943177972727,0.073,,,,7.933591027
1716194943185667164,0.075,,,,7.941285464
1716194943193361601,0.08,,,,7.948979901
1716194943201056038,0.09,,,,7.956674338
1716194943208750475,0.092,,,,7.964368775
1716194943216444912,0.083,,,,7.972063212
1716194943224139349,0.083,,,,7.979757649
1716194943231833786,0.087,,,,7.987452086
1716194943239528223,0.097,,,,7.995146523
1716194943247222660,0.109,,,,8.00284096
1716194943254917097,0.104,,,,8.010535397
1716194943262611534,0.097,,,,8.018229834
1716194943270305971,0.104,,,,8.025924271
1716194943278000408,0.109,,,,8.033618708
1716194943285694845,0.102,,,,8.041313145
1716194943293389282,0.102,,,,8.049007582
1716194943301083719,0.102,,,,8.056702019
1716194943308778156,0.112,,,,8.064396456
1716194943316472593,0.112,,,,8.072090893
1716194943324167030,0.107,,,,8.07978533
1716194943331861467,0.122,,,,8.087479767
1716194943339555904,0.126,,,,8.095174204
1716194943347250341,0.109,,,,8.102868641
1716194943354944778,0.102,,,,8.110563078
1716194943362639215,0.107,,,,8.118257515
1716194943370333652,0.102,,,,8.125951952
1716194943378028089,0.097,,,,8.133646389
1716194943385722526,0.104,,,,8.141340826
1716194943393416963,0.109,,,,8.149035263
1716194943401111400,0.097,,,,8.1567297
1716194943408805837,0.09,,,,8.164424137
1716194943416500274,0.09,,,,8.172118574
1716194943424194711,0.085,,,,8.179813011
1716194943431889148,0.083,,,,8.187507448
1716194943439583585,0.085,,,,8.195201885
1716194943447278022,0.083,,,,8.202896322
1716194943454972459,0.087,,,,8.210590759
1716194943462666896,0.085,,,,8.218285196
1716194943470361333,0.068,,,,8.225979633
1716194943478055770,0.073,,,,8.23367407
1716194943485750207,0.092,,,,8.241368507
1716194943493444644,0.092,,,,8.249062944
1716194943501139081,0.073,,,,8.256757381
1716194943508833518,0.07,,,,8.264451818
1716194943516527955,0.085,,,,8.272146255
1716194943524222392,0.087,,,,8.279840692
1716194943531916829,0.078,,,,8.287535129
1716194943539611266,0.07,,,,8.295229566
1716194943547305703,0.061,,,,8.302924003
1716194943555000140,0.048,,,,8.31061844
1716194943562694577,0.048,,,,8.318312877
1716194943570389014,0.065,,,,8.326007314
1716194943578083451,0.073,,,,8.333701751
1716194943585777888,0.075,,,,8.341396188
1716194943593472325,0.085,,,,8.349090625
1716194943601166762,0.087,,,,8.356785062
1716194943608861199,0.075,,,,8.364479499
1716194943616555636,0.065,,,,8.372173936
1716194943624250073,0.073,,,,8.379868373
1716194943631944510,0.08,,,,8.38756281
1716194943639638947,0.085,,,,8.395257247
1716194943647333384,0.09,,,,8.402951684
1716194943655027821,0.078,,,,8.410646121
1716194943662722258,0.075,,,,8.418340558
1716194943670416758,0.07,,,,8.426035058
1716194943678111962,0.031,,,,8.433730262
1716194943685807166,0.119,,,,8.441425466
1716194943693502370,0.5760000000000001,,,,8.44912067
1716194943701197574,1.147,,,,8.456815874
1716194943708892778,1.115,,,,8.464511078
1716194943716587982,0.092,,,,8.472206282
1716194943724283186,-0.842,,,,8.479901486
1716194943731978390,-0.507,,,,8.48759669
1716194943739673594,0.065,,,,8.495291894
1716194943747368798,-0.017,,,,8.502987098
1716194943755064002,-0.026,,,,8.510682302
1716194943762759206,0.134,,,,8.518377506
1716194943770454410,0.09,,,,8.52607271
1716194943778149614,0.046,,,,8.533767914
1716194943785844818,0.107,,,,8.541463118
1716194943793540022,0.107,,,,8.549158322
1716194943801235226,0.078,,,,8.556853526
1716194943808930430,0.1,,,,8.56454873
1716194943816625634,0.122,,,,8.572243934
1716194943824320838,0.114,,,,8.579939138
1716194943832016042,0.109,,,,8.587634342
1716194943839711246,0.117,,,,8.595329546
1716194943847406450,0.131,,,,8.60302475
1716194943855101654,0.136,,,,8.610719954
1716194943862796858,0.136,,,,8.618415158
1716194943870492062,0.146,,,,8.626110362
1716194943878187266,0.151,,,,8.633805566
1716194943885882470,0.156,,,,8.64150077
1716194943893577674,0.163,,,,8.649195974
1716194943901272878,0.161,,,,8.656891178
1716194943908968082,0.161,,,,8.664586382
1716194943916663286,0.168,,,,8.672281586
1716194943924358490,0.178,,,,8.67997679
1716194943932053694,0.178,,,,8.687671994
1716194943939748898,0.175,,,,8.695367198
1716194943947444102,0.173,,,,8.703062402
1716194943955139306,0.156,,,,8.710757606
1716194943962834510,0.153,,,,8.71845281
1716194943970529714,0.153,,,,8.726148014
1716194943978224918,0.134,,,,8.733843218
1716194943985920122,0.119,,,,8.741538422
1716194943993615326,0.114,,,,8.749233626
1716194944001310530,0.092,,,,8.75692883
1716194944009005734,0.056,,,,8.764624034
1716194944016700938,0.034,,,,8.772319238
1716194944024396142,0.021,,,,8.780014442
1716194944032091346,0.004,,,,8.787709646
1716194944039786550,-0.009,,,,8.79540485
1716194944047481754,-0.014,,,,8.803100054
1716194944055176958,-0.019,,,,8.810795258
1716194944062872162,-0.029,,,,8.818490462
1716194944070567366,-0.026,,,,8.826185666
1716194944078262570,-0.019,,,,8.83388087
1716194944085957774,-0.009,,,,8.841576074
1716194944093652978,-0.004,,,,8.849271278
1716194944101348182,0.0,,,,8.856966482
1716194944109043386,0.009,,,,8.864661686
1716194944116738590,0.014,,,,8.87235689
1716194944124433794,0.029,,,,8.880052094
1716194944132128998,0.041,,,,8.887747298
1716194944139824202,0.041,,,,8.895442502
1716194944147519406,0.046,,,,8.903137706
1716194944155214610,0.046,,,,8.91083291
1716194944162909814,0.039,,,,8.918528114
1716194944170605018,0.043,,,,8.926223318
1716194944178300222,0.051,,,,8.933918522
1716194944185995426,0.048,,,,8.941613726
1716194944193690630,0.043,,,,8.94930893
1716194944201385834,0.046,,,,8.957004134
1716194944209081038,0.046,,,,8.964699338
1716194944216776242,0.039,,,,8.972394542
1716194944224471446,0.048,,,,8.980089746
1716194944232166672,0.051,65.0,975.0,,8.987784972
1716194944239861458,0.039,,,,8.995479758
1716194944247556244,0.039,,,,9.003174544
1716194944255251030,0.043,,,,9.01086933
1716194944262945816,0.043,,,,9.018564116
1716194944270640602,0.043,,,,9.026258902
1716194944278335388,0.041,,,,9.033953688
1716194944286030174,0.041,,,,9.041648474
1716194944293724960,0.041,,,,9.04934326
1716194944301419746,0.039,,,,9.057038046
1716194944309114532,0.031,,,,9.064732832
1716194944316809318,0.021,,,,9.072427618
1716194944324504104,0.031,,,,9.080122404
1716194944332198890,0.039,,,,9.08781719
1716194944339893676,0.029,,,,9.095511976
1716194944347588462,0.029,,,,9.103206762
1716194944355283248,0.036,,,,9.110901548
1716194944362978034,0.034,,,,9.118596334
1716194944370672820,0.029,,,,9.12629112
1716194944378367606,0.031,,,,9.133985906
1716194944386062392,0.039,,,,9.141680692
1716194944393757178,0.039,,,,9.149375478
1716194944401451964,0.036,,,,9.157070264
1716194944409146750,0.034,,,,9.16476505
1716194944416841536,0.034,,,,9.172459836
1716194944424536322,0.036,,,,9.180154622
1716194944432231108,0.034,,,,9.187849408
1716194944439925894,0.036,,,,9.195544194
1716194944447620680,0.046,,,,9.20323898
1716194944455315466,0.036,,,,9.210933766
1716194944463010252,0.021,,,,9.218628552
1716194944470705038,0.021,,,,9.226323338
1716194944478399824,0.026,,,,9.234018124
1716194944486094610,0.024,,,,9.24171291
1716194944493789396,0.019,,,,9.249407696
1716194944501484182,0.021,,,,9.257102482
1716194944509178968,0.026,,,,9.264797268
1716194944516873754,0.021,,,,9.272492054
1716194944524568540,0.021,,,,9.28018684
1716194944532263326,0.031,,,,9.287881626
1716194944539958112,0.031,,,,9.295576412
1716194944547652898,0.031,,,,9.303271198
1716194944555347684,0.034,,,,9.310965984
1716194944563042470,0.036,,,,9.31866077
1716194944570737256,0.036,,,,9.326355556
1716194944578432042,0.036,,,,9.334050342
1716194944586126828,0.043,,,,9.341745128
1716194944593821614,0.048,,,,9.349439914
1716194944601516400,0.046,,,,9.3571347
1716194944609211186,0.046,,,,9.364829486
1716194944616905972,0.036,,,,9.372524272
1716194944624600758,0.034,,,,9.380219058
1716194944632295544,0.036,,,,9.387913844
1716194944639990330,0.041,,,,9.39560863
1716194944647685116,0.048,,,,9.403303416
1716194944655379902,0.058,,,,9.410998202
1716194944663074688,0.063,,,,9.418692988
1716194944670769474,0.056,,,,9.426387774
1716194944678464260,0.046,,,,9.43408256
1716194944686159046,0.053,,,,9.441777346
1716194944693853832,0.058,,,,9.449472132
1716194944701548618,0.061,,,,9.457166918
1716194944709243404,0.063,,,,9.464861704
1716194944716938190,0.063,,,,9.47255649
1716194944724632976,0.068,,,,9.480251276
1716194944732327762,0.058,,,,9.487946062
1716194944740022548,0.019,,,,9.495640848
1716194944747717334,0.109,,,,9.503335634
1716194944755412120,0.544,,,,9.51103042
1716194944763106906,1.088,,,,9.518725206
1716194944770801692,1.081,,,,9.526419992
1716194944778496478,0.107,,,,9.534114778
1716194944786191264,-0.8270000000000001,,,,9.541809564
1716194944793886066,-0.505,64.0,854.0,,9.549504366
1716194944801581270,0.085,,,,9.55719957
1716194944809276474,0.009,,,,9.564894774
1716194944816971678,-0.026,,,,9.572589978
1716194944824666882,0.126,,,,9.580285182
1716194944832362086,0.097,,,,9.587980386
1716194944840057290,0.048,,,,9.59567559
1716194944847752494,0.097,,,,9.603370794
1716194944855447698,0.1,,,,9.611065998
1716194944863142902,0.083,,,,9.618761202
1716194944870838106,0.102,,,,9.626456406
1716194944878533310,0.109,,,,9.63415161
1716194944886228514,0.107,,,,9.641846814
1716194944893923718,0.109,,,,9.649542018
1716194944901618922,0.114,,,,9.657237222
1716194944909314126,0.117,,,,9.664932426
1716194944917009330,0.122,,,,9.67262763
1716194944924704534,0.131,,,,9.680322834
1716194944932399738,0.139,,,,9.688018038
1716194944940094942,0.144,,,,9.695713242
1716194944947790146,0.153,,,,9.703408446
1716194944955485350,0.158,,,,9.71110365
1716194944963180554,0.156,,,,9.718798854
1716194944970875758,0.158,,,,9.726494058
1716194944978570962,0.166,,,,9.734189262
1716194944986266166,0.178,,,,9.741884466
1716194944993961370,0.183,,,,9.74957967
1716194945001656574,0.185,,,,9.757274874
1716194945009351778,0.192,,,,9.764970078
1716194945017046982,0.192,,,,9.772665282
1716194945024742186,0.187,,,,9.780360486
1716194945032437390,0.178,,,,9.78805569
1716194945040132594,0.173,,,,9.795750894
1716194945047827798,0.17,,,,9.803446098
1716194945055523002,0.156,,,,9.811141302
1716194945063218206,0.134,,,,9.818836506
1716194945070913410,0.107,,,,9.82653171
1716194945078608614,0.078,,,,9.834226914
1716194945086303818,0.058,,,,9.841922118
1716194945093999022,0.043,,,,9.849617322
1716194945101694226,0.034,,,,9.857312526
1716194945109389430,0.029,,,,9.86500773
1716194945117084634,0.024,,,,9.872702934
1716194945124779838,0.026,,,,9.880398138
1716194945132475042,0.029,,,,9.888093342
1716194945140170246,0.024,,,,9.895788546
1716194945147865450,0.019,,,,9.90348375
1716194945155560654,0.021,,,,9.911178954
1716194945163255858,0.031,,,,9.918874158
1716194945170951062,0.031,,,,9.926569362
1716194945178646266,0.029,,,,9.934264566
1716194945186341470,0.039,,,,9.94195977
1716194945194036674,0.046,,,,9.949654974
1716194945201731878,0.051,,,,9.957350178
1716194945209427082,0.056,,,,9.965045382
1716194945217122286,0.063,,,,9.972740586
1716194945224817490,0.073,,,,9.98043579
1716194945232512694,0.08,,,,9.988130994
1716194945240207898,0.083,,,,9.995826198
1716194945247903102,0.087,,,,10.003521402
1716194945255598306,0.09,,,,10.011216606
1716194945263293510,0.09,,,,10.01891181
1716194945270988714,0.095,,,,10.026607014
1716194945278683918,0.097,,,,10.034302218
1716194945286379122,0.104,,,,10.041997422
1716194945294074326,0.104,,,,10.049692626
1716194945301769530,0.102,,,,10.05738783
1716194945309464734,0.107,,,,10.065083034
1716194945317159938,0.109,,,,10.072778238
1716194945324855142,0.109,,,,10.080473442
1716194945332550346,0.104,,,,10.088168646
1716194945340245550,0.104,,,,10.09586385
1716194945347940754,0.107,,,,10.103559054
1716194945355635978,0.104,,,,10.111254278
1716194945363331182,0.102,,,,10.118949482
1716194945371026386,0.107,,,,10.126644686
1716194945378721590,0.109,,,,10.13433989
1716194945386416794,0.109,,,,10.142035094
1716194945394111998,0.104,,,,10.149730298
1716194945401807202,0.107,,,,10.157425502
1716194945409502406,0.109,,,,10.165120706
1716194945417197610,0.1,,,,10.17281591
1716194945424892814,0.095,,,,10.180511114
1716194945432588018,0.102,,,,10.188206318
1716194945440283222,0.104,,,,10.195901522
1716194945447978426,0.104,,,,10.203596726
1716194945455673630,0.102,,,,10.21129193
1716194945463368834,0.1,,,,10.218987134
1716194945471064038,0.095,,,,10.226682338
1716194945478759242,0.097,,,,10.234377542
1716194945486454446,0.1,,,,10.242072746
1716194945494149650,0.097,,,,10.24976795
1716194945501844854,0.092,,,,10.257463154
1716194945509540058,0.095,,,,10.265158358
1716194945517235262,0.092,,,,10.272853562
1716194945524930466,0.095,,,,10.280548766
1716194945532625670,0.1,,,,10.28824397
1716194945540320874,0.097,,,,10.295939174
1716194945548016078,0.1,,,,10.303634378
1716194945555711282,0.104,,,,10.311329582
1716194945563406486,0.104,,,,10.319024786
1716194945571101690,0.1,,,,10.32671999
1716194945578796894,0.102,,,,10.334415194
1716194945586492098,0.104,,,,10.342110398
1716194945594187302,0.102,,,,10.349805602
1716194945601882506,0.104,,,,10.357500806
1716194945609577710,0.109,,,,10.36519601
1716194945617272914,0.109,,,,10.372891214
1716194945624968118,0.112,,,,10.380586418
1716194945632663322,0.112,,,,10.388281622
1716194945640358526,0.104,,,,10.395976826
1716194945648053730,0.109,,,,10.40367203
1716194945655748934,0.112,,,,10.411367234
1716194945663444138,0.112,,,,10.419062438
1716194945671139342,0.112,,,,10.426757642
1716194945678834546,0.112,,,,10.434452846
1716194945686529750,0.117,,,,10.44214805
1716194945694224954,0.117,,,,10.449843254
1716194945701920158,0.119,,,,10.457538458
1716194945709615362,0.124,,,,10.465233662
1716194945717310566,0.119,,,,10.472928866
1716194945725005770,0.119,,,,10.48062407
1716194945732700974,0.124,,,,10.488319274
1716194945740396178,0.126,,,,10.496014478
1716194945748091382,0.129,,,,10.503709682
1716194945755786586,0.129,,,,10.511404886
1716194945763481790,0.131,,,,10.51910009
1716194945771176994,0.134,,,,10.526795294
1716194945778872198,0.129,,,,10.534490498
1716194945786567402,0.134,,,,10.542185702
1716194945794262606,0.136,,,,10.549880906
1716194945801957810,0.134,,,,10.55757611
1716194945809653014,0.136,,,,10.565271314
1716194945817348218,0.136,,,,10.572966518
1716194945825043422,0.139,,,,10.580661722
1716194945832738626,0.144,,,,10.588356926
1716194945840433830,0.139,,,,10.59605213
1716194945848129034,0.141,,,,10.603747334
1716194945855824238,0.141,,,,10.611442538
1716194945863519442,0.139,,,,10.619137742
1716194945871214646,0.136,,,,10.626832946
1716194945878909850,0.134,,,,10.63452815
1716194945886605054,0.144,,,,10.642223354
1716194945894300258,0.153,,,,10.649918558
1716194945901995462,0.158,,,,10.657613762
1716194945909690666,0.158,,,,10.665308966
1716194945917385890,0.161,64.0,975.0,,10.67300419
1716194945925080676,0.163,,,,10.680698976
1716194945932775462,0.158,,,,10.688393762
1716194945940470248,0.129,,,,10.696088548
1716194945948165034,0.131,,,,10.703783334
1716194945955859820,0.378,,,,10.71147812
1716194945963554606,0.927,,,,10.719172906
1716194945971249392,1.291,,,,10.726867692
1716194945978944178,0.766,,,,10.734562478
1716194945986638964,-0.422,,,,10.742257264
1716194945994333750,-0.781,,,,10.74995205
1716194946002028536,-0.1,,,,10.757646836
1716194946009723322,0.161,,,,10.765341622
1716194946017418108,-0.017,,,,10.773036408
1716194946025112894,0.087,,,,10.780731194
1716194946032807680,0.173,,,,10.78842598
1716194946040502466,0.09,,,,10.796120766
1716194946048197252,0.102,,,,10.803815552
1716194946055892038,0.146,,,,10.811510338
1716194946063586824,0.131,,,,10.819205124
1716194946071281610,0.129,,,,10.82689991
1716194946078976396,0.144,,,,10.834594696
1716194946086671182,0.144,,,,10.842289482
1716194946094365968,0.144,,,,10.849984268
1716194946102060754,0.151,,,,10.857679054
1716194946109755540,0.153,,,,10.86537384
1716194946117450326,0.161,,,,10.873068626
1716194946125145112,0.173,,,,10.880763412
1716194946132839898,0.17,,,,10.888458198
1716194946140534684,0.168,,,,10.896152984
1716194946148229470,0.183,,,,10.90384777
1716194946155924256,0.19,,,,10.911542556
1716194946163619042,0.197,,,,10.919237342
1716194946171313828,0.209,,,,10.926932128
1716194946179008614,0.214,,,,10.934626914
1716194946186703400,0.217,,,,10.9423217
1716194946194398186,0.224,,,,10.950016486
1716194946202092972,0.229,,,,10.957711272
1716194946209787758,0.231,,,,10.965406058
1716194946217482544,0.227,,,,10.973100844
1716194946225177330,0.224,,,,10.98079563
1716194946232872116,0.217,,,,10.988490416
1716194946240566902,0.205,,,,10.996185202
1716194946248261688,0.2,,,,11.003879988
1716194946255956474,0.197,,,,11.011574774
1716194946263651260,0.187,,,,11.01926956
1716194946271346046,0.166,,,,11.026964346
1716194946279040832,0.136,,,,11.034659132
1716194946286735618,0.112,,,,11.042353918
1716194946294430404,0.097,,,,11.050048704
1716194946302125190,0.085,,,,11.05774349
1716194946309819976,0.068,,,,11.065438276
1716194946317514762,0.056,,,,11.073133062
1716194946325209548,0.056,,,,11.080827848
1716194946332904334,0.053,,,,11.088522634
1716194946340599120,0.051,,,,11.09621742
1716194946348293906,0.056,,,,11.103912206
1716194946355988692,0.053,,,,11.111606992
1716194946363683478,0.046,,,,11.119301778
1716194946371378264,0.048,,,,11.126996564
1716194946379073050,0.053,,,,11.13469135
1716194946386767836,0.058,,,,11.142386136
1716194946394462622,0.056,,,,11.150080922
1716194946402157408,0.056,,,,11.157775708
1716194946409852194,0.065,,,,11.165470494
1716194946417546980,0.073,,,,11.17316528
1716194946425241766,0.075,,,,11.180860066
1716194946432936552,0.078,,,,11.188554852
1716194946440631338,0.083,,,,11.196249638
1716194946448326124,0.095,,,,11.203944424
1716194946456020910,0.1,,,,11.21163921
1716194946463715696,0.092,,,,11.219333996
1716194946471410482,0.085,,,,11.227028782
1716194946479105284,0.078,,,,11.234723584
1716194946486800488,0.07,,,,11.242418788
1716194946494495692,0.056,,,,11.250113992
1716194946502190896,0.058,,,,11.257809196
1716194946509886100,0.073,,,,11.2655044
1716194946517581304,0.073,,,,11.273199604
1716194946525276508,0.065,,,,11.280894808
1716194946532971712,0.061,,,,11.288590012
1716194946540666916,0.063,,,,11.296285216
1716194946548362120,0.068,,,,11.30398042
1716194946556057324,0.063,,,,11.311675624
1716194946563752528,0.07,,,,11.319370828
1716194946571447732,0.078,,,,11.327066032
1716194946579142936,0.068,,,,11.334761236
1716194946586838140,0.073,,,,11.34245644
1716194946594533344,0.075,,,,11.350151644
1716194946602228548,0.075,,,,11.357846848
1716194946609923752,0.083,,,,11.365542052
1716194946617618956,0.083,,,,11.373237256
1716194946625314160,0.078,,,,11.38093246
1716194946633009364,0.078,,,,11.388627664
1716194946640704568,0.075,,,,11.396322868
1716194946648399772,0.078,,,,11.404018072
1716194946656094976,0.08,,,,11.411713276
1716194946663790180,0.087,,,,11.41940848
1716194946671485384,0.087,,,,11.427103684
1716194946679180588,0.087,,,,11.434798888
1716194946686875792,0.095,,,,11.442494092
1716194946694570996,0.102,,,,11.450189296
1716194946702266200,0.095,,,,11.4578845
1716194946709961404,0.087,,,,11.465579704
1716194946717656608,0.097,,,,11.473274908
1716194946725351812,0.104,,,,11.480970112
1716194946733047016,0.095,,,,11.488665316
1716194946740742220,0.097,,,,11.49636052
1716194946748437424,0.112,,,,11.504055724
1716194946756132628,0.107,,,,11.511750928
1716194946763827832,0.1,,,,11.519446132
1716194946771523036,0.102,,,,11.527141336
1716194946779218240,0.109,,,,11.53483654
1716194946786913444,0.112,,,,11.542531744
1716194946794608648,0.109,,,,11.550226948
1716194946802303852,0.114,,,,11.557922152
1716194946809999056,0.117,,,,11.565617356
1716194946817694260,0.112,,,,11.57331256
1716194946825389464,0.117,,,,11.581007764
1716194946833084668,0.117,,,,11.588702968
1716194946840779872,0.114,,,,11.596398172
1716194946848475076,0.122,,,,11.604093376
1716194946856170280,0.129,,,,11.61178858
1716194946863865484,0.119,,,,11.619483784
1716194946871560688,0.109,,,,11.627178988
1716194946879255892,0.114,,,,11.634874192
1716194946886951096,0.122,,,,11.642569396
1716194946894646300,0.117,,,,11.6502646
1716194946902341504,0.122,,,,11.657959804
1716194946910036708,0.126,,,,11.665655008
1716194946917731912,0.119,,,,11.673350212
1716194946925427116,0.122,,,,11.681045416
1716194946933122320,0.124,,,,11.68874062
1716194946940817524,0.119,,,,11.696435824
1716194946948512728,0.122,,,,11.704131028
1716194946956207932,0.126,,,,11.711826232
1716194946963903136,0.124,,,,11.719521436
1716194946971598340,0.117,,,,11.72721664
1716194946979293544,0.109,,,,11.734911844
1716194946986988748,0.114,,,,11.742607048
1716194946994683952,0.122,,,,11.750302252
1716194947002379156,0.119,,,,11.757997456
1716194947010074360,0.109,,,,11.76569266
1716194947017769564,0.112,,,,11.773387864
1716194947025464768,0.122,,,,11.781083068
1716194947033159972,0.114,,,,11.788778272
1716194947040855196,0.109,64.0,,,11.796473496
1716194947048550400,0.134,,,,11.8041687
1716194947056245604,0.146,,,,11.811863904
1716194947063940808,0.136,,,,11.819559108
1716194947071636012,0.134,,,,11.827254312
1716194947079331216,0.126,,,,11.834949516
1716194947087026420,0.112,,,,11.84264472
1716194947094721624,0.112,,,,11.850339924
1716194947102416828,0.117,,,,11.858035128
1716194947110112032,0.107,,,,11.865730332
1716194947117807236,0.063,,,,11.873425536
1716194947125502440,0.117,,,,11.88112074
1716194947133197644,0.515,,,,11.888815944
1716194947140892848,1.118,,,,11.896511148
1716194947148588052,1.257,,,,11.904206352
1716194947156283256,0.358,,,,11.911901556
1716194947163978460,-0.732,,,,11.91959676
1716194947171673664,-0.581,,,,11.927291964
1716194947179368868,0.073,,,,11.934987168
1716194947187064072,0.053,,,,11.942682372
1716194947194759276,-0.034,,,,11.950377576
1716194947202454480,0.131,,,,11.95807278
1716194947210149684,0.136,,,,11.965767984
1716194947217844888,0.07,,,,11.973463188
1716194947225540092,0.114,,,,11.981158392
1716194947233235296,0.134,,,,11.988853596
1716194947240930500,0.114,,,,11.9965488
1716194947248625704,0.124,,,,12.004244004
1716194947256320908,0.131,,,,12.011939208
1716194947264016112,0.131,,,,12.019634412
1716194947271711316,0.146,,,,12.027329616
1716194947279406520,0.156,,,,12.03502482
1716194947287101724,0.153,,,,12.042720024
1716194947294796928,0.153,,,,12.050415228
1716194947302492132,0.163,,,,12.058110432
1716194947310187336,0.175,,,,12.065805636
1716194947317882540,0.175,,,,12.07350084
1716194947325577744,0.178,,,,12.081196044
1716194947333272948,0.178,,,,12.088891248
1716194947340968152,0.18,,,,12.096586452
1716194947348663356,0.187,,,,12.104281656
1716194947356358560,0.19,,,,12.11197686
1716194947364053764,0.19,,,,12.119672064
1716194947371748968,0.19,,,,12.127367268
1716194947379444172,0.187,,,,12.135062472
1716194947387139376,0.187,,,,12.142757676
1716194947394834580,0.187,,,,12.15045288
1716194947402529784,0.178,,,,12.158148084
1716194947410224988,0.17,,,,12.165843288
1716194947417920192,0.166,,,,12.173538492
1716194947425615396,0.156,,,,12.181233696
1716194947433310600,0.136,,,,12.1889289
1716194947441005804,0.122,,,,12.196624104
1716194947448701008,0.112,,,,12.204319308
1716194947456396212,0.083,,,,12.212014512
1716194947464091416,0.056,,,,12.219709716
1716194947471786620,0.043,,,,12.22740492
1716194947479481824,0.029,,,,12.235100124
1716194947487177028,0.009,,,,12.242795328
1716194947494872232,0.0,,,,12.250490532
1716194947502567436,0.004,,,,12.258185736
1716194947510262640,0.009,,,,12.26588094
1716194947517957844,0.002,,,,12.273576144
1716194947525653048,0.002,,,,12.281271348
1716194947533348252,0.012,,,,12.288966552
1716194947541043456,0.021,,,,12.296661756
1716194947548738660,0.029,,,,12.30435696
1716194947556433864,0.034,,,,12.312052164
1716194947564129068,0.041,,,,12.319747368
1716194947571824272,0.046,,,,12.327442572
1716194947579519476,0.051,,,,12.335137776
1716194947587214680,0.061,,,,12.34283298
1716194947594909884,0.07,,,,12.350528184
1716194947602605110,0.07,,,,12.35822341
1716194947610299896,0.07,,,,12.365918196
1716194947617994682,0.07,,,,12.373612982
1716194947625689468,0.075,,,,12.381307768
1716194947633384254,0.075,,,,12.389002554
1716194947641079040,0.073,,,,12.39669734
1716194947648773826,0.08,,,,12.404392126
1716194947656468612,0.08,,,,12.412086912
1716194947664163398,0.07,,,,12.419781698
1716194947671858184,0.065,,,,12.427476484
1716194947679552970,0.07,,,,12.43517127
1716194947687247756,0.078,,,,12.442866056
1716194947694942542,0.075,,,,12.450560842
1716194947702637328,0.073,,,,12.458255628
1716194947710332114,0.078,,,,12.465950414
1716194947718026900,0.075,,,,12.4736452
1716194947725721686,0.075,,,,12.481339986
1716194947733416472,0.075,,,,12.489034772
1716194947741111258,0.075,,,,12.496729558
1716194947748806044,0.08,,,,12.504424344
1716194947756500830,0.083,,,,12.51211913
1716194947764195616,0.085,,,,12.519813916
1716194947771890402,0.09,,,,12.527508702
1716194947779585188,0.087,,,,12.535203488
1716194947787279974,0.09,,,,12.542898274
1716194947794974760,0.092,,,,12.55059306
1716194947802669546,0.09,,,,12.558287846
1716194947810364332,0.092,,,,12.565982632
1716194947818059118,0.092,,,,12.573677418
1716194947825753904,0.095,,,,12.581372204
1716194947833448690,0.097,,,,12.58906699
1716194947841143476,0.097,,,,12.596761776
1716194947848838262,0.097,,,,12.604456562
1716194947856533048,0.092,,,,12.612151348
1716194947864227834,0.095,,,,12.619846134
1716194947871922620,0.097,,,,12.62754092
1716194947879617406,0.095,,,,12.635235706
1716194947887312192,0.097,,,,12.642930492
1716194947895006978,0.1,,,,12.650625278
1716194947902701764,0.1,,,,12.658320064
1716194947910396550,0.102,,,,12.66601485
1716194947918091336,0.102,,,,12.673709636
1716194947925786122,0.104,,,,12.681404422
1716194947933480908,0.104,,,,12.689099208
1716194947941175694,0.102,,,,12.696793994
1716194947948870480,0.107,,,,12.70448878
1716194947956565266,0.107,,,,12.712183566
1716194947964260052,0.107,,,,12.719878352
1716194947971954838,0.107,,,,12.727573138
1716194947979649624,0.107,,,,12.735267924
1716194947987344410,0.1,,,,12.74296271
1716194947995039196,0.09,,,,12.750657496
1716194948002733982,0.09,,,,12.758352282
1716194948010428768,0.097,,,,12.766047068
1716194948018123554,0.097,,,,12.773741854
1716194948025818340,0.097,,,,12.78143664
1716194948033513126,0.097,,,,12.789131426
1716194948041207912,0.097,,,,12.796826212
1716194948048902698,0.104,,,,12.804520998
1716194948056597484,0.102,,,,12.812215784
1716194948064292270,0.102,,,,12.81991057
1716194948071987056,0.104,,,,12.827605356
1716194948079681842,0.102,,,,12.835300142
1716194948087376628,0.1,,,,12.842994928
1716194948095071414,0.1,,,,12.850689714
1716194948102766200,0.1,,,,12.8583845
1716194948110460986,0.1,,,,12.866079286
1716194948118155772,0.097,,,,12.873774072
1716194948125850558,0.097,,,,12.881468858
1716194948133545344,0.097,,,,12.889163644
1716194948141240130,0.09,,,,12.89685843
1716194948148934916,0.08,,,,12.904553216
1716194948156629702,0.08,,,,12.912248002
1716194948164324504,0.092,65.0,1062.0,,12.919942804
1716194948172019708,0.1,,,,12.927638008
1716194948179714912,0.102,,,,12.935333212
1716194948187410116,0.119,,,,12.943028416
1716194948195105320,0.122,,,,12.95072362
1716194948202800524,0.104,,,,12.958418824
1716194948210495728,0.092,,,,12.966114028
1716194948218190932,0.092,,,,12.973809232
1716194948225886136,0.102,,,,12.981504436
1716194948233581340,0.1,,,,12.98919964
1716194948241276544,0.09,,,,12.996894844
1716194948248971748,0.095,,,,13.004590048
1716194948256666952,0.097,,,,13.012285252
1716194948264362156,0.087,,,,13.019980456
1716194948272057360,0.046,,,,13.02767566
1716194948279752564,0.08,,,,13.035370864
1716194948287447768,0.437,,,,13.043066068
1716194948295142972,1.01,,,,13.050761272
1716194948302838176,1.21,,,,13.058456476
1716194948310533380,0.439,,,,13.06615168
1716194948318228584,-0.673,,,,13.073846884
1716194948325923788,-0.651,,,,13.081542088
1716194948333618992,0.007,,,,13.089237292
1716194948341314196,0.048,,,,13.096932496
1716194948349009400,-0.051,,,,13.1046277
1716194948356704604,0.102,,,,13.112322904
1716194948364399808,0.114,,,,13.120018108
1716194948372095012,0.051,,,,13.127713312
1716194948379790216,0.092,,,,13.135408516
1716194948387485420,0.119,,,,13.14310372
1716194948395180624,0.095,,,,13.150798924
1716194948402875828,0.104,,,,13.158494128
1716194948410571032,0.124,,,,13.166189332
1716194948418266236,0.117,,,,13.173884536
1716194948425961440,0.122,,,,13.18157974
1716194948433656644,0.136,,,,13.189274944
1716194948441351848,0.139,,,,13.196970148
1716194948449047052,0.141,,,,13.204665352
1716194948456742256,0.146,,,,13.212360556
1716194948464437460,0.156,,,,13.22005576
1716194948472132664,0.163,,,,13.227750964
1716194948479827868,0.168,,,,13.235446168
1716194948487523072,0.173,,,,13.243141372
1716194948495218276,0.168,,,,13.250836576
1716194948502913480,0.168,,,,13.25853178
1716194948510608684,0.183,,,,13.266226984
1716194948518303888,0.19,,,,13.273922188
1716194948525999092,0.197,,,,13.281617392
1716194948533694296,0.2,,,,13.289312596
1716194948541389500,0.197,,,,13.2970078
1716194948549084704,0.2,,,,13.304703004
1716194948556779908,0.197,,,,13.312398208
1716194948564475112,0.192,,,,13.320093412
1716194948572170316,0.183,,,,13.327788616
1716194948579865520,0.173,,,,13.33548382
1716194948587560724,0.163,,,,13.343179024
1716194948595255928,0.144,,,,13.350874228
1716194948602951132,0.124,,,,13.358569432
1716194948610646336,0.107,,,,13.366264636
1716194948618341540,0.08,,,,13.37395984
1716194948626036744,0.063,,,,13.381655044
1716194948633731948,0.051,,,,13.389350248
1716194948641427152,0.043,,,,13.397045452
1716194948649122356,0.039,,,,13.404740656
1716194948656817560,0.034,,,,13.41243586
1716194948664512764,0.034,,,,13.420131064
1716194948672207968,0.039,,,,13.427826268
1716194948679903172,0.039,,,,13.435521472
1716194948687598376,0.041,,,,13.443216676
1716194948695293580,0.043,,,,13.45091188
1716194948702988784,0.051,,,,13.458607084
1716194948710683988,0.063,,,,13.466302288
1716194948718379192,0.063,,,,13.473997492
1716194948726074416,0.063,,,,13.481692716
1716194948733769620,0.07,,,,13.48938792
1716194948741464824,0.075,,,,13.497083124
1716194948749160028,0.08,,,,13.504778328
1716194948756855232,0.087,,,,13.512473532
1716194948764550436,0.097,,,,13.520168736
1716194948772245640,0.095,,,,13.52786394
1716194948779940844,0.083,,,,13.535559144
1716194948787636048,0.092,,,,13.543254348
1716194948795331252,0.104,,,,13.550949552
1716194948803026456,0.102,,,,13.558644756
1716194948810721660,0.092,,,,13.56633996
1716194948818416864,0.095,,,,13.574035164
1716194948826112068,0.107,,,,13.581730368
1716194948833807272,0.102,,,,13.589425572
1716194948841502476,0.095,,,,13.597120776
1716194948849197680,0.102,,,,13.60481598
1716194948856892884,0.102,,,,13.612511184
1716194948864588088,0.102,,,,13.620206388
1716194948872283292,0.104,,,,13.627901592
1716194948879978496,0.104,,,,13.635596796
1716194948887673700,0.109,,,,13.643292
1716194948895368904,0.104,,,,13.650987204
1716194948903064108,0.102,,,,13.658682408
1716194948910759312,0.107,,,,13.666377612
1716194948918454516,0.104,,,,13.674072816
1716194948926149720,0.107,,,,13.68176802
1716194948933844924,0.122,,,,13.689463224
1716194948941540128,0.119,,,,13.697158428
1716194948949235332,0.112,,,,13.704853632
1716194948956930536,0.109,,,,13.712548836
1716194948964625740,0.114,,,,13.72024404
1716194948972320944,0.119,,,,13.727939244
1716194948980016148,0.122,,,,13.735634448
1716194948987711352,0.119,,,,13.743329652
1716194948995406556,0.104,,,,13.751024856
1716194949003101760,0.1,,,,13.75872006
1716194949010796964,0.112,,,,13.766415264
1716194949018492168,0.114,,,,13.774110468
1716194949026187372,0.112,,,,13.781805672
1716194949033882576,0.112,,,,13.789500876
1716194949041577780,0.119,,,,13.79719608
1716194949049272984,0.124,,,,13.804891284
1716194949056968188,0.117,,,,13.812586488
1716194949064663392,0.117,,,,13.820281692
1716194949072358596,0.117,,,,13.827976896
1716194949080053800,0.112,,,,13.8356721
1716194949087749004,0.114,,,,13.843367304
1716194949095444208,0.122,,,,13.851062508
1716194949103139412,0.126,,,,13.858757712
1716194949110834616,0.119,,,,13.866452916
1716194949118529820,0.112,,,,13.87414812
1716194949126225024,0.122,,,,13.881843324
1716194949133920228,0.119,,,,13.889538528
1716194949141615432,0.114,,,,13.897233732
1716194949149310636,0.124,,,,13.904928936
1716194949157005840,0.126,,,,13.91262414
1716194949164701044,0.131,,,,13.920319344
1716194949172396248,0.131,,,,13.928014548
1716194949180091452,0.126,,,,13.935709752
1716194949187786656,0.129,,,,13.943404956
1716194949195481860,0.126,,,,13.95110016
1716194949203177064,0.119,,,,13.958795364
1716194949210872268,0.122,,,,13.966490568
1716194949218567472,0.124,,,,13.974185772
1716194949226262676,0.124,,,,13.981880976
1716194949233957880,0.119,,,,13.98957618
1716194949241653084,0.119,,,,13.997271384
1716194949249348288,0.119,,,,14.004966588
1716194949257043492,0.109,,,,14.012661792
1716194949264738696,0.119,,,,14.020356996
1716194949272433900,0.129,,,,14.0280522
1716194949280129104,0.119,,,,14.035747404
1716194949287824328,0.122,64.0,1204.0,,14.043442628
1716194949295519114,0.141,,,,14.051137414
1716194949303213900,0.153,,,,14.0588322
1716194949310908686,0.136,,,,14.066526986
1716194949318603472,0.117,,,,14.074221772
1716194949326298258,0.124,,,,14.081916558
1716194949333993044,0.124,,,,14.089611344
1716194949341687830,0.102,,,,14.09730613
1716194949349382616,0.104,,,,14.105000916
1716194949357077402,0.117,,,,14.112695702
1716194949364772188,0.104,,,,14.120390488
1716194949372466974,0.092,,,,14.128085274
1716194949380161760,0.063,,,,14.13578006
1716194949387856546,0.051,,,,14.143474846
1716194949395551332,0.297,,,,14.151169632
1716194949403246118,0.876,,,,14.158864418
1716194949410940904,1.289,,,,14.166559204
1716194949418635690,0.764,,,,14.17425399
1716194949426330476,-0.441,,,,14.181948776
1716194949434025262,-0.781,,,,14.189643562
1716194949441720048,-0.109,,,,14.197338348
1716194949449414834,0.117,,,,14.205033134
1716194949457109620,-0.039,,,,14.21272792
1716194949464804406,0.095,,,,14.220422706
1716194949472499192,0.161,,,,14.228117492
1716194949480193978,0.075,,,,14.235812278
1716194949487888764,0.1,,,,14.243507064
1716194949495583550,0.139,,,,14.25120185
1716194949503278336,0.117,,,,14.258896636
1716194949510973122,0.122,,,,14.266591422
1716194949518667908,0.134,,,,14.274286208
1716194949526362694,0.134,,,,14.281980994
1716194949534057480,0.141,,,,14.28967578
1716194949541752266,0.151,,,,14.297370566
1716194949549447052,0.158,,,,14.305065352
1716194949557141838,0.163,,,,14.312760138
1716194949564836624,0.163,,,,14.320454924
1716194949572531410,0.166,,,,14.32814971
1716194949580226196,0.173,,,,14.335844496
1716194949587920982,0.18,,,,14.343539282
1716194949595615768,0.18,,,,14.351234068
1716194949603310554,0.192,,,,14.358928854
1716194949611005340,0.202,,,,14.36662364
1716194949618700126,0.202,,,,14.374318426
1716194949626394912,0.212,,,,14.382013212
1716194949634089698,0.224,,,,14.389707998
1716194949641784484,0.227,,,,14.397402784
1716194949649479270,0.222,,,,14.40509757
1716194949657174056,0.214,,,,14.412792356
1716194949664868842,0.214,,,,14.420487142
1716194949672563628,0.214,,,,14.428181928
1716194949680258414,0.205,,,,14.435876714
1716194949687953200,0.192,,,,14.4435715
1716194949695647986,0.178,,,,14.451266286
1716194949703342772,0.168,,,,14.458961072
1716194949711037558,0.146,,,,14.466655858
1716194949718732344,0.112,,,,14.474350644
1716194949726427130,0.095,,,,14.48204543
1716194949734121916,0.075,,,,14.489740216
1716194949741816702,0.048,,,,14.497435002
1716194949749511488,0.043,,,,14.505129788
1716194949757206274,0.043,,,,14.512824574
1716194949764901060,0.031,,,,14.52051936
1716194949772595846,0.021,,,,14.528214146
1716194949780290632,0.029,,,,14.535908932
1716194949787985418,0.041,,,,14.543603718
1716194949795680204,0.036,,,,14.551298504
1716194949803374990,0.034,,,,14.55899329
1716194949811069776,0.039,,,,14.566688076
1716194949818764562,0.046,,,,14.574382862
1716194949826459348,0.051,,,,14.582077648
1716194949834154134,0.051,,,,14.589772434
1716194949841848920,0.061,,,,14.59746722
1716194949849543722,0.073,63.0,1175.0,,14.605162022
1716194949857238508,0.068,,,,14.612856808
1716194949864933294,0.075,,,,14.620551594
1716194949872628080,0.085,,,,14.62824638
1716194949880322866,0.08,,,,14.635941166
1716194949888017652,0.08,,,,14.643635952
1716194949895712438,0.09,,,,14.651330738
1716194949903407224,0.095,,,,14.659025524
1716194949911102010,0.09,,,,14.66672031
1716194949918796796,0.08,,,,14.674415096
1716194949926491582,0.078,,,,14.682109882
1716194949934186368,0.078,,,,14.689804668
1716194949941881154,0.08,,,,14.697499454
1716194949949575940,0.09,,,,14.70519424
1716194949957270726,0.09,,,,14.712889026
1716194949964965512,0.085,,,,14.720583812
1716194949972660298,0.08,,,,14.728278598
1716194949980355084,0.078,,,,14.735973384
1716194949988049870,0.087,,,,14.74366817
1716194949995744656,0.085,,,,14.751362956
1716194950003439442,0.07,,,,14.759057742
1716194950011134228,0.07,,,,14.766752528
1716194950018829014,0.075,,,,14.774447314
1716194950026523800,0.083,,,,14.7821421
1716194950034218586,0.08,,,,14.789836886
1716194950041913372,0.078,,,,14.797531672
1716194950049608158,0.085,,,,14.805226458
1716194950057302944,0.087,,,,14.812921244
1716194950064997730,0.085,,,,14.82061603
1716194950072692516,0.085,,,,14.828310816
1716194950080387302,0.087,,,,14.836005602
1716194950088082088,0.09,,,,14.843700388
1716194950095776874,0.087,,,,14.851395174
1716194950103471660,0.087,,,,14.85908996
1716194950111166446,0.092,,,,14.866784746
1716194950118861232,0.092,,,,14.874479532
1716194950126556018,0.095,,,,14.882174318
1716194950134250804,0.095,,,,14.889869104
1716194950141945590,0.095,,,,14.89756389
1716194950149640376,0.097,,,,14.905258676
1716194950157335162,0.097,,,,14.912953462
1716194950165029948,0.1,,,,14.920648248
1716194950172724734,0.104,,,,14.928343034
1716194950180419520,0.104,,,,14.93603782
1716194950188114306,0.102,,,,14.943732606
1716194950195809092,0.1,,,,14.951427392
1716194950203503878,0.102,,,,14.959122178
1716194950211198664,0.104,,,,14.966816964
1716194950218893450,0.102,,,,14.97451175
1716194950226588236,0.107,,,,14.982206536
1716194950234283022,0.114,,,,14.989901322
1716194950241977808,0.109,,,,14.997596108
1716194950249672594,0.109,,,,15.005290894
1716194950257367380,0.107,,,,15.01298568
1716194950265062166,0.112,,,,15.020680466
1716194950272756952,0.112,,,,15.028375252
1716194950280451738,0.107,,,,15.036070038
1716194950288146524,0.107,,,,15.043764824
1716194950295841310,0.1,,,,15.05145961
1716194950303536096,0.1,,,,15.059154396
1716194950311230882,0.114,,,,15.066849182
1716194950318925668,0.119,,,,15.074543968
1716194950326620454,0.129,,,,15.082238754
1716194950334315240,0.139,,,,15.08993354
1716194950342010026,0.129,,,,15.097628326
1716194950349704812,0.114,,,,15.105323112
1716194950357399598,0.107,,,,15.113017898
1716194950365094384,0.112,,,,15.120712684
1716194950372789170,0.114,,,,15.12840747
1716194950380483956,0.112,,,,15.136102256
1716194950388178742,0.114,,,,15.143797042
1716194950395873528,0.112,,,,15.151491828
1716194950403568314,0.109,,,,15.159186614
1716194950411263118,0.1,,,,15.166881418
1716194950418958322,0.056,,,,15.174576622
1716194950426653526,0.087,,,,15.182271826
1716194950434348730,0.437,,,,15.18996703
1716194950442043934,1.013,,,,15.197662234
1716194950449739138,1.213,,,,15.205357438
1716194950457434342,0.412,,,,15.213052642
1716194950465129546,-0.686,,,,15.220747846
1716194950472824750,-0.622,,,,15.22844305
1716194950480519954,0.024,,,,15.236138254
1716194950488215158,0.048,,,,15.243833458
1716194950495910362,-0.036,,,,15.251528662
1716194950503605566,0.119,,,,15.259223866
1716194950511300770,0.117,,,,15.26691907
1716194950518995974,0.046,,,,15.274614274
1716194950526691178,0.095,,,,15.282309478
1716194950534386382,0.122,,,,15.290004682
1716194950542081586,0.097,,,,15.297699886
1716194950549776790,0.109,,,,15.30539509
1716194950557471994,0.119,,,,15.313090294
1716194950565167198,0.109,,,,15.320785498
1716194950572862402,0.107,,,,15.328480702
1716194950580557606,0.112,,,,15.336175906
1716194950588252810,0.117,,,,15.34387111
1716194950595948014,0.124,,,,15.351566314
1716194950603643218,0.131,,,,15.359261518
1716194950611338422,0.134,,,,15.366956722
1716194950619033626,0.139,,,,15.374651926
1716194950626728830,0.151,,,,15.38234713
1716194950634424034,0.158,,,,15.390042334
1716194950642119238,0.163,,,,15.397737538
1716194950649814442,0.175,,,,15.405432742
1716194950657509646,0.183,,,,15.413127946
1716194950665204850,0.185,,,,15.42082315
1716194950672900054,0.192,,,,15.428518354
1716194950680595258,0.2,,,,15.436213558
1716194950688290462,0.202,,,,15.443908762
1716194950695985666,0.2,,,,15.451603966
1716194950703680870,0.195,,,,15.45929917
1716194950711376074,0.19,,,,15.466994374
1716194950719071278,0.18,,,,15.474689578
1716194950726766482,0.17,,,,15.482384782
1716194950734461686,0.158,,,,15.490079986
1716194950742156890,0.144,,,,15.49777519
1716194950749852094,0.119,,,,15.505470394
1716194950757547298,0.085,,,,15.513165598
1716194950765242502,0.061,,,,15.520860802
1716194950772937706,0.051,,,,15.528556006
1716194950780632910,0.036,,,,15.53625121
1716194950788328114,0.024,,,,15.543946414
1716194950796023318,0.014,,,,15.551641618
1716194950803718522,0.009,,,,15.559336822
1716194950811413726,0.004,,,,15.567032026
1716194950819108930,0.004,,,,15.57472723
1716194950826804134,0.014,,,,15.582422434
1716194950834499338,0.019,,,,15.590117638
1716194950842194542,0.019,,,,15.597812842
1716194950849889746,0.026,,,,15.605508046
1716194950857584950,0.031,,,,15.61320325
1716194950865280154,0.043,,,,15.620898454
1716194950872975358,0.053,,,,15.628593658
1716194950880670562,0.053,,,,15.636288862
1716194950888365766,0.061,,,,15.643984066
1716194950896060970,0.065,,,,15.65167927
1716194950903756174,0.07,,,,15.659374474
1716194950911451378,0.08,,,,15.667069678
1716194950919146582,0.085,,,,15.674764882
1716194950926841786,0.09,,,,15.682460086
1716194950934536990,0.092,,,,15.69015529
1716194950942232194,0.09,,,,15.697850494
1716194950949927398,0.095,,,,15.705545698
1716194950957622602,0.095,,,,15.713240902
1716194950965317806,0.095,,,,15.720936106
1716194950973013030,0.095,62.0,1155.0,,15.72863133
1716194950980708234,0.095,,,,15.736326534
1716194950988403438,0.1,,,,15.744021738
1716194950996098642,0.095,,,,15.751716942
1716194951003793846,0.09,,,,15.759412146
1716194951011489050,0.087,,,,15.76710735
1716194951019184254,0.087,,,,15.774802554
1716194951026879458,0.09,,,,15.782497758
1716194951034574662,0.085,,,,15.790192962
1716194951042269866,0.09,,,,15.797888166
1716194951049965070,0.09,,,,15.80558337
1716194951057660274,0.078,,,,15.813278574
1716194951065355478,0.075,,,,15.820973778
1716194951073050682,0.083,,,,15.828668982
1716194951080745886,0.08,,,,15.836364186
1716194951088441090,0.08,,,,15.84405939
1716194951096136294,0.085,,,,15.851754594
1716194951103831498,0.09,,,,15.859449798
1716194951111526702,0.092,,,,15.867145002
1716194951119221906,0.09,,,,15.874840206
1716194951126917110,0.092,,,,15.88253541
1716194951134612314,0.095,,,,15.890230614
1716194951142307518,0.097,,,,15.897925818
1716194951150002722,0.1,,,,15.905621022
1716194951157697926,0.097,,,,15.913316226
1716194951165393130,0.102,,,,15.92101143
1716194951173088334,0.102,,,,15.928706634
1716194951180783538,0.097,,,,15.936401838
1716194951188478742,0.107,,,,15.944097042
1716194951196173946,0.109,,,,15.951792246
1716194951203869150,0.107,,,,15.95948745
1716194951211564354,0.107,,,,15.967182654
1716194951219259558,0.107,,,,15.974877858
1716194951226954762,0.109,,,,15.982573062
1716194951234649966,0.112,,,,15.990268266
1716194951242345170,0.109,,,,15.99796347
1716194951250040374,0.114,,,,16.005658674
1716194951257735578,0.117,,,,16.013353878
1716194951265430782,0.112,,,,16.021049082
1716194951273125986,0.109,,,,16.028744286
1716194951280821190,0.114,,,,16.03643949
1716194951288516394,0.122,,,,16.044134694
1716194951296211598,0.124,,,,16.051829898
1716194951303906802,0.126,,,,16.059525102
1716194951311602006,0.131,,,,16.067220306
1716194951319297210,0.136,,,,16.07491551
1716194951326992414,0.141,,,,16.082610714
1716194951334687618,0.139,,,,16.090305918
1716194951342382822,0.134,,,,16.098001122
1716194951350078026,0.124,,,,16.105696326
1716194951357773230,0.107,,,,16.11339153
1716194951365468434,0.109,,,,16.121086734
1716194951373163638,0.119,,,,16.128781938
1716194951380858842,0.117,,,,16.136477142
1716194951388554046,0.114,,,,16.144172346
1716194951396249250,0.114,,,,16.15186755
1716194951403944454,0.087,,,,16.159562754
1716194951411639658,0.063,,,,16.167257958
1716194951419334862,0.283,,,,16.174953162
1716194951427030066,0.839,,,,16.182648366
1716194951434725270,1.264,,,,16.19034357
1716194951442420474,0.8270000000000001,,,,16.198038774
1716194951450115678,-0.349,,,,16.205733978
1716194951457810882,-0.791,,,,16.213429182
1716194951465506086,-0.146,,,,16.221124386
1716194951473201290,0.144,,,,16.22881959
1716194951480896494,-0.019,,,,16.236514794
1716194951488591698,0.1,,,,16.244209998
1716194951496286902,0.192,,,,16.251905202
1716194951503982106,0.107,,,,16.259600406
1716194951511677310,0.117,,,,16.26729561
1716194951519372514,0.163,,,,16.274990814
1716194951527067718,0.146,,,,16.282686018
1716194951534762942,0.136,,,,16.290381242
1716194951542457728,0.151,,,,16.298076028
1716194951550152514,0.151,,,,16.305770814
1716194951557847300,0.153,,,,16.3134656
1716194951565542086,0.168,,,,16.321160386
1716194951573236872,0.168,,,,16.328855172
1716194951580931658,0.17,,,,16.336549958
1716194951588626444,0.18,,,,16.344244744
1716194951596321230,0.17,,,,16.35193953
1716194951604016016,0.163,,,,16.359634316
1716194951611710802,0.183,,,,16.367329102
1716194951619405588,0.197,,,,16.375023888
1716194951627100374,0.192,,,,16.382718674
1716194951634795160,0.19,,,,16.39041346
1716194951642489946,0.202,,,,16.398108246
1716194951650184732,0.217,,,,16.405803032
1716194951657879518,0.212,,,,16.413497818
1716194951665574304,0.219,,,,16.421192604
1716194951673269090,0.231,,,,16.42888739
1716194951680963876,0.224,,,,16.436582176
1716194951688658662,0.217,,,,16.444276962
1716194951696353448,0.214,,,,16.451971748
1716194951704048234,0.205,,,,16.459666534
1716194951711743020,0.195,,,,16.46736132
1716194951719437806,0.19,,,,16.475056106
1716194951727132592,0.183,,,,16.482750892
1716194951734827378,0.148,,,,16.490445678
1716194951742522164,0.109,,,,16.498140464
1716194951750216950,0.083,,,,16.50583525
1716194951757911736,0.051,,,,16.513530036
1716194951765606522,0.026,,,,16.521224822
1716194951773301308,0.021,,,,16.528919608
1716194951780996094,0.012,,,,16.536614394
1716194951788690880,0.004,,,,16.54430918
1716194951796385666,0.007,,,,16.552003966
1716194951804080452,0.009,,,,16.559698752
1716194951811775238,0.009,,,,16.567393538
1716194951819470024,0.004,,,,16.575088324
1716194951827164810,0.014,,,,16.58278311
1716194951834859596,0.017,,,,16.590477896
1716194951842554382,0.021,,,,16.598172682
1716194951850249168,0.039,,,,16.605867468
1716194951857943954,0.043,,,,16.613562254
1716194951865638740,0.039,,,,16.62125704
1716194951873333526,0.039,,,,16.628951826
1716194951881028312,0.048,,,,16.636646612
1716194951888723098,0.065,,,,16.644341398
1716194951896417884,0.068,,,,16.652036184
1716194951904112670,0.065,,,,16.65973097
1716194951911807456,0.065,,,,16.667425756
1716194951919502242,0.063,,,,16.675120542
1716194951927197028,0.07,,,,16.682815328
1716194951934891814,0.083,,,,16.690510114
1716194951942586600,0.08,,,,16.6982049
1716194951950281386,0.07,,,,16.705899686
1716194951957976172,0.073,,,,16.713594472
1716194951965670958,0.08,,,,16.721289258
1716194951973365744,0.08,,,,16.728984044
1716194951981060530,0.083,,,,16.73667883
1716194951988755316,0.085,,,,16.744373616
1716194951996450102,0.078,,,,16.752068402
1716194952004144888,0.08,,,,16.759763188
1716194952011839674,0.075,,,,16.767457974
1716194952019534460,0.061,,,,16.77515276
1716194952027229246,0.068,,,,16.782847546
1716194952034924032,0.075,,,,16.790542332
1716194952042618818,0.063,,,,16.798237118
1716194952050313604,0.063,,,,16.805931904
1716194952058008390,0.07,,,,16.81362669
1716194952065703176,0.073,,,,16.821321476
1716194952073397962,0.08,,,,16.829016262
1716194952081092748,0.08,,,,16.836711048
1716194952088787534,0.073,,,,16.844405834
1716194952096482336,0.07,61.0,1110.0,,16.852100636
1716194952104177540,0.078,,,,16.85979584
1716194952111872744,0.083,,,,16.867491044
1716194952119567948,0.08,,,,16.875186248
1716194952127263152,0.09,,,,16.882881452
1716194952134958356,0.09,,,,16.890576656
1716194952142653560,0.083,,,,16.89827186
1716194952150348764,0.095,,,,16.905967064
1716194952158043968,0.092,,,,16.913662268
1716194952165739172,0.07,,,,16.921357472
1716194952173434376,0.073,,,,16.929052676
1716194952181129580,0.085,,,,16.93674788
1716194952188824784,0.08,,,,16.944443084
1716194952196519988,0.078,,,,16.952138288
1716194952204215192,0.1,,,,16.959833492
1716194952211910396,0.109,,,,16.967528696
1716194952219605600,0.104,,,,16.9752239
1716194952227300804,0.109,,,,16.982919104
1716194952234996008,0.114,,,,16.990614308
1716194952242691212,0.112,,,,16.998309512
1716194952250386416,0.107,,,,17.006004716
1716194952258081620,0.09,,,,17.01369992
1716194952265776824,0.083,,,,17.021395124
1716194952273472028,0.085,,,,17.029090328
1716194952281167232,0.08,,,,17.036785532
1716194952288862436,0.085,,,,17.044480736
1716194952296557640,0.087,,,,17.05217594
1716194952304252844,0.09,,,,17.059871144
1716194952311948048,0.075,,,,17.067566348
1716194952319643252,0.034,,,,17.075261552
1716194952327338456,0.17,,,,17.082956756
1716194952335033660,0.6900000000000001,,,,17.09065196
1716194952342728864,1.228,,,,17.098347164
1716194952350424068,0.993,,,,17.106042368
1716194952358119272,-0.168,,,,17.113737572
1716194952365814476,-0.878,,,,17.121432776
1716194952373509680,-0.329,,,,17.12912798
1716194952381204884,0.112,,,,17.136823184
1716194952388900088,-0.036,,,,17.144518388
1716194952396595292,0.034,,,,17.152213592
1716194952404290496,0.175,,,,17.159908796
1716194952411985700,0.095,,,,17.167604
1716194952419680904,0.07,,,,17.175299204
1716194952427376108,0.139,,,,17.182994408
1716194952435071312,0.129,,,,17.190689612
1716194952442766516,0.109,,,,17.198384816
1716194952450461720,0.134,,,,17.20608002
1716194952458156924,0.136,,,,17.213775224
1716194952465852128,0.131,,,,17.221470428
1716194952473547332,0.146,,,,17.229165632
1716194952481242536,0.151,,,,17.236860836
1716194952488937740,0.153,,,,17.24455604
1716194952496632944,0.158,,,,17.252251244
1716194952504328148,0.163,,,,17.259946448
1716194952512023352,0.161,,,,17.267641652
1716194952519718556,0.156,,,,17.275336856
1716194952527413760,0.166,,,,17.28303206
1716194952535108964,0.175,,,,17.290727264
1716194952542804168,0.178,,,,17.298422468
1716194952550499372,0.183,,,,17.306117672
1716194952558194576,0.183,,,,17.313812876
1716194952565889780,0.195,,,,17.32150808
1716194952573584984,0.207,,,,17.329203284
1716194952581280188,0.209,,,,17.336898488
1716194952588975392,0.202,,,,17.344593692
1716194952596670596,0.195,,,,17.352288896
1716194952604365800,0.192,,,,17.3599841
1716194952612061004,0.18,,,,17.367679304
1716194952619756208,0.166,,,,17.375374508
1716194952627451412,0.161,,,,17.383069712
1716194952635146616,0.146,,,,17.390764916
1716194952642841820,0.114,,,,17.39846012
1716194952650537024,0.078,,,,17.406155324
1716194952658232248,0.048,,,,17.413850548
1716194952665927034,0.034,,,,17.421545334
1716194952673621820,0.017,,,,17.42924012
1716194952681316606,0.0,,,,17.436934906
1716194952689011392,-0.004,,,,17.444629692
1716194952696706178,-0.009,,,,17.452324478
1716194952704400964,-0.017,,,,17.460019264
1716194952712095750,-0.014,,,,17.46771405
1716194952719790536,-0.007,,,,17.475408836
1716194952727485322,-0.002,,,,17.483103622
1716194952735180108,-0.007,,,,17.490798408
1716194952742874894,-0.014,,,,17.498493194
1716194952750569680,-0.004,,,,17.50618798
1716194952758264466,0.009,,,,17.513882766
1716194952765959252,0.014,,,,17.521577552
1716194952773654038,0.012,,,,17.529272338
1716194952781348824,0.012,,,,17.536967124
1716194952789043610,0.019,,,,17.54466191
1716194952796738396,0.024,,,,17.552356696
1716194952804433182,0.026,,,,17.560051482
1716194952812127968,0.031,,,,17.567746268
1716194952819822754,0.036,,,,17.575441054
1716194952827517540,0.041,,,,17.58313584
1716194952835212326,0.036,,,,17.590830626
1716194952842907112,0.034,,,,17.598525412
1716194952850601898,0.039,,,,17.606220198
1716194952858296684,0.036,,,,17.613914984
1716194952865991470,0.041,,,,17.62160977
1716194952873686256,0.043,,,,17.629304556
1716194952881381042,0.041,,,,17.636999342
1716194952889075828,0.041,,,,17.644694128
1716194952896770614,0.039,,,,17.652388914
1716194952904465400,0.039,,,,17.6600837
1716194952912160186,0.039,,,,17.667778486
1716194952919854972,0.031,,,,17.675473272
1716194952927549758,0.034,,,,17.683168058
1716194952935244544,0.036,,,,17.690862844
1716194952942939330,0.034,,,,17.69855763
1716194952950634116,0.034,,,,17.706252416
1716194952958328902,0.036,,,,17.713947202
1716194952966023688,0.043,,,,17.721641988
1716194952973718474,0.041,,,,17.729336774
1716194952981413260,0.041,,,,17.73703156
1716194952989108046,0.046,,,,17.744726346
1716194952996802832,0.046,,,,17.752421132
1716194953004497618,0.046,,,,17.760115918
1716194953012192404,0.043,,,,17.767810704
1716194953019887190,0.034,,,,17.77550549
1716194953027581976,0.031,,,,17.783200276
1716194953035276762,0.031,,,,17.790895062
1716194953042971548,0.034,,,,17.798589848
1716194953050666334,0.041,,,,17.806284634
1716194953058361120,0.043,,,,17.81397942
1716194953066055906,0.041,,,,17.821674206
1716194953073750692,0.041,,,,17.829368992
1716194953081445478,0.046,,,,17.837063778
1716194953089140264,0.053,,,,17.844758564
1716194953096835050,0.051,,,,17.85245335
1716194953104529836,0.048,,,,17.860148136
1716194953112224622,0.051,,,,17.867842922
1716194953119919408,0.051,,,,17.875537708
1716194953127614194,0.051,,,,17.883232494
1716194953135308980,0.058,,,,17.89092728
1716194953143003766,0.07,,,,17.898622066
1716194953150698552,0.08,,,,17.906316852
1716194953158393338,0.078,,,,17.914011638
1716194953166088124,0.083,,,,17.921706424
1716194953173782910,0.09,,,,17.92940121
1716194953181477696,0.092,,,,17.937095996
1716194953189172482,0.085,,,,17.944790782
1716194953196867268,0.07,,,,17.952485568
1716194953204562054,0.063,,,,17.960180354
1716194953212256840,0.068,,,,17.96787514
1716194953219951642,0.07,60.0,1036.0,,17.975569942
1716194953227646428,0.073,,,,17.983264728
1716194953235341214,0.075,,,,17.990959514
1716194953243036000,0.075,,,,17.9986543
1716194953250730786,0.053,,,,18.006349086
1716194953258425572,0.019,,,,18.014043872
1716194953266120358,0.18,,,,18.021738658
1716194953273815144,0.6900000000000001,,,,18.029433444
1716194953281509930,1.181,,,,18.03712823
1716194953289204716,0.92,,,,18.044823016
1716194953296899502,-0.229,,,,18.052517802
1716194953304594288,-0.893,,,,18.060212588
1716194953312289074,-0.324,,,,18.067907374
1716194953319983860,0.097,,,,18.07560216
1716194953327678646,-0.053,,,,18.083296946
1716194953335373432,0.014,,,,18.090991732
1716194953343068218,0.139,,,,18.098686518
1716194953350763004,0.068,,,,18.106381304
1716194953358457790,0.058,,,,18.11407609
1716194953366152576,0.117,,,,18.121770876
1716194953373847362,0.104,,,,18.129465662
1716194953381542148,0.09,,,,18.137160448
1716194953389236934,0.112,,,,18.144855234
1716194953396931720,0.117,,,,18.15255002
1716194953404626506,0.114,,,,18.160244806
1716194953412321292,0.126,,,,18.167939592
1716194953420016078,0.136,,,,18.175634378
1716194953427710864,0.136,,,,18.183329164
1716194953435405650,0.136,,,,18.19102395
1716194953443100436,0.146,,,,18.198718736
1716194953450795222,0.158,,,,18.206413522
1716194953458490008,0.161,,,,18.214108308
1716194953466184794,0.168,,,,18.221803094
1716194953473879580,0.178,,,,18.22949788
1716194953481574366,0.183,,,,18.237192666
1716194953489269152,0.19,,,,18.244887452
1716194953496963938,0.195,,,,18.252582238
1716194953504658724,0.205,,,,18.260277024
1716194953512353510,0.207,,,,18.26797181
1716194953520048296,0.2,,,,18.275666596
1716194953527743082,0.187,,,,18.283361382
1716194953535437868,0.18,,,,18.291056168
1716194953543132654,0.18,,,,18.298750954
1716194953550827440,0.175,,,,18.30644574
1716194953558522226,0.163,,,,18.314140526
1716194953566217012,0.156,,,,18.321835312
1716194953573911798,0.139,,,,18.329530098
1716194953581606584,0.109,,,,18.337224884
1716194953589301370,0.09,,,,18.34491967
1716194953596996156,0.065,,,,18.352614456
1716194953604690942,0.043,,,,18.360309242
1716194953612385728,0.026,,,,18.368004028
1716194953620080514,0.017,,,,18.375698814
1716194953627775300,0.014,,,,18.3833936
1716194953635470086,0.012,,,,18.391088386
1716194953643164872,0.012,,,,18.398783172
1716194953650859658,0.017,,,,18.406477958
1716194953658554444,0.017,,,,18.414172744
1716194953666249230,0.014,,,,18.42186753
1716194953673944016,0.019,,,,18.429562316
1716194953681638802,0.026,,,,18.437257102
1716194953689333588,0.034,,,,18.444951888
1716194953697028374,0.034,,,,18.452646674
1716194953704723160,0.039,,,,18.46034146
1716194953712417946,0.043,,,,18.468036246
1716194953720112732,0.048,,,,18.475731032
1716194953727807518,0.053,,,,18.483425818
1716194953735502304,0.058,,,,18.491120604
1716194953743197090,0.065,,,,18.49881539
1716194953750891876,0.073,,,,18.506510176
1716194953758586662,0.068,,,,18.514204962
1716194953766281448,0.068,,,,18.521899748
1716194953773976234,0.073,,,,18.529594534
1716194953781671036,0.075,60.0,987.0,,18.537289336
1716194953789366170,0.078,,,,18.54498447
1716194953797061304,0.075,,,,18.552679604
1716194953804756438,0.075,,,,18.560374738
1716194953812451572,0.075,,,,18.568069872
1716194953820146706,0.068,,,,18.575765006
1716194953827841840,0.07,,,,18.58346014
1716194953835536974,0.075,,,,18.591155274
1716194953843232108,0.073,,,,18.598850408
1716194953850927242,0.068,,,,18.606545542
1716194953858622376,0.065,,,,18.614240676
1716194953866317510,0.07,,,,18.62193581
1716194953874012644,0.07,,,,18.629630944
1716194953881707778,0.068,,,,18.637326078
1716194953889402912,0.073,,,,18.645021212
1716194953897098046,0.073,,,,18.652716346
1716194953904793180,0.073,,,,18.66041148
1716194953912488314,0.075,,,,18.668106614
1716194953920183448,0.075,,,,18.675801748
1716194953927878582,0.08,,,,18.683496882
1716194953935573716,0.078,,,,18.691192016
1716194953943268850,0.073,,,,18.69888715
1716194953950963984,0.08,,,,18.706582284
1716194953958659118,0.08,,,,18.714277418
1716194953966354252,0.08,,,,18.721972552
1716194953974049386,0.08,,,,18.729667686
1716194953981744520,0.083,,,,18.73736282
1716194953989439654,0.083,,,,18.745057954
1716194953997134788,0.078,,,,18.752753088
1716194954004829922,0.073,,,,18.760448222
1716194954012525056,0.065,,,,18.768143356
1716194954020220190,0.063,,,,18.77583849
1716194954027915324,0.061,,,,18.783533624
1716194954035610458,0.048,,,,18.791228758
1716194954043305592,0.046,,,,18.798923892
1716194954051000726,0.056,,,,18.806619026
1716194954058695860,0.056,,,,18.81431416
1716194954066390994,0.056,,,,18.822009294
1716194954074086128,0.058,,,,18.829704428
1716194954081781262,0.056,,,,18.837399562
1716194954089476396,0.056,,,,18.845094696
1716194954097171530,0.061,,,,18.85278983
1716194954104866664,0.065,,,,18.860484964
1716194954112561798,0.068,,,,18.868180098
1716194954120256932,0.063,,,,18.875875232
1716194954127952066,0.065,,,,18.883570366
1716194954135647200,0.068,,,,18.8912655
1716194954143342334,0.073,,,,18.898960634
1716194954151037468,0.083,,,,18.906655768
1716194954158732602,0.09,,,,18.914350902
1716194954166427736,0.097,,,,18.922046036
1716194954174122870,0.097,,,,18.92974117
1716194954181818004,0.097,,,,18.937436304
1716194954189513138,0.1,,,,18.945131438
1716194954197208272,0.09,,,,18.952826572
1716194954204903406,0.075,,,,18.960521706
1716194954212598540,0.073,,,,18.96821684
1716194954220293674,0.08,,,,18.975911974
1716194954227988808,0.092,,,,18.983607108
1716194954235683942,0.087,,,,18.991302242
1716194954243379076,0.083,,,,18.998997376
1716194954251074210,0.085,,,,19.00669251
1716194954258769344,0.048,,,,19.014387644
1716194954266464478,0.021,,,,19.022082778
1716194954274159612,0.256,,,,19.029777912
1716194954281854746,0.8200000000000001,,,,19.037473046
1716194954289549880,1.24,,,,19.04516818
1716194954297245014,0.781,,,,19.052863314
1716194954304940148,-0.405,,,,19.060558448
1716194954312635282,-0.8220000000000001,,,,19.068253582
1716194954320330416,-0.17,,,,19.075948716
1716194954328025550,0.112,,,,19.08364385
1716194954335720684,-0.041,,,,19.091338984
1716194954343415864,0.078,,,,19.099034164
1716194954351110719,0.166,,,,19.106729019
1716194954358805574,0.075,,,,19.114423874
1716194954366500429,0.092,,,,19.122118729
1716194954374195284,0.148,,,,19.129813584
1716194954381890139,0.129,,,,19.137508439
1716194954389584994,0.119,,,,19.145203294
1716194954397279849,0.134,,,,19.152898149
1716194954404974704,0.141,,,,19.160593004
1716194954412669559,0.144,,,,19.168287859
1716194954420364414,0.146,,,,19.175982714
1716194954428059269,0.144,,,,19.183677569
1716194954435754124,0.146,,,,19.191372424
1716194954443448979,0.158,,,,19.199067279
1716194954451143834,0.166,,,,19.206762134
1716194954458838689,0.168,,,,19.214456989
1716194954466533544,0.185,,,,19.222151844
1716194954474228399,0.195,,,,19.229846699
1716194954481923254,0.192,,,,19.237541554
1716194954489618109,0.197,,,,19.245236409
1716194954497312964,0.2,,,,19.252931264
1716194954505007819,0.205,,,,19.260626119
1716194954512702674,0.209,,,,19.268320974
1716194954520397529,0.214,,,,19.276015829
1716194954528092384,0.219,,,,19.283710684
1716194954535787239,0.214,,,,19.291405539
1716194954543482094,0.197,,,,19.299100394
1716194954551176949,0.192,,,,19.306795249
1716194954558871804,0.187,,,,19.314490104
1716194954566566659,0.18,,,,19.322184959
1716194954574261514,0.175,,,,19.329879814
1716194954581956369,0.168,,,,19.337574669
1716194954589651224,0.144,,,,19.345269524
1716194954597346079,0.109,,,,19.352964379
1716194954605040934,0.085,,,,19.360659234
1716194954612735789,0.061,,,,19.368354089
1716194954620430644,0.043,,,,19.376048944
1716194954628125499,0.034,,,,19.383743799
1716194954635820354,0.024,,,,19.391438654
1716194954643515209,0.024,,,,19.399133509
1716194954651210064,0.031,,,,19.406828364
1716194954658904919,0.031,,,,19.414523219
1716194954666599774,0.034,,,,19.422218074
1716194954674294629,0.034,,,,19.429912929
1716194954681989484,0.036,,,,19.437607784
1716194954689684339,0.041,,,,19.445302639
1716194954697379194,0.034,,,,19.452997494
1716194954705074049,0.039,,,,19.460692349
1716194954712768904,0.058,,,,19.468387204
1716194954720463759,0.061,,,,19.476082059
1716194954728158614,0.056,,,,19.483776914
1716194954735853469,0.061,,,,19.491471769
1716194954743548324,0.07,,,,19.499166624
1716194954751243179,0.07,,,,19.506861479
1716194954758938034,0.07,,,,19.514556334
1716194954766632889,0.085,,,,19.522251189
1716194954774327744,0.087,,,,19.529946044
1716194954782022599,0.078,,,,19.537640899
1716194954789717454,0.083,,,,19.545335754
1716194954797412309,0.095,,,,19.553030609
1716194954805107164,0.087,,,,19.560725464
1716194954812802019,0.078,,,,19.568420319
1716194954820496874,0.078,,,,19.576115174
1716194954828191729,0.09,,,,19.583810029
1716194954835886584,0.09,,,,19.591504884
1716194954843581439,0.085,,,,19.599199739
1716194954851276294,0.087,,,,19.606894594
1716194954858971149,0.09,,,,19.614589449
1716194954866666004,0.09,,,,19.622284304
1716194954874360859,0.087,,,,19.629979159
1716194954882055714,0.09,,,,19.637674014
1716194954889750569,0.083,,,,19.645368869
1716194954897445424,0.078,,,,19.653063724
1716194954905140344,0.087,60.0,909.0,,19.660758644
1716194954912835130,0.087,,,,19.66845343
1716194954920529916,0.08,,,,19.676148216
1716194954928224702,0.083,,,,19.683843002
1716194954935919488,0.09,,,,19.691537788
1716194954943614274,0.095,,,,19.699232574
1716194954951309060,0.087,,,,19.70692736
1716194954959003846,0.068,,,,19.714622146
1716194954966698632,0.073,,,,19.722316932
1716194954974393418,0.09,,,,19.730011718
1716194954982088204,0.087,,,,19.737706504
1716194954989782990,0.078,,,,19.74540129
1716194954997477776,0.075,,,,19.753096076
1716194955005172562,0.078,,,,19.760790862
1716194955012867348,0.078,,,,19.768485648
1716194955020562134,0.08,,,,19.776180434
1716194955028256920,0.087,,,,19.78387522
1716194955035951706,0.083,,,,19.791570006
1716194955043646492,0.061,,,,19.799264792
1716194955051341278,0.051,,,,19.806959578
1716194955059036064,0.058,,,,19.814654364
1716194955066730850,0.065,,,,19.82234915
1716194955074425636,0.063,,,,19.830043936
1716194955082120422,0.061,,,,19.837738722
1716194955089815208,0.065,,,,19.845433508
1716194955097509994,0.07,,,,19.853128294
1716194955105204780,0.08,,,,19.86082308
1716194955112899566,0.083,,,,19.868517866
1716194955120594352,0.08,,,,19.876212652
1716194955128289138,0.092,,,,19.883907438
1716194955135983924,0.097,,,,19.891602224
1716194955143678710,0.083,,,,19.89929701
1716194955151373496,0.065,,,,19.906991796
1716194955159068282,0.063,,,,19.914686582
1716194955166763068,0.075,,,,19.922381368
1716194955174457854,0.08,,,,19.930076154
1716194955182152640,0.073,,,,19.93777094
1716194955189847426,0.073,,,,19.945465726
1716194955197542212,0.073,,,,19.953160512
1716194955205236998,0.043,,,,19.960855298
1716194955212931784,0.014,,,,19.968550084
1716194955220626570,0.231,,,,19.97624487
1716194955228321356,0.81,,,,19.983939656
1716194955236016142,1.257,,,,19.991634442
1716194955243710928,0.791,,,,19.999329228
1716194955251405714,-0.424,,,,20.007024014
1716194955259100500,-0.859,,,,20.0147188
1716194955266795286,-0.192,,,,20.022413586
1716194955274490072,0.095,,,,20.030108372
1716194955282184858,-0.065,,,,20.037803158
1716194955289879644,0.058,,,,20.045497944
1716194955297574430,0.153,,,,20.05319273
1716194955305269216,0.065,,,,20.060887516
1716194955312964002,0.075,,,,20.068582302
1716194955320658788,0.126,,,,20.076277088
1716194955328353574,0.104,,,,20.083971874
1716194955336048360,0.104,,,,20.09166666
1716194955343743146,0.136,,,,20.099361446
1716194955351437932,0.131,,,,20.107056232
1716194955359132718,0.124,,,,20.114751018
1716194955366827504,0.141,,,,20.122445804
1716194955374522290,0.144,,,,20.13014059
1716194955382217076,0.139,,,,20.137835376
1716194955389911862,0.151,,,,20.145530162
1716194955397606648,0.158,,,,20.153224948
1716194955405301434,0.166,,,,20.160919734
1716194955412996220,0.17,,,,20.16861452
1716194955420691006,0.173,,,,20.176309306
1716194955428385792,0.185,,,,20.184004092
1716194955436080578,0.192,,,,20.191698878
1716194955443775364,0.2,,,,20.199393664
1716194955451470150,0.207,,,,20.20708845
1716194955459164936,0.207,,,,20.214783236
1716194955466859738,0.212,,,,20.222478038
1716194955474554663,0.214,,,,20.230172963
1716194955482249588,0.207,,,,20.237867888
1716194955489944513,0.2,,,,20.245562813
1716194955497639438,0.195,,,,20.253257738
1716194955505334363,0.185,,,,20.260952663
1716194955513029288,0.168,,,,20.268647588
1716194955520724213,0.153,,,,20.276342513
1716194955528419138,0.136,,,,20.284037438
1716194955536114063,0.104,,,,20.291732363
1716194955543808988,0.068,,,,20.299427288
1716194955551503913,0.039,,,,20.307122213
1716194955559198838,0.017,,,,20.314817138
1716194955566893763,0.009,,,,20.322512063
1716194955574588688,0.007,,,,20.330206988
1716194955582283613,-0.002,,,,20.337901913
1716194955589978538,-0.004,,,,20.345596838
1716194955597673463,-0.007,,,,20.353291763
1716194955605368388,-0.004,,,,20.360986688
1716194955613063313,0.0,,,,20.368681613
1716194955620758238,0.004,,,,20.376376538
1716194955628453163,0.014,,,,20.384071463
1716194955636148088,0.021,,,,20.391766388
1716194955643843013,0.024,,,,20.399461313
1716194955651537938,0.029,,,,20.407156238
1716194955659232863,0.039,,,,20.414851163
1716194955666927788,0.046,,,,20.422546088
1716194955674622713,0.051,,,,20.430241013
1716194955682317638,0.056,,,,20.437935938
1716194955690012563,0.065,,,,20.445630863
1716194955697707488,0.068,,,,20.453325788
1716194955705402413,0.07,,,,20.461020713
1716194955713097338,0.073,,,,20.468715638
1716194955720792263,0.073,,,,20.476410563
1716194955728487188,0.075,,,,20.484105488
1716194955736182113,0.065,,,,20.491800413
1716194955743877038,0.061,,,,20.499495338
1716194955751571963,0.07,,,,20.507190263
1716194955759266888,0.073,,,,20.514885188
1716194955766961813,0.07,,,,20.522580113
1716194955774656738,0.068,,,,20.530275038
1716194955782351663,0.073,,,,20.537969963
1716194955790046588,0.075,,,,20.545664888
1716194955797741513,0.073,,,,20.553359813
1716194955805436438,0.075,,,,20.561054738
1716194955813131363,0.08,,,,20.568749663
1716194955820826288,0.08,,,,20.576444588
1716194955828521213,0.083,,,,20.584139513
1716194955836216138,0.083,,,,20.591834438
1716194955843911063,0.085,,,,20.599529363
1716194955851605988,0.087,,,,20.607224288
1716194955859300913,0.085,,,,20.614919213
1716194955866995838,0.083,,,,20.622614138
1716194955874690763,0.08,,,,20.630309063
1716194955882385688,0.08,,,,20.638003988
1716194955890080613,0.083,,,,20.645698913
1716194955897775538,0.08,,,,20.653393838
1716194955905470463,0.085,,,,20.661088763
1716194955913165388,0.087,,,,20.668783688
1716194955920860313,0.083,,,,20.676478613
1716194955928555238,0.083,,,,20.684173538
1716194955936250163,0.085,,,,20.691868463
1716194955943945088,0.087,,,,20.699563388
1716194955951640013,0.085,,,,20.707258313
1716194955959334938,0.085,,,,20.714953238
1716194955967029863,0.092,,,,20.722648163
1716194955974724788,0.085,,,,20.730343088
1716194955982419713,0.08,,,,20.738038013
1716194955990114638,0.085,,,,20.745732938
1716194955997809563,0.087,,,,20.753427863
1716194956005504488,0.087,,,,20.761122788
1716194956013199413,0.087,,,,20.768817713
1716194956020894338,0.085,,,,20.776512638
1716194956028589306,0.083,60.0,938.0,,20.784207606
1716194956036284370,0.078,,,,20.79190267
1716194956043979434,0.075,,,,20.799597734
1716194956051674498,0.075,,,,20.807292798
1716194956059369562,0.073,,,,20.814987862
1716194956067064626,0.075,,,,20.822682926
1716194956074759690,0.073,,,,20.83037799
1716194956082454754,0.078,,,,20.838073054
1716194956090149818,0.083,,,,20.845768118
1716194956097844882,0.07,,,,20.853463182
1716194956105539946,0.058,,,,20.861158246
1716194956113235010,0.056,,,,20.86885331
1716194956120930074,0.058,,,,20.876548374
1716194956128625138,0.065,,,,20.884243438
1716194956136320202,0.065,,,,20.891938502
1716194956144015266,0.07,,,,20.899633566
1716194956151710330,0.073,,,,20.90732863
1716194956159405394,0.043,,,,20.915023694
1716194956167100458,0.021,,,,20.922718758
1716194956174795522,0.224,,,,20.930413822
1716194956182490586,0.766,,,,20.938108886
1716194956190185650,1.223,,,,20.94580395
1716194956197880714,0.844,,,,20.953499014
1716194956205575778,-0.334,,,,20.961194078
1716194956213270842,-0.859,,,,20.968889142
1716194956220965906,-0.231,,,,20.976584206
1716194956228660970,0.112,,,,20.98427927
1716194956236356034,-0.053,,,,20.991974334
1716194956244051098,0.046,,,,20.999669398
1716194956251746162,0.153,,,,21.007364462
1716194956259441226,0.068,,,,21.015059526
1716194956267136290,0.078,,,,21.02275459
1716194956274831354,0.134,,,,21.030449654
1716194956282526418,0.114,,,,21.038144718
1716194956290221482,0.109,,,,21.045839782
1716194956297916546,0.131,,,,21.053534846
1716194956305611610,0.134,,,,21.06122991
1716194956313306674,0.131,,,,21.068924974
1716194956321001738,0.144,,,,21.076620038
1716194956328696802,0.153,,,,21.084315102
1716194956336391866,0.148,,,,21.092010166
1716194956344086930,0.153,,,,21.09970523
1716194956351781994,0.166,,,,21.107400294
1716194956359477058,0.17,,,,21.115095358
1716194956367172122,0.18,,,,21.122790422
1716194956374867186,0.185,,,,21.130485486
1716194956382562250,0.192,,,,21.13818055
1716194956390257314,0.2,,,,21.145875614
1716194956397952378,0.202,,,,21.153570678
1716194956405647442,0.209,,,,21.161265742
1716194956413342506,0.214,,,,21.168960806
1716194956421037570,0.217,,,,21.17665587
1716194956428732634,0.219,,,,21.184350934
1716194956436427698,0.214,,,,21.192045998
1716194956444122762,0.214,,,,21.199741062
1716194956451817826,0.207,,,,21.207436126
1716194956459512890,0.197,,,,21.21513119
1716194956467207954,0.19,,,,21.222826254
1716194956474903018,0.173,,,,21.230521318
1716194956482598082,0.151,,,,21.238216382
1716194956490293146,0.131,,,,21.245911446
1716194956497988210,0.104,,,,21.25360651
1716194956505683274,0.08,,,,21.261301574
1716194956513378338,0.061,,,,21.268996638
1716194956521073402,0.043,,,,21.276691702
1716194956528768466,0.036,,,,21.284386766
1716194956536463530,0.031,,,,21.29208183
1716194956544158594,0.029,,,,21.299776894
1716194956551853658,0.024,,,,21.307471958
1716194956559548722,0.017,,,,21.315167022
1716194956567243786,0.014,,,,21.322862086
1716194956574938850,0.017,,,,21.33055715
1716194956582633914,0.019,,,,21.338252214
1716194956590329044,0.029,,,,21.345947344
1716194956598023830,0.031,,,,21.35364213
1716194956605718616,0.036,,,,21.361336916
1716194956613413402,0.041,,,,21.369031702
1716194956621108188,0.043,,,,21.376726488
1716194956628802974,0.048,,,,21.384421274
1716194956636497760,0.048,,,,21.39211606
1716194956644192546,0.048,,,,21.399810846
1716194956651887332,0.056,,,,21.407505632
1716194956659582118,0.063,,,,21.415200418
1716194956667276904,0.063,,,,21.422895204
1716194956674971690,0.065,,,,21.43058999
1716194956682666476,0.073,,,,21.438284776
1716194956690361262,0.075,,,,21.445979562
1716194956698056048,0.07,,,,21.453674348
1716194956705750834,0.075,,,,21.461369134
1716194956713445620,0.073,,,,21.46906392
1716194956721140406,0.065,,,,21.476758706
1716194956728835192,0.068,,,,21.484453492
1716194956736529978,0.07,,,,21.492148278
1716194956744224764,0.073,,,,21.499843064
1716194956751919550,0.073,,,,21.50753785
1716194956759614336,0.07,,,,21.515232636
1716194956767309122,0.075,,,,21.522927422
1716194956775003908,0.075,,,,21.530622208
1716194956782698694,0.07,,,,21.538316994
1716194956790393480,0.07,,,,21.54601178
1716194956798088266,0.073,,,,21.553706566
1716194956805783052,0.075,,,,21.561401352
1716194956813477838,0.075,,,,21.569096138
1716194956821172624,0.073,,,,21.576790924
1716194956828867410,0.08,,,,21.58448571
1716194956836562196,0.08,,,,21.592180496
1716194956844256982,0.08,,,,21.599875282
1716194956851951768,0.078,,,,21.607570068
1716194956859646554,0.078,,,,21.615264854
1716194956867341340,0.085,,,,21.62295964
1716194956875036126,0.085,,,,21.630654426
1716194956882730912,0.083,,,,21.638349212
1716194956890425698,0.087,,,,21.646043998
1716194956898120484,0.085,,,,21.653738784
1716194956905815270,0.087,,,,21.66143357
1716194956913510056,0.087,,,,21.669128356
1716194956921204842,0.09,,,,21.676823142
1716194956928899628,0.092,,,,21.684517928
1716194956936594414,0.085,,,,21.692212714
1716194956944289200,0.078,,,,21.6999075
1716194956951983986,0.078,,,,21.707602286
1716194956959678772,0.073,,,,21.715297072
1716194956967373558,0.068,,,,21.722991858
1716194956975068344,0.068,,,,21.730686644
1716194956982763130,0.07,,,,21.73838143
1716194956990457916,0.068,,,,21.746076216
1716194956998152702,0.065,,,,21.753771002
1716194957005847488,0.068,,,,21.761465788
1716194957013542274,0.075,,,,21.769160574
1716194957021237060,0.078,,,,21.77685536
1716194957028931846,0.078,,,,21.784550146
1716194957036626632,0.078,,,,21.792244932
1716194957044321418,0.08,,,,21.799939718
1716194957052016204,0.078,,,,21.807634504
1716194957059710990,0.07,,,,21.81532929
1716194957067405776,0.078,,,,21.823024076
1716194957075100562,0.087,,,,21.830718862
1716194957082795348,0.09,,,,21.838413648
1716194957090490134,0.095,,,,21.846108434
1716194957098184920,0.102,,,,21.85380322
1716194957105879706,0.109,,,,21.861498006
1716194957113574492,0.1,,,,21.869192792
1716194957121269278,0.083,,,,21.876887578
1716194957128964064,0.078,,,,21.884582364
1716194957136658850,0.083,,,,21.89227715
1716194957144353636,0.087,,,,21.899971936
1716194957152048440,0.085,60.0,1007.0,,21.90766674
1716194957159743644,0.087,,,,21.915361944
1716194957167438848,0.092,,,,21.923057148
1716194957175134052,0.073,,,,21.930752352
1716194957182829256,0.029,,,,21.938447556
1716194957190524460,0.126,,,,21.94614276
1716194957198219664,0.581,,,,21.953837964
1716194957205914868,1.142,,,,21.961533168
1716194957213610072,1.11,,,,21.969228372
1716194957221305276,0.085,,,,21.976923576
1716194957229000480,-0.839,,,,21.98461878
1716194957236695684,-0.473,,,,21.992313984
1716194957244390888,0.1,,,,22.000009188
1716194957252086092,0.0,,,,22.007704392
1716194957259781296,-0.012,,,,22.015399596
1716194957267476500,0.151,,,,22.0230948
1716194957275171704,0.107,,,,22.030790004
1716194957282866908,0.065,,,,22.038485208
1716194957290562112,0.129,,,,22.046180412
1716194957298257316,0.129,,,,22.053875616
1716194957305952520,0.107,,,,22.06157082
1716194957313647724,0.134,,,,22.069266024
1716194957321342928,0.148,,,,22.076961228
1716194957329038132,0.134,,,,22.084656432
1716194957336733336,0.136,,,,22.092351636
1716194957344428540,0.153,,,,22.10004684
1716194957352123744,0.158,,,,22.107742044
1716194957359818948,0.156,,,,22.115437248
1716194957367514152,0.163,,,,22.123132452
1716194957375209356,0.175,,,,22.130827656
1716194957382904560,0.185,,,,22.13852286
1716194957390599764,0.185,,,,22.146218064
1716194957398294968,0.185,,,,22.153913268
1716194957405990172,0.202,,,,22.161608472
1716194957413685376,0.212,,,,22.169303676
1716194957421380580,0.207,,,,22.17699888
1716194957429075784,0.207,,,,22.184694084
1716194957436770988,0.217,,,,22.192389288
1716194957444466192,0.229,,,,22.200084492
1716194957452161396,0.219,,,,22.207779696
1716194957459856600,0.202,,,,22.2154749
1716194957467551804,0.202,,,,22.223170104
1716194957475247008,0.197,,,,22.230865308
1716194957482942212,0.183,,,,22.238560512
1716194957490637416,0.18,,,,22.246255716
1716194957498332620,0.175,,,,22.25395092
1716194957506027824,0.161,,,,22.261646124
1716194957513723028,0.136,,,,22.269341328
1716194957521418232,0.107,,,,22.277036532
1716194957529113436,0.078,,,,22.284731736
1716194957536808640,0.053,,,,22.29242694
1716194957544503844,0.043,,,,22.300122144
1716194957552199048,0.041,,,,22.307817348
