time,ecg,hr,rr,marker,norm_time
1716194793687157506,-0.122,,,,0.0
1716194793694852292,-0.28,,,,0.007694786
1716194793702547078,-0.173,,,,0.015389572
1716194793710241864,-0.09,,,,0.023084358
1716194793717936650,-0.163,,,,0.030779144
1716194793725631436,-0.151,,,,0.03847393
1716194793733326222,-0.119,,,,0.046168716
1716194793741021008,-0.141,,,,0.053863502
1716194793748715794,-0.131,,,,0.061558288
1716194793756410580,-0.112,,,,0.069253074
1716194793764105366,-0.109,,,,0.07694786
1716194793771800152,-0.1,,,,0.084642646
1716194793779494938,-0.09,,,,0.092337432
1716194793787189724,-0.09,,,,0.100032218
1716194793794884510,-0.085,,,,0.107727004
1716194793802579296,-0.075,,,,0.11542179
1716194793810274082,-0.063,,,,0.123116576
1716194793817968868,-0.058,,,,0.130811362
1716194793825663654,-0.053,,,,0.138506148
1716194793833358440,-0.048,,,,0.146200934
1716194793841053226,-0.031,,,,0.15389572
1716194793848748012,-0.019,,,,0.161590506
1716194793856442798,-0.019,,,,0.169285292
1716194793864137584,-0.009,,,,0.176980078
1716194793871832370,0.002,,,,0.184674864
1716194793879527156,0.004,,,,0.19236965
1716194793887221942,0.014,,,,0.200064436
1716194793894916728,0.019,,,,0.207759222
1716194793902611514,0.014,,,,0.215454008
1716194793910306300,0.009,,,,0.223148794
1716194793918001086,-0.004,,,,0.23084358
1716194793925695872,-0.009,,,,0.238538366
1716194793933390658,-0.012,,,,0.246233152
1716194793941085444,-0.036,,,,0.253927938
1716194793948780230,-0.07,,,,0.261622724
1716194793956475016,-0.095,,,,0.26931751
1716194793964169802,-0.114,,,,0.277012296
1716194793971864588,-0.146,,,,0.284707082
1716194793979559374,-0.168,,,,0.292401868
1716194793987254160,-0.168,,,,0.300096654
1716194793994948946,-0.18,,,,0.30779144
1716194794002643732,-0.197,,,,0.315486226
1716194794010338518,-0.195,,,,0.323181012
1716194794018033304,-0.187,,,,0.330875798
1716194794025728090,-0.185,,,,0.338570584
1716194794033422876,-0.187,,,,0.34626537
1716194794041117662,-0.178,,,,0.353960156
1716194794048812448,-0.166,,,,0.361654942
1716194794056507234,-0.173,,,,0.369349728
1716194794064202020,-0.168,,,,0.377044514
1716194794071896806,-0.144,,,,0.3847393
1716194794079591592,-0.136,,,,0.392434086
1716194794087286378,-0.144,,,,0.400128872
1716194794094981164,-0.141,,,,0.407823658
1716194794102675950,-0.126,,,,0.415518444
1716194794110370736,-0.114,,,,0.42321323
1716194794118065522,-0.117,,,,0.430908016
1716194794125760308,-0.114,,,,0.438602802
1716194794133455094,-0.1,,,,0.446297588
1716194794141149880,-0.09,,,,0.453992374
1716194794148844666,-0.092,,,,0.46168716
1716194794156539452,-0.095,,,,0.469381946
1716194794164234238,-0.085,,,,0.477076732
1716194794171929024,-0.087,,,,0.484771518
1716194794179623810,-0.095,,,,0.492466304
1716194794187318596,-0.083,,,,0.50016109
1716194794195013382,-0.07,,,,0.507855876
1716194794202708168,-0.073,,,,0.515550662
1716194794210402954,-0.073,,,,0.523245448
1716194794218097740,-0.075,,,,0.530940234
1716194794225792526,-0.078,,,,0.53863502
1716194794233487312,-0.068,,,,0.546329806
1716194794241182098,-0.061,,,,0.554024592
1716194794248876900,-0.061,61.0,1090.0,,0.561719394
1716194794256572104,-0.063,,,,0.569414598
1716194794264267308,-0.056,,,,0.577109802
1716194794271962512,-0.053,,,,0.584805006
1716194794279657716,-0.056,,,,0.59250021
1716194794287352920,-0.051,,,,0.600195414
1716194794295048124,-0.053,,,,0.607890618
1716194794302743328,-0.061,,,,0.615585822
1716194794310438532,-0.056,,,,0.623281026
1716194794318133736,-0.046,,,,0.63097623
1716194794325828940,-0.041,,,,0.638671434
1716194794333524144,-0.043,,,,0.646366638
1716194794341219348,-0.043,,,,0.654061842
1716194794348914552,-0.036,,,,0.661757046
1716194794356609756,-0.034,,,,0.66945225
1716194794364304960,-0.026,,,,0.677147454
1716194794372000164,-0.021,,,,0.684842658
1716194794379695368,-0.021,,,,0.692537862
1716194794387390572,-0.021,,,,0.700233066
1716194794395085776,-0.026,,,,0.70792827
1716194794402780980,-0.014,,,,0.715623474
1716194794410476184,-0.002,,,,0.723318678
1716194794418171388,-0.024,,,,0.731013882
1716194794425866592,-0.043,,,,0.738709086
1716194794433561796,-0.031,,,,0.74640429
1716194794441257000,-0.024,,,,0.754099494
1716194794448952204,-0.019,,,,0.761794698
1716194794456647408,-0.019,,,,0.769489902
1716194794464342612,-0.034,,,,0.777185106
1716194794472037816,-0.048,,,,0.78488031
1716194794479733020,-0.024,,,,0.792575514
1716194794487428224,0.019,,,,0.800270718
1716194794495123428,0.019,,,,0.807965922
1716194794502818632,0.002,,,,0.815661126
1716194794510513836,0.0,,,,0.82335633
1716194794518209040,-0.002,,,,0.831051534
1716194794525904244,-0.014,,,,0.838746738
1716194794533599448,-0.021,,,,0.846441942
1716194794541294652,-0.017,,,,0.854137146
1716194794548989856,0.002,,,,0.86183235
1716194794556685060,0.014,,,,0.869527554
1716194794564380264,0.019,,,,0.877222758
1716194794572075468,0.024,,,,0.884917962
1716194794579770672,0.017,,,,0.892613166
1716194794587465876,0.007,,,,0.90030837
1716194794595161080,0.009,,,,0.908003574
1716194794602856284,0.014,,,,0.915698778
1716194794610551488,0.014,,,,0.923393982
1716194794618246692,0.007,,,,0.931089186
1716194794625941896,0.007,,,,0.93878439
1716194794633637100,0.012,,,,0.946479594
1716194794641332304,-0.014,,,,0.954174798
1716194794649027508,0.048,,,,0.961870002
1716194794656722712,0.456,,,,0.969565206
1716194794664417916,1.02,,,,0.97726041
1716194794672113120,1.069,,,,0.984955614
1716194794679808324,0.168,,,,0.992650818
1716194794687503528,-0.8,,,,1.000346022
1716194794695198732,-0.605,,,,1.008041226
1716194794702893936,-0.007,,,,1.01573643
1716194794710589140,-0.021,,,,1.023431634
1716194794718284344,-0.065,,,,1.031126838
1716194794725979548,0.1,,,,1.038822042
1716194794733674752,0.085,,,,1.046517246
1716194794741369956,0.026,,,,1.05421245
1716194794749065160,0.078,,,,1.061907654
1716194794756760364,0.097,,,,1.069602858
1716194794764455568,0.08,,,,1.077298062
1716194794772150772,0.09,,,,1.084993266
1716194794779845976,0.083,,,,1.09268847
1716194794787541180,0.053,,,,1.100383674
1716194794795236384,0.041,,,,1.108078878
1716194794802931588,0.058,,,,1.115774082
1716194794810626812,0.092,61.0,1002.0,,1.123469306
1716194794818321598,0.151,,,,1.131164092
1716194794826016384,0.217,,,,1.138858878
1716194794833711170,0.239,,,,1.146553664
1716194794841405956,0.241,,,,1.15424845
1716194794849100742,0.266,,,,1.161943236
1716194794856795528,0.285,,,,1.169638022
1716194794864490314,0.288,,,,1.177332808
1716194794872185100,0.285,,,,1.185027594
1716194794879879886,0.292,,,,1.19272238
1716194794887574672,0.305,,,,1.200417166
1716194794895269458,0.31,,,,1.208111952
1716194794902964244,0.312,,,,1.215806738
1716194794910659030,0.317,,,,1.223501524
1716194794918353816,0.322,,,,1.23119631
1716194794926048602,0.314,,,,1.238891096
1716194794933743388,0.285,,,,1.246585882
1716194794941438174,0.275,,,,1.254280668
1716194794949132960,0.283,,,,1.261975454
1716194794956827746,0.256,,,,1.26967024
1716194794964522532,0.224,,,,1.277365026
1716194794972217318,0.212,,,,1.285059812
1716194794979912104,0.183,,,,1.292754598
1716194794987606890,0.144,,,,1.300449384
1716194794995301676,0.122,,,,1.30814417
1716194795002996462,0.109,,,,1.315838956
1716194795010691248,0.1,,,,1.323533742
1716194795018386034,0.092,,,,1.331228528
1716194795026080820,0.097,,,,1.338923314
1716194795033775606,0.1,,,,1.3466181
1716194795041470392,0.087,,,,1.354312886
1716194795049165178,0.08,,,,1.362007672
1716194795056859964,0.087,,,,1.369702458
1716194795064554750,0.083,,,,1.377397244
1716194795072249536,0.07,,,,1.38509203
1716194795079944322,0.068,,,,1.392786816
1716194795087639108,0.063,,,,1.400481602
1716194795095333894,0.048,,,,1.408176388
1716194795103028680,0.046,,,,1.415871174
1716194795110723466,0.046,,,,1.42356596
1716194795118418252,0.034,,,,1.431260746
1716194795126113038,0.039,,,,1.438955532
1716194795133807824,0.046,,,,1.446650318
1716194795141502610,0.048,,,,1.454345104
1716194795149197396,0.058,,,,1.46203989
1716194795156892182,0.051,,,,1.469734676
1716194795164586968,0.026,,,,1.477429462
1716194795172281754,0.019,,,,1.485124248
1716194795179976540,0.034,,,,1.492819034
1716194795187671326,0.034,,,,1.50051382
1716194795195366112,0.024,,,,1.508208606
1716194795203060898,0.065,,,,1.515903392
1716194795210755684,0.126,,,,1.523598178
1716194795218450470,0.148,,,,1.531292964
1716194795226145256,0.207,,,,1.53898775
1716194795233840042,0.539,,,,1.546682536
1716194795241534828,1.21,,,,1.554377322
1716194795249229614,1.584,,,,1.562072108
1716194795256924400,1.225,,,,1.569766894
1716194795264619186,0.8300000000000001,,,,1.57746168
1716194795272313972,0.854,,,,1.585156466
1716194795280008758,0.883,,,,1.592851252
1716194795287703544,0.6930000000000001,,,,1.600546038
1716194795295398330,0.471,,,,1.608240824
1716194795303093116,0.371,,,,1.61593561
1716194795310787902,0.317,,,,1.623630396
1716194795318482688,0.205,,,,1.631325182
1716194795326177474,0.065,,,,1.639019968
1716194795333872260,-0.046,,,,1.646714754
1716194795341567046,-0.122,,,,1.65440954
1716194795349261832,-0.161,,,,1.662104326
1716194795356956618,-0.19,,,,1.669799112
1716194795364651404,-0.212,,,,1.677493898
1716194795372346206,-0.229,,,,1.6851887
1716194795380041410,-0.246,,,,1.692883904
1716194795387736614,-0.258,,,,1.700579108
1716194795395431818,-0.278,,,,1.708274312
1716194795403127022,-0.307,,,,1.715969516
1716194795410822226,-0.339,,,,1.72366472
1716194795418517430,-0.366,,,,1.731359924
1716194795426212634,-0.373,,,,1.739055128
1716194795433907838,-0.371,,,,1.746750332
1716194795441603042,-0.366,,,,1.754445536
1716194795449298246,-0.371,,,,1.76214074
1716194795456993450,-0.383,,,,1.769835944
1716194795464688654,-0.368,,,,1.777531148
1716194795472383858,-0.344,,,,1.785226352
1716194795480079062,-0.346,,,,1.792921556
1716194795487774266,-0.344,,,,1.80061676
1716194795495469470,-0.322,,,,1.808311964
1716194795503164674,-0.302,,,,1.816007168
1716194795510859878,-0.285,,,,1.823702372
1716194795518555082,-0.268,,,,1.831397576
1716194795526250286,-0.251,,,,1.83909278
1716194795533945490,-0.234,,,,1.846787984
1716194795541640694,-0.214,,,,1.854483188
1716194795549335898,-0.166,,,,1.862178392
1716194795557031102,-0.092,,,,1.869873596
1716194795564726306,-0.095,,,,1.8775688
1716194795572421510,-0.156,,,,1.885264004
1716194795580116714,-0.119,,,,1.892959208
1716194795587811918,-0.073,,,,1.900654412
1716194795595507122,-0.119,,,,1.908349616
1716194795603202326,-0.112,,,,1.91604482
1716194795610897530,-0.07,,,,1.923740024
1716194795618592734,-0.112,,,,1.931435228
1716194795626287938,-0.146,,,,1.939130432
1716194795633983142,-0.119,,,,1.946825636
1716194795641678346,-0.114,,,,1.95452084
1716194795649373550,-0.168,,,,1.962216044
1716194795657068754,-0.217,,,,1.969911248
1716194795664763958,-0.053,,,,1.977606452
1716194795672459162,0.478,,,,1.985301656
1716194795680154366,1.022,,,,1.99299686
1716194795687849570,0.864,,,,2.000692064
1716194795695544774,-0.224,,,,2.008387268
1716194795703239978,-1.003,,,,2.016082472
1716194795710935182,-0.546,,,,2.023777676
1716194795718630386,-0.085,,,,2.03147288
1716194795726325590,-0.217,,,,2.039168084
1716194795734020794,-0.166,,,,2.046863288
1716194795741715998,-0.009,,,,2.054558492
1716194795749411202,-0.058,,,,2.062253696
1716194795757106406,-0.075,,,,2.0699489
1716194795764801610,-0.007,,,,2.077644104
1716194795772496814,0.0,,,,2.085339308
1716194795780192018,-0.009,,,,2.093034512
1716194795787887222,0.007,,,,2.100729716
1716194795795582426,0.007,,,,2.10842492
1716194795803277630,-0.004,,,,2.116120124
1716194795810972834,0.002,,,,2.123815328
1716194795818668038,0.007,,,,2.131510532
1716194795826363242,0.0,,,,2.139205736
1716194795834058446,-0.012,,,,2.14690094
1716194795841753650,-0.024,,,,2.154596144
1716194795849448854,-0.034,,,,2.162291348
1716194795857144058,-0.024,,,,2.169986552
1716194795864839262,0.009,,,,2.177681756
1716194795872534466,0.046,,,,2.18537696
1716194795880229670,0.073,,,,2.193072164
1716194795887924874,0.104,,,,2.200767368
1716194795895620078,0.139,,,,2.208462572
1716194795903315282,0.166,,,,2.216157776
1716194795911010486,0.207,,,,2.22385298
1716194795918705690,0.234,,,,2.231548184
1716194795926400894,0.234,,,,2.239243388
1716194795934096120,0.224,60.0,1067.0,,2.246938614
1716194795941790906,0.209,,,,2.2546334
1716194795949485692,0.183,,,,2.262328186
1716194795957180478,0.153,,,,2.270022972
1716194795964875264,0.124,,,,2.277717758
1716194795972570050,0.092,,,,2.285412544
1716194795980264836,0.07,,,,2.29310733
1716194795987959622,0.065,,,,2.300802116
1716194795995654408,0.056,,,,2.308496902
1716194796003349194,0.036,,,,2.316191688
1716194796011043980,0.019,,,,2.323886474
1716194796018738766,0.0,,,,2.33158126
1716194796026433552,-0.007,,,,2.339276046
1716194796034128338,-0.012,,,,2.346970832
1716194796041823124,-0.021,,,,2.354665618
1716194796049517910,-0.019,,,,2.362360404
1716194796057212696,-0.009,,,,2.37005519
1716194796064907482,-0.009,,,,2.377749976
1716194796072602268,-0.017,,,,2.385444762
1716194796080297054,-0.024,,,,2.393139548
1716194796087991840,-0.021,,,,2.400834334
1716194796095686626,-0.021,,,,2.40852912
1716194796103381412,-0.043,,,,2.416223906
1716194796111076198,-0.061,,,,2.423918692
1716194796118770984,-0.07,,,,2.431613478
1716194796126465770,-0.08,,,,2.439308264
1716194796134160556,-0.07,,,,2.44700305
1716194796141855342,-0.046,,,,2.454697836
1716194796149550128,-0.026,,,,2.462392622
1716194796157244914,-0.009,,,,2.470087408
1716194796164939700,0.009,,,,2.477782194
1716194796172634486,0.014,,,,2.48547698
1716194796180329272,0.017,,,,2.493171766
1716194796188024058,0.039,,,,2.500866552
1716194796195718844,0.056,,,,2.508561338
1716194796203413630,0.068,,,,2.516256124
1716194796211108416,0.083,,,,2.52395091
1716194796218803202,0.087,,,,2.531645696
1716194796226497988,0.085,,,,2.539340482
1716194796234192774,0.085,,,,2.547035268
1716194796241887560,0.085,,,,2.554730054
1716194796249582346,0.078,,,,2.56242484
1716194796257277132,0.065,,,,2.570119626
1716194796264971918,0.061,,,,2.577814412
1716194796272666704,0.065,,,,2.585509198
1716194796280361490,0.058,,,,2.593203984
1716194796288056276,0.065,,,,2.60089877
1716194796295751062,0.07,,,,2.608593556
1716194796303445848,0.065,,,,2.616288342
1716194796311140634,0.078,,,,2.623983128
1716194796318835420,0.08,,,,2.631677914
1716194796326530206,0.073,,,,2.6393727
1716194796334224992,0.073,,,,2.647067486
1716194796341919778,0.075,,,,2.654762272
1716194796349614564,0.075,,,,2.662457058
1716194796357309350,0.058,,,,2.670151844
1716194796365004136,0.046,,,,2.67784663
1716194796372698922,0.053,,,,2.685541416
1716194796380393708,0.056,,,,2.693236202
1716194796388088494,0.051,,,,2.700930988
1716194796395783280,0.043,,,,2.708625774
1716194796403478066,0.043,,,,2.71632056
1716194796411172852,0.058,,,,2.724015346
1716194796418867638,0.061,,,,2.731710132
1716194796426562424,0.063,,,,2.739404918
1716194796434257210,0.065,,,,2.747099704
1716194796441951996,0.058,,,,2.75479449
1716194796449646782,0.063,,,,2.762489276
1716194796457341568,0.068,,,,2.770184062
1716194796465036354,0.063,,,,2.777878848
1716194796472731140,0.058,,,,2.785573634
1716194796480425926,0.056,,,,2.79326842
1716194796488120712,0.058,,,,2.800963206
1716194796495815514,0.058,,,,2.808658008
1716194796503510718,0.056,,,,2.816353212
1716194796511205922,0.063,,,,2.824048416
1716194796518901126,0.061,,,,2.83174362
1716194796526596330,0.058,,,,2.839438824
1716194796534291534,0.063,,,,2.847134028
1716194796541986738,0.068,,,,2.854829232
1716194796549681942,0.058,,,,2.862524436
1716194796557377146,0.051,,,,2.87021964
1716194796565072350,0.07,,,,2.877914844
1716194796572767554,0.09,,,,2.885610048
1716194796580462758,0.085,,,,2.893305252
1716194796588157962,0.07,,,,2.901000456
1716194796595853166,0.058,,,,2.90869566
1716194796603548370,0.063,,,,2.916390864
1716194796611243574,0.075,,,,2.924086068
1716194796618938778,0.073,,,,2.931781272
1716194796626633982,0.073,,,,2.939476476
1716194796634329186,0.065,,,,2.94717168
1716194796642024390,0.039,,,,2.954866884
1716194796649719594,0.0,,,,2.962562088
1716194796657414798,0.063,,,,2.970257292
1716194796665110002,0.478,,,,2.977952496
1716194796672805206,1.101,,,,2.9856477
1716194796680500410,1.218,,,,2.993342904
1716194796688195614,0.307,,,,3.001038108
1716194796695890818,-0.749,,,,3.008733312
1716194796703586022,-0.595,,,,3.016428516
1716194796711281226,0.017,,,,3.02412372
1716194796718976430,-0.002,,,,3.031818924
1716194796726671634,-0.048,,,,3.039514128
1716194796734366838,0.126,,,,3.047209332
1716194796742062042,0.109,,,,3.054904536
1716194796749757246,0.053,,,,3.06259974
1716194796757452450,0.107,,,,3.070294944
1716194796765147654,0.124,,,,3.077990148
1716194796772842858,0.109,,,,3.085685352
1716194796780538062,0.122,,,,3.093380556
1716194796788233266,0.134,,,,3.10107576
1716194796795928470,0.124,,,,3.108770964
1716194796803623674,0.126,,,,3.116466168
1716194796811318878,0.141,,,,3.124161372
1716194796819014082,0.144,,,,3.131856576
1716194796826709286,0.144,,,,3.13955178
1716194796834404490,0.148,,,,3.147246984
1716194796842099694,0.161,,,,3.154942188
1716194796849794898,0.175,,,,3.162637392
1716194796857490102,0.173,,,,3.170332596
1716194796865185306,0.17,,,,3.1780278
1716194796872880510,0.187,,,,3.185723004
1716194796880575714,0.19,,,,3.193418208
1716194796888270918,0.183,,,,3.201113412
1716194796895966122,0.192,,,,3.208808616
1716194796903661326,0.209,,,,3.21650382
1716194796911356530,0.205,,,,3.224199024
1716194796919051734,0.195,,,,3.231894228
1716194796926746938,0.207,,,,3.239589432
1716194796934442142,0.207,,,,3.247284636
1716194796942137346,0.178,,,,3.25497984
1716194796949832550,0.175,,,,3.262675044
1716194796957527754,0.178,,,,3.270370248
1716194796965222958,0.158,,,,3.278065452
1716194796972918162,0.141,,,,3.285760656
1716194796980613366,0.112,,,,3.29345586
1716194796988308570,0.075,,,,3.301151064
1716194796996003774,0.058,,,,3.308846268
1716194797003698978,0.043,,,,3.316541472
1716194797011394182,0.021,,,,3.324236676
1716194797019089386,0.004,,,,3.33193188
1716194797026784590,0.004,,,,3.339627084
1716194797034479794,0.0,,,,3.347322288
1716194797042174998,-0.012,,,,3.355017492
1716194797049870202,0.0,,,,3.362712696
1716194797057565426,0.007,60.0,1020.0,,3.37040792
1716194797065260212,0.0,,,,3.378102706
1716194797072954998,0.009,,,,3.385797492
1716194797080649784,0.019,,,,3.393492278
1716194797088344570,0.019,,,,3.401187064
1716194797096039356,0.019,,,,3.40888185
1716194797103734142,0.019,,,,3.416576636
1716194797111428928,0.034,,,,3.424271422
1716194797119123714,0.043,,,,3.431966208
1716194797126818500,0.041,,,,3.439660994
1716194797134513286,0.043,,,,3.44735578
1716194797142208072,0.046,,,,3.455050566
1716194797149902858,0.046,,,,3.462745352
1716194797157597644,0.039,,,,3.470440138
1716194797165292430,0.036,,,,3.478134924
1716194797172987216,0.043,,,,3.48582971
1716194797180682002,0.039,,,,3.493524496
1716194797188376788,0.029,,,,3.501219282
1716194797196071574,0.024,,,,3.508914068
1716194797203766360,0.029,,,,3.516608854
1716194797211461146,0.041,,,,3.52430364
1716194797219155932,0.034,,,,3.531998426
1716194797226850718,0.031,,,,3.539693212
1716194797234545504,0.041,,,,3.547387998
1716194797242240290,0.039,,,,3.555082784
1716194797249935076,0.039,,,,3.56277757
1716194797257629862,0.046,,,,3.570472356
1716194797265324648,0.041,,,,3.578167142
1716194797273019434,0.039,,,,3.585861928
1716194797280714220,0.041,,,,3.593556714
1716194797288409006,0.053,,,,3.6012515
1716194797296103792,0.058,,,,3.608946286
1716194797303798578,0.048,,,,3.616641072
1716194797311493364,0.053,,,,3.624335858
1716194797319188150,0.063,,,,3.632030644
1716194797326882936,0.065,,,,3.63972543
1716194797334577722,0.061,,,,3.647420216
1716194797342272508,0.058,,,,3.655115002
1716194797349967294,0.073,,,,3.662809788
1716194797357662080,0.075,,,,3.670504574
1716194797365356866,0.065,,,,3.67819936
1716194797373051652,0.063,,,,3.685894146
1716194797380746438,0.061,,,,3.693588932
1716194797388441224,0.063,,,,3.701283718
1716194797396136010,0.068,,,,3.708978504
1716194797403830796,0.063,,,,3.71667329
1716194797411525582,0.073,,,,3.724368076
1716194797419220368,0.075,,,,3.732062862
1716194797426915154,0.073,,,,3.739757648
1716194797434609940,0.08,,,,3.747452434
1716194797442304726,0.08,,,,3.75514722
1716194797449999512,0.083,,,,3.762842006
1716194797457694298,0.085,,,,3.770536792
1716194797465389084,0.083,,,,3.778231578
1716194797473083870,0.085,,,,3.785926364
1716194797480778656,0.073,,,,3.79362115
1716194797488473442,0.061,,,,3.801315936
1716194797496168228,0.063,,,,3.809010722
1716194797503863014,0.07,,,,3.816705508
1716194797511557800,0.083,,,,3.824400294
1716194797519252586,0.092,,,,3.83209508
1716194797526947372,0.104,,,,3.839789866
1716194797534642158,0.109,,,,3.847484652
1716194797542336944,0.092,,,,3.855179438
1716194797550031730,0.083,,,,3.862874224
1716194797557726516,0.087,,,,3.87056901
1716194797565421302,0.085,,,,3.878263796
1716194797573116088,0.092,,,,3.885958582
1716194797580810874,0.095,,,,3.893653368
1716194797588505660,0.097,,,,3.901348154
1716194797596200446,0.085,,,,3.90904294
1716194797603895232,0.026,,,,3.916737726
1716194797611590018,0.087,,,,3.924432512
1716194797619284820,0.522,,,,3.932127314
1716194797626979606,1.118,,,,3.9398221
1716194797634674392,1.186,,,,3.947516886
1716194797642369178,0.249,,,,3.955211672
1716194797650063964,-0.761,,,,3.962906458
1716194797657758750,-0.551,,,,3.970601244
1716194797665453536,0.041,,,,3.97829603
1716194797673148322,0.002,,,,3.985990816
1716194797680843108,-0.034,,,,3.993685602
1716194797688537894,0.136,,,,4.001380388
1716194797696232680,0.112,,,,4.009075174
1716194797703927466,0.051,,,,4.01676996
1716194797711622252,0.112,,,,4.024464746
1716194797719317038,0.126,,,,4.032159532
1716194797727011824,0.102,,,,4.039854318
1716194797734706610,0.124,,,,4.047549104
1716194797742401396,0.131,,,,4.05524389
1716194797750096182,0.124,,,,4.062938676
1716194797757790968,0.129,,,,4.070633462
1716194797765485754,0.141,,,,4.078328248
1716194797773180540,0.148,,,,4.086023034
1716194797780875326,0.148,,,,4.09371782
1716194797788570112,0.156,,,,4.101412606
1716194797796264898,0.166,,,,4.109107392
1716194797803959684,0.168,,,,4.116802178
1716194797811654470,0.175,,,,4.124496964
1716194797819349256,0.183,,,,4.13219175
1716194797827044042,0.192,,,,4.139886536
1716194797834738828,0.205,,,,4.147581322
1716194797842433614,0.205,,,,4.155276108
1716194797850128400,0.214,,,,4.162970894
1716194797857823186,0.224,,,,4.17066568
1716194797865517972,0.219,,,,4.178360466
1716194797873212758,0.217,,,,4.186055252
1716194797880907544,0.214,,,,4.193750038
1716194797888602330,0.212,,,,4.201444824
1716194797896297116,0.202,,,,4.20913961
1716194797903991902,0.187,,,,4.216834396
1716194797911686688,0.187,,,,4.224529182
1716194797919381474,0.18,,,,4.232223968
1716194797927076260,0.156,,,,4.239918754
1716194797934771046,0.131,,,,4.24761354
1716194797942465832,0.102,,,,4.255308326
1716194797950160618,0.083,,,,4.263003112
1716194797957855404,0.065,,,,4.270697898
1716194797965550190,0.051,,,,4.278392684
1716194797973244976,0.046,,,,4.28608747
1716194797980939762,0.039,,,,4.293782256
1716194797988634548,0.029,,,,4.301477042
1716194797996329334,0.024,,,,4.309171828
1716194798004024120,0.019,,,,4.316866614
1716194798011718906,0.031,,,,4.3245614
1716194798019413692,0.029,,,,4.332256186
1716194798027108478,0.026,,,,4.339950972
1716194798034803264,0.046,,,,4.347645758
1716194798042498050,0.051,,,,4.355340544
1716194798050192836,0.051,,,,4.36303533
1716194798057887622,0.058,,,,4.370730116
1716194798065582408,0.063,,,,4.378424902
1716194798073277194,0.063,,,,4.386119688
1716194798080971980,0.058,,,,4.393814474
1716194798088666766,0.068,,,,4.40150926
1716194798096361552,0.075,,,,4.409204046
1716194798104056338,0.073,,,,4.416898832
1716194798111751124,0.08,,,,4.424593618
1716194798119445910,0.078,,,,4.432288404
1716194798127140696,0.068,,,,4.43998319
1716194798134835482,0.075,,,,4.447677976
1716194798142530268,0.075,,,,4.455372762
1716194798150225054,0.075,,,,4.463067548
1716194798157919840,0.08,,,,4.470762334
1716194798165614626,0.08,,,,4.47845712
1716194798173309412,0.083,,,,4.486151906
1716194798181004214,0.08,60.0,1014.0,,4.493846708
1716194798188699418,0.085,,,,4.501541912
1716194798196394622,0.087,,,,4.509237116
1716194798204089826,0.083,,,,4.51693232
1716194798211785030,0.09,,,,4.524627524
1716194798219480234,0.092,,,,4.532322728
1716194798227175438,0.085,,,,4.540017932
1716194798234870642,0.083,,,,4.547713136
1716194798242565846,0.075,,,,4.55540834
1716194798250261050,0.078,,,,4.563103544
1716194798257956254,0.075,,,,4.570798748
1716194798265651458,0.068,,,,4.578493952
1716194798273346662,0.078,,,,4.586189156
1716194798281041866,0.078,,,,4.59388436
1716194798288737070,0.075,,,,4.601579564
1716194798296432274,0.078,,,,4.609274768
1716194798304127478,0.073,,,,4.616969972
1716194798311822682,0.078,,,,4.624665176
1716194798319517886,0.08,,,,4.63236038
1716194798327213090,0.075,,,,4.640055584
1716194798334908294,0.083,,,,4.647750788
1716194798342603498,0.08,,,,4.655445992
1716194798350298702,0.08,,,,4.663141196
1716194798357993906,0.078,,,,4.6708364
1716194798365689110,0.07,,,,4.678531604
1716194798373384314,0.075,,,,4.686226808
1716194798381079518,0.07,,,,4.693922012
1716194798388774722,0.065,,,,4.701617216
1716194798396469926,0.073,,,,4.70931242
1716194798404165130,0.068,,,,4.717007624
1716194798411860334,0.073,,,,4.724702828
1716194798419555538,0.073,,,,4.732398032
1716194798427250742,0.073,,,,4.740093236
1716194798434945946,0.08,,,,4.74778844
1716194798442641150,0.073,,,,4.755483644
1716194798450336354,0.075,,,,4.763178848
1716194798458031558,0.085,,,,4.770874052
1716194798465726762,0.08,,,,4.778569256
1716194798473421966,0.078,,,,4.78626446
1716194798481117170,0.068,,,,4.793959664
1716194798488812374,0.063,,,,4.801654868
1716194798496507578,0.068,,,,4.809350072
1716194798504202782,0.065,,,,4.817045276
1716194798511897986,0.083,,,,4.82474048
1716194798519593190,0.104,,,,4.832435684
1716194798527288394,0.1,,,,4.840130888
1716194798534983598,0.085,,,,4.847826092
1716194798542678802,0.07,,,,4.855521296
1716194798550374006,0.078,,,,4.8632165
1716194798558069210,0.087,,,,4.870911704
1716194798565764414,0.083,,,,4.878606908
1716194798573459618,0.087,,,,4.886302112
1716194798581154822,0.087,,,,4.893997316
1716194798588850026,0.08,,,,4.90169252
1716194798596545230,0.034,,,,4.909387724
1716194798604240434,0.036,,,,4.917082928
1716194798611935638,0.373,,,,4.924778132
1716194798619630842,0.957,,,,4.932473336
1716194798627326046,1.174,,,,4.94016854
1716194798635021250,0.456,,,,4.947863744
1716194798642716454,-0.605,,,,4.955558948
1716194798650411658,-0.617,,,,4.963254152
1716194798658106862,0.004,,,,4.970949356
1716194798665802066,0.058,,,,4.97864456
1716194798673497270,-0.034,,,,4.986339764
1716194798681192474,0.114,,,,4.994034968
1716194798688887678,0.131,,,,5.001730172
1716194798696582882,0.063,,,,5.009425376
1716194798704278086,0.097,,,,5.01712058
1716194798711973290,0.129,,,,5.024815784
1716194798719668494,0.112,,,,5.032510988
1716194798727363698,0.117,,,,5.040206192
1716194798735058902,0.136,,,,5.047901396
1716194798742754126,0.129,,,,5.05559662
1716194798750448912,0.131,,,,5.063291406
1716194798758143698,0.141,,,,5.070986192
1716194798765838484,0.139,,,,5.078680978
1716194798773533270,0.136,,,,5.086375764
1716194798781228056,0.139,,,,5.09407055
1716194798788922842,0.146,,,,5.101765336
1716194798796617628,0.156,,,,5.109460122
1716194798804312414,0.156,,,,5.117154908
1716194798812007200,0.163,,,,5.124849694
1716194798819701986,0.17,,,,5.13254448
1716194798827396772,0.178,,,,5.140239266
1716194798835091558,0.187,,,,5.147934052
1716194798842786344,0.19,,,,5.155628838
1716194798850481130,0.19,,,,5.163323624
1716194798858175916,0.187,,,,5.17101841
1716194798865870702,0.183,,,,5.178713196
1716194798873565488,0.187,,,,5.186407982
1716194798881260274,0.183,,,,5.194102768
1716194798888955060,0.175,,,,5.201797554
1716194798896649846,0.173,,,,5.20949234
1716194798904344632,0.161,,,,5.217187126
1716194798912039418,0.153,,,,5.224881912
1716194798919734204,0.141,,,,5.232576698
1716194798927428990,0.119,,,,5.240271484
1716194798935123776,0.102,,,,5.24796627
1716194798942818562,0.078,,,,5.255661056
1716194798950513348,0.058,,,,5.263355842
1716194798958208134,0.046,,,,5.271050628
1716194798965902920,0.036,,,,5.278745414
1716194798973597706,0.039,,,,5.2864402
1716194798981292492,0.031,,,,5.294134986
1716194798988987278,0.026,,,,5.301829772
1716194798996682064,0.031,,,,5.309524558
1716194799004376850,0.021,,,,5.317219344
1716194799012071636,0.017,,,,5.32491413
1716194799019766422,0.024,,,,5.332608916
1716194799027461208,0.029,,,,5.340303702
1716194799035155994,0.034,,,,5.347998488
1716194799042850780,0.031,,,,5.355693274
1716194799050545566,0.036,,,,5.36338806
1716194799058240352,0.043,,,,5.371082846
1716194799065935138,0.041,,,,5.378777632
1716194799073629924,0.046,,,,5.386472418
1716194799081324710,0.048,,,,5.394167204
1716194799089019496,0.048,,,,5.40186199
1716194799096714282,0.051,,,,5.409556776
1716194799104409068,0.043,,,,5.417251562
1716194799112103854,0.048,,,,5.424946348
1716194799119798640,0.056,,,,5.432641134
1716194799127493426,0.053,,,,5.44033592
1716194799135188212,0.053,,,,5.448030706
1716194799142882998,0.053,,,,5.455725492
1716194799150577784,0.056,,,,5.463420278
1716194799158272570,0.058,,,,5.471115064
1716194799165967356,0.058,,,,5.47880985
1716194799173662142,0.061,,,,5.486504636
1716194799181356928,0.061,,,,5.494199422
1716194799189051714,0.061,,,,5.501894208
1716194799196746500,0.065,,,,5.509588994
1716194799204441286,0.065,,,,5.51728378
1716194799212136072,0.07,,,,5.524978566
1716194799219830858,0.07,,,,5.532673352
1716194799227525644,0.068,,,,5.540368138
1716194799235220430,0.075,,,,5.548062924
1716194799242915216,0.075,,,,5.55575771
1716194799250610002,0.073,,,,5.563452496
1716194799258304788,0.07,,,,5.571147282
1716194799265999574,0.063,,,,5.578842068
1716194799273694360,0.068,,,,5.586536854
1716194799281389146,0.061,,,,5.59423164
1716194799289083932,0.056,,,,5.601926426
1716194799296778718,0.061,,,,5.609621212
1716194799304473522,0.058,60.0,995.0,,5.617316016
1716194799312168308,0.051,,,,5.625010802
1716194799319863094,0.046,,,,5.632705588
1716194799327557880,0.046,,,,5.640400374
1716194799335252666,0.053,,,,5.64809516
1716194799342947452,0.056,,,,5.655789946
1716194799350642238,0.068,,,,5.663484732
1716194799358337024,0.083,,,,5.671179518
1716194799366031810,0.068,,,,5.678874304
1716194799373726596,0.053,,,,5.68656909
1716194799381421382,0.051,,,,5.694263876
1716194799389116168,0.058,,,,5.701958662
1716194799396810954,0.063,,,,5.709653448
1716194799404505740,0.058,,,,5.717348234
1716194799412200526,0.063,,,,5.72504302
1716194799419895312,0.07,,,,5.732737806
1716194799427590098,0.068,,,,5.740432592
1716194799435284884,0.034,,,,5.748127378
1716194799442979670,0.004,,,,5.755822164
1716194799450674456,0.244,,,,5.76351695
1716194799458369242,0.8220000000000001,,,,5.771211736
1716194799466064028,1.218,,,,5.778906522
1716194799473758814,0.712,,,,5.786601308
1716194799481453600,-0.454,,,,5.794296094
1716194799489148386,-0.8,,,,5.80199088
1716194799496843172,-0.158,,,,5.809685666
1716194799504537958,0.07,,,,5.817380452
1716194799512232744,-0.07,,,,5.825075238
1716194799519927530,0.063,,,,5.832770024
1716194799527622316,0.136,,,,5.84046481
1716194799535317102,0.058,,,,5.848159596
1716194799543011888,0.075,,,,5.855854382
1716194799550706674,0.119,,,,5.863549168
1716194799558401460,0.102,,,,5.871243954
1716194799566096246,0.1,,,,5.87893874
1716194799573791032,0.126,,,,5.886633526
1716194799581485818,0.126,,,,5.894328312
1716194799589180604,0.119,,,,5.902023098
1716194799596875390,0.129,,,,5.909717884
1716194799604570176,0.131,,,,5.91741267
1716194799612264962,0.136,,,,5.925107456
1716194799619959748,0.141,,,,5.932802242
1716194799627654534,0.146,,,,5.940497028
1716194799635349320,0.158,,,,5.948191814
1716194799643044106,0.158,,,,5.9558866
1716194799650738892,0.163,,,,5.963581386
1716194799658433678,0.178,,,,5.971276172
1716194799666128464,0.187,,,,5.978970958
1716194799673823250,0.195,,,,5.986665744
1716194799681518036,0.2,,,,5.99436053
1716194799689212822,0.202,,,,6.002055316
1716194799696907608,0.212,,,,6.009750102
1716194799704602394,0.207,,,,6.017444888
1716194799712297180,0.207,,,,6.025139674
1716194799719991966,0.202,,,,6.03283446
1716194799727686752,0.192,,,,6.040529246
1716194799735381538,0.187,,,,6.048224032
1716194799743076324,0.175,,,,6.055918818
1716194799750771110,0.166,,,,6.063613604
1716194799758465896,0.146,,,,6.07130839
1716194799766160682,0.114,,,,6.079003176
1716194799773855468,0.087,,,,6.086697962
1716194799781550254,0.063,,,,6.094392748
1716194799789245040,0.043,,,,6.102087534
1716194799796939826,0.036,,,,6.10978232
1716194799804634612,0.026,,,,6.117477106
1716194799812329398,0.024,,,,6.125171892
1716194799820024184,0.024,,,,6.132866678
1716194799827718970,0.017,,,,6.140561464
1716194799835413756,0.017,,,,6.14825625
1716194799843108542,0.014,,,,6.155951036
1716194799850803328,0.019,,,,6.163645822
1716194799858498114,0.026,,,,6.171340608
1716194799866192916,0.031,60.0,953.0,,6.17903541
1716194799873888120,0.039,,,,6.186730614
1716194799881583324,0.041,,,,6.194425818
1716194799889278528,0.043,,,,6.202121022
1716194799896973732,0.053,,,,6.209816226
1716194799904668936,0.053,,,,6.21751143
1716194799912364140,0.056,,,,6.225206634
1716194799920059344,0.061,,,,6.232901838
1716194799927754548,0.065,,,,6.240597042
1716194799935449752,0.07,,,,6.248292246
1716194799943144956,0.063,,,,6.25598745
1716194799950840160,0.061,,,,6.263682654
1716194799958535364,0.068,,,,6.271377858
1716194799966230568,0.065,,,,6.279073062
1716194799973925772,0.065,,,,6.286768266
1716194799981620976,0.068,,,,6.29446347
1716194799989316180,0.068,,,,6.302158674
1716194799997011384,0.073,,,,6.309853878
1716194800004706588,0.068,,,,6.317549082
1716194800012401792,0.07,,,,6.325244286
1716194800020096996,0.07,,,,6.33293949
1716194800027792200,0.058,,,,6.340634694
1716194800035487404,0.061,,,,6.348329898
1716194800043182608,0.065,,,,6.356025102
1716194800050877812,0.068,,,,6.363720306
1716194800058573016,0.068,,,,6.37141551
1716194800066268220,0.068,,,,6.379110714
1716194800073963424,0.075,,,,6.386805918
1716194800081658628,0.075,,,,6.394501122
1716194800089353832,0.065,,,,6.402196326
1716194800097049036,0.073,,,,6.40989153
1716194800104744240,0.073,,,,6.417586734
1716194800112439444,0.07,,,,6.425281938
1716194800120134648,0.07,,,,6.432977142
1716194800127829852,0.068,,,,6.440672346
1716194800135525056,0.075,,,,6.44836755
1716194800143220260,0.075,,,,6.456062754
1716194800150915464,0.07,,,,6.463757958
1716194800158610668,0.073,,,,6.471453162
1716194800166305872,0.075,,,,6.479148366
1716194800174001076,0.083,,,,6.48684357
1716194800181696280,0.08,,,,6.494538774
1716194800189391484,0.075,,,,6.502233978
1716194800197086688,0.073,,,,6.509929182
1716194800204781892,0.068,,,,6.517624386
1716194800212477096,0.07,,,,6.52531959
1716194800220172300,0.078,,,,6.533014794
1716194800227867504,0.083,,,,6.540709998
1716194800235562708,0.097,,,,6.548405202
1716194800243257912,0.102,,,,6.556100406
1716194800250953116,0.097,,,,6.56379561
1716194800258648320,0.097,,,,6.571490814
1716194800266343524,0.09,,,,6.579186018
1716194800274038728,0.087,,,,6.586881222
1716194800281733932,0.085,,,,6.594576426
1716194800289429136,0.085,,,,6.60227163
1716194800297124340,0.085,,,,6.609966834
1716194800304819544,0.08,,,,6.617662038
1716194800312514748,0.087,,,,6.625357242
1716194800320209952,0.061,,,,6.633052446
1716194800327905156,0.002,,,,6.64074765
1716194800335600360,0.178,,,,6.648442854
1716194800343295564,0.734,,,,6.656138058
1716194800350990768,1.223,,,,6.663833262
1716194800358685972,0.888,,,,6.671528466
1716194800366381176,-0.268,,,,6.67922367
1716194800374076380,-0.839,,,,6.686918874
1716194800381771584,-0.263,,,,6.694614078
1716194800389466788,0.087,,,,6.702309282
1716194800397161992,-0.053,,,,6.710004486
1716194800404857196,0.046,,,,6.71769969
1716194800412552400,0.161,,,,6.725394894
1716194800420247604,0.08,,,,6.733090098
1716194800427942828,0.07,,,,6.740785322
1716194800435637614,0.129,,,,6.748480108
1716194800443332400,0.117,,,,6.756174894
1716194800451027186,0.104,,,,6.76386968
1716194800458721972,0.129,,,,6.771564466
1716194800466416758,0.134,,,,6.779259252
1716194800474111544,0.131,,,,6.786954038
1716194800481806330,0.126,,,,6.794648824
1716194800489501116,0.124,,,,6.80234361
1716194800497195902,0.139,,,,6.810038396
1716194800504890688,0.148,,,,6.817733182
1716194800512585474,0.144,,,,6.825427968
1716194800520280260,0.139,,,,6.833122754
1716194800527975046,0.139,,,,6.84081754
1716194800535669832,0.153,,,,6.848512326
1716194800543364618,0.163,,,,6.856207112
1716194800551059404,0.166,,,,6.863901898
1716194800558754190,0.175,,,,6.871596684
1716194800566448976,0.178,,,,6.87929147
1716194800574143762,0.183,,,,6.886986256
1716194800581838548,0.187,,,,6.894681042
1716194800589533334,0.187,,,,6.902375828
1716194800597228120,0.183,,,,6.910070614
1716194800604922906,0.173,,,,6.9177654
1716194800612617692,0.173,,,,6.925460186
1716194800620312478,0.17,,,,6.933154972
1716194800628007264,0.161,,,,6.940849758
1716194800635702050,0.153,,,,6.948544544
1716194800643396836,0.141,,,,6.95623933
1716194800651091622,0.124,,,,6.963934116
1716194800658786408,0.1,,,,6.971628902
1716194800666481194,0.07,,,,6.979323688
1716194800674175980,0.061,,,,6.987018474
1716194800681870766,0.046,,,,6.99471326
1716194800689565552,0.026,,,,7.002408046
1716194800697260338,0.026,,,,7.010102832
1716194800704955124,0.026,,,,7.017797618
1716194800712649910,0.024,,,,7.025492404
1716194800720344696,0.024,,,,7.03318719
1716194800728039482,0.024,,,,7.040881976
1716194800735734268,0.036,,,,7.048576762
1716194800743429054,0.043,,,,7.056271548
1716194800751123840,0.043,,,,7.063966334
1716194800758818626,0.046,,,,7.07166112
1716194800766513412,0.046,,,,7.079355906
1716194800774208198,0.053,,,,7.087050692
1716194800781902984,0.061,,,,7.094745478
1716194800789597770,0.058,,,,7.102440264
1716194800797292556,0.065,,,,7.11013505
1716194800804987342,0.075,,,,7.117829836
1716194800812682128,0.075,,,,7.125524622
1716194800820376914,0.068,,,,7.133219408
1716194800828071700,0.063,,,,7.140914194
1716194800835766486,0.078,,,,7.14860898
1716194800843461272,0.085,,,,7.156303766
1716194800851156058,0.083,,,,7.163998552
1716194800858850844,0.083,,,,7.171693338
1716194800866545630,0.07,,,,7.179388124
1716194800874240416,0.073,,,,7.18708291
1716194800881935202,0.083,,,,7.194777696
1716194800889629988,0.085,,,,7.202472482
1716194800897324774,0.085,,,,7.210167268
1716194800905019560,0.08,,,,7.217862054
1716194800912714346,0.087,,,,7.22555684
1716194800920409132,0.092,,,,7.233251626
1716194800928103918,0.083,,,,7.240946412
1716194800935798704,0.087,,,,7.248641198
1716194800943493490,0.092,,,,7.256335984
1716194800951188276,0.097,,,,7.26403077
1716194800958883062,0.1,,,,7.271725556
1716194800966577848,0.095,,,,7.279420342
1716194800974272634,0.097,,,,7.287115128
1716194800981967420,0.095,,,,7.294809914
1716194800989662222,0.087,60.0,994.0,,7.302504716
1716194800997357077,0.1,,,,7.310199571
1716194801005051932,0.107,,,,7.317894426
1716194801012746787,0.109,,,,7.325589281
1716194801020441642,0.109,,,,7.333284136
1716194801028136497,0.092,,,,7.340978991
1716194801035831352,0.085,,,,7.348673846
1716194801043526207,0.092,,,,7.356368701
1716194801051221062,0.092,,,,7.364063556
1716194801058915917,0.078,,,,7.371758411
1716194801066610772,0.07,,,,7.379453266
1716194801074305627,0.078,,,,7.387148121
1716194801082000482,0.073,,,,7.394842976
1716194801089695337,0.07,,,,7.402537831
1716194801097390192,0.087,,,,7.410232686
1716194801105085047,0.09,,,,7.417927541
1716194801112779902,0.078,,,,7.425622396
1716194801120474757,0.078,,,,7.433317251
1716194801128169612,0.083,,,,7.441012106
1716194801135864467,0.083,,,,7.448706961
1716194801143559322,0.068,,,,7.456401816
1716194801151254177,0.07,,,,7.464096671
1716194801158949032,0.08,,,,7.471791526
1716194801166643887,0.083,,,,7.479486381
1716194801174338742,0.1,,,,7.487181236
1716194801182033597,0.112,,,,7.494876091
1716194801189728452,0.102,,,,7.502570946
1716194801197423307,0.095,,,,7.510265801
1716194801205118162,0.09,,,,7.517960656
1716194801212813017,0.09,,,,7.525655511
1716194801220507872,0.1,,,,7.533350366
1716194801228202727,0.102,,,,7.541045221
1716194801235897582,0.1,,,,7.548740076
1716194801243592437,0.095,,,,7.556434931
1716194801251287292,0.102,,,,7.564129786
1716194801258982147,0.08,,,,7.571824641
1716194801266677002,0.012,,,,7.579519496
1716194801274371857,0.166,,,,7.587214351
1716194801282066712,0.717,,,,7.594909206
1716194801289761567,1.228,,,,7.602604061
1716194801297456422,0.942,,,,7.610298916
1716194801305151277,-0.205,,,,7.617993771
1716194801312846132,-0.852,,,,7.625688626
1716194801320540987,-0.31,,,,7.633383481
1716194801328235842,0.087,,,,7.641078336
1716194801335930697,-0.048,,,,7.648773191
1716194801343625552,0.034,,,,7.656468046
1716194801351320407,0.156,,,,7.664162901
1716194801359015262,0.078,,,,7.671857756
1716194801366710117,0.068,,,,7.679552611
1716194801374404972,0.134,,,,7.687247466
1716194801382099827,0.122,,,,7.694942321
1716194801389794682,0.107,,,,7.702637176
1716194801397489537,0.126,,,,7.710332031
1716194801405184392,0.126,,,,7.718026886
1716194801412879247,0.124,,,,7.725721741
1716194801420574102,0.139,,,,7.733416596
1716194801428268957,0.144,,,,7.741111451
1716194801435963812,0.148,,,,7.748806306
1716194801443658667,0.146,,,,7.756501161
1716194801451353522,0.151,,,,7.764196016
1716194801459048377,0.166,,,,7.771890871
1716194801466743232,0.17,,,,7.779585726
1716194801474438087,0.173,,,,7.787280581
1716194801482132942,0.18,,,,7.794975436
1716194801489827797,0.185,,,,7.802670291
1716194801497522652,0.19,,,,7.810365146
1716194801505217507,0.187,,,,7.818060001
1716194801512912362,0.195,,,,7.825754856
1716194801520607217,0.205,,,,7.833449711
1716194801528302072,0.192,,,,7.841144566
1716194801535996927,0.18,,,,7.848839421
1716194801543691782,0.168,,,,7.856534276
1716194801551386704,0.161,,,,7.864229198
1716194801559081838,0.153,,,,7.871924332
1716194801566776972,0.134,,,,7.879619466
1716194801574472106,0.129,,,,7.8873146
1716194801582167240,0.124,,,,7.895009734
1716194801589862374,0.102,,,,7.902704868
1716194801597557508,0.078,,,,7.910400002
1716194801605252642,0.056,,,,7.918095136
1716194801612947776,0.048,,,,7.92579027
1716194801620642910,0.039,,,,7.933485404
1716194801628338044,0.019,,,,7.941180538
1716194801636033178,0.017,,,,7.948875672
1716194801643728312,0.019,,,,7.956570806
1716194801651423446,0.019,,,,7.96426594
1716194801659118580,0.024,,,,7.971961074
1716194801666813714,0.021,,,,7.979656208
1716194801674508848,0.024,,,,7.987351342
1716194801682203982,0.029,,,,7.995046476
1716194801689899116,0.036,,,,8.00274161
1716194801697594250,0.053,,,,8.010436744
1716194801705289384,0.056,,,,8.018131878
1716194801712984518,0.056,,,,8.025827012
1716194801720679652,0.063,,,,8.033522146
1716194801728374786,0.065,,,,8.04121728
1716194801736069920,0.073,,,,8.048912414
1716194801743765054,0.078,,,,8.056607548
1716194801751460188,0.08,,,,8.064302682
1716194801759155322,0.087,,,,8.071997816
1716194801766850456,0.083,,,,8.07969295
1716194801774545590,0.083,,,,8.087388084
1716194801782240724,0.083,,,,8.095083218
1716194801789935858,0.08,,,,8.102778352
1716194801797630992,0.087,,,,8.110473486
1716194801805326126,0.085,,,,8.11816862
1716194801813021260,0.078,,,,8.125863754
1716194801820716394,0.08,,,,8.133558888
1716194801828411528,0.08,,,,8.141254022
1716194801836106662,0.08,,,,8.148949156
1716194801843801796,0.083,,,,8.15664429
1716194801851496930,0.085,,,,8.164339424
1716194801859192064,0.087,,,,8.172034558
1716194801866887198,0.085,,,,8.179729692
1716194801874582332,0.09,,,,8.187424826
1716194801882277466,0.095,,,,8.19511996
1716194801889972600,0.092,,,,8.202815094
1716194801897667734,0.095,,,,8.210510228
1716194801905362868,0.095,,,,8.218205362
1716194801913058002,0.095,,,,8.225900496
1716194801920753136,0.1,,,,8.23359563
1716194801928448270,0.095,,,,8.241290764
1716194801936143404,0.102,,,,8.248985898
1716194801943838538,0.104,,,,8.256681032
1716194801951533672,0.097,,,,8.264376166
1716194801959228806,0.097,,,,8.2720713
1716194801966923940,0.095,,,,8.279766434
1716194801974619074,0.1,,,,8.287461568
1716194801982314208,0.102,,,,8.295156702
1716194801990009342,0.097,,,,8.302851836
1716194801997704476,0.1,,,,8.31054697
1716194802005399610,0.1,,,,8.318242104
1716194802013094744,0.1,,,,8.325937238
1716194802020789878,0.104,,,,8.333632372
1716194802028485012,0.104,,,,8.341327506
1716194802036180146,0.104,,,,8.34902264
1716194802043875280,0.092,,,,8.356717774
1716194802051570414,0.085,,,,8.364412908
1716194802059265548,0.09,,,,8.372108042
1716194802066960682,0.083,,,,8.379803176
1716194802074655816,0.08,,,,8.38749831
1716194802082350950,0.083,,,,8.395193444
1716194802090046084,0.08,,,,8.402888578
1716194802097741218,0.075,,,,8.410583712
1716194802105436352,0.07,,,,8.418278846
1716194802113131528,0.078,60.0,841.0,,8.425974022
1716194802120826314,0.092,,,,8.433668808
1716194802128521100,0.1,,,,8.441363594
1716194802136215886,0.109,,,,8.44905838
1716194802143910672,0.109,,,,8.456753166
1716194802151605458,0.097,,,,8.464447952
1716194802159300244,0.087,,,,8.472142738
1716194802166995030,0.08,,,,8.479837524
1716194802174689816,0.085,,,,8.48753231
1716194802182384602,0.09,,,,8.495227096
1716194802190079388,0.087,,,,8.502921882
1716194802197774174,0.092,,,,8.510616668
1716194802205468960,0.092,,,,8.518311454
1716194802213163746,0.09,,,,8.52600624
1716194802220858532,0.051,,,,8.533701026
1716194802228553318,0.017,,,,8.541395812
1716194802236248104,0.266,,,,8.549090598
1716194802243942890,0.842,,,,8.556785384
1716194802251637676,1.223,,,,8.56448017
1716194802259332462,0.71,,,,8.572174956
1716194802267027248,-0.444,,,,8.579869742
1716194802274722034,-0.776,,,,8.587564528
1716194802282416820,-0.136,,,,8.595259314
1716194802290111606,0.09,,,,8.6029541
1716194802297806392,-0.056,,,,8.610648886
1716194802305501178,0.061,,,,8.618343672
1716194802313195964,0.136,,,,8.626038458
1716194802320890750,0.061,,,,8.633733244
1716194802328585536,0.075,,,,8.64142803
1716194802336280322,0.126,,,,8.649122816
1716194802343975108,0.109,,,,8.656817602
1716194802351669894,0.104,,,,8.664512388
1716194802359364680,0.126,,,,8.672207174
1716194802367059466,0.124,,,,8.67990196
1716194802374754252,0.124,,,,8.687596746
1716194802382449038,0.136,,,,8.695291532
1716194802390143824,0.139,,,,8.702986318
1716194802397838610,0.144,,,,8.710681104
1716194802405533396,0.146,,,,8.71837589
1716194802413228182,0.151,,,,8.726070676
1716194802420922968,0.161,,,,8.733765462
1716194802428617754,0.163,,,,8.741460248
1716194802436312540,0.168,,,,8.749155034
1716194802444007326,0.175,,,,8.75684982
1716194802451702112,0.18,,,,8.764544606
1716194802459396898,0.187,,,,8.772239392
1716194802467091684,0.185,,,,8.779934178
1716194802474786470,0.192,,,,8.787628964
1716194802482481256,0.195,,,,8.79532375
1716194802490176042,0.19,,,,8.803018536
1716194802497870828,0.187,,,,8.810713322
1716194802505565614,0.178,,,,8.818408108
1716194802513260400,0.17,,,,8.826102894
1716194802520955186,0.168,,,,8.83379768
1716194802528649972,0.158,,,,8.841492466
1716194802536344758,0.153,,,,8.849187252
1716194802544039544,0.139,,,,8.856882038
1716194802551734330,0.107,,,,8.864576824
1716194802559429116,0.087,,,,8.87227161
1716194802567123902,0.073,,,,8.879966396
1716194802574818688,0.063,,,,8.887661182
1716194802582513474,0.051,,,,8.895355968
1716194802590208260,0.039,,,,8.903050754
1716194802597903046,0.039,,,,8.91074554
1716194802605597832,0.036,,,,8.918440326
1716194802613292618,0.036,,,,8.926135112
1716194802620987404,0.036,,,,8.933829898
1716194802628682190,0.036,,,,8.941524684
1716194802636376976,0.043,,,,8.94921947
1716194802644071762,0.043,,,,8.956914256
1716194802651766548,0.043,,,,8.964609042
1716194802659461334,0.053,,,,8.972303828
1716194802667156120,0.056,,,,8.979998614
1716194802674850924,0.058,,,,8.987693418
1716194802682546128,0.063,,,,8.995388622
1716194802690241332,0.063,,,,9.003083826
1716194802697936536,0.07,,,,9.01077903
1716194802705631740,0.075,,,,9.018474234
1716194802713326944,0.08,,,,9.026169438
1716194802721022148,0.087,,,,9.033864642
1716194802728717352,0.085,,,,9.041559846
1716194802736412556,0.087,,,,9.04925505
1716194802744107760,0.09,,,,9.056950254
1716194802751802964,0.087,,,,9.064645458
1716194802759498168,0.087,,,,9.072340662
1716194802767193372,0.078,,,,9.080035866
1716194802774888576,0.078,,,,9.08773107
1716194802782583780,0.08,,,,9.095426274
1716194802790278984,0.07,,,,9.103121478
1716194802797974188,0.07,,,,9.110816682
1716194802805669392,0.073,,,,9.118511886
1716194802813364596,0.075,,,,9.12620709
1716194802821059800,0.075,,,,9.133902294
1716194802828755004,0.073,,,,9.141597498
1716194802836450208,0.078,,,,9.149292702
1716194802844145412,0.083,,,,9.156987906
1716194802851840616,0.08,,,,9.16468311
1716194802859535820,0.085,,,,9.172378314
1716194802867231024,0.085,,,,9.180073518
1716194802874926228,0.087,,,,9.187768722
1716194802882621432,0.087,,,,9.195463926
1716194802890316636,0.085,,,,9.20315913
1716194802898011840,0.092,,,,9.210854334
1716194802905707044,0.092,,,,9.218549538
1716194802913402248,0.09,,,,9.226244742
1716194802921097452,0.092,,,,9.233939946
1716194802928792656,0.092,,,,9.24163515
1716194802936487860,0.095,,,,9.249330354
1716194802944183064,0.095,,,,9.257025558
1716194802951878268,0.092,,,,9.264720762
1716194802959573472,0.1,,,,9.272415966
1716194802967268676,0.097,,,,9.28011117
1716194802974963880,0.095,,,,9.287806374
1716194802982659084,0.097,,,,9.295501578
1716194802990354288,0.097,,,,9.303196782
1716194802998049492,0.102,,,,9.310891986
1716194803005744696,0.097,,,,9.31858719
1716194803013439900,0.097,,,,9.326282394
1716194803021135104,0.104,,,,9.333977598
1716194803028830308,0.102,,,,9.341672802
1716194803036525512,0.1,,,,9.349368006
1716194803044220716,0.092,,,,9.35706321
1716194803051915920,0.08,,,,9.364758414
1716194803059611124,0.075,,,,9.372453618
1716194803067306328,0.073,,,,9.380148822
1716194803075001532,0.08,,,,9.387844026
1716194803082696736,0.085,,,,9.39553923
1716194803090391940,0.08,,,,9.403234434
1716194803098087144,0.083,,,,9.410929638
1716194803105782348,0.075,,,,9.418624842
1716194803113477552,0.07,,,,9.426320046
1716194803121172756,0.073,,,,9.43401525
1716194803128867960,0.078,,,,9.441710454
1716194803136563164,0.092,,,,9.449405658
1716194803144258368,0.102,,,,9.457100862
1716194803151953572,0.104,,,,9.464796066
1716194803159648776,0.104,,,,9.47249127
1716194803167343980,0.09,,,,9.480186474
1716194803175039184,0.087,,,,9.487881678
1716194803182734388,0.097,,,,9.495576882
1716194803190429592,0.095,,,,9.503272086
1716194803198124796,0.097,,,,9.51096729
1716194803205820000,0.097,,,,9.518662494
1716194803213515204,0.09,,,,9.526357698
1716194803221210408,0.092,,,,9.534052902
1716194803228905612,0.075,,,,9.541748106
1716194803236600836,0.024,61.0,886.0,,9.54944333
1716194803244295622,0.104,,,,9.557138116
1716194803251990408,0.559,,,,9.564832902
1716194803259685194,1.12,,,,9.572527688
1716194803267379980,1.081,,,,9.580222474
1716194803275074766,0.083,,,,9.58791726
1716194803282769552,-0.812,,,,9.595612046
1716194803290464338,-0.463,,,,9.603306832
1716194803298159124,0.083,,,,9.611001618
1716194803305853910,-0.026,,,,9.618696404
1716194803313548696,-0.036,,,,9.62639119
1716194803321243482,0.129,,,,9.634085976
1716194803328938268,0.085,,,,9.641780762
1716194803336633054,0.041,,,,9.649475548
1716194803344327840,0.102,,,,9.657170334
1716194803352022626,0.109,,,,9.66486512
1716194803359717412,0.092,,,,9.672559906
1716194803367412198,0.1,,,,9.680254692
1716194803375106984,0.109,,,,9.687949478
1716194803382801770,0.114,,,,9.695644264
1716194803390496556,0.122,,,,9.70333905
1716194803398191342,0.129,,,,9.711033836
1716194803405886128,0.129,,,,9.718728622
1716194803413580914,0.139,,,,9.726423408
1716194803421275700,0.146,,,,9.734118194
1716194803428970486,0.136,,,,9.74181298
1716194803436665272,0.146,,,,9.749507766
1716194803444360058,0.163,,,,9.757202552
1716194803452054844,0.17,,,,9.764897338
1716194803459749630,0.173,,,,9.772592124
1716194803467444416,0.175,,,,9.78028691
1716194803475139202,0.187,,,,9.787981696
1716194803482833988,0.195,,,,9.795676482
1716194803490528774,0.185,,,,9.803371268
1716194803498223560,0.185,,,,9.811066054
1716194803505918346,0.187,,,,9.81876084
1716194803513613132,0.178,,,,9.826455626
1716194803521307918,0.168,,,,9.834150412
1716194803529002704,0.153,,,,9.841845198
1716194803536697490,0.151,,,,9.849539984
1716194803544392276,0.148,,,,9.85723477
1716194803552087062,0.134,,,,9.864929556
1716194803559781848,0.112,,,,9.872624342
1716194803567476634,0.087,,,,9.880319128
1716194803575171420,0.065,,,,9.888013914
1716194803582866206,0.051,,,,9.8957087
1716194803590560992,0.041,,,,9.903403486
1716194803598255778,0.039,,,,9.911098272
1716194803605950564,0.024,,,,9.918793058
1716194803613645350,0.017,,,,9.926487844
1716194803621340136,0.021,,,,9.93418263
1716194803629034922,0.017,,,,9.941877416
1716194803636729708,0.019,,,,9.949572202
1716194803644424494,0.026,,,,9.957266988
1716194803652119280,0.031,,,,9.964961774
1716194803659814066,0.036,,,,9.97265656
1716194803667508852,0.031,,,,9.980351346
1716194803675203638,0.034,,,,9.988046132
1716194803682898424,0.043,,,,9.995740918
1716194803690593210,0.039,,,,10.003435704
1716194803698287996,0.043,,,,10.01113049
1716194803705982782,0.058,,,,10.018825276
1716194803713677568,0.063,,,,10.026520062
1716194803721372354,0.065,,,,10.034214848
1716194803729067140,0.065,,,,10.041909634
1716194803736761926,0.068,,,,10.04960442
1716194803744456712,0.08,,,,10.057299206
1716194803752151498,0.09,,,,10.064993992
1716194803759846284,0.09,,,,10.072688778
1716194803767541070,0.08,,,,10.080383564
1716194803775235856,0.08,,,,10.08807835
1716194803782930642,0.083,,,,10.095773136
1716194803790625428,0.075,,,,10.103467922
1716194803798320230,0.075,62.0,939.0,,10.111162724
1716194803806015434,0.075,,,,10.118857928
1716194803813710638,0.078,,,,10.126553132
1716194803821405842,0.083,,,,10.134248336
1716194803829101046,0.085,,,,10.14194354
1716194803836796250,0.087,,,,10.149638744
1716194803844491454,0.085,,,,10.157333948
1716194803852186658,0.087,,,,10.165029152
1716194803859881862,0.097,,,,10.172724356
1716194803867577066,0.087,,,,10.18041956
1716194803875272270,0.075,,,,10.188114764
1716194803882967474,0.085,,,,10.195809968
1716194803890662678,0.083,,,,10.203505172
1716194803898357882,0.075,,,,10.211200376
1716194803906053086,0.078,,,,10.21889558
1716194803913748290,0.09,,,,10.226590784
1716194803921443494,0.087,,,,10.234285988
1716194803929138698,0.073,,,,10.241981192
1716194803936833902,0.083,,,,10.249676396
1716194803944529106,0.095,,,,10.2573716
1716194803952224310,0.09,,,,10.265066804
1716194803959919514,0.092,,,,10.272762008
1716194803967614718,0.085,,,,10.280457212
1716194803975309922,0.085,,,,10.288152416
1716194803983005126,0.092,,,,10.29584762
1716194803990700330,0.092,,,,10.303542824
1716194803998395534,0.095,,,,10.311238028
1716194804006090738,0.092,,,,10.318933232
1716194804013785942,0.095,,,,10.326628436
1716194804021481146,0.095,,,,10.33432364
1716194804029176350,0.083,,,,10.342018844
1716194804036871554,0.087,,,,10.349714048
1716194804044566758,0.1,,,,10.357409252
1716194804052261962,0.09,,,,10.365104456
1716194804059957166,0.078,,,,10.37279966
1716194804067652370,0.065,,,,10.380494864
1716194804075347574,0.061,,,,10.388190068
1716194804083042778,0.063,,,,10.395885272
1716194804090737982,0.058,,,,10.403580476
1716194804098433186,0.065,,,,10.41127568
1716194804106128390,0.065,,,,10.418970884
1716194804113823594,0.053,,,,10.426666088
1716194804121518798,0.061,,,,10.434361292
1716194804129214002,0.068,,,,10.442056496
1716194804136909206,0.078,,,,10.4497517
1716194804144604410,0.085,,,,10.457446904
1716194804152299614,0.097,,,,10.465142108
1716194804159994818,0.097,,,,10.472837312
1716194804167690022,0.073,,,,10.480532516
1716194804175385226,0.068,,,,10.48822772
1716194804183080430,0.087,,,,10.495922924
1716194804190775634,0.087,,,,10.503618128
1716194804198470838,0.083,,,,10.511313332
1716194804206166042,0.08,,,,10.519008536
1716194804213861246,0.083,,,,10.52670374
1716194804221556450,0.092,,,,10.534398944
1716194804229251654,0.065,,,,10.542094148
1716194804236946858,0.012,,,,10.549789352
1716194804244642062,0.151,,,,10.557484556
1716194804252337266,0.678,,,,10.56517976
1716194804260032470,1.203,,,,10.572874964
1716194804267727674,0.957,,,,10.580570168
1716194804275422878,-0.156,,,,10.588265372
1716194804283118082,-0.8200000000000001,,,,10.595960576
1716194804290813286,-0.307,,,,10.60365578
1716194804298508490,0.102,,,,10.611350984
1716194804306203694,-0.039,,,,10.619046188
1716194804313898898,0.036,,,,10.626741392
1716194804321594102,0.175,,,,10.634436596
1716194804329289306,0.1,,,,10.6421318
1716194804336984510,0.087,,,,10.649827004
1716194804344679714,0.144,,,,10.657522208
1716194804352374918,0.129,,,,10.665217412
1716194804360070142,0.119,,,,10.672912636
1716194804367764928,0.139,,,,10.680607422
1716194804375459714,0.146,,,,10.688302208
1716194804383154500,0.146,,,,10.695996994
1716194804390849286,0.146,,,,10.70369178
1716194804398544072,0.156,,,,10.711386566
1716194804406238858,0.156,,,,10.719081352
1716194804413933644,0.153,,,,10.726776138
1716194804421628430,0.161,,,,10.734470924
1716194804429323216,0.168,,,,10.74216571
1716194804437018002,0.173,,,,10.749860496
1716194804444712788,0.175,,,,10.757555282
1716194804452407574,0.173,,,,10.765250068
1716194804460102360,0.19,,,,10.772944854
1716194804467797146,0.195,,,,10.78063964
1716194804475491932,0.195,,,,10.788334426
1716194804483186718,0.197,,,,10.796029212
1716194804490881504,0.192,,,,10.803723998
1716194804498576290,0.195,,,,10.811418784
1716194804506271076,0.195,,,,10.81911357
1716194804513965862,0.18,,,,10.826808356
1716194804521660648,0.17,,,,10.834503142
1716194804529355434,0.158,,,,10.842197928
1716194804537050220,0.148,,,,10.849892714
1716194804544745006,0.136,,,,10.8575875
1716194804552439792,0.129,,,,10.865282286
1716194804560134578,0.124,,,,10.872977072
1716194804567829364,0.095,,,,10.880671858
1716194804575524150,0.065,,,,10.888366644
1716194804583218936,0.053,,,,10.89606143
1716194804590913722,0.041,,,,10.903756216
1716194804598608508,0.031,,,,10.911451002
1716194804606303294,0.026,,,,10.919145788
1716194804613998080,0.026,,,,10.926840574
1716194804621692866,0.029,,,,10.93453536
1716194804629387652,0.019,,,,10.942230146
1716194804637082438,0.026,,,,10.949924932
1716194804644777224,0.036,,,,10.957619718
1716194804652472010,0.036,,,,10.965314504
1716194804660166796,0.048,,,,10.97300929
1716194804667861582,0.056,,,,10.980704076
1716194804675556368,0.056,,,,10.988398862
1716194804683251154,0.063,,,,10.996093648
1716194804690945940,0.068,,,,11.003788434
1716194804698640726,0.078,,,,11.01148322
1716194804706335512,0.08,,,,11.019178006
1716194804714030298,0.08,,,,11.026872792
1716194804721725084,0.087,,,,11.034567578
1716194804729419870,0.09,,,,11.042262364
1716194804737114656,0.095,,,,11.04995715
1716194804744809442,0.095,,,,11.057651936
1716194804752504228,0.092,,,,11.065346722
1716194804760199014,0.092,,,,11.073041508
1716194804767893800,0.083,,,,11.080736294
1716194804775588586,0.078,,,,11.08843108
1716194804783283372,0.08,,,,11.096125866
1716194804790978158,0.075,,,,11.103820652
1716194804798672944,0.078,,,,11.111515438
1716194804806367730,0.075,,,,11.119210224
1716194804814062516,0.073,,,,11.12690501
1716194804821757302,0.078,,,,11.134599796
1716194804829452088,0.078,,,,11.142294582
1716194804837146874,0.08,,,,11.149989368
1716194804844841660,0.083,,,,11.157684154
1716194804852536446,0.083,,,,11.16537894
1716194804860231232,0.085,,,,11.173073726
1716194804867926018,0.083,,,,11.180768512
1716194804875620804,0.085,,,,11.188463298
1716194804883315590,0.09,,,,11.196158084
1716194804891010376,0.085,,,,11.20385287
1716194804898705162,0.087,,,,11.211547656
1716194804906399948,0.09,,,,11.219242442
1716194804914094734,0.09,,,,11.226937228
1716194804921789536,0.092,62.0,960.0,,11.23463203
1716194804929484740,0.09,,,,11.242327234
1716194804937179944,0.092,,,,11.250022438
1716194804944875148,0.087,,,,11.257717642
1716194804952570352,0.073,,,,11.265412846
1716194804960265556,0.068,,,,11.27310805
1716194804967960760,0.07,,,,11.280803254
1716194804975655964,0.07,,,,11.288498458
1716194804983351168,0.073,,,,11.296193662
1716194804991046372,0.065,,,,11.303888866
1716194804998741576,0.068,,,,11.31158407
1716194805006436780,0.068,,,,11.319279274
1716194805014131984,0.063,,,,11.326974478
1716194805021827188,0.068,,,,11.334669682
1716194805029522392,0.068,,,,11.342364886
1716194805037217596,0.07,,,,11.35006009
1716194805044912800,0.07,,,,11.357755294
1716194805052608004,0.07,,,,11.365450498
1716194805060303208,0.08,,,,11.373145702
1716194805067998412,0.075,,,,11.380840906
1716194805075693616,0.065,,,,11.38853611
1716194805083388820,0.07,,,,11.396231314
1716194805091084024,0.07,,,,11.403926518
1716194805098779228,0.073,,,,11.411621722
1716194805106474432,0.075,,,,11.419316926
1716194805114169636,0.078,,,,11.42701213
1716194805121864840,0.085,,,,11.434707334
1716194805129560044,0.08,,,,11.442402538
1716194805137255248,0.075,,,,11.450097742
1716194805144950452,0.078,,,,11.457792946
1716194805152645656,0.073,,,,11.46548815
1716194805160340860,0.083,,,,11.473183354
1716194805168036064,0.095,,,,11.480878558
1716194805175731268,0.104,,,,11.488573762
1716194805183426472,0.114,,,,11.496268966
1716194805191121676,0.114,,,,11.50396417
1716194805198816880,0.104,,,,11.511659374
1716194805206512084,0.092,,,,11.519354578
1716194805214207288,0.092,,,,11.527049782
1716194805221902492,0.102,,,,11.534744986
1716194805229597696,0.097,,,,11.54244019
1716194805237292900,0.1,,,,11.550135394
1716194805244988104,0.104,,,,11.557830598
1716194805252683308,0.1,,,,11.565525802
1716194805260378512,0.102,,,,11.573221006
1716194805268073716,0.08,,,,11.58091621
1716194805275768920,0.026,,,,11.588611414
1716194805283464124,0.144,,,,11.596306618
1716194805291159328,0.634,,,,11.604001822
1716194805298854532,1.184,,,,11.611697026
1716194805306549736,1.069,,,,11.61939223
1716194805314244940,0.012,,,,11.627087434
1716194805321940144,-0.803,,,,11.634782638
1716194805329635348,-0.373,,,,11.642477842
1716194805337330552,0.124,,,,11.650173046
1716194805345025756,0.0,,,,11.65786825
1716194805352720960,0.019,,,,11.665563454
1716194805360416164,0.17,,,,11.673258658
1716194805368111368,0.112,,,,11.680953862
1716194805375806572,0.08,,,,11.688649066
1716194805383501776,0.141,,,,11.69634427
1716194805391196980,0.139,,,,11.704039474
1716194805398892184,0.122,,,,11.711734678
1716194805406587388,0.139,,,,11.719429882
1716194805414282592,0.144,,,,11.727125086
1716194805421977796,0.146,,,,11.73482029
1716194805429673000,0.148,,,,11.742515494
1716194805437368204,0.153,,,,11.750210698
1716194805445063408,0.161,,,,11.757905902
1716194805452758612,0.161,,,,11.765601106
1716194805460453816,0.168,,,,11.77329631
1716194805468149020,0.17,,,,11.780991514
1716194805475844224,0.178,,,,11.788686718
1716194805483539448,0.19,,,,11.796381942
1716194805491234234,0.192,,,,11.804076728
1716194805498929020,0.195,,,,11.811771514
1716194805506623806,0.195,,,,11.8194663
1716194805514318592,0.195,,,,11.827161086
1716194805522013378,0.197,,,,11.834855872
1716194805529708164,0.187,,,,11.842550658
1716194805537402950,0.19,,,,11.850245444
1716194805545097736,0.195,,,,11.85794023
1716194805552792522,0.18,,,,11.865635016
1716194805560487308,0.175,,,,11.873329802
1716194805568182094,0.173,,,,11.881024588
1716194805575876880,0.158,,,,11.888719374
1716194805583571666,0.144,,,,11.89641416
1716194805591266452,0.131,,,,11.904108946
1716194805598961238,0.124,,,,11.911803732
1716194805606656024,0.104,,,,11.919498518
1716194805614350810,0.083,,,,11.927193304
1716194805622045596,0.073,,,,11.93488809
1716194805629740382,0.058,,,,11.942582876
1716194805637435168,0.048,,,,11.950277662
1716194805645129954,0.043,,,,11.957972448
1716194805652824740,0.036,,,,11.965667234
1716194805660519526,0.039,,,,11.97336202
1716194805668214312,0.039,,,,11.981056806
1716194805675909098,0.036,,,,11.988751592
1716194805683603884,0.039,,,,11.996446378
1716194805691298670,0.039,,,,12.004141164
1716194805698993456,0.046,,,,12.01183595
1716194805706688242,0.051,,,,12.019530736
1716194805714383028,0.053,,,,12.027225522
1716194805722077814,0.061,,,,12.034920308
1716194805729772600,0.056,,,,12.042615094
1716194805737467386,0.051,,,,12.05030988
1716194805745162172,0.058,,,,12.058004666
1716194805752856958,0.058,,,,12.065699452
1716194805760551744,0.065,,,,12.073394238
1716194805768246530,0.07,,,,12.081089024
1716194805775941316,0.073,,,,12.08878381
1716194805783636102,0.078,,,,12.096478596
1716194805791330888,0.078,,,,12.104173382
1716194805799025674,0.078,,,,12.111868168
1716194805806720460,0.08,,,,12.119562954
1716194805814415246,0.08,,,,12.12725774
1716194805822110032,0.08,,,,12.134952526
1716194805829804818,0.075,,,,12.142647312
1716194805837499604,0.078,,,,12.150342098
1716194805845194390,0.083,,,,12.158036884
1716194805852889176,0.078,,,,12.16573167
1716194805860583962,0.083,,,,12.173426456
1716194805868278748,0.083,,,,12.181121242
1716194805875973534,0.078,,,,12.188816028
1716194805883668320,0.078,,,,12.196510814
1716194805891363106,0.075,,,,12.2042056
1716194805899057892,0.08,,,,12.211900386
1716194805906752678,0.075,,,,12.219595172
1716194805914447464,0.068,,,,12.227289958
1716194805922142250,0.075,,,,12.234984744
1716194805929837036,0.075,,,,12.24267953
1716194805937531822,0.073,,,,12.250374316
1716194805945226608,0.078,,,,12.258069102
1716194805952921394,0.075,,,,12.265763888
1716194805960616180,0.078,,,,12.273458674
1716194805968310966,0.073,,,,12.28115346
1716194805976005752,0.073,,,,12.288848246
1716194805983700538,0.085,,,,12.296543032
1716194805991395324,0.083,,,,12.304237818
1716194805999090110,0.073,,,,12.311932604
1716194806006784896,0.07,,,,12.31962739
1716194806014479682,0.075,,,,12.327322176
1716194806022174468,0.085,,,,12.335016962
1716194806029869254,0.08,,,,12.342711748
1716194806037564040,0.078,,,,12.350406534
1716194806045258844,0.085,62.0,1012.0,,12.358101338
1716194806052954048,0.083,,,,12.365796542
1716194806060649252,0.085,,,,12.373491746
1716194806068344456,0.087,,,,12.38118695
1716194806076039660,0.09,,,,12.388882154
1716194806083734864,0.083,,,,12.396577358
1716194806091430068,0.073,,,,12.404272562
1716194806099125272,0.083,,,,12.411967766
1716194806106820476,0.08,,,,12.41966297
1716194806114515680,0.068,,,,12.427358174
1716194806122210884,0.073,,,,12.435053378
1716194806129906088,0.075,,,,12.442748582
1716194806137601292,0.085,,,,12.450443786
1716194806145296496,0.085,,,,12.45813899
1716194806152991700,0.068,,,,12.465834194
1716194806160686904,0.07,,,,12.473529398
1716194806168382108,0.085,,,,12.481224602
1716194806176077312,0.083,,,,12.488919806
1716194806183772516,0.078,,,,12.49661501
1716194806191467720,0.078,,,,12.504310214
1716194806199162924,0.087,,,,12.512005418
1716194806206858128,0.09,,,,12.519700622
1716194806214553332,0.087,,,,12.527395826
1716194806222248536,0.092,,,,12.53509103
1716194806229943740,0.1,,,,12.542786234
1716194806237638944,0.097,,,,12.550481438
1716194806245334148,0.078,,,,12.558176642
1716194806253029352,0.07,,,,12.565871846
1716194806260724556,0.092,,,,12.57356705
1716194806268419760,0.1,,,,12.581262254
1716194806276114964,0.1,,,,12.588957458
1716194806283810168,0.112,,,,12.596652662
1716194806291505372,0.117,,,,12.604347866
1716194806299200576,0.119,,,,12.61204307
1716194806306895780,0.109,,,,12.619738274
1716194806314590984,0.102,,,,12.627433478
1716194806322286188,0.112,,,,12.635128682
1716194806329981392,0.109,,,,12.642823886
1716194806337676596,0.104,,,,12.65051909
1716194806345371800,0.109,,,,12.658214294
1716194806353067004,0.114,,,,12.665909498
1716194806360762208,0.122,,,,12.673604702
1716194806368457412,0.114,,,,12.681299906
1716194806376152616,0.065,,,,12.68899511
1716194806383847820,0.07,,,,12.696690314
1716194806391543024,0.4,,,,12.704385518
1716194806399238228,1.02,,,,12.712080722
1716194806406933432,1.313,,,,12.719775926
1716194806414628636,0.585,,,,12.72747113
1716194806422323840,-0.583,,,,12.735166334
1716194806430019044,-0.668,,,,12.742861538
1716194806437714248,0.007,,,,12.750556742
1716194806445409452,0.095,,,,12.758251946
1716194806453104656,-0.029,,,,12.76594715
1716194806460799860,0.144,,,,12.773642354
1716194806468495064,0.173,,,,12.781337558
1716194806476190268,0.075,,,,12.789032762
1716194806483885472,0.117,,,,12.796727966
1716194806491580676,0.158,,,,12.80442317
1716194806499275880,0.129,,,,12.812118374
1716194806506971084,0.131,,,,12.819813578
1716194806514666288,0.146,,,,12.827508782
1716194806522361492,0.144,,,,12.835203986
1716194806530056696,0.151,,,,12.84289919
1716194806537751900,0.163,,,,12.850594394
1716194806545447104,0.17,,,,12.858289598
1716194806553142308,0.178,,,,12.865984802
1716194806560837512,0.18,,,,12.873680006
1716194806568532716,0.175,,,,12.88137521
1716194806576227920,0.18,,,,12.889070414
1716194806583923124,0.195,,,,12.896765618
1716194806591618328,0.183,,,,12.904460822
1716194806599313532,0.178,,,,12.912156026
1716194806607008756,0.192,,,,12.91985125
1716194806614703542,0.195,,,,12.927546036
1716194806622398328,0.202,,,,12.935240822
1716194806630093114,0.207,,,,12.942935608
1716194806637787900,0.205,,,,12.950630394
1716194806645482686,0.202,,,,12.95832518
1716194806653177472,0.195,,,,12.966019966
1716194806660872258,0.185,,,,12.973714752
1716194806668567044,0.166,,,,12.981409538
1716194806676261830,0.158,,,,12.989104324
1716194806683956616,0.161,,,,12.99679911
1716194806691651402,0.148,,,,13.004493896
1716194806699346188,0.136,,,,13.012188682
1716194806707040974,0.122,,,,13.019883468
1716194806714735760,0.095,,,,13.027578254
1716194806722430546,0.078,,,,13.03527304
1716194806730125332,0.056,,,,13.042967826
1716194806737820118,0.039,,,,13.050662612
1716194806745514904,0.041,,,,13.058357398
1716194806753209690,0.031,,,,13.066052184
1716194806760904476,0.019,,,,13.07374697
1716194806768599262,0.026,,,,13.081441756
1716194806776294048,0.034,,,,13.089136542
1716194806783988834,0.031,,,,13.096831328
1716194806791683620,0.026,,,,13.104526114
1716194806799378406,0.036,,,,13.1122209
1716194806807073192,0.048,,,,13.119915686
1716194806814767978,0.048,,,,13.127610472
1716194806822462764,0.056,,,,13.135305258
1716194806830157550,0.061,,,,13.143000044
1716194806837852336,0.065,,,,13.15069483
1716194806845547122,0.068,,,,13.158389616
1716194806853241908,0.068,,,,13.166084402
1716194806860936694,0.078,,,,13.173779188
1716194806868631480,0.078,,,,13.181473974
1716194806876326266,0.075,,,,13.18916876
1716194806884021052,0.08,,,,13.196863546
1716194806891715838,0.08,,,,13.204558332
1716194806899410624,0.078,,,,13.212253118
1716194806907105410,0.075,,,,13.219947904
1716194806914800196,0.075,,,,13.22764269
1716194806922494982,0.083,,,,13.235337476
1716194806930189768,0.075,,,,13.243032262
1716194806937884554,0.068,,,,13.250727048
1716194806945579340,0.075,,,,13.258421834
1716194806953274126,0.078,,,,13.26611662
1716194806960968912,0.075,,,,13.273811406
1716194806968663698,0.07,,,,13.281506192
1716194806976358484,0.07,,,,13.289200978
1716194806984053270,0.073,,,,13.296895764
1716194806991748056,0.065,,,,13.30459055
1716194806999442842,0.068,,,,13.312285336
1716194807007137628,0.075,,,,13.319980122
1716194807014832414,0.075,,,,13.327674908
1716194807022527200,0.075,,,,13.335369694
1716194807030221986,0.075,,,,13.34306448
1716194807037916772,0.08,,,,13.350759266
1716194807045611558,0.083,,,,13.358454052
1716194807053306344,0.078,,,,13.366148838
1716194807061001130,0.087,,,,13.373843624
1716194807068695916,0.087,,,,13.38153841
1716194807076390702,0.083,,,,13.389233196
1716194807084085488,0.083,,,,13.396927982
1716194807091780274,0.075,,,,13.404622768
1716194807099475060,0.073,,,,13.412317554
1716194807107169846,0.075,,,,13.42001234
1716194807114864632,0.078,,,,13.427707126
1716194807122559418,0.08,,,,13.435401912
1716194807130254204,0.08,,,,13.443096698
1716194807137948990,0.083,,,,13.450791484
1716194807145643776,0.087,,,,13.45848627
1716194807153338562,0.085,,,,13.466181056
1716194807161033348,0.09,,,,13.473875842
1716194807168728150,0.087,62.0,999.0,,13.481570644
1716194807176423354,0.083,,,,13.489265848
1716194807184118558,0.092,,,,13.496961052
1716194807191813762,0.097,,,,13.504656256
1716194807199508966,0.095,,,,13.51235146
1716194807207204170,0.095,,,,13.520046664
1716194807214899374,0.092,,,,13.527741868
1716194807222594578,0.095,,,,13.535437072
1716194807230289782,0.085,,,,13.543132276
1716194807237984986,0.078,,,,13.55082748
1716194807245680190,0.087,,,,13.558522684
1716194807253375394,0.085,,,,13.566217888
1716194807261070598,0.075,,,,13.573913092
1716194807268765802,0.073,,,,13.581608296
1716194807276461006,0.083,,,,13.5893035
1716194807284156210,0.09,,,,13.596998704
1716194807291851414,0.08,,,,13.604693908
1716194807299546618,0.075,,,,13.612389112
1716194807307241822,0.075,,,,13.620084316
1716194807314937026,0.08,,,,13.62777952
1716194807322632230,0.095,,,,13.635474724
1716194807330327434,0.104,,,,13.643169928
1716194807338022638,0.117,,,,13.650865132
1716194807345717842,0.124,,,,13.658560336
1716194807353413046,0.104,,,,13.66625554
1716194807361108250,0.092,,,,13.673950744
1716194807368803454,0.102,,,,13.681645948
1716194807376498658,0.107,,,,13.689341152
1716194807384193862,0.104,,,,13.697036356
1716194807391889066,0.102,,,,13.70473156
1716194807399584270,0.109,,,,13.712426764
1716194807407279474,0.109,,,,13.720121968
1716194807414974678,0.102,,,,13.727817172
1716194807422669882,0.073,,,,13.735512376
1716194807430365086,0.046,,,,13.74320758
1716194807438060290,0.266,,,,13.750902784
1716194807445755494,0.839,,,,13.758597988
1716194807453450698,1.271,,,,13.766293192
1716194807461145902,0.8270000000000001,,,,13.773988396
1716194807468841106,-0.349,,,,13.7816836
1716194807476536310,-0.781,,,,13.789378804
1716194807484231514,-0.146,,,,13.797074008
1716194807491926718,0.124,,,,13.804769212
1716194807499621922,-0.034,,,,13.812464416
1716194807507317126,0.092,,,,13.82015962
1716194807515012330,0.18,,,,13.827854824
1716194807522707534,0.1,,,,13.835550028
1716194807530402738,0.107,,,,13.843245232
1716194807538097942,0.156,,,,13.850940436
1716194807545793146,0.144,,,,13.85863564
1716194807553488350,0.136,,,,13.866330844
1716194807561183554,0.156,,,,13.874026048
1716194807568878758,0.156,,,,13.881721252
1716194807576573962,0.151,,,,13.889416456
1716194807584269166,0.166,,,,13.89711166
1716194807591964370,0.168,,,,13.904806864
1716194807599659574,0.161,,,,13.912502068
1716194807607354778,0.161,,,,13.920197272
1716194807615049982,0.166,,,,13.927892476
1716194807622745186,0.175,,,,13.93558768
1716194807630440390,0.175,,,,13.943282884
1716194807638135594,0.183,,,,13.950978088
1716194807645830798,0.197,,,,13.958673292
1716194807653526002,0.197,,,,13.966368496
1716194807661221206,0.205,,,,13.9740637
1716194807668916410,0.212,,,,13.981758904
1716194807676611614,0.212,,,,13.989454108
1716194807684306818,0.212,,,,13.997149312
1716194807692002022,0.209,,,,14.004844516
1716194807699697226,0.205,,,,14.01253972
1716194807707392430,0.2,,,,14.020234924
1716194807715087634,0.183,,,,14.027930128
1716194807722782838,0.17,,,,14.035625332
1716194807730478062,0.161,,,,14.043320556
1716194807738172848,0.151,,,,14.051015342
1716194807745867634,0.144,,,,14.058710128
1716194807753562420,0.124,,,,14.066404914
1716194807761257206,0.107,,,,14.0740997
1716194807768951992,0.08,,,,14.081794486
1716194807776646778,0.053,,,,14.089489272
1716194807784341564,0.046,,,,14.097184058
1716194807792036350,0.039,,,,14.104878844
1716194807799731136,0.029,,,,14.11257363
1716194807807425922,0.021,,,,14.120268416
1716194807815120708,0.017,,,,14.127963202
1716194807822815494,0.024,,,,14.135657988
1716194807830510280,0.024,,,,14.143352774
1716194807838205066,0.026,,,,14.15104756
1716194807845899852,0.036,,,,14.158742346
1716194807853594638,0.034,,,,14.166437132
1716194807861289424,0.034,,,,14.174131918
1716194807868984210,0.039,,,,14.181826704
1716194807876678996,0.041,,,,14.18952149
1716194807884373782,0.048,,,,14.197216276
1716194807892068568,0.051,,,,14.204911062
1716194807899763354,0.053,,,,14.212605848
1716194807907458140,0.063,,,,14.220300634
1716194807915152926,0.065,,,,14.22799542
1716194807922847712,0.07,,,,14.235690206
1716194807930542498,0.073,,,,14.243384992
1716194807938237284,0.075,,,,14.251079778
1716194807945932070,0.078,,,,14.258774564
1716194807953626856,0.07,,,,14.26646935
1716194807961321642,0.068,,,,14.274164136
1716194807969016428,0.065,,,,14.281858922
1716194807976711214,0.063,,,,14.289553708
1716194807984406000,0.068,,,,14.297248494
1716194807992100786,0.068,,,,14.30494328
1716194807999795572,0.065,,,,14.312638066
1716194808007490358,0.07,,,,14.320332852
1716194808015185144,0.068,,,,14.328027638
1716194808022879930,0.07,,,,14.335722424
1716194808030574716,0.075,,,,14.34341721
1716194808038269502,0.073,,,,14.351111996
1716194808045964288,0.075,,,,14.358806782
1716194808053659074,0.073,,,,14.366501568
1716194808061353860,0.08,,,,14.374196354
1716194808069048646,0.083,,,,14.38189114
1716194808076743432,0.08,,,,14.389585926
1716194808084438218,0.087,,,,14.397280712
1716194808092133004,0.085,,,,14.404975498
1716194808099827790,0.078,,,,14.412670284
1716194808107522576,0.075,,,,14.42036507
1716194808115217362,0.075,,,,14.428059856
1716194808122912148,0.085,,,,14.435754642
1716194808130606934,0.083,,,,14.443449428
1716194808138301720,0.08,,,,14.451144214
1716194808145996506,0.087,,,,14.458839
1716194808153691292,0.087,,,,14.466533786
1716194808161386078,0.09,,,,14.474228572
1716194808169080864,0.092,,,,14.481923358
1716194808176775650,0.09,,,,14.489618144
1716194808184470436,0.095,,,,14.49731293
1716194808192165222,0.09,,,,14.505007716
1716194808199860008,0.092,,,,14.512702502
1716194808207554794,0.095,,,,14.520397288
1716194808215249580,0.09,,,,14.528092074
1716194808222944366,0.09,,,,14.53578686
1716194808230639152,0.092,,,,14.543481646
1716194808238333938,0.092,,,,14.551176432
1716194808246028724,0.097,,,,14.558871218
1716194808253723510,0.095,,,,14.566566004
1716194808261418296,0.1,,,,14.57426079
1716194808269113082,0.102,,,,14.581955576
1716194808276807868,0.097,,,,14.589650362
1716194808284502654,0.102,,,,14.597345148
1716194808292197456,0.102,62.0,1040.0,,14.60503995
1716194808299892242,0.102,,,,14.612734736
1716194808307587028,0.107,,,,14.620429522
1716194808315281814,0.102,,,,14.628124308
1716194808322976600,0.104,,,,14.635819094
1716194808330671386,0.107,,,,14.64351388
1716194808338366172,0.104,,,,14.651208666
1716194808346060958,0.1,,,,14.658903452
1716194808353755744,0.097,,,,14.666598238
1716194808361450530,0.102,,,,14.674293024
1716194808369145316,0.097,,,,14.68198781
1716194808376840102,0.087,,,,14.689682596
1716194808384534888,0.092,,,,14.697377382
1716194808392229674,0.1,,,,14.705072168
1716194808399924460,0.097,,,,14.712766954
1716194808407619246,0.095,,,,14.72046174
1716194808415314032,0.09,,,,14.728156526
1716194808423008818,0.09,,,,14.735851312
1716194808430703604,0.087,,,,14.743546098
1716194808438398390,0.092,,,,14.751240884
1716194808446093176,0.104,,,,14.75893567
1716194808453787962,0.107,,,,14.766630456
1716194808461482748,0.112,,,,14.774325242
1716194808469177534,0.117,,,,14.782020028
1716194808476872320,0.107,,,,14.789714814
1716194808484567106,0.1,,,,14.7974096
1716194808492261892,0.1,,,,14.805104386
1716194808499956678,0.104,,,,14.812799172
1716194808507651464,0.107,,,,14.820493958
1716194808515346250,0.104,,,,14.828188744
1716194808523041036,0.109,,,,14.83588353
1716194808530735822,0.112,,,,14.843578316
1716194808538430608,0.107,,,,14.851273102
1716194808546125394,0.07,,,,14.858967888
1716194808553820180,0.046,,,,14.866662674
1716194808561514966,0.31,,,,14.87435746
1716194808569209752,0.905,,,,14.882052246
1716194808576904538,1.303,,,,14.889747032
1716194808584599324,0.788,,,,14.897441818
1716194808592294110,-0.405,,,,14.905136604
1716194808599988896,-0.756,,,,14.91283139
1716194808607683682,-0.114,,,,14.920526176
1716194808615378468,0.1,,,,14.928220962
1716194808623073254,-0.046,,,,14.935915748
1716194808630768040,0.08,,,,14.943610534
1716194808638462826,0.148,,,,14.95130532
1716194808646157612,0.068,,,,14.959000106
1716194808653852398,0.092,,,,14.966694892
1716194808661547184,0.144,,,,14.974389678
1716194808669241970,0.122,,,,14.982084464
1716194808676936756,0.119,,,,14.98977925
1716194808684631542,0.144,,,,14.997474036
1716194808692326328,0.134,,,,15.005168822
1716194808700021114,0.124,,,,15.012863608
1716194808707715900,0.131,,,,15.020558394
1716194808715410686,0.129,,,,15.02825318
1716194808723105472,0.141,,,,15.035947966
1716194808730800258,0.151,,,,15.043642752
1716194808738495044,0.148,,,,15.051337538
1716194808746189830,0.156,,,,15.059032324
1716194808753884616,0.166,,,,15.06672711
1716194808761579402,0.17,,,,15.074421896
1716194808769274188,0.173,,,,15.082116682
1716194808776968974,0.178,,,,15.089811468
1716194808784663760,0.183,,,,15.097506254
1716194808792358546,0.18,,,,15.10520104
1716194808800053332,0.187,,,,15.112895826
1716194808807748118,0.197,,,,15.120590612
1716194808815442904,0.19,,,,15.128285398
1716194808823137690,0.19,,,,15.135980184
1716194808830832476,0.187,,,,15.14367497
1716194808838527262,0.175,,,,15.151369756
1716194808846222048,0.163,,,,15.159064542
1716194808853916852,0.146,62.0,1104.0,,15.166759346
1716194808861612056,0.144,,,,15.17445455
1716194808869307260,0.134,,,,15.182149754
1716194808877002464,0.107,,,,15.189844958
1716194808884697668,0.08,,,,15.197540162
1716194808892392872,0.056,,,,15.205235366
1716194808900088076,0.046,,,,15.21293057
1716194808907783280,0.036,,,,15.220625774
1716194808915478484,0.014,,,,15.228320978
1716194808923173688,0.012,,,,15.236016182
1716194808930868892,0.014,,,,15.243711386
1716194808938564096,0.009,,,,15.25140659
1716194808946259300,0.007,,,,15.259101794
1716194808953954504,0.002,,,,15.266796998
1716194808961649708,0.004,,,,15.274492202
1716194808969344912,0.009,,,,15.282187406
1716194808977040116,0.004,,,,15.28988261
1716194808984735320,0.014,,,,15.297577814
1716194808992430524,0.024,,,,15.305273018
1716194809000125728,0.026,,,,15.312968222
1716194809007820932,0.031,,,,15.320663426
1716194809015516136,0.034,,,,15.32835863
1716194809023211340,0.041,,,,15.336053834
1716194809030906544,0.051,,,,15.343749038
1716194809038601748,0.053,,,,15.351444242
1716194809046296952,0.058,,,,15.359139446
1716194809053992156,0.063,,,,15.36683465
1716194809061687360,0.068,,,,15.374529854
1716194809069382564,0.07,,,,15.382225058
1716194809077077768,0.07,,,,15.389920262
1716194809084772972,0.073,,,,15.397615466
1716194809092468176,0.065,,,,15.40531067
1716194809100163380,0.063,,,,15.413005874
1716194809107858584,0.063,,,,15.420701078
1716194809115553788,0.053,,,,15.428396282
1716194809123248992,0.058,,,,15.436091486
1716194809130944196,0.065,,,,15.44378669
1716194809138639400,0.061,,,,15.451481894
1716194809146334604,0.058,,,,15.459177098
1716194809154029808,0.061,,,,15.466872302
1716194809161725012,0.063,,,,15.474567506
1716194809169420216,0.068,,,,15.48226271
1716194809177115420,0.068,,,,15.489957914
1716194809184810624,0.075,,,,15.497653118
1716194809192505828,0.068,,,,15.505348322
1716194809200201032,0.065,,,,15.513043526
1716194809207896236,0.073,,,,15.52073873
1716194809215591440,0.073,,,,15.528433934
1716194809223286644,0.075,,,,15.536129138
1716194809230981848,0.08,,,,15.543824342
1716194809238677052,0.073,,,,15.551519546
1716194809246372256,0.073,,,,15.55921475
1716194809254067460,0.08,,,,15.566909954
1716194809261762664,0.09,,,,15.574605158
1716194809269457868,0.085,,,,15.582300362
1716194809277153072,0.083,,,,15.589995566
1716194809284848276,0.092,,,,15.59769077
1716194809292543480,0.087,,,,15.605385974
1716194809300238684,0.08,,,,15.613081178
1716194809307933888,0.095,,,,15.620776382
1716194809315629092,0.1,,,,15.628471586
1716194809323324296,0.095,,,,15.63616679
1716194809331019500,0.087,,,,15.643861994
1716194809338714704,0.09,,,,15.651557198
1716194809346409908,0.109,,,,15.659252402
1716194809354105112,0.107,,,,15.666947606
1716194809361800316,0.092,,,,15.67464281
1716194809369495520,0.095,,,,15.682338014
1716194809377190724,0.102,,,,15.690033218
1716194809384885928,0.1,,,,15.697728422
1716194809392581132,0.097,,,,15.705423626
1716194809400276336,0.107,,,,15.71311883
1716194809407971540,0.109,,,,15.720814034
1716194809415666764,0.1,,,,15.728509258
1716194809423361550,0.104,,,,15.736204044
1716194809431056336,0.109,,,,15.74389883
1716194809438751122,0.097,,,,15.751593616
1716194809446445908,0.095,,,,15.759288402
1716194809454140694,0.1,,,,15.766983188
1716194809461835480,0.1,,,,15.774677974
1716194809469530266,0.097,,,,15.78237276
1716194809477225052,0.092,,,,15.790067546
1716194809484919838,0.09,,,,15.797762332
1716194809492614624,0.09,,,,15.805457118
1716194809500309410,0.092,,,,15.813151904
1716194809508004196,0.083,,,,15.82084669
1716194809515698982,0.065,,,,15.828541476
1716194809523393768,0.078,,,,15.836236262
1716194809531088554,0.097,,,,15.843931048
1716194809538783340,0.1,,,,15.851625834
1716194809546478126,0.097,,,,15.85932062
1716194809554172912,0.083,,,,15.867015406
1716194809561867698,0.078,,,,15.874710192
1716194809569562484,0.085,,,,15.882404978
1716194809577257270,0.09,,,,15.890099764
1716194809584952056,0.095,,,,15.89779455
1716194809592646842,0.092,,,,15.905489336
1716194809600341628,0.092,,,,15.913184122
1716194809608036414,0.092,,,,15.920878908
1716194809615731200,0.078,,,,15.928573694
1716194809623425986,0.041,,,,15.93626848
1716194809631120772,0.009,,,,15.943963266
1716194809638815558,0.239,,,,15.951658052
1716194809646510344,0.844,,,,15.959352838
1716194809654205130,1.291,,,,15.967047624
1716194809661899916,0.8170000000000001,,,,15.97474241
1716194809669594702,-0.378,,,,15.982437196
1716194809677289488,-0.8,,,,15.990131982
1716194809684984274,-0.158,,,,15.997826768
1716194809692679060,0.102,,,,16.005521554
1716194809700373846,-0.063,,,,16.01321634
1716194809708068632,0.065,,,,16.020911126
1716194809715763418,0.156,,,,16.028605912
1716194809723458204,0.075,,,,16.036300698
1716194809731152990,0.087,,,,16.043995484
1716194809738847776,0.131,,,,16.05169027
1716194809746542562,0.109,,,,16.059385056
1716194809754237348,0.102,,,,16.067079842
1716194809761932134,0.129,,,,16.074774628
1716194809769626920,0.134,,,,16.082469414
1716194809777321706,0.124,,,,16.0901642
1716194809785016492,0.134,,,,16.097858986
1716194809792711278,0.141,,,,16.105553772
1716194809800406064,0.141,,,,16.113248558
1716194809808100850,0.151,,,,16.120943344
1716194809815795636,0.156,,,,16.12863813
1716194809823490422,0.163,,,,16.136332916
1716194809831185208,0.17,,,,16.144027702
1716194809838879994,0.175,,,,16.151722488
1716194809846574780,0.18,,,,16.159417274
1716194809854269566,0.185,,,,16.16711206
1716194809861964352,0.19,,,,16.174806846
1716194809869659138,0.197,,,,16.182501632
1716194809877353924,0.2,,,,16.190196418
1716194809885048710,0.205,,,,16.197891204
1716194809892743496,0.195,,,,16.20558599
1716194809900438282,0.183,,,,16.213280776
1716194809908133068,0.18,,,,16.220975562
1716194809915827854,0.166,,,,16.228670348
1716194809923522640,0.153,,,,16.236365134
1716194809931217426,0.141,,,,16.24405992
1716194809938912212,0.122,,,,16.251754706
1716194809946606998,0.117,,,,16.259449492
1716194809954301784,0.1,,,,16.267144278
1716194809961996570,0.08,,,,16.274839064
1716194809969691356,0.063,,,,16.28253385
1716194809977386158,0.043,61.0,1049.0,,16.290228652
1716194809985081362,0.031,,,,16.297923856
1716194809992776566,0.019,,,,16.30561906
1716194810000471770,0.014,,,,16.313314264
1716194810008166974,0.019,,,,16.321009468
1716194810015862178,0.009,,,,16.328704672
1716194810023557382,0.007,,,,16.336399876
1716194810031252586,0.012,,,,16.34409508
1716194810038947790,0.014,,,,16.351790284
1716194810046642994,0.021,,,,16.359485488
1716194810054338198,0.017,,,,16.367180692
1716194810062033402,0.021,,,,16.374875896
1716194810069728606,0.036,,,,16.3825711
1716194810077423810,0.041,,,,16.390266304
1716194810085119014,0.043,,,,16.397961508
1716194810092814218,0.051,,,,16.405656712
1716194810100509422,0.061,,,,16.413351916
1716194810108204626,0.068,,,,16.42104712
1716194810115899830,0.063,,,,16.428742324
1716194810123595034,0.063,,,,16.436437528
1716194810131290238,0.061,,,,16.444132732
1716194810138985442,0.063,,,,16.451827936
1716194810146680646,0.07,,,,16.45952314
1716194810154375850,0.065,,,,16.467218344
1716194810162071054,0.068,,,,16.474913548
1716194810169766258,0.068,,,,16.482608752
1716194810177461462,0.063,,,,16.490303956
1716194810185156666,0.063,,,,16.49799916
1716194810192851870,0.065,,,,16.505694364
1716194810200547074,0.065,,,,16.513389568
1716194810208242278,0.065,,,,16.521084772
1716194810215937482,0.061,,,,16.528779976
1716194810223632686,0.065,,,,16.53647518
1716194810231327890,0.07,,,,16.544170384
1716194810239023094,0.07,,,,16.551865588
1716194810246718298,0.075,,,,16.559560792
1716194810254413502,0.075,,,,16.567255996
1716194810262108706,0.075,,,,16.5749512
1716194810269803910,0.083,,,,16.582646404
1716194810277499114,0.083,,,,16.590341608
1716194810285194318,0.087,,,,16.598036812
1716194810292889522,0.087,,,,16.605732016
1716194810300584726,0.09,,,,16.61342722
1716194810308279930,0.095,,,,16.621122424
1716194810315975134,0.087,,,,16.628817628
1716194810323670338,0.092,,,,16.636512832
1716194810331365542,0.095,,,,16.644208036
1716194810339060746,0.095,,,,16.65190324
1716194810346755950,0.097,,,,16.659598444
1716194810354451154,0.092,,,,16.667293648
1716194810362146358,0.095,,,,16.674988852
1716194810369841562,0.102,,,,16.682684056
1716194810377536766,0.097,,,,16.69037926
1716194810385231970,0.1,,,,16.698074464
1716194810392927174,0.1,,,,16.705769668
1716194810400622378,0.095,,,,16.713464872
1716194810408317582,0.1,,,,16.721160076
1716194810416012786,0.1,,,,16.72885528
1716194810423707990,0.1,,,,16.736550484
1716194810431403194,0.097,,,,16.744245688
1716194810439098398,0.092,,,,16.751940892
1716194810446793602,0.097,,,,16.759636096
1716194810454488806,0.097,,,,16.7673313
1716194810462184010,0.1,,,,16.775026504
1716194810469879214,0.104,,,,16.782721708
1716194810477574418,0.1,,,,16.790416912
1716194810485269622,0.102,,,,16.798112116
1716194810492964826,0.104,,,,16.80580732
1716194810500660030,0.102,,,,16.813502524
1716194810508355234,0.107,,,,16.821197728
1716194810516050438,0.107,,,,16.828892932
1716194810523745642,0.109,,,,16.836588136
1716194810531440846,0.109,,,,16.84428334
1716194810539136070,0.104,,,,16.851978564
1716194810546830856,0.109,,,,16.85967335
1716194810554525642,0.112,,,,16.867368136
1716194810562220428,0.109,,,,16.875062922
1716194810569915214,0.109,,,,16.882757708
1716194810577610000,0.097,,,,16.890452494
1716194810585304786,0.09,,,,16.89814728
1716194810592999572,0.085,,,,16.905842066
1716194810600694358,0.09,,,,16.913536852
1716194810608389144,0.112,,,,16.921231638
1716194810616083930,0.124,,,,16.928926424
1716194810623778716,0.126,,,,16.93662121
1716194810631473502,0.107,,,,16.944315996
1716194810639168288,0.085,,,,16.952010782
1716194810646863074,0.09,,,,16.959705568
1716194810654557860,0.092,,,,16.967400354
1716194810662252646,0.092,,,,16.97509514
1716194810669947432,0.095,,,,16.982789926
1716194810677642218,0.087,,,,16.990484712
1716194810685337004,0.092,,,,16.998179498
1716194810693031790,0.085,,,,17.005874284
1716194810700726576,0.039,,,,17.01356907
1716194810708421362,0.109,,,,17.021263856
1716194810716116148,0.537,,,,17.028958642
1716194810723810934,1.132,,,,17.036653428
1716194810731505720,1.22,,,,17.044348214
1716194810739200506,0.29,,,,17.052043
1716194810746895292,-0.739,,,,17.059737786
1716194810754590078,-0.534,,,,17.067432572
1716194810762284864,0.08,,,,17.075127358
1716194810769979650,0.034,,,,17.082822144
1716194810777674436,-0.021,,,,17.09051693
1716194810785369222,0.148,,,,17.098211716
1716194810793064008,0.126,,,,17.105906502
1716194810800758794,0.065,,,,17.113601288
1716194810808453580,0.122,,,,17.121296074
1716194810816148366,0.136,,,,17.12899086
1716194810823843152,0.117,,,,17.136685646
1716194810831537938,0.129,,,,17.144380432
1716194810839232724,0.136,,,,17.152075218
1716194810846927510,0.136,,,,17.159770004
1716194810854622296,0.136,,,,17.16746479
1716194810862317082,0.141,,,,17.175159576
1716194810870011868,0.146,,,,17.182854362
1716194810877706654,0.148,,,,17.190549148
1716194810885401440,0.161,,,,17.198243934
1716194810893096226,0.163,,,,17.20593872
1716194810900791012,0.163,,,,17.213633506
1716194810908485798,0.175,,,,17.221328292
1716194810916180584,0.175,,,,17.229023078
1716194810923875370,0.18,,,,17.236717864
1716194810931570156,0.187,,,,17.24441265
1716194810939264942,0.195,,,,17.252107436
1716194810946959728,0.202,,,,17.259802222
1716194810954654514,0.2,,,,17.267497008
1716194810962349300,0.202,,,,17.275191794
1716194810970044086,0.209,,,,17.28288658
1716194810977738872,0.202,,,,17.290581366
1716194810985433658,0.197,,,,17.298276152
1716194810993128444,0.187,,,,17.305970938
1716194811000823230,0.173,,,,17.313665724
1716194811008518016,0.166,,,,17.32136051
1716194811016212802,0.146,,,,17.329055296
1716194811023907588,0.131,,,,17.336750082
1716194811031602374,0.117,,,,17.344444868
1716194811039297160,0.087,,,,17.352139654
1716194811046991946,0.07,,,,17.35983444
1716194811054686732,0.056,,,,17.367529226
1716194811062381518,0.043,,,,17.375224012
1716194811070076304,0.034,,,,17.382918798
1716194811077771090,0.029,,,,17.390613584
1716194811085465876,0.029,,,,17.39830837
1716194811093160662,0.026,,,,17.406003156
1716194811100855464,0.024,60.0,1123.0,,17.413697958
1716194811108550668,0.031,,,,17.421393162
1716194811116245872,0.031,,,,17.429088366
1716194811123941076,0.039,,,,17.43678357
1716194811131636280,0.041,,,,17.444478774
1716194811139331484,0.031,,,,17.452173978
1716194811147026688,0.034,,,,17.459869182
1716194811154721892,0.043,,,,17.467564386
1716194811162417096,0.048,,,,17.47525959
1716194811170112300,0.051,,,,17.482954794
1716194811177807504,0.056,,,,17.490649998
1716194811185502708,0.068,,,,17.498345202
1716194811193197912,0.063,,,,17.506040406
1716194811200893116,0.061,,,,17.51373561
1716194811208588320,0.075,,,,17.521430814
1716194811216283524,0.078,,,,17.529126018
1716194811223978728,0.078,,,,17.536821222
1716194811231673932,0.078,,,,17.544516426
1716194811239369136,0.08,,,,17.55221163
1716194811247064340,0.085,,,,17.559906834
1716194811254759544,0.083,,,,17.567602038
1716194811262454748,0.083,,,,17.575297242
1716194811270149952,0.087,,,,17.582992446
1716194811277845156,0.083,,,,17.59068765
1716194811285540360,0.085,,,,17.598382854
1716194811293235564,0.087,,,,17.606078058
1716194811300930768,0.087,,,,17.613773262
1716194811308625972,0.092,,,,17.621468466
1716194811316321176,0.09,,,,17.62916367
1716194811324016380,0.09,,,,17.636858874
1716194811331711584,0.097,,,,17.644554078
1716194811339406788,0.095,,,,17.652249282
1716194811347101992,0.097,,,,17.659944486
1716194811354797196,0.097,,,,17.66763969
1716194811362492400,0.1,,,,17.675334894
1716194811370187604,0.104,,,,17.683030098
1716194811377882808,0.097,,,,17.690725302
1716194811385578012,0.102,,,,17.698420506
1716194811393273216,0.107,,,,17.70611571
1716194811400968420,0.104,,,,17.713810914
1716194811408663624,0.104,,,,17.721506118
1716194811416358828,0.095,,,,17.729201322
1716194811424054032,0.097,,,,17.736896526
1716194811431749236,0.102,,,,17.74459173
1716194811439444440,0.1,,,,17.752286934
1716194811447139644,0.104,,,,17.759982138
1716194811454834848,0.104,,,,17.767677342
1716194811462530052,0.102,,,,17.775372546
1716194811470225256,0.104,,,,17.78306775
1716194811477920460,0.104,,,,17.790762954
1716194811485615664,0.109,,,,17.798458158
1716194811493310868,0.104,,,,17.806153362
1716194811501006072,0.102,,,,17.813848566
1716194811508701276,0.112,,,,17.82154377
1716194811516396480,0.109,,,,17.829238974
1716194811524091684,0.107,,,,17.836934178
1716194811531786888,0.109,,,,17.844629382
1716194811539482092,0.107,,,,17.852324586
1716194811547177296,0.107,,,,17.86001979
1716194811554872500,0.104,,,,17.867714994
1716194811562567704,0.109,,,,17.875410198
1716194811570262908,0.117,,,,17.883105402
1716194811577958112,0.109,,,,17.890800606
1716194811585653316,0.112,,,,17.89849581
1716194811593348520,0.112,,,,17.906191014
1716194811601043724,0.109,,,,17.913886218
1716194811608738928,0.114,,,,17.921581422
1716194811616434132,0.109,,,,17.929276626
1716194811624129336,0.107,,,,17.93697183
1716194811631824540,0.114,,,,17.944667034
1716194811639519744,0.107,,,,17.952362238
1716194811647214948,0.095,,,,17.960057442
1716194811654910152,0.092,,,,17.967752646
1716194811662605376,0.097,,,,17.97544787
1716194811670300162,0.095,,,,17.983142656
1716194811677994948,0.09,,,,17.990837442
1716194811685689734,0.104,,,,17.998532228
1716194811693384520,0.1,,,,18.006227014
1716194811701079306,0.078,,,,18.0139218
1716194811708774092,0.073,,,,18.021616586
1716194811716468878,0.07,,,,18.029311372
1716194811724163664,0.08,,,,18.037006158
1716194811731858450,0.085,,,,18.044700944
1716194811739553236,0.083,,,,18.05239573
1716194811747248022,0.102,,,,18.060090516
1716194811754942808,0.117,,,,18.067785302
1716194811762637594,0.117,,,,18.075480088
1716194811770332380,0.1,,,,18.083174874
1716194811778027166,0.085,,,,18.09086966
1716194811785721952,0.095,,,,18.098564446
1716194811793416738,0.1,,,,18.106259232
1716194811801111524,0.097,,,,18.113954018
1716194811808806310,0.104,,,,18.121648804
1716194811816501096,0.109,,,,18.12934359
1716194811824195882,0.104,,,,18.137038376
1716194811831890668,0.07,,,,18.144733162
1716194811839585454,0.031,,,,18.152427948
1716194811847280240,0.178,,,,18.160122734
1716194811854975026,0.683,,,,18.16781752
1716194811862669812,1.237,,,,18.175512306
1716194811870364598,1.123,,,,18.183207092
1716194811878059384,0.031,,,,18.190901878
1716194811885754170,-0.8170000000000001,,,,18.198596664
1716194811893448956,-0.383,,,,18.20629145
1716194811901143742,0.109,,,,18.213986236
1716194811908838528,-0.026,,,,18.221681022
1716194811916533314,-0.007,,,,18.229375808
1716194811924228100,0.144,,,,18.237070594
1716194811931922886,0.085,,,,18.24476538
1716194811939617672,0.046,,,,18.252460166
1716194811947312458,0.107,,,,18.260154952
1716194811955007244,0.114,,,,18.267849738
1716194811962702030,0.102,,,,18.275544524
1716194811970396816,0.117,,,,18.28323931
1716194811978091602,0.117,,,,18.290934096
1716194811985786388,0.119,,,,18.298628882
1716194811993481174,0.131,,,,18.306323668
1716194812001175960,0.139,,,,18.314018454
1716194812008870746,0.139,,,,18.32171324
1716194812016565532,0.134,,,,18.329408026
1716194812024260318,0.148,,,,18.337102812
1716194812031955104,0.161,,,,18.344797598
1716194812039649890,0.163,,,,18.352492384
1716194812047344676,0.168,,,,18.36018717
1716194812055039462,0.161,,,,18.367881956
1716194812062734248,0.156,,,,18.375576742
1716194812070429034,0.175,,,,18.383271528
1716194812078123820,0.19,,,,18.390966314
1716194812085818606,0.187,,,,18.3986611
1716194812093513392,0.178,,,,18.406355886
1716194812101208178,0.183,,,,18.414050672
1716194812108902964,0.192,,,,18.421745458
1716194812116597750,0.183,,,,18.429440244
1716194812124292536,0.18,,,,18.43713503
1716194812131987322,0.183,,,,18.444829816
1716194812139682108,0.17,,,,18.452524602
1716194812147376894,0.156,,,,18.460219388
1716194812155071680,0.136,,,,18.467914174
1716194812162766466,0.122,,,,18.47560896
1716194812170461252,0.104,,,,18.483303746
1716194812178156038,0.075,,,,18.490998532
1716194812185850824,0.063,,,,18.498693318
1716194812193545610,0.048,,,,18.506388104
1716194812201240396,0.031,,,,18.51408289
1716194812208935182,0.034,,,,18.521777676
1716194812216629968,0.026,,,,18.529472462
1716194812224324770,0.014,60.0,1077.0,,18.537167264
1716194812232019556,0.012,,,,18.54486205
1716194812239714342,0.017,,,,18.552556836
1716194812247409128,0.021,,,,18.560251622
1716194812255103914,0.019,,,,18.567946408
1716194812262798700,0.024,,,,18.575641194
1716194812270493486,0.034,,,,18.58333598
1716194812278188272,0.031,,,,18.591030766
1716194812285883058,0.039,,,,18.598725552
1716194812293577844,0.041,,,,18.606420338
1716194812301272630,0.043,,,,18.614115124
1716194812308967416,0.058,,,,18.62180991
1716194812316662202,0.058,,,,18.629504696
1716194812324356988,0.068,,,,18.637199482
1716194812332051774,0.083,,,,18.644894268
1716194812339746560,0.073,,,,18.652589054
1716194812347441346,0.075,,,,18.66028384
1716194812355136132,0.087,,,,18.667978626
1716194812362830918,0.092,,,,18.675673412
1716194812370525704,0.09,,,,18.683368198
1716194812378220490,0.085,,,,18.691062984
1716194812385915276,0.09,,,,18.69875777
1716194812393610062,0.09,,,,18.706452556
1716194812401304848,0.085,,,,18.714147342
1716194812408999634,0.085,,,,18.721842128
1716194812416694420,0.08,,,,18.729536914
1716194812424389206,0.08,,,,18.7372317
1716194812432083992,0.083,,,,18.744926486
1716194812439778778,0.085,,,,18.752621272
1716194812447473564,0.087,,,,18.760316058
1716194812455168350,0.08,,,,18.768010844
1716194812462863136,0.083,,,,18.77570563
1716194812470557922,0.097,,,,18.783400416
1716194812478252708,0.092,,,,18.791095202
1716194812485947494,0.09,,,,18.798789988
1716194812493642280,0.095,,,,18.806484774
1716194812501337066,0.092,,,,18.81417956
1716194812509031852,0.092,,,,18.821874346
1716194812516726638,0.092,,,,18.829569132
1716194812524421424,0.095,,,,18.837263918
1716194812532116210,0.1,,,,18.844958704
1716194812539810996,0.097,,,,18.85265349
1716194812547505782,0.102,,,,18.860348276
1716194812555200568,0.1,,,,18.868043062
1716194812562895354,0.1,,,,18.875737848
1716194812570590140,0.102,,,,18.883432634
1716194812578284926,0.095,,,,18.89112742
1716194812585979712,0.102,,,,18.898822206
1716194812593674498,0.112,,,,18.906516992
1716194812601369284,0.107,,,,18.914211778
1716194812609064070,0.104,,,,18.921906564
1716194812616758856,0.1,,,,18.92960135
1716194812624453642,0.104,,,,18.937296136
1716194812632148428,0.107,,,,18.944990922
1716194812639843214,0.102,,,,18.952685708
1716194812647538000,0.104,,,,18.960380494
1716194812655232786,0.095,,,,18.96807528
1716194812662927572,0.078,,,,18.975770066
1716194812670622358,0.08,,,,18.983464852
1716194812678317144,0.09,,,,18.991159638
1716194812686011930,0.092,,,,18.998854424
1716194812693706716,0.087,,,,19.00654921
1716194812701401502,0.087,,,,19.014243996
1716194812709096288,0.1,,,,19.021938782
1716194812716791074,0.095,,,,19.029633568
1716194812724485860,0.085,,,,19.037328354
1716194812732180646,0.085,,,,19.04502314
1716194812739875432,0.087,,,,19.052717926
1716194812747570218,0.097,,,,19.060412712
1716194812755265004,0.104,,,,19.068107498
1716194812762959790,0.117,,,,19.075802284
1716194812770654576,0.134,,,,19.08349707
1716194812778349362,0.122,,,,19.091191856
1716194812786044166,0.102,59.0,1073.0,,19.09888666
1716194812793739370,0.097,,,,19.106581864
1716194812801434574,0.107,,,,19.114277068
1716194812809129778,0.114,,,,19.121972272
1716194812816824982,0.109,,,,19.129667476
1716194812824520186,0.114,,,,19.13736268
1716194812832215390,0.119,,,,19.145057884
1716194812839910594,0.087,,,,19.152753088
1716194812847605798,0.039,,,,19.160448292
1716194812855301002,0.163,,,,19.168143496
1716194812862996206,0.668,,,,19.1758387
1716194812870691410,1.23,,,,19.183533904
1716194812878386614,1.088,,,,19.191229108
1716194812886081818,-0.012,,,,19.198924312
1716194812893777022,-0.839,,,,19.206619516
1716194812901472226,-0.395,,,,19.21431472
1716194812909167430,0.112,,,,19.222009924
1716194812916862634,-0.019,,,,19.229705128
1716194812924557838,0.014,,,,19.237400332
1716194812932253042,0.173,,,,19.245095536
1716194812939948246,0.104,,,,19.25279074
1716194812947643450,0.075,,,,19.260485944
1716194812955338654,0.136,,,,19.268181148
1716194812963033858,0.131,,,,19.275876352
1716194812970729062,0.117,,,,19.283571556
1716194812978424266,0.136,,,,19.29126676
1716194812986119470,0.148,,,,19.298961964
1716194812993814674,0.139,,,,19.306657168
1716194813001509878,0.144,,,,19.314352372
1716194813009205082,0.158,,,,19.322047576
1716194813016900286,0.156,,,,19.32974278
1716194813024595490,0.156,,,,19.337437984
1716194813032290694,0.163,,,,19.345133188
1716194813039985898,0.168,,,,19.352828392
1716194813047681102,0.18,,,,19.360523596
1716194813055376306,0.18,,,,19.3682188
1716194813063071510,0.183,,,,19.375914004
1716194813070766714,0.197,,,,19.383609208
1716194813078461918,0.2,,,,19.391304412
1716194813086157122,0.205,,,,19.398999616
1716194813093852326,0.212,,,,19.40669482
1716194813101547530,0.222,,,,19.414390024
1716194813109242734,0.229,,,,19.422085228
1716194813116937938,0.222,,,,19.429780432
1716194813124633142,0.219,,,,19.437475636
1716194813132328346,0.214,,,,19.44517084
1716194813140023550,0.195,,,,19.452866044
1716194813147718754,0.187,,,,19.460561248
1716194813155413958,0.175,,,,19.468256452
1716194813163109162,0.148,,,,19.475951656
1716194813170804366,0.114,,,,19.48364686
1716194813178499570,0.085,,,,19.491342064
1716194813186194774,0.065,,,,19.499037268
1716194813193889978,0.041,,,,19.506732472
1716194813201585182,0.019,,,,19.514427676
1716194813209280386,0.012,,,,19.52212288
1716194813216975590,0.002,,,,19.529818084
1716194813224670794,-0.004,,,,19.537513288
1716194813232365998,-0.004,,,,19.545208492
1716194813240061202,-0.007,,,,19.552903696
1716194813247756406,-0.002,,,,19.5605989
1716194813255451610,0.0,,,,19.568294104
1716194813263146814,-0.002,,,,19.575989308
1716194813270842018,0.007,,,,19.583684512
1716194813278537222,0.014,,,,19.591379716
1716194813286232426,0.024,,,,19.59907492
1716194813293927630,0.031,,,,19.606770124
1716194813301622834,0.034,,,,19.614465328
1716194813309318038,0.046,,,,19.622160532
1716194813317013242,0.051,,,,19.629855736
1716194813324708446,0.058,,,,19.63755094
1716194813332403650,0.068,,,,19.645246144
1716194813340098854,0.07,,,,19.652941348
1716194813347794078,0.075,,,,19.660636572
1716194813355488864,0.073,,,,19.668331358
1716194813363183650,0.073,,,,19.676026144
1716194813370878436,0.08,,,,19.68372093
1716194813378573222,0.075,,,,19.691415716
1716194813386268008,0.07,,,,19.699110502
1716194813393962794,0.073,,,,19.706805288
1716194813401657580,0.07,,,,19.714500074
1716194813409352366,0.065,,,,19.72219486
1716194813417047152,0.053,,,,19.729889646
1716194813424741938,0.056,,,,19.737584432
1716194813432436724,0.063,,,,19.745279218
1716194813440131510,0.061,,,,19.752974004
1716194813447826296,0.061,,,,19.76066879
1716194813455521082,0.065,,,,19.768363576
1716194813463215868,0.068,,,,19.776058362
1716194813470910654,0.073,,,,19.783753148
1716194813478605440,0.07,,,,19.791447934
1716194813486300226,0.073,,,,19.79914272
1716194813493995012,0.075,,,,19.806837506
1716194813501689798,0.075,,,,19.814532292
1716194813509384584,0.083,,,,19.822227078
1716194813517079370,0.083,,,,19.829921864
1716194813524774156,0.085,,,,19.83761665
1716194813532468942,0.085,,,,19.845311436
1716194813540163728,0.08,,,,19.853006222
1716194813547858514,0.087,,,,19.860701008
1716194813555553300,0.087,,,,19.868395794
1716194813563248086,0.087,,,,19.87609058
1716194813570942872,0.092,,,,19.883785366
1716194813578637658,0.092,,,,19.891480152
1716194813586332444,0.092,,,,19.899174938
1716194813594027230,0.095,,,,19.906869724
1716194813601722016,0.092,,,,19.91456451
1716194813609416802,0.1,,,,19.922259296
1716194813617111588,0.1,,,,19.929954082
1716194813624806374,0.095,,,,19.937648868
1716194813632501160,0.095,,,,19.945343654
1716194813640195946,0.092,,,,19.95303844
1716194813647890732,0.1,,,,19.960733226
1716194813655585518,0.097,,,,19.968428012
1716194813663280304,0.095,,,,19.976122798
1716194813670975090,0.095,,,,19.983817584
1716194813678669876,0.083,,,,19.99151237
1716194813686364662,0.085,,,,19.999207156
1716194813694059448,0.092,,,,20.006901942
1716194813701754234,0.092,,,,20.014596728
1716194813709449020,0.095,,,,20.022291514
1716194813717143806,0.095,,,,20.0299863
1716194813724838592,0.095,,,,20.037681086
1716194813732533378,0.102,,,,20.045375872
1716194813740228164,0.1,,,,20.053070658
1716194813747922950,0.1,,,,20.060765444
1716194813755617736,0.102,,,,20.06846023
1716194813763312522,0.102,,,,20.076155016
1716194813771007308,0.104,,,,20.083849802
1716194813778702094,0.097,,,,20.091544588
1716194813786396880,0.092,,,,20.099239374
1716194813794091666,0.092,,,,20.10693416
1716194813801786452,0.1,,,,20.114628946
1716194813809481238,0.114,,,,20.122323732
1716194813817176024,0.122,,,,20.130018518
1716194813824870810,0.136,,,,20.137713304
1716194813832565596,0.136,,,,20.14540809
1716194813840260382,0.114,,,,20.153102876
1716194813847955168,0.109,,,,20.160797662
1716194813855649954,0.112,,,,20.168492448
1716194813863344740,0.109,,,,20.176187234
1716194813871039526,0.109,,,,20.18388202
1716194813878734312,0.107,,,,20.191576806
1716194813886429098,0.109,,,,20.199271592
1716194813894123884,0.107,,,,20.206966378
1716194813901818670,0.058,,,,20.214661164
1716194813909513472,0.068,59.0,1137.0,,20.222355966
1716194813917208676,0.402,,,,20.23005117
1716194813924903880,1.015,,,,20.237746374
1716194813932599084,1.306,,,,20.245441578
1716194813940294288,0.603,,,,20.253136782
1716194813947989492,-0.5760000000000001,,,,20.260831986
1716194813955684696,-0.708,,,,20.26852719
1716194813963379900,-0.029,,,,20.276222394
1716194813971075104,0.09,,,,20.283917598
1716194813978770308,-0.043,,,,20.291612802
1716194813986465512,0.104,,,,20.299308006
1716194813994160716,0.146,,,,20.30700321
1716194814001855920,0.063,,,,20.314698414
1716194814009551124,0.1,,,,20.322393618
1716194814017246328,0.136,,,,20.330088822
1716194814024941532,0.112,,,,20.337784026
1716194814032636736,0.119,,,,20.34547923
1716194814040331940,0.136,,,,20.353174434
1716194814048027144,0.134,,,,20.360869638
1716194814055722348,0.136,,,,20.368564842
1716194814063417552,0.146,,,,20.376260046
1716194814071112756,0.153,,,,20.38395525
1716194814078807960,0.151,,,,20.391650454
1716194814086503164,0.158,,,,20.399345658
1716194814094198368,0.161,,,,20.407040862
1716194814101893572,0.158,,,,20.414736066
1716194814109588776,0.168,,,,20.42243127
1716194814117283980,0.173,,,,20.430126474
1716194814124979184,0.173,,,,20.437821678
1716194814132674388,0.178,,,,20.445516882
1716194814140369592,0.183,,,,20.453212086
1716194814148064796,0.195,,,,20.46090729
1716194814155760000,0.2,,,,20.468602494
1716194814163455204,0.2,,,,20.476297698
1716194814171150408,0.202,,,,20.483992902
1716194814178845612,0.19,,,,20.491688106
1716194814186540816,0.183,,,,20.49938331
1716194814194236020,0.183,,,,20.507078514
1716194814201931224,0.173,,,,20.514773718
1716194814209626428,0.168,,,,20.522468922
1716194814217321632,0.158,,,,20.530164126
1716194814225016836,0.141,,,,20.53785933
1716194814232712040,0.122,,,,20.545554534
1716194814240407244,0.09,,,,20.553249738
1716194814248102448,0.065,,,,20.560944942
1716194814255797652,0.046,,,,20.568640146
1716194814263492856,0.029,,,,20.57633535
1716194814271188060,0.021,,,,20.584030554
1716194814278883264,0.007,,,,20.591725758
1716194814286578468,0.004,,,,20.599420962
1716194814294273672,0.009,,,,20.607116166
1716194814301968876,0.007,,,,20.61481137
1716194814309664080,0.014,,,,20.622506574
1716194814317359284,0.012,,,,20.630201778
1716194814325054488,0.012,,,,20.637896982
1716194814332749692,0.017,,,,20.645592186
1716194814340444896,0.019,,,,20.65328739
1716194814348140100,0.024,,,,20.660982594
1716194814355835304,0.029,,,,20.668677798
1716194814363530508,0.026,,,,20.676373002
1716194814371225712,0.029,,,,20.684068206
1716194814378920916,0.029,,,,20.69176341
1716194814386616120,0.041,,,,20.699458614
1716194814394311324,0.051,,,,20.707153818
1716194814402006528,0.048,,,,20.714849022
1716194814409701732,0.056,,,,20.722544226
1716194814417396936,0.058,,,,20.73023943
1716194814425092140,0.056,,,,20.737934634
1716194814432787344,0.058,,,,20.745629838
1716194814440482548,0.063,,,,20.753325042
1716194814448177752,0.073,,,,20.761020246
1716194814455872956,0.075,,,,20.76871545
1716194814463568160,0.068,,,,20.776410654
1716194814471263384,0.07,,,,20.784105878
1716194814478958170,0.073,,,,20.791800664
1716194814486652956,0.078,,,,20.79949545
1716194814494347742,0.075,,,,20.807190236
1716194814502042528,0.068,,,,20.814885022
1716194814509737314,0.073,,,,20.822579808
1716194814517432100,0.07,,,,20.830274594
1716194814525126886,0.063,,,,20.83796938
1716194814532821672,0.065,,,,20.845664166
1716194814540516458,0.07,,,,20.853358952
1716194814548211244,0.078,,,,20.861053738
1716194814555906030,0.07,,,,20.868748524
1716194814563600816,0.063,,,,20.87644331
1716194814571295602,0.075,,,,20.884138096
1716194814578990388,0.08,,,,20.891832882
1716194814586685174,0.078,,,,20.899527668
1716194814594379960,0.083,,,,20.907222454
1716194814602074746,0.085,,,,20.91491724
1716194814609769532,0.085,,,,20.922612026
1716194814617464318,0.078,,,,20.930306812
1716194814625159104,0.08,,,,20.938001598
1716194814632853890,0.083,,,,20.945696384
1716194814640548676,0.078,,,,20.95339117
1716194814648243462,0.083,,,,20.961085956
1716194814655938248,0.085,,,,20.968780742
1716194814663633034,0.092,,,,20.976475528
1716194814671327820,0.102,,,,20.984170314
1716194814679022606,0.085,,,,20.9918651
1716194814686717392,0.075,,,,20.999559886
1716194814694412178,0.085,,,,21.007254672
1716194814702106964,0.087,,,,21.014949458
1716194814709801750,0.087,,,,21.022644244
1716194814717496536,0.087,,,,21.03033903
1716194814725191322,0.09,,,,21.038033816
1716194814732886108,0.087,,,,21.045728602
1716194814740580894,0.087,,,,21.053423388
1716194814748275680,0.1,,,,21.061118174
1716194814755970466,0.097,,,,21.06881296
1716194814763665252,0.087,,,,21.076507746
1716194814771360038,0.097,,,,21.084202532
1716194814779054824,0.109,,,,21.091897318
1716194814786749610,0.102,,,,21.099592104
1716194814794444396,0.092,,,,21.10728689
1716194814802139182,0.095,,,,21.114981676
1716194814809833968,0.104,,,,21.122676462
1716194814817528754,0.107,,,,21.130371248
1716194814825223540,0.102,,,,21.138066034
1716194814832918326,0.1,,,,21.14576082
1716194814840613112,0.102,,,,21.153455606
1716194814848307898,0.112,,,,21.161150392
1716194814856002684,0.107,,,,21.168845178
1716194814863697470,0.097,,,,21.176539964
1716194814871392256,0.104,,,,21.18423475
1716194814879087042,0.109,,,,21.191929536
1716194814886781828,0.107,,,,21.199624322
1716194814894476614,0.109,,,,21.207319108
1716194814902171400,0.102,,,,21.215013894
1716194814909866186,0.092,,,,21.22270868
1716194814917560972,0.087,,,,21.230403466
1716194814925255758,0.1,,,,21.238098252
1716194814932950544,0.124,,,,21.245793038
1716194814940645330,0.136,,,,21.253487824
1716194814948340116,0.139,,,,21.26118261
1716194814956034902,0.126,,,,21.268877396
1716194814963729688,0.114,,,,21.276572182
1716194814971424474,0.119,,,,21.284266968
1716194814979119260,0.119,,,,21.291961754
1716194814986814046,0.122,,,,21.29965654
1716194814994508832,0.124,,,,21.307351326
1716194815002203618,0.114,,,,21.315046112
1716194815009898404,0.119,,,,21.322740898
1716194815017593190,0.107,,,,21.330435684
1716194815025287976,0.056,,,,21.33813047
1716194815032982778,0.163,59.0,1008.0,,21.345825272
1716194815040677982,0.673,,,,21.353520476
1716194815048373186,1.276,,,,21.36121568
1716194815056068390,1.191,,,,21.368910884
1716194815063763594,0.092,,,,21.376606088
1716194815071458798,-0.812,,,,21.384301292
1716194815079154002,-0.402,,,,21.391996496
1716194815086849206,0.136,,,,21.3996917
1716194815094544410,0.002,,,,21.407386904
1716194815102239614,0.004,,,,21.415082108
1716194815109934818,0.161,,,,21.422777312
1716194815117630022,0.097,,,,21.430472516
1716194815125325226,0.063,,,,21.43816772
1716194815133020430,0.134,,,,21.445862924
1716194815140715634,0.134,,,,21.453558128
1716194815148410838,0.119,,,,21.461253332
1716194815156106042,0.134,,,,21.468948536
1716194815163801246,0.126,,,,21.47664374
1716194815171496450,0.126,,,,21.484338944
1716194815179191654,0.139,,,,21.492034148
1716194815186886858,0.134,,,,21.499729352
1716194815194582062,0.126,,,,21.507424556
1716194815202277266,0.136,,,,21.51511976
1716194815209972470,0.161,,,,21.522814964
1716194815217667674,0.156,,,,21.530510168
1716194815225362878,0.148,,,,21.538205372
1716194815233058082,0.168,,,,21.545900576
1716194815240753286,0.178,,,,21.55359578
1716194815248448490,0.18,,,,21.561290984
1716194815256143694,0.187,,,,21.568986188
1716194815263838898,0.195,,,,21.576681392
1716194815271534102,0.202,,,,21.584376596
1716194815279229306,0.207,,,,21.5920718
1716194815286924510,0.217,,,,21.599767004
1716194815294619714,0.219,,,,21.607462208
1716194815302314918,0.212,,,,21.615157412
1716194815310010122,0.209,,,,21.622852616
1716194815317705326,0.195,,,,21.63054782
1716194815325400530,0.185,,,,21.638243024
1716194815333095734,0.183,,,,21.645938228
1716194815340790938,0.158,,,,21.653633432
1716194815348486142,0.136,,,,21.661328636
1716194815356181346,0.112,,,,21.66902384
1716194815363876550,0.078,,,,21.676719044
1716194815371571754,0.056,,,,21.684414248
1716194815379266958,0.041,,,,21.692109452
1716194815386962162,0.041,,,,21.699804656
1716194815394657366,0.029,,,,21.70749986
1716194815402352570,0.007,,,,21.715195064
1716194815410047774,0.019,,,,21.722890268
1716194815417742978,0.029,,,,21.730585472
1716194815425438182,0.009,,,,21.738280676
1716194815433133386,0.009,,,,21.74597588
1716194815440828590,0.024,,,,21.753671084
1716194815448523794,0.031,,,,21.761366288
1716194815456218998,0.024,,,,21.769061492
1716194815463914202,0.029,,,,21.776756696
1716194815471609406,0.046,,,,21.7844519
1716194815479304610,0.048,,,,21.792147104
1716194815486999814,0.048,,,,21.799842308
1716194815494695018,0.058,,,,21.807537512
1716194815502390222,0.07,,,,21.815232716
1716194815510085426,0.078,,,,21.82292792
1716194815517780630,0.08,,,,21.830623124
1716194815525475834,0.087,,,,21.838318328
1716194815533171038,0.092,,,,21.846013532
1716194815540866242,0.085,,,,21.853708736
1716194815548561446,0.09,,,,21.86140394
1716194815556256650,0.092,,,,21.869099144
1716194815563951854,0.085,,,,21.876794348
1716194815571647058,0.085,,,,21.884489552
1716194815579342262,0.083,,,,21.892184756
1716194815587037466,0.085,,,,21.89987996
1716194815594732690,0.09,,,,21.907575184
1716194815602427476,0.085,,,,21.91526997
1716194815610122262,0.08,,,,21.922964756
1716194815617817048,0.075,,,,21.930659542
1716194815625511834,0.078,,,,21.938354328
1716194815633206620,0.075,,,,21.946049114
1716194815640901406,0.065,,,,21.9537439
1716194815648596192,0.073,,,,21.961438686
1716194815656290978,0.083,,,,21.969133472
1716194815663985764,0.078,,,,21.976828258
1716194815671680550,0.08,,,,21.984523044
1716194815679375336,0.078,,,,21.99221783
1716194815687070122,0.07,,,,21.999912616
1716194815694764908,0.068,,,,22.007607402
1716194815702459694,0.073,,,,22.015302188
1716194815710154480,0.078,,,,22.022996974
1716194815717849266,0.073,,,,22.03069176
1716194815725544052,0.075,,,,22.038386546
1716194815733238838,0.087,,,,22.046081332
1716194815740933624,0.085,,,,22.053776118
1716194815748628410,0.08,,,,22.061470904
1716194815756323196,0.078,,,,22.06916569
1716194815764017982,0.08,,,,22.076860476
1716194815771712768,0.09,,,,22.084555262
1716194815779407554,0.087,,,,22.092250048
1716194815787102340,0.087,,,,22.099944834
1716194815794797126,0.095,,,,22.10763962
1716194815802491912,0.092,,,,22.115334406
1716194815810186698,0.095,,,,22.123029192
1716194815817881484,0.095,,,,22.130723978
1716194815825576270,0.095,,,,22.138418764
1716194815833271056,0.102,,,,22.14611355
1716194815840965842,0.097,,,,22.153808336
1716194815848660628,0.09,,,,22.161503122
1716194815856355414,0.092,,,,22.169197908
1716194815864050200,0.095,,,,22.176892694
1716194815871744986,0.104,,,,22.18458748
1716194815879439772,0.104,,,,22.192282266
1716194815887134558,0.1,,,,22.199977052
1716194815894829344,0.097,,,,22.207671838
1716194815902524130,0.087,,,,22.215366624
1716194815910218916,0.085,,,,22.22306141
1716194815917913702,0.095,,,,22.230756196
1716194815925608488,0.107,,,,22.238450982
1716194815933303274,0.119,,,,22.246145768
1716194815940998060,0.129,,,,22.253840554
1716194815948692846,0.136,,,,22.26153534
1716194815956387632,0.124,,,,22.269230126
1716194815964082418,0.104,,,,22.276924912
1716194815971777204,0.109,,,,22.284619698
1716194815979471990,0.114,,,,22.292314484
1716194815987166776,0.112,,,,22.30000927
