time,ecg,hr,rr,marker,norm_time
1715826624106471452,0.749,67.0,841.0,,0.0
1715826624114165820,1.609,,,,0.007694368
1715826624121860188,1.645,,,,0.015388736
1715826624129554556,0.282,,,,0.023083104
1715826624137248924,-0.787,,,,0.030777472
1715826624144943292,-0.263,,,,0.03847184
1715826624152637660,0.232,,,,0.046166208
1715826624160332028,-0.065,,,,0.053860576
1715826624168026396,-0.101,,,,0.061554944
1715826624175720764,0.07,,,,0.069249312
1715826624183415132,0.002,,,,0.07694368
1715826624191109500,-0.048,,,,0.084638048
1715826624198803868,0.007,,,,0.092332416
1715826624206498236,0.014,,,,0.100026784
1715826624214192604,0.002,,,,0.107721152
1715826624221886972,0.021,,,,0.11541552
1715826624229581340,0.026,,,,0.123109888
1715826624237275708,0.019,,,,0.130804256
1715826624244970076,0.036,,,,0.138498624
1715826624252664444,0.055,,,,0.146192992
1715826624260358812,0.06,,,,0.15388736
1715826624268053180,0.074,,,,0.161581728
1715826624275747548,0.094,,,,0.169276096
1715826624283441916,0.111,,,,0.176970464
1715826624291136284,0.123,,,,0.184664832
1715826624298830652,0.128,,,,0.1923592
1715826624306525020,0.145,,,,0.200053568
1715826624314219388,0.178,,,,0.207747936
1715826624321913756,0.212,,,,0.215442304
1715826624329608124,0.236,,,,0.223136672
1715826624337302492,0.258,,,,0.23083104
1715826624344996860,0.292,,,,0.238525408
1715826624352691228,0.321,,,,0.246219776
1715826624360385596,0.345,,,,0.253914144
1715826624368079964,0.369,,,,0.261608512
1715826624375774332,0.374,,,,0.26930288
1715826624383468700,0.355,,,,0.276997248
1715826624391163068,0.319,,,,0.284691616
1715826624398857436,0.261,,,,0.292385984
1715826624406551804,0.193,,,,0.300080352
1715826624414246172,0.128,,,,0.30777472
1715826624421940540,0.072,,,,0.315469088
1715826624429634908,0.043,,,,0.323163456
1715826624437329276,0.004,,,,0.330857824
1715826624445023644,-0.038,,,,0.338552192
1715826624452718012,-0.043,,,,0.34624656
1715826624460412380,-0.024,,,,0.353940928
1715826624468106748,-0.05,,,,0.361635296
1715826624475801116,-0.067,,,,0.369329664
1715826624483495484,-0.033,,,,0.377024032
1715826624491189852,-0.033,,,,0.3847184
1715826624498884220,-0.06,,,,0.392412768
1715826624506578588,-0.048,,,,0.400107136
1715826624514272956,-0.041,,,,0.407801504
1715826624521967324,-0.043,,,,0.415495872
1715826624529661692,-0.038,,,,0.42319024
1715826624537356060,-0.036,,,,0.430884608
1715826624545050428,-0.033,,,,0.438578976
1715826624552744796,-0.026,,,,0.446273344
1715826624560439164,-0.021,,,,0.453967712
1715826624568133532,-0.019,,,,0.46166208
1715826624575827900,-0.019,,,,0.469356448
1715826624583522268,-0.012,,,,0.477050816
1715826624591216636,-0.004,,,,0.484745184
1715826624598911004,0.0,,,,0.492439552
1715826624606605372,0.009,,,,0.50013392
1715826624614299740,0.012,,,,0.507828288
1715826624621994108,0.009,,,,0.515522656
1715826624629688476,0.002,,,,0.523217024
1715826624637382844,0.004,,,,0.530911392
1715826624645077212,0.021,,,,0.53860576
1715826624652771580,0.026,,,,0.546300128
1715826624660465948,0.024,,,,0.553994496
1715826624668160328,0.029,,,,0.561688876
1715826624675854905,0.033,,,,0.569383453
1715826624683549482,0.031,,,,0.57707803
1715826624691244059,0.024,,,,0.584772607
1715826624698938636,0.019,,,,0.592467184
1715826624706633213,0.029,,,,0.600161761
1715826624714327790,0.029,,,,0.607856338
1715826624722022367,0.024,,,,0.615550915
1715826624729716944,0.024,,,,0.623245492
1715826624737411521,0.029,,,,0.630940069
1715826624745106098,0.031,,,,0.638634646
1715826624752800675,0.026,,,,0.646329223
1715826624760495252,0.029,,,,0.6540238
1715826624768189829,0.036,,,,0.661718377
1715826624775884406,0.036,,,,0.669412954
1715826624783578983,0.036,,,,0.677107531
1715826624791273560,0.041,,,,0.684802108
1715826624798968137,0.045,,,,0.692496685
1715826624806662714,0.045,,,,0.700191262
1715826624814357291,0.045,,,,0.707885839
1715826624822051868,0.05,,,,0.715580416
1715826624829746445,0.058,,,,0.723274993
1715826624837441022,0.058,,,,0.73096957
1715826624845135599,0.058,,,,0.738664147
1715826624852830176,0.06,,,,0.746358724
1715826624860524753,0.058,,,,0.754053301
1715826624868219330,0.058,,,,0.761747878
1715826624875913907,0.074,,,,0.769442455
1715826624883608484,0.111,,,,0.777137032
1715826624891303061,0.132,,,,0.784831609
1715826624898997638,0.128,,,,0.792526186
1715826624906692215,0.125,,,,0.800220763
1715826624914386792,0.118,,,,0.80791534
1715826624922081369,0.084,,,,0.815609917
1715826624929775946,0.055,,,,0.823304494
1715826624937470523,0.065,,,,0.830999071
1715826624945165100,0.079,,,,0.838693648
1715826624952859677,0.065,,,,0.846388225
1715826624960554254,0.055,,,,0.854082802
1715826624968248831,0.065,,,,0.861777379
1715826624975943408,0.07,,,,0.869471956
1715826624983637985,0.06,,,,0.877166533
1715826624991332562,0.029,,,,0.88486111
1715826624999027139,0.145,,,,0.892555687
1715826625006721716,0.749,,,,0.900250264
1715826625014416293,1.621,,,,0.907944841
1715826625022110870,1.645,,,,0.915639418
1715826625029805447,0.265,,,,0.923333995
1715826625037500024,-0.804,,,,0.931028572
1715826625045194601,-0.275,,,,0.938723149
1715826625052889178,0.222,,,,0.946417726
1715826625060583755,-0.077,,,,0.954112303
1715826625068278332,-0.111,,,,0.96180688
1715826625075972909,0.062,,,,0.969501457
1715826625083667486,-0.002,,,,0.977196034
1715826625091362063,-0.038,,,,0.984890611
1715826625099056640,0.031,,,,0.992585188
1715826625106751217,0.033,,,,1.000279765
1715826625114445794,0.014,,,,1.007974342
1715826625122140371,0.043,,,,1.015668919
1715826625129834948,0.053,,,,1.023363496
1715826625137529525,0.041,,,,1.031058073
1715826625145224102,0.055,,,,1.03875265
1715826625152918679,0.065,,,,1.046447227
1715826625160613256,0.062,,,,1.054141804
1715826625168307833,0.072,,,,1.061836381
1715826625176002410,0.084,,,,1.069530958
1715826625183696987,0.091,,,,1.077225535
1715826625191391564,0.106,,,,1.084920112
1715826625199086141,0.12,,,,1.092614689
1715826625206780718,0.132,,,,1.100309266
1715826625214475295,0.147,,,,1.108003843
1715826625222169872,0.171,,,,1.11569842
1715826625229864464,0.2,67.0,860.0,,1.123393012
1715826625237558762,0.234,,,,1.13108731
1715826625245253060,0.273,,,,1.138781608
1715826625252947358,0.299,,,,1.146475906
1715826625260641656,0.314,,,,1.154170204
1715826625268335954,0.323,,,,1.161864502
1715826625276030252,0.323,,,,1.1695588
1715826625283724550,0.309,,,,1.177253098
1715826625291418848,0.273,,,,1.184947396
1715826625299113146,0.217,,,,1.192641694
1715826625306807444,0.166,,,,1.200335992
1715826625314501742,0.108,,,,1.20803029
1715826625322196040,0.055,,,,1.215724588
1715826625329890338,0.024,,,,1.223418886
1715826625337584636,-0.012,,,,1.231113184
1715826625345278934,-0.041,,,,1.238807482
1715826625352973232,-0.048,,,,1.24650178
1715826625360667530,-0.05,,,,1.254196078
1715826625368361828,-0.062,,,,1.261890376
1715826625376056126,-0.062,,,,1.269584674
1715826625383750424,-0.05,,,,1.277278972
1715826625391444722,-0.043,,,,1.28497327
1715826625399139020,-0.041,,,,1.292667568
1715826625406833318,-0.038,,,,1.300361866
1715826625414527616,-0.038,,,,1.308056164
1715826625422221914,-0.033,,,,1.315750462
1715826625429916212,-0.024,,,,1.32344476
1715826625437610510,-0.019,,,,1.331139058
1715826625445304808,-0.014,,,,1.338833356
1715826625452999106,-0.016,,,,1.346527654
1715826625460693404,-0.021,,,,1.354221952
1715826625468387702,-0.012,,,,1.36191625
1715826625476082000,-0.002,,,,1.369610548
1715826625483776298,0.004,,,,1.377304846
1715826625491470596,0.009,,,,1.384999144
1715826625499164894,0.007,,,,1.392693442
1715826625506859192,-0.002,,,,1.40038774
1715826625514553490,-0.007,,,,1.408082038
1715826625522247788,0.002,,,,1.415776336
1715826625529942086,0.012,,,,1.423470634
1715826625537636384,0.014,,,,1.431164932
1715826625545330682,0.019,,,,1.43885923
1715826625553024980,0.026,,,,1.446553528
1715826625560719278,0.026,,,,1.454247826
1715826625568413576,0.031,,,,1.461942124
1715826625576107874,0.038,,,,1.469636422
1715826625583802172,0.038,,,,1.47733072
1715826625591496470,0.033,,,,1.485025018
1715826625599190768,0.029,,,,1.492719316
1715826625606885066,0.031,,,,1.500413614
1715826625614579364,0.038,,,,1.508107912
1715826625622273662,0.048,,,,1.51580221
1715826625629967960,0.05,,,,1.523496508
1715826625637662258,0.05,,,,1.531190806
1715826625645356556,0.05,,,,1.538885104
1715826625653050854,0.05,,,,1.546579402
1715826625660745152,0.058,,,,1.5542737
1715826625668439450,0.065,,,,1.561967998
1715826625676133748,0.06,,,,1.569662296
1715826625683828046,0.062,,,,1.577356594
1715826625691522344,0.07,,,,1.585050892
1715826625699216642,0.06,,,,1.59274519
1715826625706910940,0.038,,,,1.600439488
1715826625714605238,0.033,,,,1.608133786
1715826625722299536,0.053,,,,1.615828084
1715826625729993834,0.06,,,,1.623522382
1715826625737688132,0.05,,,,1.63121668
1715826625745382430,0.055,,,,1.638910978
1715826625753076728,0.065,,,,1.646605276
1715826625760771026,0.067,,,,1.654299574
1715826625768465324,0.07,,,,1.661993872
1715826625776159622,0.067,,,,1.66968817
1715826625783853920,0.06,,,,1.677382468
1715826625791548254,0.062,,,,1.685076802
1715826625799242900,0.067,,,,1.692771448
1715826625806937546,0.062,,,,1.700466094
1715826625814632192,0.065,,,,1.70816074
1715826625822326838,0.087,,,,1.715855386
1715826625830021484,0.106,,,,1.723550032
1715826625837716130,0.12,,,,1.731244678
1715826625845410776,0.132,,,,1.738939324
1715826625853105422,0.137,,,,1.74663397
1715826625860800068,0.113,,,,1.754328616
1715826625868494714,0.079,,,,1.762023262
1715826625876189360,0.06,,,,1.769717908
1715826625883884006,0.055,,,,1.777412554
1715826625891578652,0.058,,,,1.7851072
1715826625899273298,0.067,,,,1.792801846
1715826625906967944,0.077,,,,1.800496492
1715826625914662590,0.072,,,,1.808191138
1715826625922357236,0.065,,,,1.815885784
1715826625930051882,0.06,,,,1.82358043
1715826625937746528,0.026,,,,1.831275076
1715826625945441174,0.125,,,,1.838969722
1715826625953135820,0.674,,,,1.846664368
1715826625960830466,1.5,,,,1.854359014
1715826625968525112,1.573,,,,1.86205366
1715826625976219758,0.292,,,,1.869748306
1715826625983914404,-0.754,,,,1.877442952
1715826625991609050,-0.285,,,,1.885137598
1715826625999303696,0.198,,,,1.892832244
1715826626006998342,-0.07,,,,1.90052689
1715826626014692988,-0.13,,,,1.908221536
1715826626022387634,0.016,,,,1.915916182
1715826626030082280,-0.019,,,,1.923610828
1715826626037776926,-0.05,,,,1.931305474
1715826626045471572,0.002,,,,1.93900012
1715826626053166218,0.009,,,,1.946694766
1715826626060860864,0.002,,,,1.954389412
1715826626068555510,0.024,,,,1.962084058
1715826626076250156,0.029,,,,1.969778704
1715826626083944802,0.024,,,,1.97747335
1715826626091639448,0.043,,,,1.985167996
1715826626099334094,0.055,,,,1.992862642
1715826626107028740,0.058,,,,2.000557288
1715826626114723386,0.07,,,,2.008251934
1715826626122418032,0.087,,,,2.01594658
1715826626130112678,0.101,,,,2.023641226
1715826626137807324,0.113,,,,2.031335872
1715826626145501970,0.13,,,,2.039030518
1715826626153196616,0.147,,,,2.046725164
1715826626160891262,0.169,,,,2.05441981
1715826626168585908,0.2,,,,2.062114456
1715826626176280554,0.234,,,,2.069809102
1715826626183975200,0.261,,,,2.077503748
1715826626191669846,0.282,,,,2.085198394
1715826626199364492,0.299,,,,2.09289304
1715826626207059138,0.311,,,,2.100587686
1715826626214753784,0.314,,,,2.108282332
1715826626222448430,0.311,,,,2.115976978
1715826626230143076,0.304,,,,2.123671624
1715826626237837722,0.282,,,,2.13136627
1715826626245532368,0.241,,,,2.139060916
1715826626253227014,0.188,,,,2.146755562
1715826626260921660,0.135,,,,2.154450208
1715826626268616306,0.089,,,,2.162144854
1715826626276310952,0.048,,,,2.1698395
1715826626284005598,0.014,,,,2.177534146
1715826626291700244,-0.009,,,,2.185228792
1715826626299394890,-0.026,,,,2.192923438
1715826626307089536,-0.031,,,,2.200618084
1715826626314784182,-0.031,,,,2.20831273
1715826626322478828,-0.036,,,,2.216007376
1715826626330173474,-0.036,,,,2.223702022
1715826626337868120,-0.041,,,,2.231396668
1715826626345562766,-0.033,,,,2.239091314
1715826626353257474,-0.024,68.0,905.0,,2.246786022
1715826626360951842,-0.024,,,,2.25448039
1715826626368646210,-0.016,,,,2.262174758
1715826626376340578,-0.009,,,,2.269869126
1715826626384034946,-0.007,,,,2.277563494
1715826626391729314,-0.009,,,,2.285257862
1715826626399423682,-0.012,,,,2.29295223
1715826626407118050,-0.007,,,,2.300646598
1715826626414812418,0.002,,,,2.308340966
1715826626422506786,0.0,,,,2.316035334
1715826626430201154,0.0,,,,2.323729702
1715826626437895522,0.0,,,,2.33142407
1715826626445589890,0.002,,,,2.339118438
1715826626453284258,0.004,,,,2.346812806
1715826626460978626,0.009,,,,2.354507174
1715826626468672994,0.012,,,,2.362201542
1715826626476367362,0.012,,,,2.36989591
1715826626484061730,0.014,,,,2.377590278
1715826626491756098,0.014,,,,2.385284646
1715826626499450466,0.016,,,,2.392979014
1715826626507144834,0.026,,,,2.400673382
1715826626514839202,0.026,,,,2.40836775
1715826626522533570,0.021,,,,2.416062118
1715826626530227938,0.026,,,,2.423756486
1715826626537922306,0.036,,,,2.431450854
1715826626545616674,0.041,,,,2.439145222
1715826626553311042,0.041,,,,2.44683959
1715826626561005410,0.041,,,,2.454533958
1715826626568699778,0.043,,,,2.462228326
1715826626576394146,0.041,,,,2.469922694
1715826626584088514,0.045,,,,2.477617062
1715826626591782882,0.06,,,,2.48531143
1715826626599477250,0.062,,,,2.493005798
1715826626607171618,0.053,,,,2.500700166
1715826626614865986,0.048,,,,2.508394534
1715826626622560354,0.053,,,,2.516088902
1715826626630254722,0.062,,,,2.52378327
1715826626637949090,0.067,,,,2.531477638
1715826626645643458,0.062,,,,2.539172006
1715826626653337826,0.062,,,,2.546866374
1715826626661032194,0.065,,,,2.554560742
1715826626668726562,0.07,,,,2.56225511
1715826626676420930,0.072,,,,2.569949478
1715826626684115298,0.072,,,,2.577643846
1715826626691809666,0.062,,,,2.585338214
1715826626699504034,0.055,,,,2.593032582
1715826626707198402,0.067,,,,2.60072695
1715826626714892770,0.065,,,,2.608421318
1715826626722587138,0.048,,,,2.616115686
1715826626730281506,0.045,,,,2.623810054
1715826626737975874,0.053,,,,2.631504422
1715826626745670242,0.058,,,,2.63919879
1715826626753364610,0.06,,,,2.646893158
1715826626761058978,0.062,,,,2.654587526
1715826626768753346,0.072,,,,2.662281894
1715826626776447714,0.074,,,,2.669976262
1715826626784142082,0.062,,,,2.67767063
1715826626791836450,0.043,,,,2.685364998
1715826626799530818,0.041,,,,2.693059366
1715826626807225186,0.067,,,,2.700753734
1715826626814919554,0.094,,,,2.708448102
1715826626822613922,0.099,,,,2.71614247
1715826626830308290,0.111,,,,2.723836838
1715826626838002658,0.123,,,,2.731531206
1715826626845697026,0.12,,,,2.739225574
1715826626853391394,0.091,,,,2.746919942
1715826626861085762,0.048,,,,2.75461431
1715826626868780130,0.038,,,,2.762308678
1715826626876474498,0.048,,,,2.770003046
1715826626884168866,0.043,,,,2.777697414
1715826626891863234,0.043,,,,2.785391782
1715826626899557602,0.053,,,,2.79308615
1715826626907251970,0.055,,,,2.800780518
1715826626914946350,0.055,,,,2.808474898
1715826626922640718,0.036,,,,2.816169266
1715826626930335086,0.021,,,,2.823863634
1715826626938029454,0.28,,,,2.831558002
1715826626945723822,1.075,,,,2.83925237
1715826626953418190,1.778,,,,2.846946738
1715826626961112558,1.135,,,,2.854641106
1715826626968806926,-0.439,,,,2.862335474
1715826626976501294,-0.795,,,,2.870029842
1715826626984195662,0.009,,,,2.87772421
1715826626991890030,0.113,,,,2.885418578
1715826626999584398,-0.188,,,,2.893112946
1715826627007278766,-0.05,,,,2.900807314
1715826627014973134,0.043,,,,2.908501682
1715826627022667502,-0.043,,,,2.91619605
1715826627030361870,-0.009,,,,2.923890418
1715826627038056238,0.045,,,,2.931584786
1715826627045750606,0.009,,,,2.939279154
1715826627053444974,0.0,,,,2.946973522
1715826627061139342,0.036,,,,2.95466789
1715826627068833710,0.053,,,,2.962362258
1715826627076528078,0.055,,,,2.970056626
1715826627084222446,0.06,,,,2.977750994
1715826627091916814,0.065,,,,2.985445362
1715826627099611182,0.087,,,,2.99313973
1715826627107305550,0.111,,,,3.000834098
1715826627114999918,0.103,,,,3.008528466
1715826627122694286,0.099,,,,3.016222834
1715826627130388654,0.135,,,,3.023917202
1715826627138083022,0.164,,,,3.03161157
1715826627145777390,0.183,,,,3.039305938
1715826627153471758,0.21,,,,3.047000306
1715826627161166126,0.236,,,,3.054694674
1715826627168860494,0.258,,,,3.062389042
1715826627176554862,0.282,,,,3.07008341
1715826627184249230,0.304,,,,3.077777778
1715826627191943598,0.309,,,,3.085472146
1715826627199637966,0.321,,,,3.093166514
1715826627207332334,0.35,,,,3.100860882
1715826627215026702,0.36,,,,3.10855525
1715826627222721070,0.326,,,,3.116249618
1715826627230415438,0.261,,,,3.123943986
1715826627238109806,0.195,,,,3.131638354
1715826627245804174,0.164,,,,3.139332722
1715826627253498542,0.135,,,,3.14702709
1715826627261192910,0.077,,,,3.154721458
1715826627268887278,0.016,,,,3.162415826
1715826627276581646,-0.009,,,,3.170110194
1715826627284276014,-0.019,,,,3.177804562
1715826627291970382,-0.036,,,,3.18549893
1715826627299664750,-0.043,,,,3.193193298
1715826627307359118,-0.033,,,,3.200887666
1715826627315053486,-0.019,,,,3.208582034
1715826627322747854,-0.014,,,,3.216276402
1715826627330442222,-0.021,,,,3.22397077
1715826627338136590,-0.031,,,,3.231665138
1715826627345830958,-0.033,,,,3.239359506
1715826627353525326,-0.026,,,,3.247053874
1715826627361219694,-0.016,,,,3.254748242
1715826627368914062,-0.002,,,,3.26244261
1715826627376608430,-0.002,,,,3.270136978
1715826627384302798,-0.002,,,,3.277831346
1715826627391997166,0.019,,,,3.285525714
1715826627399691534,0.026,,,,3.293220082
1715826627407385902,0.007,,,,3.30091445
1715826627415080270,-0.002,,,,3.308608818
1715826627422774638,0.004,,,,3.316303186
1715826627430469006,0.024,,,,3.323997554
1715826627438163374,0.041,,,,3.331691922
1715826627445857742,0.031,,,,3.33938629
1715826627453552110,0.004,,,,3.347080658
1715826627461246478,0.009,,,,3.354775026
1715826627468940846,0.029,,,,3.362469394
1715826627476635228,0.026,68.0,900.0,,3.370163776
1715826627484329596,0.021,,,,3.377858144
1715826627492023964,0.033,,,,3.385552512
1715826627499718332,0.041,,,,3.39324688
1715826627507412700,0.038,,,,3.400941248
1715826627515107068,0.024,,,,3.408635616
1715826627522801436,0.016,,,,3.416329984
1715826627530495804,0.029,,,,3.424024352
1715826627538190172,0.029,,,,3.43171872
1715826627545884540,0.016,,,,3.439413088
1715826627553578908,0.021,,,,3.447107456
1715826627561273276,0.033,,,,3.454801824
1715826627568967644,0.041,,,,3.462496192
1715826627576662012,0.038,,,,3.47019056
1715826627584356380,0.041,,,,3.477884928
1715826627592050748,0.05,,,,3.485579296
1715826627599745116,0.053,,,,3.493273664
1715826627607439484,0.053,,,,3.500968032
1715826627615133852,0.053,,,,3.5086624
1715826627622828220,0.053,,,,3.516356768
1715826627630522588,0.06,,,,3.524051136
1715826627638216956,0.065,,,,3.531745504
1715826627645911324,0.062,,,,3.539439872
1715826627653605692,0.067,,,,3.54713424
1715826627661300060,0.067,,,,3.554828608
1715826627668994428,0.06,,,,3.562522976
1715826627676688796,0.05,,,,3.570217344
1715826627684383164,0.048,,,,3.577911712
1715826627692077532,0.053,,,,3.58560608
1715826627699771900,0.058,,,,3.593300448
1715826627707466268,0.062,,,,3.600994816
1715826627715160636,0.055,,,,3.608689184
1715826627722855004,0.05,,,,3.616383552
1715826627730549372,0.05,,,,3.62407792
1715826627738243740,0.045,,,,3.631772288
1715826627745938108,0.041,,,,3.639466656
1715826627753632476,0.038,,,,3.647161024
1715826627761326844,0.038,,,,3.654855392
1715826627769021212,0.058,,,,3.66254976
1715826627776715580,0.079,,,,3.670244128
1715826627784409948,0.087,,,,3.677938496
1715826627792104316,0.094,,,,3.685632864
1715826627799798684,0.099,,,,3.693327232
1715826627807493052,0.077,,,,3.7010216
1715826627815187420,0.043,,,,3.708715968
1715826627822881788,0.026,,,,3.716410336
1715826627830576156,0.029,,,,3.724104704
1715826627838270524,0.036,,,,3.731799072
1715826627845964892,0.038,,,,3.73949344
1715826627853659260,0.045,,,,3.747187808
1715826627861353628,0.048,,,,3.754882176
1715826627869047996,0.045,,,,3.762576544
1715826627876742364,0.033,,,,3.770270912
1715826627884436732,0.009,,,,3.77796528
1715826627892131100,0.171,,,,3.785659648
1715826627899825468,0.812,,,,3.793354016
1715826627907519836,1.604,,,,3.801048384
1715826627915214204,1.392,,,,3.808742752
1715826627922908572,-0.05,,,,3.81643712
1715826627930602940,-0.8140000000000001,,,,3.824131488
1715826627938297308,-0.152,,,,3.831825856
1715826627945991676,0.176,,,,3.839520224
1715826627953686044,-0.132,,,,3.847214592
1715826627961380412,-0.089,,,,3.85490896
1715826627969074780,0.06,,,,3.862603328
1715826627976769148,-0.016,,,,3.870297696
1715826627984463516,-0.031,,,,3.877992064
1715826627992157884,0.036,,,,3.885686432
1715826627999852252,0.021,,,,3.8933808
1715826628007546620,-0.002,,,,3.901075168
1715826628015240988,0.019,,,,3.908769536
1715826628022935356,0.024,,,,3.916463904
1715826628030629724,0.012,,,,3.924158272
1715826628038324104,0.038,68.0,946.0,,3.931852652
1715826628046018472,0.082,,,,3.93954702
1715826628053712840,0.082,,,,3.947241388
1715826628061407208,0.074,,,,3.954935756
1715826628069101576,0.07,,,,3.962630124
1715826628076795944,0.016,,,,3.970324492
1715826628084490312,0.029,,,,3.97801886
1715826628092184680,0.176,,,,3.985713228
1715826628099879048,0.227,,,,3.993407596
1715826628107573416,0.166,,,,4.001101964
1715826628115267784,0.224,,,,4.008796332
1715826628122962152,0.304,,,,4.0164907
1715826628130656520,0.277,,,,4.024185068
1715826628138350888,0.268,,,,4.031879436
1715826628146045256,0.304,,,,4.039573804
1715826628153739624,0.314,,,,4.047268172
1715826628161433992,0.304,,,,4.05496254
1715826628169128360,0.309,,,,4.062656908
1715826628176822728,0.292,,,,4.070351276
1715826628184517096,0.241,,,,4.078045644
1715826628192211464,0.186,,,,4.085740012
1715826628199905832,0.152,,,,4.09343438
1715826628207600200,0.145,,,,4.101128748
1715826628215294568,0.113,,,,4.108823116
1715826628222988936,0.055,,,,4.116517484
1715826628230683304,0.009,,,,4.124211852
1715826628238377672,-0.019,,,,4.13190622
1715826628246072040,-0.033,,,,4.139600588
1715826628253766408,-0.05,,,,4.147294956
1715826628261460776,-0.055,,,,4.154989324
1715826628269155144,-0.048,,,,4.162683692
1715826628276849512,-0.048,,,,4.17037806
1715826628284543880,-0.019,,,,4.178072428
1715826628292238248,0.004,,,,4.185766796
1715826628299932616,-0.016,,,,4.193461164
1715826628307626984,-0.029,,,,4.201155532
1715826628315321352,-0.012,,,,4.2088499
1715826628323015720,-0.009,,,,4.216544268
1715826628330710088,-0.016,,,,4.224238636
1715826628338404456,0.004,,,,4.231933004
1715826628346098824,0.033,,,,4.239627372
1715826628353793192,0.026,,,,4.24732174
1715826628361487560,0.014,,,,4.255016108
1715826628369181928,0.019,,,,4.262710476
1715826628376876296,0.031,,,,4.270404844
1715826628384570664,0.048,,,,4.278099212
1715826628392265032,0.048,,,,4.28579358
1715826628399959400,0.029,,,,4.293487948
1715826628407653768,0.033,,,,4.301182316
1715826628415348136,0.024,,,,4.308876684
1715826628423042504,0.004,,,,4.316571052
1715826628430736872,0.024,,,,4.32426542
1715826628438431240,0.053,,,,4.331959788
1715826628446125608,0.048,,,,4.339654156
1715826628453819976,0.053,,,,4.347348524
1715826628461514344,0.065,,,,4.355042892
1715826628469208712,0.055,,,,4.36273726
1715826628476903080,0.038,,,,4.370431628
1715826628484597448,0.045,,,,4.378125996
1715826628492291816,0.072,,,,4.385820364
1715826628499986184,0.053,,,,4.393514732
1715826628507680552,0.031,,,,4.4012091
1715826628515374920,0.07,,,,4.408903468
1715826628523069288,0.087,,,,4.416597836
1715826628530763656,0.05,,,,4.424292204
1715826628538458024,0.062,,,,4.431986572
1715826628546152392,0.116,,,,4.43968094
1715826628553846760,0.101,,,,4.447375308
1715826628561541128,0.05,,,,4.455069676
1715826628569235496,0.067,,,,4.462764044
1715826628576929864,0.091,,,,4.470458412
1715826628584624232,0.053,,,,4.47815278
1715826628592318600,0.043,,,,4.485847148
1715826628600012980,0.091,,,,4.493541528
1715826628607707348,0.116,,,,4.501235896
1715826628615401716,0.096,,,,4.508930264
1715826628623096084,0.074,,,,4.516624632
1715826628630790452,0.074,,,,4.524319
1715826628638484820,0.074,,,,4.532013368
1715826628646179188,0.06,,,,4.539707736
1715826628653873556,0.053,,,,4.547402104
1715826628661567924,0.055,,,,4.555096472
1715826628669262292,0.053,,,,4.56279084
1715826628676956660,0.045,,,,4.570485208
1715826628684651028,0.038,,,,4.578179576
1715826628692345396,0.043,,,,4.585873944
1715826628700039764,0.043,,,,4.593568312
1715826628707734132,0.043,,,,4.60126268
1715826628715428500,0.053,,,,4.608957048
1715826628723122868,0.053,,,,4.616651416
1715826628730817236,0.036,,,,4.624345784
1715826628738511604,0.033,,,,4.632040152
1715826628746205972,0.07,,,,4.63973452
1715826628753900340,0.108,,,,4.647428888
1715826628761594708,0.108,,,,4.655123256
1715826628769289076,0.108,,,,4.662817624
1715826628776983444,0.113,,,,4.670511992
1715826628784677812,0.087,,,,4.67820636
1715826628792372180,0.05,,,,4.685900728
1715826628800066548,0.053,,,,4.693595096
1715826628807760916,0.065,,,,4.701289464
1715826628815455284,0.058,,,,4.708983832
1715826628823149652,0.055,,,,4.7166782
1715826628830844020,0.067,,,,4.724372568
1715826628838538388,0.082,,,,4.732066936
1715826628846232756,0.079,,,,4.739761304
1715826628853927124,0.048,,,,4.747455672
1715826628861621492,0.089,,,,4.75515004
1715826628869315860,0.485,,,,4.762844408
1715826628877010228,1.244,,,,4.770538776
1715826628884704596,1.575,,,,4.778233144
1715826628892398964,0.616,,,,4.785927512
1715826628900093332,-0.642,,,,4.79362188
1715826628907787700,-0.488,,,,4.801316248
1715826628915482068,0.188,,,,4.809010616
1715826628923176436,0.074,,,,4.816704984
1715826628930870804,-0.089,,,,4.824399352
1715826628938565172,0.067,,,,4.83209372
1715826628946259540,0.07,,,,4.839788088
1715826628953953908,0.0,,,,4.847482456
1715826628961648276,0.043,,,,4.855176824
1715826628969342644,0.07,,,,4.862871192
1715826628977037012,0.058,,,,4.87056556
1715826628984731380,0.079,,,,4.878259928
1715826628992425748,0.113,,,,4.885954296
1715826629000120116,0.108,,,,4.893648664
1715826629007814484,0.108,,,,4.901343032
1715826629015508852,0.137,,,,4.9090374
1715826629023203220,0.152,,,,4.916731768
1715826629030897588,0.149,,,,4.924426136
1715826629038591956,0.149,,,,4.932120504
1715826629046286324,0.166,,,,4.939814872
1715826629053980692,0.195,,,,4.94750924
1715826629061675060,0.205,,,,4.955203608
1715826629069369428,0.207,,,,4.962897976
1715826629077063796,0.234,,,,4.970592344
1715826629084758164,0.27,,,,4.978286712
1715826629092452532,0.29,,,,4.98598108
1715826629100146900,0.311,,,,4.993675448
1715826629107841268,0.348,,,,5.001369816
1715826629115535636,0.372,,,,5.009064184
1715826629123230004,0.377,,,,5.016758552
1715826629130924372,0.398,,,,5.02445292
1715826629138618740,0.415,,,,5.032147288
1715826629146313108,0.408,,,,5.039841656
1715826629154007476,0.384,,,,5.047536024
1715826629161701856,0.335,67.0,989.0,,5.055230404
1715826629169396224,0.28,,,,5.062924772
1715826629177090592,0.236,,,,5.07061914
1715826629184784960,0.183,,,,5.078313508
1715826629192479328,0.13,,,,5.086007876
1715826629200173696,0.096,,,,5.093702244
1715826629207868064,0.065,,,,5.101396612
1715826629215562432,0.026,,,,5.10909098
1715826629223256800,-0.002,,,,5.116785348
1715826629230951168,0.002,,,,5.124479716
1715826629238645536,0.004,,,,5.132174084
1715826629246339904,-0.024,,,,5.139868452
1715826629254034272,-0.031,,,,5.14756282
1715826629261728640,-0.009,,,,5.155257188
1715826629269423008,0.002,,,,5.162951556
1715826629277117376,0.002,,,,5.170645924
1715826629284811744,0.007,,,,5.178340292
1715826629292506112,0.014,,,,5.18603466
1715826629300200480,0.019,,,,5.193729028
1715826629307894848,0.021,,,,5.201423396
1715826629315589216,0.024,,,,5.209117764
1715826629323283584,0.033,,,,5.216812132
1715826629330977952,0.041,,,,5.2245065
1715826629338672320,0.033,,,,5.232200868
1715826629346366688,0.036,,,,5.239895236
1715826629354061056,0.05,,,,5.247589604
1715826629361755424,0.05,,,,5.255283972
1715826629369449792,0.036,,,,5.26297834
1715826629377144160,0.045,,,,5.270672708
1715826629384838528,0.065,,,,5.278367076
1715826629392532896,0.067,,,,5.286061444
1715826629400227264,0.055,,,,5.293755812
1715826629407921632,0.053,,,,5.30145018
1715826629415616000,0.048,,,,5.309144548
1715826629423310368,0.043,,,,5.316838916
1715826629431004736,0.05,,,,5.324533284
1715826629438699104,0.05,,,,5.332227652
1715826629446393472,0.043,,,,5.33992202
1715826629454087840,0.055,,,,5.347616388
1715826629461782208,0.074,,,,5.355310756
1715826629469476576,0.077,,,,5.363005124
1715826629477170944,0.074,,,,5.370699492
1715826629484865312,0.074,,,,5.37839386
1715826629492559680,0.072,,,,5.386088228
1715826629500254048,0.06,,,,5.393782596
1715826629507948416,0.06,,,,5.401476964
1715826629515642784,0.084,,,,5.409171332
1715826629523337152,0.082,,,,5.4168657
1715826629531031520,0.058,,,,5.424560068
1715826629538725888,0.06,,,,5.432254436
1715826629546420256,0.089,,,,5.439948804
1715826629554114624,0.091,,,,5.447643172
1715826629561808992,0.072,,,,5.45533754
1715826629569503360,0.077,,,,5.463031908
1715826629577197728,0.079,,,,5.470726276
1715826629584892096,0.065,,,,5.478420644
1715826629592586464,0.07,,,,5.486115012
1715826629600280832,0.074,,,,5.49380938
1715826629607975200,0.072,,,,5.501503748
1715826629615669568,0.074,,,,5.509198116
1715826629623363936,0.07,,,,5.516892484
1715826629631058304,0.082,,,,5.524586852
1715826629638752672,0.106,,,,5.53228122
1715826629646447040,0.089,,,,5.539975588
1715826629654141408,0.058,,,,5.547669956
1715826629661835776,0.06,,,,5.555364324
1715826629669530144,0.091,,,,5.563058692
1715826629677224512,0.12,,,,5.57075306
1715826629684918880,0.123,,,,5.578447428
1715826629692613248,0.128,,,,5.586141796
1715826629700307616,0.125,,,,5.593836164
1715826629708001984,0.101,,,,5.601530532
1715826629715696352,0.072,,,,5.6092249
1715826629723390732,0.06,,,,5.61691928
1715826629731085100,0.067,,,,5.624613648
1715826629738779468,0.067,,,,5.632308016
1715826629746473836,0.058,,,,5.640002384
1715826629754168204,0.045,,,,5.647696752
1715826629761862572,0.038,,,,5.65539112
1715826629769556940,0.05,,,,5.663085488
1715826629777251308,0.038,,,,5.670779856
1715826629784945676,0.062,,,,5.678474224
1715826629792640044,0.466,,,,5.686168592
1715826629800334412,1.312,,,,5.69386296
1715826629808028780,1.713,,,,5.701557328
1715826629815723148,0.647,,,,5.709251696
1715826629823417516,-0.756,,,,5.716946064
1715826629831111884,-0.5650000000000001,,,,5.724640432
1715826629838806252,0.186,,,,5.7323348
1715826629846500620,0.036,,,,5.740029168
1715826629854194988,-0.132,,,,5.747723536
1715826629861889356,0.058,,,,5.755417904
1715826629869583724,0.058,,,,5.763112272
1715826629877278092,-0.024,,,,5.77080664
1715826629884972460,0.026,,,,5.778501008
1715826629892666828,0.05,,,,5.786195376
1715826629900361196,0.033,,,,5.793889744
1715826629908055564,0.058,,,,5.801584112
1715826629915749932,0.087,,,,5.80927848
1715826629923444300,0.077,,,,5.816972848
1715826629931138668,0.072,,,,5.824667216
1715826629938833036,0.091,,,,5.832361584
1715826629946527404,0.116,,,,5.840055952
1715826629954221772,0.132,,,,5.84775032
1715826629961916140,0.132,,,,5.855444688
1715826629969610508,0.137,,,,5.863139056
1715826629977304876,0.166,,,,5.870833424
1715826629984999244,0.186,,,,5.878527792
1715826629992693612,0.195,,,,5.88622216
1715826630000387980,0.215,,,,5.893916528
1715826630008082348,0.244,,,,5.901610896
1715826630015776716,0.275,,,,5.909305264
1715826630023471084,0.304,,,,5.916999632
1715826630031165452,0.331,,,,5.924694
1715826630038859820,0.362,,,,5.932388368
1715826630046554188,0.379,,,,5.940082736
1715826630054248556,0.377,,,,5.947777104
1715826630061942924,0.372,,,,5.955471472
1715826630069637292,0.367,,,,5.96316584
1715826630077331660,0.35,,,,5.970860208
1715826630085026028,0.306,,,,5.978554576
1715826630092720396,0.248,,,,5.986248944
1715826630100414764,0.2,,,,5.993943312
1715826630108109132,0.161,,,,6.00163768
1715826630115803500,0.123,,,,6.009332048
1715826630123497868,0.079,,,,6.017026416
1715826630131192236,0.043,,,,6.024720784
1715826630138886604,0.009,,,,6.032415152
1715826630146580972,-0.014,,,,6.04010952
1715826630154275340,0.002,,,,6.047803888
1715826630161969708,0.021,,,,6.055498256
1715826630169664076,0.009,,,,6.063192624
1715826630177358444,0.004,,,,6.070886992
1715826630185052812,0.009,,,,6.07858136
1715826630192747180,0.009,,,,6.086275728
1715826630200441548,0.012,,,,6.093970096
1715826630208135916,0.016,,,,6.101664464
1715826630215830284,0.021,,,,6.109358832
1715826630223524652,0.029,,,,6.1170532
1715826630231219020,0.043,,,,6.124747568
1715826630238913388,0.045,,,,6.132441936
1715826630246607756,0.036,,,,6.140136304
1715826630254302124,0.036,,,,6.147830672
1715826630261996492,0.036,,,,6.15552504
1715826630269690860,0.029,,,,6.163219408
1715826630277385228,0.041,,,,6.170913776
1715826630285079608,0.048,67.0,956.0,,6.178608156
1715826630292773976,0.045,,,,6.186302524
1715826630300468344,0.048,,,,6.193996892
1715826630308162712,0.048,,,,6.20169126
1715826630315857080,0.045,,,,6.209385628
1715826630323551448,0.041,,,,6.217079996
1715826630331245816,0.036,,,,6.224774364
1715826630338940184,0.036,,,,6.232468732
1715826630346634552,0.041,,,,6.2401631
1715826630354328920,0.036,,,,6.247857468
1715826630362023288,0.031,,,,6.255551836
1715826630369717656,0.043,,,,6.263246204
1715826630377412024,0.05,,,,6.270940572
1715826630385106392,0.045,,,,6.27863494
1715826630392800760,0.043,,,,6.286329308
1715826630400495128,0.048,,,,6.294023676
1715826630408189496,0.05,,,,6.301718044
1715826630415883864,0.053,,,,6.309412412
1715826630423578232,0.045,,,,6.31710678
1715826630431272600,0.053,,,,6.324801148
1715826630438966968,0.062,,,,6.332495516
1715826630446661336,0.053,,,,6.340189884
1715826630454355704,0.053,,,,6.347884252
1715826630462050072,0.065,,,,6.35557862
1715826630469744440,0.07,,,,6.363272988
1715826630477438808,0.067,,,,6.370967356
1715826630485133176,0.07,,,,6.378661724
1715826630492827544,0.074,,,,6.386356092
1715826630500521912,0.074,,,,6.39405046
1715826630508216280,0.072,,,,6.401744828
1715826630515910648,0.077,,,,6.409439196
1715826630523605016,0.084,,,,6.417133564
1715826630531299384,0.079,,,,6.424827932
1715826630538993752,0.07,,,,6.4325223
1715826630546688120,0.07,,,,6.440216668
1715826630554382488,0.07,,,,6.447911036
1715826630562076856,0.062,,,,6.455605404
1715826630569771224,0.07,,,,6.463299772
1715826630577465592,0.103,,,,6.47099414
1715826630585159960,0.135,,,,6.478688508
1715826630592854328,0.137,,,,6.486382876
1715826630600548696,0.132,,,,6.494077244
1715826630608243064,0.13,,,,6.501771612
1715826630615937432,0.108,,,,6.50946598
1715826630623631800,0.065,,,,6.517160348
1715826630631326168,0.043,,,,6.524854716
1715826630639020536,0.048,,,,6.532549084
1715826630646714904,0.053,,,,6.540243452
1715826630654409272,0.055,,,,6.54793782
1715826630662103640,0.06,,,,6.555632188
1715826630669798008,0.07,,,,6.563326556
1715826630677492376,0.067,,,,6.571020924
1715826630685186744,0.029,,,,6.578715292
1715826630692881112,0.043,,,,6.58640966
1715826630700575480,0.422,,,,6.594104028
1715826630708269848,1.239,,,,6.601798396
1715826630715964216,1.708,,,,6.609492764
1715826630723658584,0.807,,,,6.617187132
1715826630731352952,-0.553,,,,6.6248815
1715826630739047320,-0.509,,,,6.632575868
1715826630746741688,0.154,,,,6.640270236
1715826630754436056,0.033,,,,6.647964604
1715826630762130424,-0.157,,,,6.655658972
1715826630769824792,0.004,,,,6.66335334
1715826630777519160,0.012,,,,6.671047708
1715826630785213528,-0.055,,,,6.678742076
1715826630792907896,0.004,,,,6.686436444
1715826630800602264,0.038,,,,6.694130812
1715826630808296632,0.016,,,,6.70182518
1715826630815991000,0.033,,,,6.709519548
1715826630823685368,0.058,,,,6.717213916
1715826630831379736,0.06,,,,6.724908284
1715826630839074104,0.058,,,,6.732602652
1715826630846768486,0.06,,,,6.740297034
1715826630854462854,0.077,,,,6.747991402
1715826630862157222,0.111,,,,6.75568577
1715826630869851590,0.128,,,,6.763380138
1715826630877545958,0.123,,,,6.771074506
1715826630885240326,0.13,,,,6.778768874
1715826630892934694,0.147,,,,6.786463242
1715826630900629062,0.154,,,,6.79415761
1715826630908323430,0.166,,,,6.801851978
1715826630916017798,0.203,,,,6.809546346
1715826630923712166,0.232,,,,6.817240714
1715826630931406534,0.253,,,,6.824935082
1715826630939100902,0.28,,,,6.83262945
1715826630946795270,0.304,,,,6.840323818
1715826630954489638,0.311,,,,6.848018186
1715826630962184006,0.314,,,,6.855712554
1715826630969878374,0.323,,,,6.863406922
1715826630977572742,0.328,,,,6.87110129
1715826630985267110,0.306,,,,6.878795658
1715826630992961478,0.263,,,,6.886490026
1715826631000655846,0.217,,,,6.894184394
1715826631008350214,0.171,,,,6.901878762
1715826631016044582,0.12,,,,6.90957313
1715826631023738950,0.07,,,,6.917267498
1715826631031433318,0.038,,,,6.924961866
1715826631039127686,0.016,,,,6.932656234
1715826631046822054,0.004,,,,6.940350602
1715826631054516422,-0.004,,,,6.94804497
1715826631062210790,-0.014,,,,6.955739338
1715826631069905158,-0.014,,,,6.963433706
1715826631077599526,-0.007,,,,6.971128074
1715826631085293894,-0.007,,,,6.978822442
1715826631092988262,-0.012,,,,6.98651681
1715826631100682630,-0.004,,,,6.994211178
1715826631108376998,0.007,,,,7.001905546
1715826631116071366,0.012,,,,7.009599914
1715826631123765734,0.009,,,,7.017294282
1715826631131460102,0.012,,,,7.02498865
1715826631139154470,0.016,,,,7.032683018
1715826631146848838,0.016,,,,7.040377386
1715826631154543206,0.016,,,,7.048071754
1715826631162237574,0.019,,,,7.055766122
1715826631169931942,0.029,,,,7.06346049
1715826631177626310,0.033,,,,7.071154858
1715826631185320678,0.026,,,,7.078849226
1715826631193015046,0.031,,,,7.086543594
1715826631200709414,0.05,,,,7.094237962
1715826631208403782,0.053,,,,7.10193233
1715826631216098150,0.045,,,,7.109626698
1715826631223792518,0.041,,,,7.117321066
1715826631231486886,0.038,,,,7.125015434
1715826631239181254,0.043,,,,7.132709802
1715826631246875622,0.048,,,,7.14040417
1715826631254569990,0.043,,,,7.148098538
1715826631262264358,0.033,,,,7.155792906
1715826631269958726,0.033,,,,7.163487274
1715826631277653094,0.041,,,,7.171181642
1715826631285347462,0.048,,,,7.17887601
1715826631293041830,0.055,,,,7.186570378
1715826631300736198,0.058,,,,7.194264746
1715826631308430566,0.053,,,,7.201959114
1715826631316124934,0.058,,,,7.209653482
1715826631323819302,0.055,,,,7.21734785
1715826631331513670,0.053,,,,7.225042218
1715826631339208038,0.062,,,,7.232736586
1715826631346902406,0.062,,,,7.240430954
1715826631354596774,0.06,,,,7.248125322
1715826631362291142,0.062,,,,7.25581969
1715826631369985510,0.058,,,,7.263514058
1715826631377679878,0.058,,,,7.271208426
1715826631385374246,0.065,,,,7.278902794
1715826631393068614,0.07,,,,7.286597162
1715826631400762982,0.07,,,,7.29429153
1715826631408457362,0.062,66.0,973.0,,7.30198591
1715826631416151730,0.065,,,,7.309680278
1715826631423846098,0.07,,,,7.317374646
1715826631431540466,0.074,,,,7.325069014
1715826631439234834,0.082,,,,7.332763382
1715826631446929202,0.077,,,,7.34045775
1715826631454623570,0.079,,,,7.348152118
1715826631462317938,0.082,,,,7.355846486
1715826631470012306,0.06,,,,7.363540854
1715826631477706674,0.058,,,,7.371235222
1715826631485401042,0.07,,,,7.37892959
1715826631493095410,0.07,,,,7.386623958
1715826631500789778,0.06,,,,7.394318326
1715826631508484146,0.053,,,,7.402012694
1715826631516178514,0.062,,,,7.409707062
1715826631523872882,0.089,,,,7.41740143
1715826631531567250,0.108,,,,7.425095798
1715826631539261618,0.12,,,,7.432790166
1715826631546955986,0.123,,,,7.440484534
1715826631554650354,0.108,,,,7.448178902
1715826631562344722,0.077,,,,7.45587327
1715826631570039090,0.043,,,,7.463567638
1715826631577733458,0.033,,,,7.471262006
1715826631585427826,0.043,,,,7.478956374
1715826631593122194,0.041,,,,7.486650742
1715826631600816562,0.029,,,,7.49434511
1715826631608510930,0.024,,,,7.502039478
1715826631616205298,0.029,,,,7.509733846
1715826631623899666,0.033,,,,7.517428214
1715826631631594034,0.007,,,,7.525122582
1715826631639288402,0.045,,,,7.53281695
1715826631646982770,0.449,,,,7.540511318
1715826631654677138,1.273,,,,7.548205686
1715826631662371506,1.66,,,,7.555900054
1715826631670065874,0.626,,,,7.563594422
1715826631677760242,-0.7000000000000001,,,,7.57128879
1715826631685454610,-0.507,,,,7.578983158
1715826631693148978,0.159,,,,7.586677526
1715826631700843346,-0.014,,,,7.594371894
1715826631708537714,-0.176,,,,7.602066262
1715826631716232082,0.016,,,,7.60976063
1715826631723926450,0.016,,,,7.617454998
1715826631731620818,-0.067,,,,7.625149366
1715826631739315186,-0.012,,,,7.632843734
1715826631747009554,0.024,,,,7.640538102
1715826631754703922,0.0,,,,7.64823247
1715826631762398290,0.0,,,,7.655926838
1715826631770092658,0.012,,,,7.663621206
1715826631777787026,0.026,,,,7.671315574
1715826631785481394,0.031,,,,7.679009942
1715826631793175762,0.031,,,,7.68670431
1715826631800870130,0.05,,,,7.694398678
1715826631808564498,0.074,,,,7.702093046
1715826631816258866,0.084,,,,7.709787414
1715826631823953234,0.094,,,,7.717481782
1715826631831647602,0.101,,,,7.72517615
1715826631839341970,0.108,,,,7.732870518
1715826631847036338,0.135,,,,7.740564886
1715826631854730706,0.164,,,,7.748259254
1715826631862425074,0.183,,,,7.755953622
1715826631870119442,0.205,,,,7.76364799
1715826631877813810,0.236,,,,7.771342358
1715826631885508178,0.263,,,,7.779036726
1715826631893202546,0.287,,,,7.786731094
1715826631900896914,0.321,,,,7.794425462
1715826631908591282,0.34,,,,7.80211983
1715826631916285650,0.335,,,,7.809814198
1715826631923980018,0.321,,,,7.817508566
1715826631931674386,0.299,,,,7.825202934
1715826631939368754,0.258,,,,7.832897302
1715826631947063122,0.207,,,,7.84059167
1715826631954757490,0.171,,,,7.848286038
1715826631962451858,0.132,,,,7.855980406
1715826631970146238,0.07,,,,7.863674786
1715826631977840606,0.012,,,,7.871369154
1715826631985534974,0.0,,,,7.879063522
1715826631993229342,0.007,,,,7.88675789
1715826632000923710,-0.014,,,,7.894452258
1715826632008618078,-0.041,,,,7.902146626
1715826632016312446,-0.038,,,,7.909840994
1715826632024006814,-0.019,,,,7.917535362
1715826632031701182,-0.014,,,,7.92522973
1715826632039395550,-0.016,,,,7.932924098
1715826632047089918,-0.014,,,,7.940618466
1715826632054784286,-0.009,,,,7.948312834
1715826632062478654,-0.007,,,,7.956007202
1715826632070173022,-0.007,,,,7.96370157
1715826632077867390,0.0,,,,7.971395938
1715826632085561758,0.007,,,,7.979090306
1715826632093256126,0.007,,,,7.986784674
1715826632100950494,0.007,,,,7.994479042
1715826632108644862,0.0,,,,8.00217341
1715826632116339230,-0.009,,,,8.009867778
1715826632124033598,-0.007,,,,8.017562146
1715826632131727966,0.007,,,,8.025256514
1715826632139422334,0.024,,,,8.032950882
1715826632147116702,0.036,,,,8.04064525
1715826632154811070,0.036,,,,8.048339618
1715826632162505438,0.033,,,,8.056033986
1715826632170199806,0.038,,,,8.063728354
1715826632177894174,0.045,,,,8.071422722
1715826632185588542,0.038,,,,8.07911709
1715826632193282910,0.031,,,,8.086811458
1715826632200977278,0.026,,,,8.094505826
1715826632208671646,0.019,,,,8.102200194
1715826632216366014,0.004,,,,8.109894562
1715826632224060382,0.002,,,,8.11758893
1715826632231754750,0.031,,,,8.125283298
1715826632239449118,0.048,,,,8.132977666
1715826632247143486,0.021,,,,8.140672034
1715826632254837854,0.043,,,,8.148366402
1715826632262532222,0.106,,,,8.15606077
1715826632270226590,0.099,,,,8.163755138
1715826632277920958,0.053,,,,8.171449506
1715826632285615326,0.055,,,,8.179143874
1715826632293309694,0.067,,,,8.186838242
1715826632301004062,0.062,,,,8.19453261
1715826632308698430,0.055,,,,8.202226978
1715826632316392798,0.043,,,,8.209921346
1715826632324087166,0.029,,,,8.217615714
1715826632331781534,0.038,,,,8.225310082
1715826632339475902,0.072,,,,8.23300445
1715826632347170270,0.094,,,,8.240698818
1715826632354864638,0.072,,,,8.248393186
1715826632362559006,0.041,,,,8.256087554
1715826632370253374,0.062,,,,8.263781922
1715826632377947742,0.094,,,,8.27147629
1715826632385642110,0.074,,,,8.279170658
1715826632393336478,0.06,,,,8.286865026
1715826632401030846,0.072,,,,8.294559394
1715826632408725214,0.072,,,,8.302253762
1715826632416419582,0.067,,,,8.30994813
1715826632424113950,0.067,,,,8.317642498
1715826632431808318,0.079,,,,8.325336866
1715826632439502686,0.113,,,,8.333031234
1715826632447197054,0.128,,,,8.340725602
1715826632454891422,0.123,,,,8.34841997
1715826632462585790,0.113,,,,8.356114338
1715826632470280158,0.089,,,,8.363808706
1715826632477974526,0.055,,,,8.371503074
1715826632485668894,0.024,,,,8.379197442
1715826632493363262,0.041,,,,8.38689181
1715826632501057630,0.084,,,,8.394586178
1715826632508751998,0.082,,,,8.402280546
1715826632516446366,0.07,,,,8.409974914
1715826632524140734,0.07,,,,8.417669282
1715826632531835114,0.055,66.0,924.0,,8.425363662
1715826632539529482,0.026,,,,8.43305803
1715826632547223850,0.06,,,,8.440752398
1715826632554918218,0.42,,,,8.448446766
1715826632562612586,1.213,,,,8.456141134
1715826632570306954,1.761,,,,8.463835502
1715826632578001322,0.945,,,,8.47152987
1715826632585695690,-0.5670000000000001,,,,8.479224238
1715826632593390058,-0.669,,,,8.486918606
1715826632601084426,0.103,,,,8.494612974
1715826632608778794,0.048,,,,8.502307342
1715826632616473162,-0.2,,,,8.51000171
1715826632624167530,-0.012,,,,8.517696078
1715826632631861898,0.045,,,,8.525390446
1715826632639556266,-0.048,,,,8.533084814
1715826632647250634,-0.029,,,,8.540779182
1715826632654945002,0.0,,,,8.54847355
1715826632662639370,-0.012,,,,8.556167918
1715826632670333738,0.024,,,,8.563862286
1715826632678028106,0.072,,,,8.571556654
1715826632685722474,0.065,,,,8.579251022
1715826632693416842,0.041,,,,8.58694539
1715826632701111210,0.045,,,,8.594639758
1715826632708805578,0.072,,,,8.602334126
1715826632716499946,0.091,,,,8.610028494
1715826632724194314,0.103,,,,8.617722862
1715826632731888682,0.13,,,,8.62541723
1715826632739583050,0.135,,,,8.633111598
1715826632747277418,0.132,,,,8.640805966
1715826632754971786,0.181,,,,8.648500334
1715826632762666154,0.222,,,,8.656194702
1715826632770360522,0.224,,,,8.66388907
1715826632778054890,0.239,,,,8.671583438
1715826632785749258,0.258,,,,8.679277806
1715826632793443626,0.28,,,,8.686972174
1715826632801137994,0.304,,,,8.694666542
1715826632808832362,0.314,,,,8.70236091
1715826632816526730,0.34,,,,8.710055278
1715826632824221098,0.372,,,,8.717749646
1715826632831915466,0.36,,,,8.725444014
1715826632839609834,0.321,,,,8.733138382
1715826632847304202,0.277,,,,8.74083275
1715826632854998570,0.232,,,,8.748527118
1715826632862692938,0.171,,,,8.756221486
1715826632870387306,0.099,,,,8.763915854
1715826632878081674,0.06,,,,8.771610222
1715826632885776042,0.045,,,,8.77930459
1715826632893470410,0.024,,,,8.786998958
1715826632901164778,-0.012,,,,8.794693326
1715826632908859146,-0.031,,,,8.802387694
1715826632916553514,-0.024,,,,8.810082062
1715826632924247882,-0.021,,,,8.81777643
1715826632931942250,-0.036,,,,8.825470798
1715826632939636618,-0.033,,,,8.833165166
1715826632947330986,-0.026,,,,8.840859534
1715826632955025354,-0.012,,,,8.848553902
1715826632962719722,0.007,,,,8.85624827
1715826632970414090,0.004,,,,8.863942638
1715826632978108458,-0.007,,,,8.871637006
1715826632985802826,0.007,,,,8.879331374
1715826632993497194,0.019,,,,8.887025742
1715826633001191562,0.029,,,,8.89472011
1715826633008885930,0.038,,,,8.902414478
1715826633016580298,0.043,,,,8.910108846
1715826633024274666,0.043,,,,8.917803214
1715826633031969034,0.036,,,,8.925497582
1715826633039663402,0.045,,,,8.93319195
1715826633047357770,0.06,,,,8.940886318
1715826633055052138,0.053,,,,8.948580686
1715826633062746506,0.033,,,,8.956275054
1715826633070440874,0.043,,,,8.963969422
1715826633078135242,0.05,,,,8.97166379
1715826633085829610,0.041,,,,8.979358158
1715826633093523990,0.033,66.0,908.0,,8.987052538
1715826633101218358,0.036,,,,8.994746906
1715826633108912726,0.045,,,,9.002441274
1715826633116607094,0.062,,,,9.010135642
1715826633124301462,0.058,,,,9.01783001
1715826633131995830,0.043,,,,9.025524378
1715826633139690198,0.041,,,,9.033218746
1715826633147384566,0.031,,,,9.040913114
1715826633155078934,0.038,,,,9.048607482
1715826633162773302,0.065,,,,9.05630185
1715826633170467670,0.06,,,,9.063996218
1715826633178162038,0.043,,,,9.071690586
1715826633185856406,0.055,,,,9.079384954
1715826633193550774,0.062,,,,9.087079322
1715826633201245142,0.062,,,,9.09477369
1715826633208939510,0.06,,,,9.102468058
1715826633216633878,0.05,,,,9.110162426
1715826633224328246,0.055,,,,9.117856794
1715826633232022614,0.07,,,,9.125551162
1715826633239716982,0.067,,,,9.13324553
1715826633247411350,0.06,,,,9.140939898
1715826633255105718,0.065,,,,9.148634266
1715826633262800086,0.072,,,,9.156328634
1715826633270494454,0.067,,,,9.164023002
1715826633278188822,0.062,,,,9.17171737
1715826633285883190,0.048,,,,9.179411738
1715826633293577558,0.041,,,,9.187106106
1715826633301271926,0.055,,,,9.194800474
1715826633308966294,0.055,,,,9.202494842
1715826633316660662,0.05,,,,9.21018921
1715826633324355030,0.077,,,,9.217883578
1715826633332049398,0.108,,,,9.225577946
1715826633339743766,0.123,,,,9.233272314
1715826633347438134,0.125,,,,9.240966682
1715826633355132502,0.12,,,,9.24866105
1715826633362826870,0.111,,,,9.256355418
1715826633370521238,0.094,,,,9.264049786
1715826633378215606,0.067,,,,9.271744154
1715826633385909974,0.041,,,,9.279438522
1715826633393604342,0.036,,,,9.28713289
1715826633401298710,0.043,,,,9.294827258
1715826633408993078,0.036,,,,9.302521626
1715826633416687446,0.029,,,,9.310215994
1715826633424381814,0.038,,,,9.317910362
1715826633432076182,0.053,,,,9.32560473
1715826633439770550,0.043,,,,9.333299098
1715826633447464918,0.016,,,,9.340993466
1715826633455159286,0.193,,,,9.348687834
1715826633462853654,0.8210000000000001,,,,9.356382202
1715826633470548022,1.525,,,,9.36407657
1715826633478242390,1.242,,,,9.371770938
1715826633485936758,-0.176,,,,9.379465306
1715826633493631126,-0.86,,,,9.387159674
1715826633501325494,-0.149,,,,9.394854042
1715826633509019862,0.157,,,,9.40254841
1715826633516714230,-0.157,,,,9.410242778
1715826633524408598,-0.079,,,,9.417937146
1715826633532102966,0.065,,,,9.425631514
1715826633539797334,-0.031,,,,9.433325882
1715826633547491702,-0.043,,,,9.44102025
1715826633555186070,0.031,,,,9.448714618
1715826633562880438,0.024,,,,9.456408986
1715826633570574806,0.004,,,,9.464103354
1715826633578269174,0.021,,,,9.471797722
1715826633585963542,0.012,,,,9.47949209
1715826633593657910,0.004,,,,9.487186458
1715826633601352278,0.045,,,,9.494880826
1715826633609046646,0.072,,,,9.502575194
1715826633616741014,0.067,,,,9.510269562
1715826633624435382,0.087,,,,9.51796393
1715826633632129750,0.128,,,,9.525658298
1715826633639824118,0.128,,,,9.533352666
1715826633647518486,0.106,,,,9.541047034
1715826633655212868,0.154,,,,9.548741416
1715826633662907236,0.215,,,,9.556435784
1715826633670601604,0.166,,,,9.564130152
1715826633678295972,0.13,,,,9.57182452
1715826633685990340,0.198,,,,9.579518888
1715826633693684708,0.244,,,,9.587213256
1715826633701379076,0.246,,,,9.594907624
1715826633709073444,0.263,,,,9.602601992
1715826633716767812,0.302,,,,9.61029636
1715826633724462180,0.321,,,,9.617990728
1715826633732156548,0.323,,,,9.625685096
1715826633739850916,0.319,,,,9.633379464
1715826633747545284,0.251,,,,9.641073832
1715826633755239652,0.171,,,,9.6487682
1715826633762934020,0.152,,,,9.656462568
1715826633770628388,0.103,,,,9.664156936
1715826633778322756,0.048,,,,9.671851304
1715826633786017124,0.033,,,,9.679545672
1715826633793711492,-0.009,,,,9.68724004
1715826633801405860,-0.045,,,,9.694934408
1715826633809100228,-0.062,,,,9.702628776
1715826633816794596,-0.067,,,,9.710323144
1715826633824488964,-0.074,,,,9.718017512
1715826633832183332,-0.142,,,,9.72571188
1715826633839877700,-0.161,,,,9.733406248
1715826633847572068,-0.096,,,,9.741100616
1715826633855266436,-0.079,,,,9.748794984
1715826633862960804,-0.101,,,,9.756489352
1715826633870655172,-0.089,,,,9.76418372
1715826633878349540,-0.043,,,,9.771878088
1715826633886043908,-0.021,,,,9.779572456
1715826633893738276,-0.029,,,,9.787266824
1715826633901432644,-0.019,,,,9.794961192
1715826633909127012,-0.038,,,,9.80265556
1715826633916821380,-0.05,,,,9.810349928
1715826633924515748,-0.021,,,,9.818044296
1715826633932210116,-0.029,,,,9.825738664
1715826633939904484,-0.043,,,,9.833433032
1715826633947598852,-0.038,,,,9.8411274
1715826633955293220,-0.038,,,,9.848821768
1715826633962987588,-0.009,,,,9.856516136
1715826633970681956,-0.012,,,,9.864210504
1715826633978376324,0.0,,,,9.871904872
1715826633986070692,0.021,,,,9.87959924
1715826633993765060,-0.014,,,,9.887293608
1715826634001459428,0.0,,,,9.894987976
1715826634009153796,0.009,,,,9.902682344
1715826634016848164,0.009,,,,9.910376712
1715826634024542532,0.06,,,,9.91807108
1715826634032236900,0.021,,,,9.925765448
1715826634039931268,-0.014,,,,9.933459816
1715826634047625636,-0.012,,,,9.941154184
1715826634055320004,-0.007,,,,9.948848552
1715826634063014372,0.06,,,,9.95654292
1715826634070708740,0.026,,,,9.964237288
1715826634078403108,-0.014,,,,9.971931656
1715826634086097476,0.036,,,,9.979626024
1715826634093791844,0.026,,,,9.987320392
1715826634101486212,0.038,,,,9.99501476
1715826634109180580,0.041,,,,10.002709128
1715826634116874948,0.021,,,,10.010403496
1715826634124569316,0.058,,,,10.018097864
1715826634132263684,0.021,,,,10.025792232
1715826634139958052,0.007,,,,10.0334866
1715826634147652420,0.019,,,,10.041180968
1715826634155346788,0.007,,,,10.048875336
1715826634163041156,0.082,,,,10.056569704
1715826634170735524,0.077,,,,10.064264072
1715826634178429892,0.043,,,,10.07195844
1715826634186124260,0.072,,,,10.079652808
1715826634193818628,0.031,,,,10.087347176
1715826634201512996,0.05,,,,10.095041544
1715826634209207364,0.082,,,,10.102735912
1715826634216901744,0.055,66.0,945.0,,10.110430292
1715826634224596112,0.055,,,,10.11812466
1715826634232290480,0.007,,,,10.125819028
1715826634239984848,0.029,,,,10.133513396
1715826634247679216,0.079,,,,10.141207764
1715826634255373584,0.048,,,,10.148902132
1715826634263067952,0.084,,,,10.1565965
1715826634270762320,0.058,,,,10.164290868
1715826634278456688,0.009,,,,10.171985236
1715826634286151056,0.07,,,,10.179679604
1715826634293845424,0.065,,,,10.187373972
1715826634301539792,0.055,,,,10.19506834
1715826634309234160,0.082,,,,10.202762708
1715826634316928528,0.087,,,,10.210457076
1715826634324622896,0.128,,,,10.218151444
1715826634332317264,0.096,,,,10.225845812
1715826634340011632,0.041,,,,10.23354018
1715826634347706000,0.026,,,,10.241234548
1715826634355400368,-0.012,,,,10.248928916
1715826634363094736,0.014,,,,10.256623284
1715826634370789104,0.029,,,,10.264317652
1715826634378483472,0.009,,,,10.27201202
1715826634386177840,0.026,,,,10.279706388
1715826634393872208,0.012,,,,10.287400756
1715826634401566576,0.029,,,,10.295095124
1715826634409260944,0.021,,,,10.302789492
1715826634416955312,0.094,,,,10.31048386
1715826634424649680,0.7000000000000001,,,,10.318178228
1715826634432344048,1.551,,,,10.325872596
1715826634440038416,1.459,,,,10.333566964
1715826634447732784,0.009,,,,10.341261332
1715826634455427152,-0.928,,,,10.3489557
1715826634463121520,-0.239,,,,10.356650068
1715826634470815888,0.186,,,,10.364344436
1715826634478510256,-0.164,,,,10.372038804
1715826634486204624,-0.108,,,,10.379733172
1715826634493898992,0.06,,,,10.38742754
1715826634501593360,-0.024,,,,10.395121908
1715826634509287728,-0.041,,,,10.402816276
1715826634516982096,0.014,,,,10.410510644
1715826634524676464,0.021,,,,10.418205012
1715826634532370832,0.002,,,,10.42589938
1715826634540065200,0.045,,,,10.433593748
1715826634547759568,0.096,,,,10.441288116
1715826634555453936,0.05,,,,10.448982484
1715826634563148304,0.031,,,,10.456676852
1715826634570842672,0.06,,,,10.46437122
1715826634578537040,0.062,,,,10.472065588
1715826634586231408,0.077,,,,10.479759956
1715826634593925776,0.084,,,,10.487454324
1715826634601620144,0.091,,,,10.495148692
1715826634609314512,0.101,,,,10.50284306
1715826634617008880,0.101,,,,10.510537428
1715826634624703248,0.145,,,,10.518231796
1715826634632397616,0.183,,,,10.525926164
1715826634640091984,0.193,,,,10.533620532
1715826634647786352,0.222,,,,10.5413149
1715826634655480720,0.246,,,,10.549009268
1715826634663175088,0.297,,,,10.556703636
1715826634670869456,0.348,,,,10.564398004
1715826634678563824,0.35,,,,10.572092372
1715826634686258192,0.343,,,,10.57978674
1715826634693952560,0.323,,,,10.587481108
1715826634701646928,0.319,,,,10.595175476
1715826634709341296,0.321,,,,10.602869844
1715826634717035664,0.277,,,,10.610564212
1715826634724730032,0.232,,,,10.61825858
1715826634732424400,0.166,,,,10.625952948
1715826634740118768,0.106,,,,10.633647316
1715826634747813136,0.084,,,,10.641341684
1715826634755507504,0.036,,,,10.649036052
1715826634763201872,-0.009,,,,10.65673042
1715826634770896240,-0.021,,,,10.664424788
1715826634778590620,-0.024,,,,10.672119168
1715826634786284988,-0.019,,,,10.679813536
1715826634793979356,-0.031,,,,10.687507904
1715826634801673724,-0.036,,,,10.695202272
1715826634809368092,-0.024,,,,10.70289664
1715826634817062460,-0.021,,,,10.710591008
1715826634824756828,-0.012,,,,10.718285376
1715826634832451196,-0.033,,,,10.725979744
1715826634840145564,-0.036,,,,10.733674112
1715826634847839932,0.002,,,,10.74136848
1715826634855534300,-0.024,,,,10.749062848
1715826634863228668,-0.045,,,,10.756757216
1715826634870923036,-0.024,,,,10.764451584
1715826634878617404,-0.029,,,,10.772145952
1715826634886311772,-0.019,,,,10.77984032
1715826634894006140,-0.009,,,,10.787534688
1715826634901700508,-0.004,,,,10.795229056
1715826634909394876,0.019,,,,10.802923424
1715826634917089244,0.019,,,,10.810617792
1715826634924783612,0.012,,,,10.81831216
1715826634932477980,0.019,,,,10.826006528
1715826634940172348,0.029,,,,10.833700896
1715826634947866716,0.043,,,,10.841395264
1715826634955561084,0.036,,,,10.849089632
1715826634963255452,0.036,,,,10.856784
1715826634970949820,0.036,,,,10.864478368
1715826634978644188,0.024,,,,10.872172736
1715826634986338556,0.038,,,,10.879867104
1715826634994032924,0.05,,,,10.887561472
1715826635001727292,0.041,,,,10.89525584
1715826635009421660,0.029,,,,10.902950208
1715826635017116028,0.026,,,,10.910644576
1715826635024810396,0.067,,,,10.918338944
1715826635032504764,0.082,,,,10.926033312
1715826635040199132,0.062,,,,10.93372768
1715826635047893500,0.065,,,,10.941422048
1715826635055587868,0.06,,,,10.949116416
1715826635063282236,0.06,,,,10.956810784
1715826635070976604,0.07,,,,10.964505152
1715826635078670972,0.062,,,,10.97219952
1715826635086365340,0.072,,,,10.979893888
1715826635094059708,0.074,,,,10.987588256
1715826635101754076,0.077,,,,10.995282624
1715826635109448444,0.084,,,,11.002976992
1715826635117142812,0.067,,,,11.01067136
1715826635124837180,0.065,,,,11.018365728
1715826635132531548,0.079,,,,11.026060096
1715826635140225916,0.084,,,,11.033754464
1715826635147920284,0.096,,,,11.041448832
1715826635155614652,0.087,,,,11.0491432
1715826635163309020,0.07,,,,11.056837568
1715826635171003388,0.072,,,,11.064531936
1715826635178697756,0.091,,,,11.072226304
1715826635186392124,0.111,,,,11.079920672
1715826635194086492,0.101,,,,11.08761504
1715826635201780860,0.082,,,,11.095309408
1715826635209475228,0.087,,,,11.103003776
1715826635217169596,0.094,,,,11.110698144
1715826635224863964,0.091,,,,11.118392512
1715826635232558332,0.091,,,,11.12608688
1715826635240252700,0.101,,,,11.133781248
1715826635247947068,0.12,,,,11.141475616
1715826635255641436,0.128,,,,11.149169984
1715826635263335804,0.137,,,,11.156864352
1715826635271030172,0.147,,,,11.16455872
1715826635278724540,0.12,,,,11.172253088
1715826635286418908,0.077,,,,11.179947456
1715826635294113276,0.026,,,,11.187641824
1715826635301807644,0.021,,,,11.195336192
1715826635309502012,0.087,,,,11.20303056
1715826635317196380,0.103,,,,11.210724928
1715826635324890748,0.062,,,,11.218419296
1715826635332585116,0.041,,,,11.226113664
1715826635340279496,0.038,66.0,909.0,,11.233808044
1715826635347974003,0.021,,,,11.241502551
1715826635355668510,-0.012,,,,11.249197058
1715826635363363017,0.176,,,,11.256891565
1715826635371057524,0.891,,,,11.264586072
1715826635378752031,1.723,,,,11.272280579
1715826635386446538,1.44,,,,11.279975086
1715826635394141045,-0.116,,,,11.287669593
1715826635401835552,-0.867,,,,11.2953641
1715826635409530059,-0.132,,,,11.303058607
1715826635417224566,0.176,,,,11.310753114
1715826635424919073,-0.152,,,,11.318447621
1715826635432613580,-0.089,,,,11.326142128
1715826635440308087,0.048,,,,11.333836635
1715826635448002594,-0.033,,,,11.341531142
1715826635455697101,-0.043,,,,11.349225649
1715826635463391608,0.024,,,,11.356920156
1715826635471086115,0.021,,,,11.364614663
1715826635478780622,0.009,,,,11.37230917
1715826635486475129,0.031,,,,11.380003677
1715826635494169636,0.029,,,,11.387698184
1715826635501864143,0.031,,,,11.395392691
1715826635509558650,0.072,,,,11.403087198
1715826635517253157,0.082,,,,11.410781705
1715826635524947664,0.072,,,,11.418476212
1715826635532642171,0.096,,,,11.426170719
1715826635540336678,0.108,,,,11.433865226
1715826635548031185,0.111,,,,11.441559733
1715826635555725692,0.125,,,,11.44925424
1715826635563420199,0.132,,,,11.456948747
1715826635571114706,0.14,,,,11.464643254
1715826635578809213,0.171,,,,11.472337761
1715826635586503720,0.215,,,,11.480032268
1715826635594198227,0.248,,,,11.487726775
1715826635601892734,0.275,,,,11.495421282
1715826635609587241,0.282,,,,11.503115789
1715826635617281748,0.29,,,,11.510810296
1715826635624976255,0.331,,,,11.518504803
1715826635632670762,0.374,,,,11.52619931
1715826635640365269,0.372,,,,11.533893817
1715826635648059776,0.333,,,,11.541588324
1715826635655754283,0.294,,,,11.549282831
1715826635663448790,0.256,,,,11.556977338
1715826635671143297,0.205,,,,11.564671845
1715826635678837804,0.142,,,,11.572366352
1715826635686532311,0.087,,,,11.580060859
1715826635694226818,0.038,,,,11.587755366
1715826635701921325,0.009,,,,11.595449873
1715826635709615832,0.009,,,,11.60314438
1715826635717310339,-0.004,,,,11.610838887
1715826635725004846,-0.026,,,,11.618533394
1715826635732699353,-0.026,,,,11.626227901
1715826635740393860,-0.021,,,,11.633922408
1715826635748088367,-0.026,,,,11.641616915
1715826635755782874,-0.031,,,,11.649311422
1715826635763477381,-0.029,,,,11.657005929
1715826635771171888,-0.021,,,,11.664700436
1715826635778866395,-0.016,,,,11.672394943
1715826635786560902,0.002,,,,11.68008945
1715826635794255409,0.012,,,,11.687783957
1715826635801949916,-0.012,,,,11.695478464
1715826635809644423,-0.024,,,,11.703172971
1715826635817338930,-0.004,,,,11.710867478
1715826635825033437,-0.007,,,,11.718561985
1715826635832727944,-0.021,,,,11.726256492
1715826635840422451,-0.014,,,,11.733950999
1715826635848116958,-0.002,,,,11.741645506
1715826635855811465,-0.004,,,,11.749340013
1715826635863505972,-0.004,,,,11.75703452
1715826635871200479,0.002,,,,11.764729027
1715826635878894986,0.012,,,,11.772423534
1715826635886589493,0.026,,,,11.780118041
1715826635894284000,0.021,,,,11.787812548
1715826635901978546,0.009,,,,11.795507094
1715826635909672774,0.012,,,,11.803201322
1715826635917367002,0.014,,,,11.81089555
1715826635925061230,0.019,,,,11.818589778
1715826635932755458,0.026,,,,11.826284006
1715826635940449686,0.029,,,,11.833978234
1715826635948143914,0.029,,,,11.841672462
1715826635955838142,0.029,,,,11.84936669
1715826635963532370,0.024,,,,11.857060918
1715826635971226598,0.024,,,,11.864755146
1715826635978920826,0.021,,,,11.872449374
1715826635986615054,0.029,,,,11.880143602
1715826635994309282,0.041,,,,11.88783783
1715826636002003510,0.038,,,,11.895532058
1715826636009697738,0.05,,,,11.903226286
1715826636017391966,0.062,,,,11.910920514
1715826636025086194,0.053,,,,11.918614742
1715826636032780422,0.048,,,,11.92630897
1715826636040474650,0.058,,,,11.934003198
1715826636048168878,0.06,,,,11.941697426
1715826636055863106,0.053,,,,11.949391654
1715826636063557334,0.053,,,,11.957085882
1715826636071251562,0.062,,,,11.96478011
1715826636078945790,0.055,,,,11.972474338
1715826636086640018,0.036,,,,11.980168566
1715826636094334246,0.048,,,,11.987862794
1715826636102028474,0.07,,,,11.995557022
1715826636109722702,0.077,,,,12.00325125
1715826636117416930,0.087,,,,12.010945478
1715826636125111158,0.072,,,,12.018639706
1715826636132805386,0.041,,,,12.026333934
1715826636140499614,0.043,,,,12.034028162
1715826636148193842,0.084,,,,12.04172239
1715826636155888070,0.094,,,,12.049416618
1715826636163582298,0.065,,,,12.057110846
1715826636171276526,0.058,,,,12.064805074
1715826636178970754,0.072,,,,12.072499302
1715826636186664982,0.074,,,,12.08019353
1715826636194359210,0.07,,,,12.087887758
1715826636202053438,0.07,,,,12.095581986
1715826636209747666,0.055,,,,12.103276214
1715826636217441894,0.048,,,,12.110970442
1715826636225136122,0.07,,,,12.11866467
1715826636232830350,0.099,,,,12.126358898
1715826636240524578,0.108,,,,12.134053126
1715826636248218806,0.116,,,,12.141747354
1715826636255913034,0.118,,,,12.149441582
1715826636263607262,0.108,,,,12.15713581
1715826636271301490,0.087,,,,12.164830038
1715826636278995718,0.058,,,,12.172524266
1715826636286689946,0.043,,,,12.180218494
1715826636294384174,0.048,,,,12.187912722
1715826636302078402,0.043,,,,12.19560695
1715826636309772630,0.036,,,,12.203301178
1715826636317466858,0.043,,,,12.210995406
1715826636325161086,0.041,,,,12.218689634
1715826636332855314,0.026,,,,12.226383862
1715826636340549542,0.033,,,,12.23407809
1715826636348243770,0.024,,,,12.241772318
1715826636355937998,0.113,,,,12.249466546
1715826636363632226,0.64,,,,12.257160774
1715826636371326454,1.481,,,,12.264855002
1715826636379020682,1.58,,,,12.27254923
1715826636386714910,0.277,,,,12.280243458
1715826636394409138,-0.8,,,,12.287937686
1715826636402103366,-0.314,,,,12.295631914
1715826636409797594,0.193,,,,12.303326142
1715826636417491822,-0.079,,,,12.31102037
1715826636425186050,-0.118,,,,12.318714598
1715826636432880278,0.055,,,,12.326408826
1715826636440574506,-0.002,,,,12.334103054
1715826636448268734,-0.045,,,,12.341797282
1715826636455962962,0.024,,,,12.34949151
1715826636463657248,0.036,65.0,903.0,,12.357185796
1715826636471351616,0.019,,,,12.364880164
1715826636479045984,0.038,,,,12.372574532
1715826636486740352,0.05,,,,12.3802689
1715826636494434720,0.045,,,,12.387963268
1715826636502129088,0.05,,,,12.395657636
1715826636509823456,0.067,,,,12.403352004
1715826636517517824,0.087,,,,12.411046372
1715826636525212192,0.099,,,,12.41874074
1715826636532906560,0.108,,,,12.426435108
1715826636540600928,0.111,,,,12.434129476
1715826636548295296,0.113,,,,12.441823844
1715826636555989664,0.14,,,,12.449518212
1715826636563684032,0.169,,,,12.45721258
1715826636571378400,0.183,,,,12.464906948
1715826636579072768,0.215,,,,12.472601316
1715826636586767136,0.251,,,,12.480295684
1715826636594461504,0.263,,,,12.487990052
1715826636602155872,0.277,,,,12.49568442
1715826636609850240,0.304,,,,12.503378788
1715826636617544608,0.326,,,,12.511073156
1715826636625238976,0.338,,,,12.518767524
1715826636632933344,0.35,,,,12.526461892
1715826636640627712,0.352,,,,12.53415626
1715826636648322080,0.326,,,,12.541850628
1715826636656016448,0.282,,,,12.549544996
1715826636663710816,0.232,,,,12.557239364
1715826636671405184,0.178,,,,12.564933732
1715826636679099552,0.123,,,,12.5726281
1715826636686793920,0.065,,,,12.580322468
1715826636694488288,0.029,,,,12.588016836
1715826636702182656,0.012,,,,12.595711204
1715826636709877024,-0.002,,,,12.603405572
1715826636717571392,-0.014,,,,12.61109994
1715826636725265760,-0.021,,,,12.618794308
1715826636732960128,-0.024,,,,12.626488676
1715826636740654496,-0.031,,,,12.634183044
1715826636748348864,-0.033,,,,12.641877412
1715826636756043232,-0.029,,,,12.64957178
1715826636763737600,-0.019,,,,12.657266148
1715826636771431968,-0.009,,,,12.664960516
1715826636779126336,-0.007,,,,12.672654884
1715826636786820704,-0.014,,,,12.680349252
1715826636794515072,-0.009,,,,12.68804362
1715826636802209440,0.002,,,,12.695737988
1715826636809903808,0.004,,,,12.703432356
1715826636817598176,0.007,,,,12.711126724
1715826636825292544,0.014,,,,12.718821092
1715826636832986912,0.012,,,,12.72651546
1715826636840681280,-0.004,,,,12.734209828
1715826636848375648,-0.004,,,,12.741904196
1715826636856070016,0.014,,,,12.749598564
1715826636863764384,0.002,,,,12.757292932
1715826636871458752,-0.004,,,,12.7649873
1715826636879153120,0.026,,,,12.772681668
1715826636886847488,0.041,,,,12.780376036
1715826636894541856,0.026,,,,12.788070404
1715826636902236224,0.031,,,,12.795764772
1715826636909930592,0.038,,,,12.80345914
1715826636917624960,0.036,,,,12.811153508
1715826636925319328,0.029,,,,12.818847876
1715826636933013696,0.029,,,,12.826542244
1715826636940708064,0.038,,,,12.834236612
1715826636948402432,0.045,,,,12.84193098
1715826636956096800,0.041,,,,12.849625348
1715826636963791168,0.036,,,,12.857319716
1715826636971485536,0.045,,,,12.865014084
1715826636979179904,0.058,,,,12.872708452
1715826636986874272,0.058,,,,12.88040282
1715826636994568640,0.045,,,,12.888097188
1715826637002263008,0.048,,,,12.895791556
1715826637009957376,0.062,,,,12.903485924
1715826637017651744,0.067,,,,12.911180292
1715826637025346126,0.06,66.0,963.0,,12.918874674
1715826637033040494,0.06,,,,12.926569042
1715826637040734862,0.053,,,,12.93426341
1715826637048429230,0.036,,,,12.941957778
1715826637056123598,0.031,,,,12.949652146
1715826637063817966,0.041,,,,12.957346514
1715826637071512334,0.041,,,,12.965040882
1715826637079206702,0.036,,,,12.97273525
1715826637086901070,0.048,,,,12.980429618
1715826637094595438,0.05,,,,12.988123986
1715826637102289806,0.041,,,,12.995818354
1715826637109984174,0.043,,,,13.003512722
1715826637117678542,0.05,,,,13.01120709
1715826637125372910,0.043,,,,13.018901458
1715826637133067278,0.036,,,,13.026595826
1715826637140761646,0.038,,,,13.034290194
1715826637148456014,0.038,,,,13.041984562
1715826637156150382,0.031,,,,13.04967893
1715826637163844750,0.026,,,,13.057373298
1715826637171539118,0.036,,,,13.065067666
1715826637179233486,0.045,,,,13.072762034
1715826637186927854,0.05,,,,13.080456402
1715826637194622222,0.05,,,,13.08815077
1715826637202316590,0.053,,,,13.095845138
1715826637210010958,0.062,,,,13.103539506
1715826637217705326,0.089,,,,13.111233874
1715826637225399694,0.099,,,,13.118928242
1715826637233094062,0.091,,,,13.12662261
1715826637240788430,0.103,,,,13.134316978
1715826637248482798,0.116,,,,13.142011346
1715826637256177166,0.089,,,,13.149705714
1715826637263871534,0.05,,,,13.157400082
1715826637271565902,0.033,,,,13.16509445
1715826637279260270,0.033,,,,13.172788818
1715826637286954638,0.038,,,,13.180483186
1715826637294649006,0.043,,,,13.188177554
1715826637302343374,0.043,,,,13.195871922
1715826637310037742,0.05,,,,13.20356629
1715826637317732110,0.058,,,,13.211260658
1715826637325426478,0.021,,,,13.218955026
1715826637333120846,0.058,,,,13.226649394
1715826637340815214,0.5,,,,13.234343762
1715826637348509582,1.387,,,,13.24203813
1715826637356203950,1.824,,,,13.249732498
1715826637363898318,0.729,,,,13.257426866
1715826637371592686,-0.778,,,,13.265121234
1715826637379287054,-0.628,,,,13.272815602
1715826637386981422,0.166,,,,13.28050997
1715826637394675790,0.026,,,,13.288204338
1715826637402370158,-0.174,,,,13.295898706
1715826637410064526,0.026,,,,13.303593074
1715826637417758894,0.041,,,,13.311287442
1715826637425453262,-0.048,,,,13.31898181
1715826637433147630,0.004,,,,13.326676178
1715826637440841998,0.036,,,,13.334370546
1715826637448536366,0.007,,,,13.342064914
1715826637456230734,0.026,,,,13.349759282
1715826637463925102,0.058,,,,13.35745365
1715826637471619470,0.055,,,,13.365148018
1715826637479313838,0.06,,,,13.372842386
1715826637487008206,0.079,,,,13.380536754
1715826637494702574,0.082,,,,13.388231122
1715826637502396942,0.082,,,,13.39592549
1715826637510091310,0.108,,,,13.403619858
1715826637517785678,0.132,,,,13.411314226
1715826637525480046,0.132,,,,13.419008594
1715826637533174414,0.137,,,,13.426702962
1715826637540868782,0.164,,,,13.43439733
1715826637548563150,0.19,,,,13.442091698
1715826637556257518,0.207,,,,13.449786066
1715826637563951886,0.234,,,,13.457480434
1715826637571646254,0.275,,,,13.465174802
1715826637579340622,0.311,,,,13.47286917
1715826637587035002,0.326,,,,13.48056355
1715826637594729648,0.338,,,,13.488258196
1715826637602424294,0.355,,,,13.495952842
1715826637610118940,0.369,,,,13.503647488
1715826637617813586,0.369,,,,13.511342134
1715826637625508232,0.348,,,,13.51903678
1715826637633202878,0.311,,,,13.526731426
1715826637640897524,0.256,,,,13.534426072
1715826637648592170,0.181,,,,13.542120718
1715826637656286816,0.123,,,,13.549815364
1715826637663981462,0.082,,,,13.55751001
1715826637671676108,0.029,,,,13.565204656
1715826637679370754,-0.019,,,,13.572899302
1715826637687065400,-0.043,,,,13.580593948
1715826637694760046,-0.045,,,,13.588288594
1715826637702454692,-0.043,,,,13.59598324
1715826637710149338,-0.041,,,,13.603677886
1715826637717843984,-0.031,,,,13.611372532
1715826637725538630,-0.029,,,,13.619067178
1715826637733233276,-0.043,,,,13.626761824
1715826637740927922,-0.053,,,,13.63445647
1715826637748622568,-0.041,,,,13.642151116
1715826637756317214,-0.016,,,,13.649845762
1715826637764011860,-0.009,,,,13.657540408
1715826637771706506,-0.014,,,,13.665235054
1715826637779401152,-0.019,,,,13.6729297
1715826637787095798,-0.019,,,,13.680624346
1715826637794790444,-0.009,,,,13.688318992
1715826637802485090,-0.004,,,,13.696013638
1715826637810179736,-0.002,,,,13.703708284
1715826637817874382,0.004,,,,13.71140293
1715826637825569028,0.016,,,,13.719097576
1715826637833263674,0.024,,,,13.726792222
1715826637840958320,0.026,,,,13.734486868
1715826637848652966,0.019,,,,13.742181514
1715826637856347612,0.002,,,,13.74987616
1715826637864042258,0.004,,,,13.757570806
1715826637871736904,0.016,,,,13.765265452
1715826637879431550,0.016,,,,13.772960098
1715826637887126196,0.016,,,,13.780654744
1715826637894820842,0.029,,,,13.78834939
1715826637902515488,0.031,,,,13.796044036
1715826637910210134,0.026,,,,13.803738682
1715826637917904780,0.021,,,,13.811433328
1715826637925599426,0.026,,,,13.819127974
1715826637933294072,0.041,,,,13.82682262
1715826637940988718,0.038,,,,13.834517266
1715826637948683364,0.031,,,,13.842211912
1715826637956378010,0.038,,,,13.849906558
1715826637964072656,0.05,,,,13.857601204
1715826637971767302,0.045,,,,13.86529585
1715826637979461948,0.043,,,,13.872990496
1715826637987156594,0.05,,,,13.880685142
1715826637994851240,0.05,,,,13.888379788
1715826638002545886,0.043,,,,13.896074434
1715826638010240532,0.043,,,,13.90376908
1715826638017935178,0.041,,,,13.911463726
1715826638025629824,0.038,,,,13.919158372
1715826638033324470,0.05,,,,13.926853018
1715826638041019116,0.062,,,,13.934547664
1715826638048713762,0.058,,,,13.94224231
1715826638056408408,0.048,,,,13.949936956
1715826638064103054,0.041,,,,13.957631602
1715826638071797700,0.048,,,,13.965326248
1715826638079492346,0.053,,,,13.973020894
1715826638087186992,0.048,,,,13.98071554
1715826638094881638,0.05,,,,13.988410186
1715826638102576284,0.055,,,,13.996104832
1715826638110270930,0.05,,,,14.003799478
1715826638117965576,0.05,,,,14.011494124
1715826638125660222,0.055,,,,14.01918877
1715826638133354868,0.055,,,,14.026883416
1715826638141049514,0.053,,,,14.034578062
1715826638148744224,0.05,65.0,945.0,,14.042272772
1715826638156438522,0.05,,,,14.04996707
1715826638164132820,0.053,,,,14.057661368
1715826638171827118,0.06,,,,14.065355666
1715826638179521416,0.058,,,,14.073049964
1715826638187215714,0.045,,,,14.080744262
1715826638194910012,0.048,,,,14.08843856
1715826638202604310,0.074,,,,14.096132858
1715826638210298608,0.113,,,,14.103827156
1715826638217992906,0.128,,,,14.111521454
1715826638225687204,0.113,,,,14.119215752
1715826638233381502,0.108,,,,14.12691005
1715826638241075800,0.103,,,,14.134604348
1715826638248770098,0.077,,,,14.142298646
1715826638256464396,0.053,,,,14.149992944
1715826638264158694,0.048,,,,14.157687242
1715826638271852992,0.048,,,,14.16538154
1715826638279547290,0.043,,,,14.173075838
1715826638287241588,0.038,,,,14.180770136
1715826638294935886,0.05,,,,14.188464434
1715826638302630184,0.065,,,,14.196158732
1715826638310324482,0.065,,,,14.20385303
1715826638318018780,0.043,,,,14.211547328
1715826638325713078,0.072,,,,14.219241626
1715826638333407376,0.459,,,,14.226935924
1715826638341101674,1.305,,,,14.234630222
1715826638348795972,1.815,,,,14.24232452
1715826638356490270,0.889,,,,14.250018818
1715826638364184568,-0.584,,,,14.257713116
1715826638371878866,-0.592,,,,14.265407414
1715826638379573164,0.145,,,,14.273101712
1715826638387267462,0.06,,,,14.28079601
1715826638394961760,-0.159,,,,14.288490308
1715826638402656058,0.004,,,,14.296184606
1715826638410350356,0.021,,,,14.303878904
1715826638418044654,-0.065,,,,14.311573202
1715826638425738952,-0.007,,,,14.3192675
1715826638433433250,0.045,,,,14.326961798
1715826638441127548,0.045,,,,14.334656096
1715826638448821846,0.053,,,,14.342350394
1715826638456516144,0.045,,,,14.350044692
1715826638464210442,0.033,,,,14.35773899
1715826638471904740,0.05,,,,14.365433288
1715826638479599038,0.077,,,,14.373127586
1715826638487293336,0.101,,,,14.380821884
1715826638494987634,0.12,,,,14.388516182
1715826638502681932,0.12,,,,14.39621048
1715826638510376230,0.116,,,,14.403904778
1715826638518070528,0.12,,,,14.411599076
1715826638525764826,0.132,,,,14.419293374
1715826638533459124,0.161,,,,14.426987672
1715826638541153422,0.181,,,,14.43468197
1715826638548847720,0.193,,,,14.442376268
1715826638556542018,0.224,,,,14.450070566
1715826638564236316,0.275,,,,14.457764864
1715826638571930614,0.314,,,,14.465459162
1715826638579624912,0.34,,,,14.47315346
1715826638587319210,0.36,,,,14.480847758
1715826638595013508,0.369,,,,14.488542056
1715826638602707806,0.367,,,,14.496236354
1715826638610402104,0.36,,,,14.503930652
1715826638618096402,0.338,,,,14.51162495
1715826638625790700,0.299,,,,14.519319248
1715826638633484998,0.261,,,,14.527013546
1715826638641179296,0.227,,,,14.534707844
1715826638648873594,0.188,,,,14.542402142
1715826638656567892,0.125,,,,14.55009644
1715826638664262190,0.055,,,,14.557790738
1715826638671956488,0.029,,,,14.565485036
1715826638679650786,0.019,,,,14.573179334
1715826638687345084,-0.004,,,,14.580873632
1715826638695039382,-0.014,,,,14.58856793
1715826638702733680,-0.007,,,,14.596262228
1715826638710428014,-0.012,,,,14.603956562
1715826638718122173,-0.033,,,,14.611650721
1715826638725816332,-0.036,,,,14.61934488
1715826638733510491,-0.016,,,,14.627039039
1715826638741204650,-0.014,,,,14.634733198
1715826638748898809,-0.004,,,,14.642427357
1715826638756592968,0.009,,,,14.650121516
1715826638764287127,-0.002,,,,14.657815675
1715826638771981286,-0.004,,,,14.665509834
1715826638779675445,0.007,,,,14.673203993
1715826638787369604,-0.002,,,,14.680898152
1715826638795063763,-0.016,,,,14.688592311
1715826638802757922,-0.009,,,,14.69628647
1715826638810452081,0.019,,,,14.703980629
1715826638818146240,0.031,,,,14.711674788
1715826638825840399,0.016,,,,14.719368947
1715826638833534558,0.016,,,,14.727063106
1715826638841228717,0.024,,,,14.734757265
1715826638848922876,0.024,,,,14.742451424
1715826638856617035,0.024,,,,14.750145583
1715826638864311194,0.019,,,,14.757839742
1715826638872005353,0.016,,,,14.765533901
1715826638879699512,0.019,,,,14.77322806
1715826638887393671,0.016,,,,14.780922219
1715826638895087830,0.009,,,,14.788616378
1715826638902781989,0.016,,,,14.796310537
1715826638910476148,0.038,,,,14.804004696
1715826638918170307,0.043,,,,14.811698855
1715826638925864466,0.031,,,,14.819393014
1715826638933558625,0.026,,,,14.827087173
1715826638941252784,0.024,,,,14.834781332
1715826638948946943,0.029,,,,14.842475491
1715826638956641102,0.036,,,,14.85016965
1715826638964335261,0.036,,,,14.857863809
1715826638972029420,0.038,,,,14.865557968
1715826638979723579,0.041,,,,14.873252127
1715826638987417738,0.041,,,,14.880946286
1715826638995111897,0.036,,,,14.888640445
1715826639002806056,0.024,,,,14.896334604
1715826639010500215,0.024,,,,14.904028763
1715826639018194374,0.033,,,,14.911722922
1715826639025888533,0.038,,,,14.919417081
1715826639033582692,0.036,,,,14.92711124
1715826639041276851,0.014,,,,14.934805399
1715826639048971010,0.007,,,,14.942499558
1715826639056665169,0.045,,,,14.950193717
1715826639064359328,0.062,,,,14.957887876
1715826639072053487,0.033,,,,14.965582035
1715826639079747646,0.026,,,,14.973276194
1715826639087441805,0.045,,,,14.980970353
1715826639095135964,0.033,,,,14.988664512
1715826639102830123,0.024,,,,14.996358671
1715826639110524282,0.062,,,,15.00405283
1715826639118218441,0.074,,,,15.011746989
1715826639125912600,0.036,,,,15.019441148
1715826639133606759,0.026,,,,15.027135307
1715826639141300918,0.031,,,,15.034829466
1715826639148995077,0.048,,,,15.042523625
1715826639156689236,0.07,,,,15.050217784
1715826639164383395,0.067,,,,15.057911943
1715826639172077554,0.058,,,,15.065606102
1715826639179771713,0.053,,,,15.073300261
1715826639187465872,0.045,,,,15.08099442
1715826639195160031,0.045,,,,15.088688579
1715826639202854190,0.045,,,,15.096382738
1715826639210548349,0.055,,,,15.104076897
1715826639218242508,0.082,,,,15.111771056
1715826639225936667,0.106,,,,15.119465215
1715826639233630826,0.12,,,,15.127159374
1715826639241324985,0.12,,,,15.134853533
1715826639249019144,0.116,,,,15.142547692
1715826639256713303,0.103,,,,15.150241851
1715826639264407462,0.067,,,,15.15793601
1715826639272101630,0.033,65.0,994.0,,15.165630178
1715826639279795998,0.019,,,,15.173324546
1715826639287490366,-0.004,,,,15.181018914
1715826639295184734,0.014,,,,15.188713282
1715826639302879102,0.062,,,,15.19640765
1715826639310573470,0.053,,,,15.204102018
1715826639318267838,0.048,,,,15.211796386
1715826639325962206,0.045,,,,15.219490754
1715826639333656574,-0.004,,,,15.227185122
1715826639341350942,0.118,,,,15.23487949
1715826639349045310,0.6880000000000001,,,,15.242573858
1715826639356739678,1.45,,,,15.250268226
1715826639364434046,1.469,,,,15.257962594
1715826639372128414,0.203,,,,15.265656962
1715826639379822782,-0.8190000000000001,,,,15.27335133
1715826639387517150,-0.326,,,,15.281045698
1715826639395211518,0.174,,,,15.288740066
1715826639402905886,-0.089,,,,15.296434434
1715826639410600254,-0.116,,,,15.304128802
1715826639418294622,0.055,,,,15.31182317
1715826639425988990,-0.014,,,,15.319517538
1715826639433683358,-0.055,,,,15.327211906
1715826639441377726,0.016,,,,15.334906274
1715826639449072094,0.021,,,,15.342600642
1715826639456766462,0.016,,,,15.35029501
1715826639464460830,0.06,,,,15.357989378
1715826639472155198,0.072,,,,15.365683746
1715826639479849566,0.062,,,,15.373378114
1715826639487543934,0.07,,,,15.381072482
1715826639495238302,0.077,,,,15.38876685
1715826639502932670,0.082,,,,15.396461218
1715826639510627038,0.106,,,,15.404155586
1715826639518321406,0.118,,,,15.411849954
1715826639526015774,0.123,,,,15.419544322
1715826639533710142,0.142,,,,15.42723869
1715826639541404510,0.159,,,,15.434933058
1715826639549098878,0.181,,,,15.442627426
1715826639556793246,0.212,,,,15.450321794
1715826639564487614,0.236,,,,15.458016162
1715826639572181982,0.27,,,,15.46571053
1715826639579876350,0.311,,,,15.473404898
1715826639587570718,0.335,,,,15.481099266
1715826639595265086,0.352,,,,15.488793634
1715826639602959454,0.367,,,,15.496488002
1715826639610653822,0.379,,,,15.50418237
1715826639618348190,0.386,,,,15.511876738
1715826639626042558,0.379,,,,15.519571106
1715826639633736926,0.362,,,,15.527265474
1715826639641431294,0.321,,,,15.534959842
1715826639649125662,0.256,,,,15.54265421
1715826639656820030,0.203,,,,15.550348578
1715826639664514398,0.161,,,,15.558042946
1715826639672208766,0.108,,,,15.565737314
1715826639679903134,0.055,,,,15.573431682
1715826639687597502,0.021,,,,15.58112605
1715826639695291870,-0.002,,,,15.588820418
1715826639702986238,-0.029,,,,15.596514786
1715826639710680606,-0.024,,,,15.604209154
1715826639718374974,-0.012,,,,15.611903522
1715826639726069342,-0.029,,,,15.61959789
1715826639733763710,-0.033,,,,15.627292258
1715826639741458078,-0.026,,,,15.634986626
1715826639749152446,-0.029,,,,15.642680994
1715826639756846814,-0.021,,,,15.650375362
1715826639764541182,-0.016,,,,15.65806973
1715826639772235550,-0.019,,,,15.665764098
1715826639779929918,-0.014,,,,15.673458466
1715826639787624286,0.004,,,,15.681152834
1715826639795318654,0.012,,,,15.688847202
1715826639803013022,0.002,,,,15.69654157
1715826639810707390,0.014,,,,15.704235938
1715826639818401758,0.033,,,,15.711930306
1715826639826096126,0.033,,,,15.719624674
1715826639833790506,0.033,,,,15.727319054
1715826639841484874,0.041,,,,15.735013422
1715826639849179242,0.045,,,,15.74270779
1715826639856873610,0.045,,,,15.750402158
1715826639864567978,0.031,,,,15.758096526
1715826639872262346,0.014,,,,15.765790894
1715826639879956714,0.016,,,,15.773485262
1715826639887651082,0.031,,,,15.78117963
1715826639895345450,0.048,,,,15.788873998
1715826639903039818,0.038,,,,15.796568366
1715826639910734186,0.012,,,,15.804262734
1715826639918428554,-0.007,,,,15.811957102
1715826639926122922,-0.016,,,,15.81965147
1715826639933817290,0.002,,,,15.827345838
1715826639941511658,0.031,,,,15.835040206
1715826639949206026,0.033,,,,15.842734574
1715826639956900394,0.016,,,,15.850428942
1715826639964594762,0.016,,,,15.85812331
1715826639972289130,0.029,,,,15.865817678
1715826639979983498,0.029,,,,15.873512046
1715826639987677866,0.016,,,,15.881206414
1715826639995372234,0.024,,,,15.888900782
1715826640003066602,0.031,,,,15.89659515
1715826640010760970,0.024,,,,15.904289518
1715826640018455338,0.016,,,,15.911983886
1715826640026149706,0.026,,,,15.919678254
1715826640033844074,0.038,,,,15.927372622
1715826640041538442,0.024,,,,15.93506699
1715826640049232810,0.012,,,,15.942761358
1715826640056927178,0.024,,,,15.950455726
1715826640064621546,0.033,,,,15.958150094
1715826640072315914,0.029,,,,15.965844462
1715826640080010282,0.012,,,,15.97353883
1715826640087704650,-0.002,,,,15.981233198
1715826640095399018,0.012,,,,15.988927566
1715826640103093386,0.033,,,,15.996621934
1715826640110787754,0.041,,,,16.004316302
1715826640118482122,0.041,,,,16.01201067
1715826640126176490,0.048,,,,16.019705038
1715826640133870858,0.055,,,,16.027399406
1715826640141565226,0.045,,,,16.035093774
1715826640149259594,0.033,,,,16.042788142
1715826640156953962,0.055,,,,16.05048251
1715826640164648330,0.077,,,,16.058176878
1715826640172342698,0.07,,,,16.065871246
1715826640180037066,0.048,,,,16.073565614
1715826640187731434,0.033,,,,16.081259982
1715826640195425802,0.043,,,,16.08895435
1715826640203120170,0.053,,,,16.096648718
1715826640210814538,0.058,,,,16.104343086
1715826640218508906,0.082,,,,16.112037454
1715826640226203274,0.111,,,,16.119731822
1715826640233897642,0.116,,,,16.12742619
1715826640241592010,0.103,,,,16.135120558
1715826640249286378,0.125,,,,16.142814926
1715826640256980746,0.13,,,,16.150509294
1715826640264675114,0.072,,,,16.158203662
1715826640272369482,0.033,,,,16.16589803
1715826640280063850,0.05,,,,16.173592398
1715826640287758218,0.06,,,,16.181286766
1715826640295452586,0.048,,,,16.188981134
1715826640303146954,0.053,,,,16.196675502
1715826640310841322,0.067,,,,16.20436987
1715826640318535690,0.074,,,,16.212064238
1715826640326230058,0.065,,,,16.219758606
1715826640333924426,0.041,,,,16.227452974
1715826640341618794,0.094,,,,16.235147342
1715826640349313162,0.524,,,,16.24284171
1715826640357007530,1.365,,,,16.250536078
1715826640364701898,1.703,,,,16.258230446
1715826640372396266,0.5630000000000001,,,,16.265924814
1715826640380090634,-0.792,,,,16.273619182
1715826640387785002,-0.502,,,,16.28131355
1715826640395479382,0.2,65.0,979.0,,16.28900793
1715826640403173750,-0.004,,,,16.296702298
1715826640410868118,-0.149,,,,16.304396666
1715826640418562486,0.041,,,,16.312091034
1715826640426256854,0.007,,,,16.319785402
1715826640433951222,-0.053,,,,16.32747977
1715826640441645590,0.036,,,,16.335174138
1715826640449339958,0.062,,,,16.342868506
1715826640457034326,0.038,,,,16.350562874
1715826640464728694,0.045,,,,16.358257242
1715826640472423062,0.048,,,,16.36595161
1715826640480117430,0.041,,,,16.373645978
1715826640487811798,0.05,,,,16.381340346
1715826640495506166,0.06,,,,16.389034714
1715826640503200534,0.062,,,,16.396729082
1715826640510894902,0.082,,,,16.40442345
1715826640518589270,0.099,,,,16.412117818
1715826640526283638,0.106,,,,16.419812186
1715826640533978006,0.13,,,,16.427506554
1715826640541672374,0.166,,,,16.435200922
1715826640549366742,0.183,,,,16.44289529
1715826640557061110,0.193,,,,16.450589658
1715826640564755478,0.215,,,,16.458284026
1715826640572449846,0.248,,,,16.465978394
1715826640580144214,0.277,,,,16.473672762
1715826640587838582,0.299,,,,16.48136713
1715826640595532950,0.328,,,,16.489061498
1715826640603227318,0.35,,,,16.496755866
1715826640610921686,0.367,,,,16.504450234
1715826640618616054,0.381,,,,16.512144602
1715826640626310422,0.377,,,,16.51983897
1715826640634004790,0.367,,,,16.527533338
1715826640641699158,0.34,,,,16.535227706
1715826640649393526,0.275,,,,16.542922074
1715826640657087894,0.198,,,,16.550616442
1715826640664782262,0.145,,,,16.55831081
1715826640672476630,0.111,,,,16.566005178
1715826640680170998,0.058,,,,16.573699546
1715826640687865366,0.012,,,,16.581393914
1715826640695559734,0.004,,,,16.589088282
1715826640703254102,-0.009,,,,16.59678265
1715826640710948470,-0.021,,,,16.604477018
1715826640718642838,-0.007,,,,16.612171386
1715826640726337206,-0.016,,,,16.619865754
1715826640734031574,-0.053,,,,16.627560122
1715826640741725942,-0.05,,,,16.63525449
1715826640749420310,-0.024,,,,16.642948858
1715826640757114678,-0.014,,,,16.650643226
1715826640764809046,-0.016,,,,16.658337594
1715826640772503414,-0.016,,,,16.666031962
1715826640780197782,-0.012,,,,16.67372633
1715826640787892150,0.0,,,,16.681420698
1715826640795586518,0.009,,,,16.689115066
1715826640803280886,0.002,,,,16.696809434
1715826640810975254,-0.009,,,,16.704503802
1715826640818669622,0.0,,,,16.71219817
1715826640826363990,0.007,,,,16.719892538
1715826640834058358,-0.002,,,,16.727586906
1715826640841752726,0.0,,,,16.735281274
1715826640849447094,0.024,,,,16.742975642
1715826640857141462,0.031,,,,16.75067001
1715826640864835830,0.014,,,,16.758364378
1715826640872530198,-0.002,,,,16.766058746
1715826640880224566,0.007,,,,16.773753114
1715826640887918934,0.014,,,,16.781447482
1715826640895613302,-0.009,,,,16.78914185
1715826640903307670,-0.033,,,,16.796836218
1715826640911002038,-0.009,,,,16.804530586
1715826640918696406,0.029,,,,16.812224954
1715826640926390774,0.029,,,,16.819919322
1715826640934085142,0.007,,,,16.82761369
1715826640941779510,0.002,,,,16.835308058
1715826640949473878,0.004,,,,16.843002426
1715826640957168260,-0.004,,,,16.850696808
1715826640964862628,-0.002,,,,16.858391176
1715826640972556996,0.004,,,,16.866085544
1715826640980251364,0.004,,,,16.873779912
1715826640987945732,0.024,,,,16.88147428
1715826640995640100,0.036,,,,16.889168648
1715826641003334468,0.012,,,,16.896863016
1715826641011028836,-0.004,,,,16.904557384
1715826641018723204,-0.002,,,,16.912251752
1715826641026417572,0.0,,,,16.91994612
1715826641034111940,0.004,,,,16.927640488
1715826641041806308,0.014,,,,16.935334856
1715826641049500676,0.019,,,,16.943029224
1715826641057195044,0.026,,,,16.950723592
1715826641064889412,0.024,,,,16.95841796
1715826641072583780,-0.007,,,,16.966112328
1715826641080278148,-0.012,,,,16.973806696
1715826641087972516,0.016,,,,16.981501064
1715826641095666884,0.014,,,,16.989195432
1715826641103361252,0.004,,,,16.9968898
1715826641111055620,0.021,,,,17.004584168
1715826641118749988,0.029,,,,17.012278536
1715826641126444356,0.016,,,,17.019972904
1715826641134138724,0.004,,,,17.027667272
1715826641141833092,0.009,,,,17.03536164
1715826641149527460,0.026,,,,17.043056008
1715826641157221828,0.048,,,,17.050750376
1715826641164916196,0.062,,,,17.058444744
1715826641172610564,0.038,,,,17.066139112
1715826641180304932,0.016,,,,17.07383348
1715826641187999300,0.045,,,,17.081527848
1715826641195693668,0.06,,,,17.089222216
1715826641203388036,0.029,,,,17.096916584
1715826641211082404,0.019,,,,17.104610952
1715826641218776772,0.033,,,,17.11230532
1715826641226471140,0.041,,,,17.119999688
1715826641234165508,0.074,,,,17.127694056
1715826641241859876,0.087,,,,17.135388424
1715826641249554244,0.048,,,,17.143082792
1715826641257248612,0.041,,,,17.15077716
1715826641264942980,0.074,,,,17.158471528
1715826641272637348,0.106,,,,17.166165896
1715826641280331716,0.116,,,,17.173860264
1715826641288026084,0.096,,,,17.181554632
1715826641295720452,0.108,,,,17.189249
1715826641303414820,0.14,,,,17.196943368
1715826641311109188,0.096,,,,17.204637736
1715826641318803556,0.036,,,,17.212332104
1715826641326497924,0.036,,,,17.220026472
1715826641334192292,0.058,,,,17.22772084
1715826641341886660,0.058,,,,17.235415208
1715826641349581028,0.043,,,,17.243109576
1715826641357275396,0.048,,,,17.250803944
1715826641364969764,0.062,,,,17.258498312
1715826641372664132,0.065,,,,17.26619268
1715826641380358500,0.05,,,,17.273887048
1715826641388052868,0.111,,,,17.281581416
1715826641395747236,0.526,,,,17.289275784
1715826641403441604,1.29,,,,17.296970152
1715826641411135972,1.59,,,,17.30466452
1715826641418830340,0.56,,,,17.312358888
1715826641426524708,-0.732,,,,17.320053256
1715826641434219076,-0.551,,,,17.327747624
1715826641441913444,0.13,,,,17.335441992
1715826641449607812,0.009,,,,17.34313636
1715826641457302180,-0.111,,,,17.350830728
1715826641464996548,0.072,,,,17.358525096
1715826641472690916,0.043,,,,17.366219464
1715826641480385284,-0.043,,,,17.373913832
1715826641488079652,0.029,,,,17.3816082
1715826641495774020,0.079,,,,17.389302568
1715826641503468388,0.05,,,,17.396996936
1715826641511162756,0.05,,,,17.404691304
1715826641518857136,0.072,64.0,993.0,,17.412385684
1715826641526551713,0.065,,,,17.420080261
1715826641534246290,0.074,,,,17.427774838
1715826641541940867,0.108,,,,17.435469415
1715826641549635444,0.106,,,,17.443163992
1715826641557330021,0.108,,,,17.450858569
1715826641565024598,0.14,,,,17.458553146
1715826641572719175,0.159,,,,17.466247723
1715826641580413752,0.159,,,,17.4739423
1715826641588108329,0.166,,,,17.481636877
1715826641595802906,0.174,,,,17.489331454
1715826641603497483,0.174,,,,17.497026031
1715826641611192060,0.19,,,,17.504720608
1715826641618886637,0.246,,,,17.512415185
1715826641626581214,0.292,,,,17.520109762
1715826641634275791,0.311,,,,17.527804339
1715826641641970368,0.326,,,,17.535498916
1715826641649664945,0.335,,,,17.543193493
1715826641657359522,0.348,,,,17.55088807
1715826641665054099,0.362,,,,17.558582647
1715826641672748676,0.372,,,,17.566277224
1715826641680443253,0.362,,,,17.573971801
1715826641688137830,0.328,,,,17.581666378
1715826641695832407,0.265,,,,17.589360955
1715826641703526984,0.198,,,,17.597055532
1715826641711221561,0.149,,,,17.604750109
1715826641718916138,0.12,,,,17.612444686
1715826641726610715,0.07,,,,17.620139263
1715826641734305292,0.016,,,,17.62783384
1715826641741999869,-0.002,,,,17.635528417
1715826641749694446,-0.007,,,,17.643222994
1715826641757389023,-0.019,,,,17.650917571
1715826641765083600,-0.038,,,,17.658612148
1715826641772778177,-0.038,,,,17.666306725
1715826641780472754,-0.021,,,,17.674001302
1715826641788167331,-0.012,,,,17.681695879
1715826641795861908,-0.016,,,,17.689390456
1715826641803556485,-0.021,,,,17.697085033
1715826641811251062,-0.002,,,,17.70477961
1715826641818945639,0.016,,,,17.712474187
1715826641826640216,0.004,,,,17.720168764
1715826641834334793,0.014,,,,17.727863341
1715826641842029370,0.041,,,,17.735557918
1715826641849723947,0.026,,,,17.743252495
1715826641857418524,0.002,,,,17.750947072
1715826641865113101,0.021,,,,17.758641649
1715826641872807678,0.043,,,,17.766336226
1715826641880502255,0.033,,,,17.774030803
1715826641888196832,0.019,,,,17.78172538
1715826641895891409,0.009,,,,17.789419957
1715826641903585986,0.014,,,,17.797114534
1715826641911280563,0.024,,,,17.804809111
1715826641918975140,0.024,,,,17.812503688
1715826641926669717,0.014,,,,17.820198265
1715826641934364294,0.009,,,,17.827892842
1715826641942058871,0.007,,,,17.835587419
1715826641949753448,0.012,,,,17.843281996
1715826641957448025,0.024,,,,17.850976573
1715826641965142602,0.016,,,,17.85867115
1715826641972837179,-0.009,,,,17.866365727
1715826641980531756,-0.012,,,,17.874060304
1715826641988226333,0.024,,,,17.881754881
1715826641995920910,0.045,,,,17.889449458
1715826642003615487,0.026,,,,17.897144035
1715826642011310064,0.016,,,,17.904838612
1715826642019004641,0.029,,,,17.912533189
1715826642026699218,0.016,,,,17.920227766
1715826642034393795,-0.002,,,,17.927922343
1715826642042088372,0.007,,,,17.93561692
1715826642049782949,0.019,,,,17.943311497
1715826642057477526,0.019,,,,17.951006074
1715826642065172103,0.016,,,,17.958700651
1715826642072866680,0.029,,,,17.966395228
1715826642080561272,0.026,64.0,1013.0,,17.97408982
1715826642088255570,0.009,,,,17.981784118
1715826642095949868,0.019,,,,17.989478416
1715826642103644166,0.041,,,,17.997172714
1715826642111338464,0.048,,,,18.004867012
1715826642119032762,0.041,,,,18.01256131
1715826642126727060,0.038,,,,18.020255608
1715826642134421358,0.045,,,,18.027949906
1715826642142115656,0.045,,,,18.035644204
1715826642149809954,0.036,,,,18.043338502
1715826642157504252,0.041,,,,18.0510328
1715826642165198550,0.045,,,,18.058727098
1715826642172892848,0.036,,,,18.066421396
1715826642180587146,0.029,,,,18.074115694
1715826642188281444,0.038,,,,18.081809992
1715826642195975742,0.048,,,,18.08950429
1715826642203670040,0.041,,,,18.097198588
1715826642211364338,0.031,,,,18.104892886
1715826642219058636,0.05,,,,18.112587184
1715826642226752934,0.067,,,,18.120281482
1715826642234447232,0.067,,,,18.12797578
1715826642242141530,0.065,,,,18.135670078
1715826642249835828,0.058,,,,18.143364376
1715826642257530126,0.05,,,,18.151058674
1715826642265224424,0.05,,,,18.158752972
1715826642272918722,0.058,,,,18.16644727
1715826642280613020,0.067,,,,18.174141568
1715826642288307318,0.067,,,,18.181835866
1715826642296001616,0.062,,,,18.189530164
1715826642303695914,0.065,,,,18.197224462
1715826642311390212,0.074,,,,18.20491876
1715826642319084510,0.101,,,,18.212613058
1715826642326778808,0.13,,,,18.220307356
1715826642334473106,0.13,,,,18.228001654
1715826642342167404,0.111,,,,18.235695952
1715826642349861702,0.106,,,,18.24339025
1715826642357556000,0.099,,,,18.251084548
1715826642365250298,0.072,,,,18.258778846
1715826642372944596,0.065,,,,18.266473144
1715826642380638894,0.079,,,,18.274167442
1715826642388333192,0.077,,,,18.28186174
1715826642396027490,0.058,,,,18.289556038
1715826642403721788,0.043,,,,18.297250336
1715826642411416086,0.053,,,,18.304944634
1715826642419110384,0.07,,,,18.312638932
1715826642426804682,0.036,,,,18.32033323
1715826642434498980,0.019,,,,18.328027528
1715826642442193278,0.292,,,,18.335721826
1715826642449887576,1.024,,,,18.343416124
1715826642457581874,1.701,,,,18.351110422
1715826642465276172,1.172,,,,18.35880472
1715826642472970470,-0.34,,,,18.366499018
1715826642480664768,-0.768,,,,18.374193316
1715826642488359066,-0.012,,,,18.381887614
1715826642496053364,0.125,,,,18.389581912
1715826642503747662,-0.157,,,,18.39727621
1715826642511441960,-0.024,,,,18.404970508
1715826642519136258,0.07,,,,18.412664806
1715826642526830556,-0.038,,,,18.420359104
1715826642534524854,-0.024,,,,18.428053402
1715826642542219152,0.043,,,,18.4357477
1715826642549913450,0.031,,,,18.443441998
1715826642557607748,0.029,,,,18.451136296
1715826642565302046,0.058,,,,18.458830594
1715826642572996344,0.06,,,,18.466524892
1715826642580690642,0.036,,,,18.47421919
1715826642588384940,0.045,,,,18.481913488
1715826642596079238,0.096,,,,18.489607786
1715826642603773536,0.116,,,,18.497302084
1715826642611467834,0.106,,,,18.504996382
1715826642619162132,0.123,,,,18.51269068
1715826642626856430,0.135,,,,18.520384978
1715826642634550728,0.14,,,,18.528079276
1715826642642245062,0.161,,,,18.53577361
1715826642649939360,0.181,,,,18.543467908
1715826642657633658,0.203,,,,18.551162206
1715826642665327956,0.239,,,,18.558856504
1715826642673022254,0.282,,,,18.566550802
1715826642680716552,0.304,,,,18.5742451
1715826642688410850,0.311,,,,18.581939398
1715826642696105148,0.333,,,,18.589633696
1715826642703799446,0.357,,,,18.597327994
1715826642711493744,0.352,,,,18.605022292
1715826642719188042,0.345,,,,18.61271659
1715826642726882340,0.343,,,,18.620410888
1715826642734576638,0.328,,,,18.628105186
1715826642742270936,0.297,,,,18.635799484
1715826642749965234,0.246,,,,18.643493782
1715826642757659532,0.169,,,,18.65118808
1715826642765353830,0.111,,,,18.658882378
1715826642773048128,0.067,,,,18.666576676
1715826642780742426,0.012,,,,18.674270974
1715826642788436724,-0.029,,,,18.681965272
1715826642796131022,-0.026,,,,18.68965957
1715826642803825320,-0.029,,,,18.697353868
1715826642811519618,-0.05,,,,18.705048166
1715826642819213916,-0.05,,,,18.712742464
1715826642826908214,-0.045,,,,18.720436762
1715826642834602512,-0.045,,,,18.72813106
1715826642842296810,-0.029,,,,18.735825358
1715826642849991108,-0.029,,,,18.743519656
1715826642857685406,-0.041,,,,18.751213954
1715826642865379704,-0.041,,,,18.758908252
1715826642873074002,-0.024,,,,18.76660255
1715826642880768300,0.002,,,,18.774296848
1715826642888462598,0.012,,,,18.781991146
1715826642896156896,-0.009,,,,18.789685444
1715826642903851194,-0.031,,,,18.797379742
1715826642911545492,-0.012,,,,18.80507404
1715826642919239790,0.009,,,,18.812768338
1715826642926934088,-0.021,,,,18.820462636
1715826642934628386,-0.031,,,,18.828156934
1715826642942322684,-0.002,,,,18.835851232
1715826642950016982,-0.026,,,,18.84354553
1715826642957711280,-0.031,,,,18.851239828
1715826642965405578,0.026,,,,18.858934126
1715826642973099876,0.029,,,,18.866628424
1715826642980794174,-0.016,,,,18.874322722
1715826642988488472,-0.036,,,,18.88201702
1715826642996182770,-0.016,,,,18.889711318
1715826643003877068,0.009,,,,18.897405616
1715826643011571366,0.014,,,,18.905099914
1715826643019265664,0.0,,,,18.912794212
1715826643026959962,-0.009,,,,18.92048851
1715826643034654260,-0.009,,,,18.928182808
1715826643042348558,-0.007,,,,18.935877106
1715826643050042856,-0.007,,,,18.943571404
1715826643057737154,0.002,,,,18.951265702
1715826643065431452,0.019,,,,18.95896
1715826643073125750,0.016,,,,18.966654298
1715826643080820048,0.007,,,,18.974348596
1715826643088514346,-0.002,,,,18.982042894
1715826643096208644,-0.014,,,,18.989737192
1715826643103902942,-0.004,,,,18.99743149
1715826643111597240,0.016,,,,19.005125788
1715826643119291538,0.031,,,,19.012820086
1715826643126985836,0.041,,,,19.020514384
1715826643134680134,0.045,,,,19.028208682
1715826643142374432,0.026,,,,19.03590298
1715826643150068730,0.014,,,,19.043597278
1715826643157763028,0.036,,,,19.051291576
1715826643165457326,0.055,,,,19.058985874
1715826643173151624,0.045,,,,19.066680172
1715826643180845922,0.043,,,,19.07437447
1715826643188540220,0.043,,,,19.082068768
1715826643196234518,0.024,,,,19.089763066
1715826643203928852,0.031,64.0,1002.0,,19.0974574
1715826643211623150,0.058,,,,19.105151698
1715826643219317448,0.05,,,,19.112845996
1715826643227011746,0.029,,,,19.120540294
1715826643234706044,0.043,,,,19.128234592
1715826643242400342,0.053,,,,19.13592889
1715826643250094640,0.045,,,,19.143623188
1715826643257788938,0.048,,,,19.151317486
1715826643265483236,0.045,,,,19.159011784
1715826643273177534,0.058,,,,19.166706082
1715826643280871832,0.079,,,,19.17440038
1715826643288566130,0.07,,,,19.182094678
1715826643296260428,0.043,,,,19.189788976
1715826643303954726,0.058,,,,19.197483274
1715826643311649024,0.103,,,,19.205177572
1715826643319343322,0.13,,,,19.21287187
1715826643327037620,0.12,,,,19.220566168
1715826643334731918,0.12,,,,19.228260466
1715826643342426216,0.12,,,,19.235954764
1715826643350120514,0.087,,,,19.243649062
1715826643357814812,0.055,,,,19.25134336
1715826643365509110,0.048,,,,19.259037658
1715826643373203408,0.043,,,,19.266731956
1715826643380897706,0.045,,,,19.274426254
1715826643388592004,0.072,,,,19.282120552
1715826643396286302,0.077,,,,19.28981485
1715826643403980600,0.038,,,,19.297509148
1715826643411674898,0.021,,,,19.305203446
1715826643419369196,0.033,,,,19.312897744
1715826643427063494,0.094,,,,19.320592042
1715826643434757792,0.476,,,,19.32828634
1715826643442452090,1.252,,,,19.335980638
1715826643450146388,1.708,,,,19.343674936
1715826643457840686,0.833,,,,19.351369234
1715826643465534984,-0.635,,,,19.359063532
1715826643473229282,-0.708,,,,19.36675783
1715826643480923580,0.072,,,,19.374452128
1715826643488617878,0.065,,,,19.382146426
1715826643496312176,-0.147,,,,19.389840724
1715826643504006474,0.014,,,,19.397535022
1715826643511700772,0.041,,,,19.40522932
1715826643519395070,-0.033,,,,19.412923618
1715826643527089368,0.024,,,,19.420617916
1715826643534783666,0.048,,,,19.428312214
1715826643542477964,0.016,,,,19.436006512
1715826643550172262,0.043,,,,19.44370081
1715826643557866560,0.062,,,,19.451395108
1715826643565560858,0.036,,,,19.459089406
1715826643573255156,0.065,,,,19.466783704
1715826643580949454,0.118,,,,19.474478002
1715826643588643752,0.101,,,,19.4821723
1715826643596338050,0.091,,,,19.489866598
1715826643604032348,0.135,,,,19.497560896
1715826643611726646,0.176,,,,19.505255194
1715826643619420944,0.19,,,,19.512949492
1715826643627115242,0.164,,,,19.52064379
1715826643634809540,0.132,,,,19.528338088
1715826643642503838,0.135,,,,19.536032386
1715826643650198136,0.166,,,,19.543726684
1715826643657892434,0.232,,,,19.551420982
1715826643665586732,0.282,,,,19.55911528
1715826643673281030,0.261,,,,19.566809578
1715826643680975328,0.277,,,,19.574503876
1715826643688669626,0.374,,,,19.582198174
1715826643696363924,0.403,,,,19.589892472
1715826643704058222,0.374,,,,19.59758677
1715826643711752520,0.415,,,,19.605281068
1715826643719446818,0.464,,,,19.612975366
1715826643727141116,0.362,,,,19.620669664
1715826643734835414,0.181,,,,19.628363962
1715826643742529712,0.132,,,,19.63605826
1715826643750224010,0.147,,,,19.643752558
1715826643757918308,0.101,,,,19.651446856
1715826643765612642,0.089,,,,19.65914119
1715826643773307358,0.101,,,,19.666835906
1715826643781002074,0.024,,,,19.674530622
1715826643788696790,-0.065,,,,19.682225338
1715826643796391506,-0.06,,,,19.689920054
1715826643804086222,-0.041,,,,19.69761477
1715826643811780938,-0.05,,,,19.705309486
1715826643819475654,-0.036,,,,19.713004202
1715826643827170370,-0.002,,,,19.720698918
1715826643834865086,0.014,,,,19.728393634
1715826643842559802,0.004,,,,19.73608835
1715826643850254518,-0.029,,,,19.743783066
1715826643857949234,-0.024,,,,19.751477782
1715826643865643950,0.012,,,,19.759172498
1715826643873338666,0.002,,,,19.766867214
1715826643881033382,-0.014,,,,19.77456193
1715826643888728098,-0.004,,,,19.782256646
1715826643896422814,0.004,,,,19.789951362
1715826643904117530,0.0,,,,19.797646078
1715826643911812246,0.002,,,,19.805340794
1715826643919506962,0.026,,,,19.81303551
1715826643927201678,0.024,,,,19.820730226
1715826643934896394,0.012,,,,19.828424942
1715826643942591110,0.024,,,,19.836119658
1715826643950285826,0.029,,,,19.843814374
1715826643957980542,0.009,,,,19.85150909
1715826643965675258,-0.016,,,,19.859203806
1715826643973369974,-0.016,,,,19.866898522
1715826643981064690,0.019,,,,19.874593238
1715826643988759406,0.036,,,,19.882287954
1715826643996454122,-0.004,,,,19.88998267
1715826644004148838,-0.019,,,,19.897677386
1715826644011843554,0.029,,,,19.905372102
1715826644019538270,0.041,,,,19.913066818
1715826644027232986,0.007,,,,19.920761534
1715826644034927702,-0.007,,,,19.92845625
1715826644042622418,-0.004,,,,19.936150966
1715826644050317134,-0.014,,,,19.943845682
1715826644058011850,-0.004,,,,19.951540398
1715826644065706566,0.036,,,,19.959235114
1715826644073401282,0.014,,,,19.96692983
1715826644081095998,-0.031,,,,19.974624546
1715826644088790714,0.002,,,,19.982319262
1715826644096485430,0.031,,,,19.990013978
1715826644104180146,0.0,,,,19.997708694
1715826644111874862,0.0,,,,20.00540341
1715826644119569578,0.041,,,,20.013098126
1715826644127264294,0.043,,,,20.020792842
1715826644134959010,0.007,,,,20.028487558
1715826644142653726,0.004,,,,20.036182274
1715826644150348442,0.026,,,,20.04387699
1715826644158043158,0.031,,,,20.051571706
1715826644165737874,0.038,,,,20.059266422
1715826644173432590,0.043,,,,20.066961138
1715826644181127306,0.016,,,,20.074655854
1715826644188822022,0.009,,,,20.08235057
1715826644196516738,0.055,,,,20.090045286
1715826644204211454,0.07,,,,20.097740002
1715826644211906170,0.038,,,,20.105434718
1715826644219600886,0.026,,,,20.113129434
1715826644227295602,0.029,,,,20.12082415
1715826644234990318,0.038,,,,20.128518866
1715826644242685034,0.062,,,,20.136213582
1715826644250379750,0.055,,,,20.143908298
1715826644258074466,0.048,,,,20.151603014
1715826644265769182,0.079,,,,20.15929773
1715826644273463898,0.113,,,,20.166992446
1715826644281158614,0.125,,,,20.174687162
1715826644288853330,0.123,,,,20.182381878
1715826644296548046,0.116,,,,20.190076594
1715826644304242762,0.123,,,,20.19777131
1715826644311937478,0.118,,,,20.205466026
1715826644319632194,0.082,,,,20.213160742
1715826644327326950,0.05,63.0,1047.0,,20.220855498
1715826644335021248,0.058,,,,20.228549796
1715826644342715546,0.072,,,,20.236244094
1715826644350409844,0.06,,,,20.243938392
1715826644358104142,0.053,,,,20.25163269
1715826644365798440,0.065,,,,20.259326988
1715826644373492738,0.084,,,,20.267021286
1715826644381187036,0.074,,,,20.274715584
1715826644388881334,0.041,,,,20.282409882
1715826644396575632,0.251,,,,20.29010418
1715826644404269930,0.942,,,,20.297798478
1715826644411964228,1.645,,,,20.305492776
1715826644419658526,1.268,,,,20.313187074
1715826644427352824,-0.193,,,,20.320881372
1715826644435047122,-0.8140000000000001,,,,20.32857567
1715826644442741420,-0.106,,,,20.336269968
1715826644450435718,0.164,,,,20.343964266
1715826644458130016,-0.118,,,,20.351658564
1715826644465824314,-0.024,,,,20.359352862
1715826644473518612,0.101,,,,20.36704716
1715826644481212910,-0.002,,,,20.374741458
1715826644488907208,-0.029,,,,20.382435756
1715826644496601506,0.036,,,,20.390130054
1715826644504295804,0.048,,,,20.397824352
1715826644511990102,0.043,,,,20.40551865
1715826644519684400,0.065,,,,20.413212948
1715826644527378698,0.065,,,,20.420907246
1715826644535072996,0.055,,,,20.428601544
1715826644542767294,0.07,,,,20.436295842
1715826644550461592,0.077,,,,20.44399014
1715826644558155890,0.077,,,,20.451684438
1715826644565850188,0.096,,,,20.459378736
1715826644573544486,0.142,,,,20.467073034
1715826644581238784,0.19,,,,20.474767332
1715826644588933082,0.195,,,,20.48246163
1715826644596627380,0.171,,,,20.490155928
1715826644604321678,0.186,,,,20.497850226
1715826644612015976,0.217,,,,20.505544524
1715826644619710274,0.241,,,,20.513238822
1715826644627404572,0.29,,,,20.52093312
1715826644635098870,0.326,,,,20.528627418
1715826644642793168,0.326,,,,20.536321716
1715826644650487466,0.333,,,,20.544016014
1715826644658181764,0.357,,,,20.551710312
1715826644665876062,0.377,,,,20.55940461
1715826644673570360,0.386,,,,20.567098908
1715826644681264658,0.36,,,,20.574793206
1715826644688958956,0.302,,,,20.582487504
1715826644696653254,0.268,,,,20.590181802
1715826644704347552,0.27,,,,20.5978761
1715826644712041850,0.234,,,,20.605570398
1715826644719736148,0.149,,,,20.613264696
1715826644727430446,0.074,,,,20.620958994
1715826644735124744,0.031,,,,20.628653292
1715826644742819042,0.019,,,,20.63634759
1715826644750513340,0.019,,,,20.644041888
1715826644758207638,0.004,,,,20.651736186
1715826644765901936,-0.014,,,,20.659430484
1715826644773596234,-0.021,,,,20.667124782
1715826644781290532,-0.029,,,,20.67481908
1715826644788984830,-0.031,,,,20.682513378
1715826644796679128,-0.016,,,,20.690207676
1715826644804373426,-0.004,,,,20.697901974
1715826644812067724,-0.007,,,,20.705596272
1715826644819762022,0.024,,,,20.71329057
1715826644827456320,0.065,,,,20.720984868
1715826644835150618,0.065,,,,20.728679166
1715826644842844916,0.024,,,,20.736373464
1715826644850539214,-0.026,,,,20.744067762
1715826644858233512,-0.007,,,,20.75176206
1715826644865927810,0.055,,,,20.759456358
1715826644873622108,0.053,,,,20.767150656
1715826644881316406,0.045,,,,20.774844954
1715826644889010740,0.062,,,,20.782539288
1715826644896705038,0.026,,,,20.790233586
1715826644904399336,0.0,,,,20.797927884
1715826644912093634,0.072,,,,20.805622182
1715826644919787932,0.06,,,,20.81331648
1715826644927482230,-0.087,,,,20.821010778
1715826644935176528,-0.096,,,,20.828705076
1715826644942870826,-0.004,,,,20.836399374
1715826644950565124,0.016,,,,20.844093672
1715826644958259422,0.05,,,,20.85178797
1715826644965953720,0.113,,,,20.859482268
1715826644973648018,0.091,,,,20.867176566
1715826644981342316,0.021,,,,20.874870864
1715826644989036614,-0.004,,,,20.882565162
1715826644996730912,0.014,,,,20.89025946
1715826645004425210,0.026,,,,20.897953758
1715826645012119508,0.021,,,,20.905648056
1715826645019813806,0.014,,,,20.913342354
1715826645027508104,0.019,,,,20.921036652
1715826645035202402,0.026,,,,20.92873095
1715826645042896700,0.021,,,,20.936425248
1715826645050590998,0.024,,,,20.944119546
1715826645058285296,0.036,,,,20.951813844
1715826645065979594,0.033,,,,20.959508142
1715826645073673892,0.031,,,,20.96720244
1715826645081368190,0.033,,,,20.974896738
1715826645089062488,0.019,,,,20.982591036
1715826645096756786,0.021,,,,20.990285334
1715826645104451084,0.033,,,,20.997979632
1715826645112145382,0.009,,,,21.00567393
1715826645119839680,-0.019,,,,21.013368228
1715826645127533978,-0.004,,,,21.021062526
1715826645135228276,0.014,,,,21.028756824
1715826645142922574,0.002,,,,21.036451122
1715826645150616872,-0.007,,,,21.04414542
1715826645158311170,0.0,,,,21.051839718
1715826645166005468,0.012,,,,21.059534016
1715826645173699766,0.016,,,,21.067228314
1715826645181394064,0.007,,,,21.074922612
1715826645189088362,0.0,,,,21.08261691
1715826645196782660,0.009,,,,21.090311208
1715826645204476958,0.029,,,,21.098005506
1715826645212171256,0.021,,,,21.105699804
1715826645219865554,0.0,,,,21.113394102
1715826645227559852,0.026,,,,21.1210884
1715826645235254150,0.07,,,,21.128782698
1715826645242948448,0.053,,,,21.136476996
1715826645250642746,0.026,,,,21.144171294
1715826645258337044,0.048,,,,21.151865592
1715826645266031342,0.065,,,,21.15955989
1715826645273725640,0.072,,,,21.167254188
1715826645281419938,0.089,,,,21.174948486
1715826645289114236,0.099,,,,21.182642784
1715826645296808534,0.111,,,,21.190337082
1715826645304502832,0.12,,,,21.19803138
1715826645312197130,0.108,,,,21.205725678
1715826645319891428,0.072,,,,21.213419976
1715826645327585726,0.036,,,,21.221114274
1715826645335280024,0.048,,,,21.228808572
1715826645342974322,0.087,,,,21.23650287
1715826645350668620,0.084,,,,21.244197168
1715826645358362918,0.062,,,,21.251891466
1715826645366057216,0.058,,,,21.259585764
1715826645373751514,0.077,,,,21.267280062
1715826645381445812,0.094,,,,21.27497436
1715826645389140110,0.067,,,,21.282668658
1715826645396834408,0.198,,,,21.290362956
1715826645404528706,0.804,,,,21.298057254
1715826645412223004,1.604,,,,21.305751552
1715826645419917302,1.529,,,,21.31344585
1715826645427611600,0.12,,,,21.321140148
1715826645435305898,-0.891,,,,21.328834446
1715826645443000196,-0.304,,,,21.336528744
1715826645450694530,0.188,63.0,1050.0,,21.344223078
1715826645458388828,-0.084,,,,21.351917376
1715826645466083126,-0.077,,,,21.359611674
1715826645473777424,0.077,,,,21.367305972
1715826645481471722,0.0,,,,21.37500027
1715826645489166020,0.002,,,,21.382694568
1715826645496860318,0.072,,,,21.390388866
1715826645504554616,0.048,,,,21.398083164
1715826645512248914,0.038,,,,21.405777462
1715826645519943212,0.067,,,,21.41347176
1715826645527637510,0.055,,,,21.421166058
1715826645535331808,0.05,,,,21.428860356
1715826645543026106,0.091,,,,21.436554654
1715826645550720404,0.103,,,,21.444248952
1715826645558414702,0.079,,,,21.45194325
1715826645566109000,0.111,,,,21.459637548
1715826645573803298,0.154,,,,21.467331846
1715826645581497596,0.149,,,,21.475026144
1715826645589191894,0.154,,,,21.482720442
1715826645596886192,0.183,,,,21.49041474
1715826645604580490,0.195,,,,21.498109038
1715826645612274788,0.21,,,,21.505803336
1715826645619969086,0.253,,,,21.513497634
1715826645627663384,0.29,,,,21.521191932
1715826645635357682,0.299,,,,21.52888623
1715826645643051980,0.331,,,,21.536580528
1715826645650746278,0.381,,,,21.544274826
1715826645658440576,0.393,,,,21.551969124
1715826645666134874,0.386,,,,21.559663422
1715826645673829172,0.413,,,,21.56735772
1715826645681523470,0.432,,,,21.575052018
1715826645689217768,0.396,,,,21.582746316
1715826645696912066,0.34,,,,21.590440614
1715826645704606364,0.287,,,,21.598134912
1715826645712300662,0.21,,,,21.60582921
1715826645719994960,0.132,,,,21.613523508
1715826645727689258,0.099,,,,21.621217806
1715826645735383556,0.079,,,,21.628912104
1715826645743077854,0.026,,,,21.636606402
1715826645750772152,-0.016,,,,21.6443007
1715826645758466450,-0.016,,,,21.651994998
1715826645766160748,-0.026,,,,21.659689296
1715826645773855046,-0.041,,,,21.667383594
1715826645781549344,-0.038,,,,21.675077892
1715826645789243642,-0.026,,,,21.68277219
1715826645796937940,-0.026,,,,21.690466488
1715826645804632238,-0.026,,,,21.698160786
1715826645812326536,-0.021,,,,21.705855084
1715826645820020834,-0.021,,,,21.713549382
1715826645827715132,-0.004,,,,21.72124368
1715826645835409430,0.014,,,,21.728937978
1715826645843103728,-0.002,,,,21.736632276
1715826645850798026,-0.014,,,,21.744326574
1715826645858492324,0.021,,,,21.752020872
1715826645866186622,0.038,,,,21.75971517
1715826645873880920,0.012,,,,21.767409468
1715826645881575218,0.002,,,,21.775103766
1715826645889269516,0.021,,,,21.782798064
1715826645896963814,0.038,,,,21.790492362
1715826645904658112,0.038,,,,21.79818666
1715826645912352410,0.024,,,,21.805880958
1715826645920046708,0.012,,,,21.813575256
1715826645927741006,0.014,,,,21.821269554
1715826645935435304,0.004,,,,21.828963852
1715826645943129602,-0.002,,,,21.83665815
1715826645950823900,0.031,,,,21.844352448
1715826645958518198,0.045,,,,21.852046746
1715826645966212496,0.019,,,,21.859741044
1715826645973906794,0.002,,,,21.867435342
1715826645981601092,0.009,,,,21.87512964
1715826645989295390,0.038,,,,21.882823938
1715826645996989688,0.055,,,,21.890518236
1715826646004683986,0.036,,,,21.898212534
1715826646012378320,0.021,62.0,990.0,,21.905906868
1715826646020072966,0.026,,,,21.913601514
1715826646027767612,0.036,,,,21.92129616
1715826646035462258,0.038,,,,21.928990806
1715826646043156904,0.038,,,,21.936685452
1715826646050851550,0.036,,,,21.944380098
1715826646058546196,0.029,,,,21.952074744
1715826646066240842,0.029,,,,21.95976939
1715826646073935488,0.036,,,,21.967464036
1715826646081630134,0.045,,,,21.975158682
1715826646089324780,0.053,,,,21.982853328
1715826646097019426,0.048,,,,21.990547974
1715826646104714072,0.029,,,,21.99824262
1715826646112408718,0.009,,,,22.005937266
1715826646120103364,0.012,,,,22.013631912
1715826646127798010,0.024,,,,22.021326558
1715826646135492656,0.014,,,,22.029021204
1715826646143187302,0.002,,,,22.03671585
1715826646150881948,0.004,,,,22.044410496
1715826646158576594,0.009,,,,22.052105142
1715826646166271240,0.021,,,,22.059799788
1715826646173965886,0.031,,,,22.067494434
1715826646181660532,0.033,,,,22.07518908
1715826646189355178,0.024,,,,22.082883726
1715826646197049824,0.016,,,,22.090578372
1715826646204744470,0.024,,,,22.098273018
1715826646212439116,0.038,,,,22.105967664
1715826646220133762,0.043,,,,22.11366231
1715826646227828408,0.043,,,,22.121356956
1715826646235523054,0.058,,,,22.129051602
1715826646243217700,0.089,,,,22.136746248
1715826646250912346,0.106,,,,22.144440894
1715826646258606992,0.103,,,,22.15213554
1715826646266301638,0.108,,,,22.159830186
1715826646273996284,0.103,,,,22.167524832
1715826646281690930,0.062,,,,22.175219478
1715826646289385576,0.031,,,,22.182914124
1715826646297080222,0.033,,,,22.19060877
1715826646304774868,0.041,,,,22.198303416
1715826646312469514,0.045,,,,22.205998062
1715826646320164160,0.058,,,,22.213692708
1715826646327858806,0.058,,,,22.221387354
1715826646335553452,0.036,,,,22.229082
