time,ecg,hr,rr,marker,norm_time
1715832509714846100,0.016,90.0,,,0.0
1715832509722540468,0.014,,,,0.007694368
1715832509730234836,0.007,,,,0.015388736
1715832509737929204,-0.002,,,,0.023083104
1715832509745623572,-0.002,,,,0.030777472
1715832509753317940,-0.009,,,,0.03847184
1715832509761012308,-0.014,,,,0.046166208
1715832509768706676,-0.021,,,,0.053860576
1715832509776401044,-0.026,,,,0.061554944
1715832509784095412,-0.014,,,,0.069249312
1715832509791789780,-0.007,,,,0.07694368
1715832509799484148,-0.004,,,,0.084638048
1715832509807178516,-0.004,,,,0.092332416
1715832509814872884,-0.009,,,,0.100026784
1715832509822567252,-0.007,,,,0.107721152
1715832509830261620,-0.004,,,,0.11541552
1715832509837955988,-0.004,,,,0.123109888
1715832509845650356,0.0,,,,0.130804256
1715832509853344724,-0.004,,,,0.138498624
1715832509861039092,-0.004,,656.0,,0.146192992
1715832509868733460,0.004,,,,0.15388736
1715832509876427828,0.009,,,,0.161581728
1715832509884122196,0.014,,,,0.169276096
1715832509891816564,0.007,,,,0.176970464
1715832509899510932,0.004,,,,0.184664832
1715832509907205300,0.012,,,,0.1923592
1715832509914899668,0.009,,,,0.200053568
1715832509922594036,0.009,,,,0.207747936
1715832509930288404,0.012,,,,0.215442304
1715832509937982772,0.012,,,,0.223136672
1715832509945677140,0.016,,,,0.23083104
1715832509953371508,0.012,,,,0.238525408
1715832509961065876,0.007,,,,0.246219776
1715832509968760244,0.012,,,,0.253914144
1715832509976454612,0.009,,,,0.261608512
1715832509984148980,0.016,,,,0.26930288
1715832509991843348,0.026,,,,0.276997248
1715832509999537716,0.033,,,,0.284691616
1715832510007232084,0.038,,,,0.292385984
1715832510014926452,0.031,,,,0.300080352
1715832510022620820,0.026,,,,0.30777472
1715832510030315188,0.026,,,,0.315469088
1715832510038009556,0.028,,,,0.323163456
1715832510045703924,0.036,,,,0.330857824
1715832510053398292,0.036,,,,0.338552192
1715832510061092660,0.038,,,,0.34624656
1715832510068787028,0.043,,,,0.353940928
1715832510076481396,0.04,,,,0.361635296
1715832510084175764,0.045,,,,0.369329664
1715832510091870132,0.064,,,,0.377024032
1715832510099564500,0.163,,,,0.3847184
1715832510107258868,0.387,,,,0.392412768
1715832510114953236,0.557,,,,0.400107136
1715832510122647604,0.353,,,,0.407801504
1715832510130341972,-0.074,,,,0.415495872
1715832510138036340,-0.137,,,,0.42319024
1715832510145730708,0.036,,,,0.430884608
1715832510153425076,0.004,,,,0.438578976
1715832510161119444,-0.05,,,,0.446273344
1715832510168813812,0.009,,,,0.453967712
1715832510176508180,0.019,,,,0.46166208
1715832510184202548,0.0,,,,0.469356448
1715832510191896916,0.016,,,,0.477050816
1715832510199591284,0.024,,,,0.484745184
1715832510207285652,0.016,,,,0.492439552
1715832510214980020,0.016,,,,0.50013392
1715832510222674388,0.026,,,,0.507828288
1715832510230368756,0.031,,,,0.515522656
1715832510238063124,0.033,,,,0.523217024
1715832510245757492,0.043,,,,0.530911392
1715832510253451860,0.043,,,,0.53860576
1715832510261146228,0.048,,,,0.546300128
1715832510268840596,0.052,,,,0.553994496
1715832510276534976,0.055,,,,0.561688876
1715832510284229762,0.064,,,,0.569383662
1715832510291924548,0.069,,,,0.577078448
1715832510299619334,0.067,,,,0.584773234
1715832510307314120,0.072,,,,0.59246802
1715832510315008906,0.072,,,,0.600162806
1715832510322703692,0.084,,,,0.607857592
1715832510330398478,0.088,,,,0.615552378
1715832510338093264,0.076,,,,0.623247164
1715832510345788050,0.076,,,,0.63094195
1715832510353482836,0.081,,,,0.638636736
1715832510361177622,0.074,,,,0.646331522
1715832510368872408,0.062,,,,0.654026308
1715832510376567194,0.057,,,,0.661721094
1715832510384261980,0.062,,,,0.66941588
1715832510391956766,0.055,,,,0.677110666
1715832510399651552,0.043,,,,0.684805452
1715832510407346338,0.055,,,,0.692500238
1715832510415041124,0.069,,,,0.700195024
1715832510422735910,0.084,,,,0.70788981
1715832510430430696,0.096,,,,0.715584596
1715832510438125482,0.103,,,,0.723279382
1715832510445820268,0.113,,,,0.730974168
1715832510453515054,0.12,,,,0.738668954
1715832510461209840,0.125,,,,0.74636374
1715832510468904626,0.125,,,,0.754058526
1715832510476599412,0.12,,,,0.761753312
1715832510484294198,0.125,,,,0.769448098
1715832510491988984,0.125,,,,0.777142884
1715832510499683770,0.129,,,,0.78483767
1715832510507378556,0.144,,,,0.792532456
1715832510515073342,0.144,,,,0.800227242
1715832510522768128,0.141,,659.0,,0.807922028
1715832510530462914,0.139,,,,0.815616814
1715832510538157700,0.137,,,,0.8233116
1715832510545852486,0.151,,,,0.831006386
1715832510553547272,0.163,,,,0.838701172
1715832510561242058,0.168,,,,0.846395958
1715832510568936844,0.17,,,,0.854090744
1715832510576631630,0.158,,,,0.86178553
1715832510584326416,0.153,,,,0.869480316
1715832510592021202,0.151,,,,0.877175102
1715832510599715988,0.144,,,,0.884869888
1715832510607410774,0.139,,,,0.892564674
1715832510615105560,0.134,,,,0.90025946
1715832510622800346,0.137,,,,0.907954246
1715832510630495132,0.134,,,,0.915649032
1715832510638189918,0.132,,,,0.923343818
1715832510645884704,0.144,,,,0.931038604
1715832510653579490,0.146,,,,0.93873339
1715832510661274276,0.146,,,,0.946428176
1715832510668969062,0.153,,,,0.954122962
1715832510676663848,0.144,,,,0.961817748
1715832510684358634,0.139,,,,0.969512534
1715832510692053420,0.134,,,,0.97720732
1715832510699748206,0.129,,,,0.984902106
1715832510707442992,0.134,,,,0.992596892
1715832510715137778,0.139,,,,1.000291678
1715832510722832564,0.139,,,,1.007986464
1715832510730527350,0.134,,,,1.01568125
1715832510738222136,0.127,,,,1.023376036
1715832510745916922,0.139,,,,1.031070822
1715832510753611708,0.18,,,,1.038765608
1715832510761306494,0.329,,,,1.046460394
1715832510769001280,0.577,,,,1.05415518
1715832510776696066,0.63,,,,1.061849966
1715832510784390852,0.288,,,,1.069544752
1715832510792085638,-0.04,,,,1.077239538
1715832510799780424,0.04,,,,1.084934324
1715832510807475210,0.158,,,,1.09262911
1715832510815169996,0.079,,,,1.100323896
1715832510822864782,0.074,,,,1.108018682
1715832510830559568,0.139,,,,1.115713468
1715832510838254370,0.134,90.0,,,1.12340827
1715832510845948738,0.127,,,,1.131102638
1715832510853643106,0.144,,,,1.138797006
1715832510861337474,0.146,,,,1.146491374
1715832510869031842,0.141,,,,1.154185742
1715832510876726210,0.137,,,,1.16188011
1715832510884420578,0.137,,,,1.169574478
1715832510892114946,0.137,,,,1.177268846
1715832510899809314,0.139,,,,1.184963214
1715832510907503682,0.141,,,,1.192657582
1715832510915198050,0.139,,,,1.20035195
1715832510922892418,0.146,,,,1.208046318
1715832510930586786,0.153,,,,1.215740686
1715832510938281154,0.144,,,,1.223435054
1715832510945975522,0.141,,,,1.231129422
1715832510953669890,0.144,,,,1.23882379
1715832510961364258,0.146,,,,1.246518158
1715832510969058626,0.149,,,,1.254212526
1715832510976752994,0.146,,,,1.261906894
1715832510984447362,0.149,,,,1.269601262
1715832510992141730,0.149,,,,1.27729563
1715832510999836098,0.146,,,,1.284989998
1715832511007530466,0.151,,,,1.292684366
1715832511015224834,0.153,,,,1.300378734
1715832511022919202,0.153,,,,1.308073102
1715832511030613570,0.156,,,,1.31576747
1715832511038307938,0.156,,,,1.323461838
1715832511046002306,0.165,,,,1.331156206
1715832511053696674,0.161,,,,1.338850574
1715832511061391042,0.156,,,,1.346544942
1715832511069085410,0.165,,,,1.35423931
1715832511076779778,0.175,,,,1.361933678
1715832511084474146,0.187,,,,1.369628046
1715832511092168514,0.194,,,,1.377322414
1715832511099862882,0.187,,,,1.385016782
1715832511107557250,0.18,,,,1.39271115
1715832511115251618,0.168,,,,1.400405518
1715832511122945986,0.173,,,,1.408099886
1715832511130640354,0.177,,,,1.415794254
1715832511138334722,0.17,,,,1.423488622
1715832511146029090,0.17,,,,1.43118299
1715832511153723458,0.168,,,,1.438877358
1715832511161417826,0.168,,,,1.446571726
1715832511169112194,0.177,,,,1.454266094
1715832511176806562,0.173,,657.0,,1.461960462
1715832511184500930,0.168,,,,1.46965483
1715832511192195298,0.168,,,,1.477349198
1715832511199889666,0.173,,,,1.485043566
1715832511207584034,0.175,,,,1.492737934
1715832511215278402,0.165,,,,1.500432302
1715832511222972770,0.165,,,,1.50812667
1715832511230667138,0.17,,,,1.515821038
1715832511238361506,0.163,,,,1.523515406
1715832511246055874,0.165,,,,1.531209774
1715832511253750242,0.168,,,,1.538904142
1715832511261444610,0.165,,,,1.54659851
1715832511269138978,0.168,,,,1.554292878
1715832511276833346,0.158,,,,1.561987246
1715832511284527714,0.156,,,,1.569681614
1715832511292222082,0.158,,,,1.577375982
1715832511299916450,0.163,,,,1.58507035
1715832511307610818,0.173,,,,1.592764718
1715832511315305186,0.173,,,,1.600459086
1715832511322999554,0.17,,,,1.608153454
1715832511330693922,0.161,,,,1.615847822
1715832511338388290,0.151,,,,1.62354219
1715832511346082658,0.158,,,,1.631236558
1715832511353777026,0.158,,,,1.638930926
1715832511361471394,0.151,,,,1.646625294
1715832511369165762,0.156,,,,1.654319662
1715832511376860130,0.153,,,,1.66201403
1715832511384554498,0.153,,,,1.669708398
1715832511392248866,0.153,,,,1.677402766
1715832511399943248,0.165,,,,1.685097148
1715832511407638034,0.24,,,,1.692791934
1715832511415332820,0.406,,,,1.70048672
1715832511423027606,0.606,,,,1.708181506
1715832511430722392,0.5720000000000001,,,,1.715876292
1715832511438417178,0.202,,,,1.723571078
1715832511446111964,-0.021,,,,1.731265864
1715832511453806750,0.101,,,,1.73896065
1715832511461501536,0.163,,,,1.746655436
1715832511469196322,0.096,,,,1.754350222
1715832511476891108,0.115,,,,1.762045008
1715832511484585894,0.161,,,,1.769739794
1715832511492280680,0.149,,,,1.77743458
1715832511499975466,0.144,,,,1.785129366
1715832511507670252,0.165,,,,1.792824152
1715832511515365038,0.163,,,,1.800518938
1715832511523059824,0.168,,,,1.808213724
1715832511530754610,0.175,,,,1.81590851
1715832511538449396,0.163,,,,1.823603296
1715832511546144182,0.165,,,,1.831298082
1715832511553838968,0.173,,,,1.838992868
1715832511561533754,0.177,,,,1.846687654
1715832511569228540,0.18,,,,1.85438244
1715832511576923326,0.175,,,,1.862077226
1715832511584618112,0.187,,,,1.869772012
1715832511592312898,0.197,,,,1.877466798
1715832511600007684,0.194,,,,1.885161584
1715832511607702470,0.189,,,,1.89285637
1715832511615397256,0.185,,,,1.900551156
1715832511623092042,0.197,,,,1.908245942
1715832511630786828,0.206,,,,1.915940728
1715832511638481614,0.209,,,,1.923635514
1715832511646176400,0.223,,,,1.9313303
1715832511653871186,0.233,,,,1.939025086
1715832511661565972,0.233,,,,1.946719872
1715832511669260758,0.245,,,,1.954414658
1715832511676955544,0.242,,,,1.962109444
1715832511684650330,0.235,,,,1.96980423
1715832511692345116,0.228,,,,1.977499016
1715832511700039902,0.223,,,,1.985193802
1715832511707734688,0.23,,,,1.992888588
1715832511715429474,0.228,,,,2.000583374
1715832511723124260,0.226,,,,2.00827816
1715832511730819046,0.23,,,,2.015972946
1715832511738513832,0.228,,,,2.023667732
1715832511746208618,0.228,,,,2.031362518
1715832511753903404,0.235,,,,2.039057304
1715832511761598190,0.242,,,,2.04675209
1715832511769292976,0.245,,,,2.054446876
1715832511776987762,0.235,,,,2.062141662
1715832511784682548,0.233,,,,2.069836448
1715832511792377334,0.235,,,,2.077531234
1715832511800072120,0.238,,,,2.08522602
1715832511807766906,0.238,,,,2.092920806
1715832511815461692,0.233,,,,2.100615592
1715832511823156478,0.235,,,,2.108310378
1715832511830851264,0.233,,654.0,,2.116005164
1715832511838546050,0.226,,,,2.12369995
1715832511846240836,0.233,,,,2.131394736
1715832511853935622,0.233,,,,2.139089522
1715832511861630408,0.228,,,,2.146784308
1715832511869325194,0.228,,,,2.154479094
1715832511877019980,0.221,,,,2.16217388
1715832511884714766,0.218,,,,2.169868666
1715832511892409552,0.216,,,,2.177563452
1715832511900104338,0.209,,,,2.185258238
1715832511907799124,0.216,,,,2.192953024
1715832511915493910,0.216,,,,2.20064781
1715832511923188696,0.204,,,,2.208342596
1715832511930883482,0.197,,,,2.216037382
1715832511938578268,0.202,,,,2.223732168
1715832511946273054,0.216,,,,2.231426954
1715832511953967840,0.218,,,,2.23912174
1715832511961662642,0.218,91.0,,,2.246816542
1715832511969357010,0.216,,,,2.25451091
1715832511977051378,0.202,,,,2.262205278
1715832511984745746,0.194,,,,2.269899646
1715832511992440114,0.199,,,,2.277594014
1715832512000134482,0.199,,,,2.285288382
1715832512007828850,0.204,,,,2.29298275
1715832512015523218,0.197,,,,2.300677118
1715832512023217586,0.189,,,,2.308371486
1715832512030911954,0.189,,,,2.316065854
1715832512038606322,0.187,,,,2.323760222
1715832512046300690,0.199,,,,2.33145459
1715832512053995058,0.276,,,,2.339148958
1715832512061689426,0.471,,,,2.346843326
1715832512069383794,0.656,,,,2.354537694
1715832512077078162,0.521,,,,2.362232062
1715832512084772530,0.137,,,,2.36992643
1715832512092466898,0.021,,,,2.377620798
1715832512100161266,0.177,,,,2.385315166
1715832512107855634,0.187,,,,2.393009534
1715832512115550002,0.115,,,,2.400703902
1715832512123244370,0.163,,,,2.40839827
1715832512130938738,0.206,,,,2.416092638
1715832512138633106,0.185,,,,2.423787006
1715832512146327474,0.192,,,,2.431481374
1715832512154021842,0.216,,,,2.439175742
1715832512161716210,0.214,,,,2.44687011
1715832512169410578,0.211,,,,2.454564478
1715832512177104946,0.209,,,,2.462258846
1715832512184799314,0.204,,,,2.469953214
1715832512192493682,0.197,,,,2.477647582
1715832512200188050,0.189,,,,2.48534195
1715832512207882418,0.187,,,,2.493036318
1715832512215576786,0.182,,,,2.500730686
1715832512223271154,0.18,,,,2.508425054
1715832512230965522,0.177,,,,2.516119422
1715832512238659890,0.175,,,,2.52381379
1715832512246354258,0.182,,,,2.531508158
1715832512254048626,0.18,,,,2.539202526
1715832512261742994,0.175,,,,2.546896894
1715832512269437362,0.189,,,,2.554591262
1715832512277131730,0.197,,,,2.56228563
1715832512284826098,0.199,,,,2.569979998
1715832512292520466,0.197,,,,2.577674366
1715832512300214834,0.192,,,,2.585368734
1715832512307909202,0.189,,,,2.593063102
1715832512315603570,0.182,,,,2.60075747
1715832512323297938,0.173,,,,2.608451838
1715832512330992306,0.168,,,,2.616146206
1715832512338686674,0.156,,,,2.623840574
1715832512346381042,0.144,,,,2.631534942
1715832512354075410,0.137,,,,2.63922931
1715832512361769778,0.137,,,,2.646923678
1715832512369464146,0.139,,,,2.654618046
1715832512377158514,0.134,,,,2.662312414
1715832512384852882,0.134,,,,2.670006782
1715832512392547250,0.137,,,,2.67770115
1715832512400241618,0.139,,,,2.685395518
1715832512407935986,0.144,,,,2.693089886
1715832512415630354,0.137,,,,2.700784254
1715832512423324722,0.129,,,,2.708478622
1715832512431019090,0.134,,,,2.71617299
1715832512438713458,0.129,,,,2.723867358
1715832512446407826,0.129,,,,2.731561726
1715832512454102194,0.137,,,,2.739256094
1715832512461796562,0.137,,,,2.746950462
1715832512469490930,0.137,,638.0,,2.75464483
1715832512477185298,0.134,,,,2.762339198
1715832512484879666,0.137,,,,2.770033566
1715832512492574034,0.139,,,,2.777727934
1715832512500268402,0.134,,,,2.785422302
1715832512507962770,0.137,,,,2.79311667
1715832512515657138,0.141,,,,2.800811038
1715832512523351518,0.137,,,,2.808505418
1715832512531046095,0.127,,,,2.816199995
1715832512538740672,0.117,,,,2.823894572
1715832512546435249,0.117,,,,2.831589149
1715832512554129826,0.113,,,,2.839283726
1715832512561824403,0.113,,,,2.846978303
1715832512569518980,0.122,,,,2.85467288
1715832512577213557,0.122,,,,2.862367457
1715832512584908134,0.12,,,,2.870062034
1715832512592602711,0.113,,,,2.877756611
1715832512600297288,0.105,,,,2.885451188
1715832512607991865,0.115,,,,2.893145765
1715832512615686442,0.12,,,,2.900840342
1715832512623381019,0.113,,,,2.908534919
1715832512631075596,0.115,,,,2.916229496
1715832512638770173,0.127,,,,2.923924073
1715832512646464750,0.139,,,,2.93161865
1715832512654159327,0.137,,,,2.939313227
1715832512661853904,0.137,,,,2.947007804
1715832512669548481,0.17,,,,2.954702381
1715832512677243058,0.29,,,,2.962396958
1715832512684937635,0.519,,,,2.970091535
1715832512692632212,0.666,,,,2.977786112
1715832512700326789,0.44,,,,2.985480689
1715832512708021366,0.067,,,,2.993175266
1715832512715715943,0.052,,,,3.000869843
1715832512723410520,0.211,,,,3.00856442
1715832512731105097,0.177,,,,3.016258997
1715832512738799674,0.137,,,,3.023953574
1715832512746494251,0.199,,,,3.031648151
1715832512754188828,0.211,,,,3.039342728
1715832512761883405,0.182,,,,3.047037305
1715832512769577982,0.189,,,,3.054731882
1715832512777272559,0.197,,,,3.062426459
1715832512784967136,0.189,,,,3.070121036
1715832512792661713,0.185,,,,3.077815613
1715832512800356290,0.177,,,,3.08551019
1715832512808050867,0.175,,,,3.093204767
1715832512815745444,0.17,,,,3.100899344
1715832512823440021,0.165,,,,3.108593921
1715832512831134598,0.163,,,,3.116288498
1715832512838829175,0.158,,,,3.123983075
1715832512846523752,0.156,,,,3.131677652
1715832512854218329,0.149,,,,3.139372229
1715832512861912906,0.139,,,,3.147066806
1715832512869607483,0.139,,,,3.154761383
1715832512877302060,0.134,,,,3.16245596
1715832512884996637,0.132,,,,3.170150537
1715832512892691214,0.127,,,,3.177845114
1715832512900385791,0.117,,,,3.185539691
1715832512908080368,0.115,,,,3.193234268
1715832512915774945,0.11,,,,3.200928845
1715832512923469522,0.105,,,,3.208623422
1715832512931164099,0.11,,,,3.216317999
1715832512938858676,0.101,,,,3.224012576
1715832512946553253,0.088,,,,3.231707153
1715832512954247830,0.081,,,,3.23940173
1715832512961942407,0.074,,,,3.247096307
1715832512969636984,0.062,,,,3.254790884
1715832512977331561,0.043,,,,3.262485461
1715832512985026138,0.031,,,,3.270180038
1715832512992720715,0.028,,,,3.277874615
1715832513000415292,0.021,,,,3.285569192
1715832513008109869,0.019,,,,3.293263769
1715832513015804446,0.012,,,,3.300958346
1715832513023499023,0.012,,,,3.308652923
1715832513031193600,0.012,,,,3.3163475
1715832513038888177,0.0,,,,3.324042077
1715832513046582754,-0.004,,,,3.331736654
1715832513054277331,-0.007,,,,3.339431231
1715832513061971908,-0.019,,,,3.347125808
1715832513069666485,-0.028,,,,3.354820385
1715832513077361062,-0.04,,,,3.362514962
1715832513085055654,-0.045,91.0,,,3.370209554
1715832513092750231,-0.052,,,,3.377904131
1715832513100444808,-0.079,,,,3.385598708
1715832513108139385,-0.088,,,,3.393293285
1715832513115833962,-0.091,,645.0,,3.400987862
1715832513123528539,-0.12,,,,3.408682439
1715832513131223116,-0.146,,,,3.416377016
1715832513138917693,-0.149,,,,3.424071593
1715832513146612270,-0.153,,,,3.43176617
1715832513154306847,-0.173,,,,3.439460747
1715832513162001424,-0.177,,,,3.447155324
1715832513169696001,-0.17,,,,3.454849901
1715832513177390578,-0.189,,,,3.462544478
1715832513185085155,-0.202,,,,3.470239055
1715832513192779732,-0.199,,,,3.477933632
1715832513200474309,-0.211,,,,3.485628209
1715832513208168886,-0.226,,,,3.493322786
1715832513215863463,-0.228,,,,3.501017363
1715832513223558040,-0.228,,,,3.50871194
1715832513231252617,-0.228,,,,3.516406517
1715832513238947194,-0.228,,,,3.524101094
1715832513246641771,-0.223,,,,3.531795671
1715832513254336348,-0.226,,,,3.539490248
1715832513262030925,-0.233,,,,3.547184825
1715832513269725502,-0.226,,,,3.554879402
1715832513277420079,-0.151,,,,3.562573979
1715832513285114656,0.04,,,,3.570268556
1715832513292809233,0.257,,,,3.577963133
1715832513300503810,0.185,,,,3.58565771
1715832513308198387,-0.228,,,,3.593352287
1715832513315892964,-0.442,,,,3.601046864
1715832513323587541,-0.286,,,,3.608741441
1715832513331282118,-0.238,,,,3.616436018
1715832513338976695,-0.327,,,,3.624130595
1715832513346671272,-0.293,,,,3.631825172
1715832513354365849,-0.254,,,,3.639519749
1715832513362060426,-0.286,,,,3.647214326
1715832513369755003,-0.278,,,,3.654908903
1715832513377449580,-0.254,,,,3.66260348
1715832513385144157,-0.254,,,,3.670298057
1715832513392838734,-0.259,,,,3.677992634
1715832513400533311,-0.259,,,,3.685687211
1715832513408227888,-0.252,,,,3.693381788
1715832513415922465,-0.25,,,,3.701076365
1715832513423617042,-0.25,,,,3.708770942
1715832513431311619,-0.24,,,,3.716465519
1715832513439006196,-0.235,,,,3.724160096
1715832513446700773,-0.233,,,,3.731854673
1715832513454395350,-0.233,,,,3.73954925
1715832513462089927,-0.228,,,,3.747243827
1715832513469784504,-0.221,,,,3.754938404
1715832513477479081,-0.221,,,,3.762632981
1715832513485173658,-0.216,,,,3.770327558
1715832513492868235,-0.211,,,,3.778022135
1715832513500562812,-0.214,,,,3.785716712
1715832513508257389,-0.206,,,,3.793411289
1715832513515951966,-0.204,,,,3.801105866
1715832513523646543,-0.204,,,,3.808800443
1715832513531341120,-0.192,,,,3.81649502
1715832513539035697,-0.194,,,,3.824189597
1715832513546730274,-0.214,,,,3.831884174
1715832513554424851,-0.218,,,,3.839578751
1715832513562119428,-0.211,,,,3.847273328
1715832513569814005,-0.211,,,,3.854967905
1715832513577508582,-0.226,,,,3.862662482
1715832513585203159,-0.23,,,,3.870357059
1715832513592897736,-0.223,,,,3.878051636
1715832513600592313,-0.218,,,,3.885746213
1715832513608286890,-0.216,,,,3.89344079
1715832513615981467,-0.216,,,,3.901135367
1715832513623676044,-0.223,,,,3.908829944
1715832513631370621,-0.226,,,,3.916524521
1715832513639065198,-0.221,,,,3.924219098
1715832513646759788,-0.209,91.0,,,3.931913688
1715832513654454156,-0.214,,,,3.939608056
1715832513662148524,-0.214,,,,3.947302424
1715832513669842892,-0.202,,,,3.954996792
1715832513677537260,-0.204,,,,3.96269116
1715832513685231628,-0.204,,,,3.970385528
1715832513692925996,-0.202,,,,3.978079896
1715832513700620364,-0.209,,,,3.985774264
1715832513708314732,-0.206,,,,3.993468632
1715832513716009100,-0.197,,,,4.001163
1715832513723703468,-0.197,,,,4.008857368
1715832513731397836,-0.199,,,,4.016551736
1715832513739092204,-0.202,,,,4.024246104
1715832513746786572,-0.194,,,,4.031940472
1715832513754480940,-0.189,,,,4.03963484
1715832513762175308,-0.187,,,,4.047329208
1715832513769869676,-0.177,,,,4.055023576
1715832513777564044,-0.175,,659.0,,4.062717944
1715832513785258412,-0.182,,,,4.070412312
1715832513792952780,-0.187,,,,4.07810668
1715832513800647148,-0.185,,,,4.085801048
1715832513808341516,-0.17,,,,4.093495416
1715832513816035884,-0.173,,,,4.101189784
1715832513823730252,-0.175,,,,4.108884152
1715832513831424620,-0.165,,,,4.11657852
1715832513839118988,-0.168,,,,4.124272888
1715832513846813356,-0.17,,,,4.131967256
1715832513854507724,-0.165,,,,4.139661624
1715832513862202092,-0.139,,,,4.147355992
1715832513869896460,-0.014,,,,4.15505036
1715832513877590828,0.223,,,,4.162744728
1715832513885285196,0.365,,,,4.170439096
1715832513892979564,0.098,,,,4.178133464
1715832513900673932,-0.319,,,,4.185827832
1715832513908368300,-0.317,,,,4.1935222
1715832513916062668,-0.149,,,,4.201216568
1715832513923757036,-0.199,,,,4.208910936
1715832513931451404,-0.235,,,,4.216605304
1715832513939145772,-0.175,,,,4.224299672
1715832513946840140,-0.165,,,,4.23199404
1715832513954534508,-0.173,,,,4.239688408
1715832513962228876,-0.156,,,,4.247382776
1715832513969923244,-0.153,,,,4.255077144
1715832513977617612,-0.156,,,,4.262771512
1715832513985311980,-0.141,,,,4.27046588
1715832513993006348,-0.134,,,,4.278160248
1715832514000700716,-0.141,,,,4.285854616
1715832514008395084,-0.134,,,,4.293548984
1715832514016089452,-0.127,,,,4.301243352
1715832514023783820,-0.125,,,,4.30893772
1715832514031478188,-0.115,,,,4.316632088
1715832514039172556,-0.113,,,,4.324326456
1715832514046866924,-0.105,,,,4.332020824
1715832514054561292,-0.101,,,,4.339715192
1715832514062255660,-0.103,,,,4.34740956
1715832514069950028,-0.093,,,,4.355103928
1715832514077644396,-0.086,,,,4.362798296
1715832514085338764,-0.086,,,,4.370492664
1715832514093033132,-0.086,,,,4.378187032
1715832514100727500,-0.084,,,,4.3858814
1715832514108421868,-0.076,,,,4.393575768
1715832514116116236,-0.076,,,,4.401270136
1715832514123810604,-0.081,,,,4.408964504
1715832514131504972,-0.091,,,,4.416658872
1715832514139199340,-0.105,,,,4.42435324
1715832514146893708,-0.11,,,,4.432047608
1715832514154588076,-0.108,,,,4.439741976
1715832514162282444,-0.11,,,,4.447436344
1715832514169976812,-0.108,,,,4.455130712
1715832514177671180,-0.108,,,,4.46282508
1715832514185365548,-0.11,,,,4.470519448
1715832514193059916,-0.108,,,,4.478213816
1715832514200754284,-0.101,,,,4.485908184
1715832514208448664,-0.088,,,,4.493602564
1715832514216143032,-0.091,,,,4.501296932
1715832514223837400,-0.093,,,,4.5089913
1715832514231531768,-0.088,,,,4.516685668
1715832514239226136,-0.098,,,,4.524380036
1715832514246920504,-0.096,,,,4.532074404
1715832514254614872,-0.081,,,,4.539768772
1715832514262309240,-0.084,,,,4.54746314
1715832514270003608,-0.084,,,,4.555157508
1715832514277697976,-0.076,,,,4.562851876
1715832514285392344,-0.069,,,,4.570546244
1715832514293086712,-0.072,,,,4.578240612
1715832514300781080,-0.076,,,,4.58593498
1715832514308475448,-0.074,,,,4.593629348
1715832514316169816,-0.072,,,,4.601323716
1715832514323864184,-0.069,,,,4.609018084
1715832514331558552,-0.064,,,,4.616712452
1715832514339252920,-0.064,,,,4.62440682
1715832514346947288,-0.06,,,,4.632101188
1715832514354641656,-0.05,,,,4.639795556
1715832514362336024,-0.055,,,,4.647489924
1715832514370030392,-0.06,,,,4.655184292
1715832514377724760,-0.064,,,,4.66287866
1715832514385419128,-0.067,,,,4.670573028
1715832514393113496,-0.064,,,,4.678267396
1715832514400807864,-0.064,,,,4.685961764
1715832514408502232,-0.062,,,,4.693656132
1715832514416196600,-0.069,,,,4.7013505
1715832514423890968,-0.074,,652.0,,4.709044868
1715832514431585336,-0.067,,,,4.716739236
1715832514439279704,-0.05,,,,4.724433604
1715832514446974072,0.062,,,,4.732127972
1715832514454668440,0.305,,,,4.73982234
1715832514462362808,0.48,,,,4.747516708
1715832514470057176,0.259,,,,4.755211076
1715832514477751544,-0.18,,,,4.762905444
1715832514485445912,-0.233,,,,4.770599812
1715832514493140280,-0.057,,,,4.77829418
1715832514500834648,-0.098,,,,4.785988548
1715832514508529016,-0.153,,,,4.793682916
1715832514516223384,-0.093,,,,4.801377284
1715832514523917752,-0.084,,,,4.809071652
1715832514531612120,-0.096,,,,4.81676602
1715832514539306488,-0.079,,,,4.824460388
1715832514547000856,-0.072,,,,4.832154756
1715832514554695224,-0.074,,,,4.839849124
1715832514562389592,-0.069,,,,4.847543492
1715832514570083960,-0.062,,,,4.85523786
1715832514577778328,-0.064,,,,4.862932228
1715832514585472696,-0.06,,,,4.870626596
1715832514593167064,-0.048,,,,4.878320964
1715832514600861432,-0.05,,,,4.886015332
1715832514608555800,-0.048,,,,4.8937097
1715832514616250168,-0.04,,,,4.901404068
1715832514623944536,-0.038,,,,4.909098436
1715832514631638904,-0.04,,,,4.916792804
1715832514639333272,-0.048,,,,4.924487172
1715832514647027640,-0.048,,,,4.93218154
1715832514654722008,-0.038,,,,4.939875908
1715832514662416376,-0.038,,,,4.947570276
1715832514670110744,-0.031,,,,4.955264644
1715832514677805112,-0.024,,,,4.962959012
1715832514685499480,-0.021,,,,4.97065338
1715832514693193848,-0.021,,,,4.978347748
1715832514700888216,-0.024,,,,4.986042116
1715832514708582584,-0.019,,,,4.993736484
1715832514716276952,-0.021,,,,5.001430852
1715832514723971320,-0.031,,,,5.00912522
1715832514731665688,-0.028,,,,5.016819588
1715832514739360056,-0.033,,,,5.024513956
1715832514747054424,-0.04,,,,5.032208324
1715832514754748792,-0.036,,,,5.039902692
1715832514762443160,-0.028,,,,5.04759706
1715832514770137542,-0.024,92.0,,,5.055291442
1715832514777832328,-0.031,,,,5.062986228
1715832514785527114,-0.031,,,,5.070681014
1715832514793221900,-0.024,,,,5.0783758
1715832514800916686,-0.026,,,,5.086070586
1715832514808611472,-0.031,,,,5.093765372
1715832514816306258,-0.031,,,,5.101460158
1715832514824001044,-0.026,,,,5.109154944
1715832514831695830,-0.019,,,,5.11684973
1715832514839390616,-0.026,,,,5.124544516
1715832514847085402,-0.024,,,,5.132239302
1715832514854780188,-0.012,,,,5.139934088
1715832514862474974,-0.016,,,,5.147628874
1715832514870169760,-0.016,,,,5.15532366
1715832514877864546,-0.021,,,,5.163018446
1715832514885559332,-0.026,,,,5.170713232
1715832514893254118,-0.021,,,,5.178408018
1715832514900948904,-0.014,,,,5.186102804
1715832514908643690,-0.004,,,,5.19379759
1715832514916338476,0.002,,,,5.201492376
1715832514924033262,0.007,,,,5.209187162
1715832514931728048,0.009,,,,5.216881948
1715832514939422834,0.004,,,,5.224576734
1715832514947117620,0.0,,,,5.23227152
1715832514954812406,0.007,,,,5.239966306
1715832514962507192,0.009,,,,5.247661092
1715832514970201978,0.014,,,,5.255355878
1715832514977896764,0.014,,,,5.263050664
1715832514985591550,0.012,,,,5.27074545
1715832514993286336,0.014,,,,5.278440236
1715832515000981122,0.009,,,,5.286135022
1715832515008675908,0.016,,,,5.293829808
1715832515016370694,0.079,,,,5.301524594
1715832515024065480,0.266,,,,5.30921938
1715832515031760266,0.517,,,,5.316914166
1715832515039455052,0.476,,,,5.324608952
1715832515047149838,0.048,,,,5.332303738
1715832515054844624,-0.194,,,,5.339998524
1715832515062539410,-0.048,,,,5.34769331
1715832515070234196,0.012,,645.0,,5.355388096
1715832515077928982,-0.074,,,,5.363082882
1715832515085623768,-0.048,,,,5.370777668
1715832515093318554,0.0,,,,5.378472454
1715832515101013340,-0.026,,,,5.38616724
1715832515108708126,-0.026,,,,5.393862026
1715832515116402912,-0.004,,,,5.401556812
1715832515124097698,-0.009,,,,5.409251598
1715832515131792484,-0.012,,,,5.416946384
1715832515139487270,-0.014,,,,5.42464117
1715832515147182056,-0.021,,,,5.432335956
1715832515154876842,-0.026,,,,5.440030742
1715832515162571628,-0.024,,,,5.447725528
1715832515170266414,-0.012,,,,5.455420314
1715832515177961200,-0.012,,,,5.4631151
1715832515185655986,-0.012,,,,5.470809886
1715832515193350772,-0.004,,,,5.478504672
1715832515201045558,-0.007,,,,5.486199458
1715832515208740344,-0.004,,,,5.493894244
1715832515216435130,0.004,,,,5.50158903
1715832515224129916,0.004,,,,5.509283816
1715832515231824702,0.007,,,,5.516978602
1715832515239519488,0.014,,,,5.524673388
1715832515247214274,0.021,,,,5.532368174
1715832515254909060,0.024,,,,5.54006296
1715832515262603846,0.021,,,,5.547757746
1715832515270298632,0.031,,,,5.555452532
1715832515277993418,0.033,,,,5.563147318
1715832515285688204,0.028,,,,5.570842104
1715832515293382990,0.026,,,,5.57853689
1715832515301077776,0.016,,,,5.586231676
1715832515308772562,0.012,,,,5.593926462
1715832515316467348,0.014,,,,5.601621248
1715832515324162134,0.014,,,,5.609316034
1715832515331856936,0.019,,,,5.617010836
1715832515339551304,0.016,,,,5.624705204
1715832515347245672,0.012,,,,5.632399572
1715832515354940040,0.019,,,,5.64009394
1715832515362634408,0.026,,,,5.647788308
1715832515370328776,0.028,,,,5.655482676
1715832515378023144,0.019,,,,5.663177044
1715832515385717512,0.016,,,,5.670871412
1715832515393411880,0.024,,,,5.67856578
1715832515401106248,0.024,,,,5.686260148
1715832515408800616,0.016,,,,5.693954516
1715832515416494984,0.014,,,,5.701648884
1715832515424189352,0.016,,,,5.709343252
1715832515431883720,0.024,,,,5.71703762
1715832515439578088,0.016,,,,5.724731988
1715832515447272456,0.016,,,,5.732426356
1715832515454966824,0.026,,,,5.740120724
1715832515462661192,0.021,,,,5.747815092
1715832515470355560,0.021,,,,5.75550946
1715832515478049928,0.024,,,,5.763203828
1715832515485744296,0.031,,,,5.770898196
1715832515493438664,0.043,,,,5.778592564
1715832515501133032,0.043,,,,5.786286932
1715832515508827400,0.05,,,,5.7939813
1715832515516521768,0.06,,,,5.801675668
1715832515524216136,0.048,,,,5.809370036
1715832515531910504,0.04,,,,5.817064404
1715832515539604872,0.043,,,,5.824758772
1715832515547299240,0.05,,,,5.83245314
1715832515554993608,0.052,,,,5.840147508
1715832515562687976,0.048,,,,5.847841876
1715832515570382344,0.05,,,,5.855536244
1715832515578076712,0.05,,,,5.863230612
1715832515585771080,0.043,,,,5.87092498
1715832515593465448,0.05,,,,5.878619348
1715832515601159816,0.115,,,,5.886313716
1715832515608854184,0.298,,,,5.894008084
1715832515616548552,0.526,,,,5.901702452
1715832515624242920,0.488,,,,5.90939682
1715832515631937288,0.096,,,,5.917091188
1715832515639631656,-0.146,,,,5.924785556
1715832515647326024,-0.012,,,,5.932479924
1715832515655020392,0.048,,,,5.940174292
1715832515662714760,-0.045,,,,5.94786866
1715832515670409128,-0.019,,,,5.955563028
1715832515678103496,0.031,,,,5.963257396
1715832515685797864,0.007,,,,5.970951764
1715832515693492232,0.007,,621.0,,5.978646132
1715832515701186600,0.028,,,,5.9863405
1715832515708880968,0.031,,,,5.994034868
1715832515716575336,0.026,,,,6.001729236
1715832515724269704,0.033,,,,6.009423604
1715832515731964072,0.045,,,,6.017117972
1715832515739658440,0.04,,,,6.02481234
1715832515747352808,0.043,,,,6.032506708
1715832515755047176,0.055,,,,6.040201076
1715832515762741544,0.052,,,,6.047895444
1715832515770435912,0.057,,,,6.055589812
1715832515778130280,0.064,,,,6.06328418
1715832515785824648,0.062,,,,6.070978548
1715832515793519016,0.064,,,,6.078672916
1715832515801213384,0.062,,,,6.086367284
1715832515808907752,0.062,,,,6.094061652
1715832515816602120,0.069,,,,6.10175602
1715832515824296488,0.067,,,,6.109450388
1715832515831990856,0.067,,,,6.117144756
1715832515839685224,0.069,,,,6.124839124
1715832515847379592,0.069,,,,6.132533492
1715832515855073960,0.067,,,,6.14022786
1715832515862768328,0.05,,,,6.147922228
1715832515870462696,0.04,,,,6.155616596
1715832515878157064,0.04,,,,6.163310964
1715832515885851432,0.04,,,,6.171005332
1715832515893545812,0.038,94.0,,,6.178699712
1715832515901240389,0.031,,,,6.186394289
1715832515908934966,0.038,,,,6.194088866
1715832515916629543,0.043,,,,6.201783443
1715832515924324120,0.04,,,,6.20947802
1715832515932018697,0.05,,,,6.217172597
1715832515939713274,0.05,,,,6.224867174
1715832515947407851,0.04,,,,6.232561751
1715832515955102428,0.04,,,,6.240256328
1715832515962797005,0.05,,,,6.247950905
1715832515970491582,0.06,,,,6.255645482
1715832515978186159,0.055,,,,6.263340059
1715832515985880736,0.055,,,,6.271034636
1715832515993575313,0.069,,,,6.278729213
1715832516001269890,0.067,,,,6.28642379
1715832516008964467,0.062,,,,6.294118367
1715832516016659044,0.062,,,,6.301812944
1715832516024353621,0.062,,,,6.309507521
1715832516032048198,0.062,,,,6.317202098
1715832516039742775,0.057,,,,6.324896675
1715832516047437352,0.06,,,,6.332591252
1715832516055131929,0.067,,,,6.340285829
1715832516062826506,0.057,,,,6.347980406
1715832516070521083,0.052,,,,6.355674983
1715832516078215660,0.05,,,,6.36336956
1715832516085910237,0.045,,,,6.371064137
1715832516093604814,0.05,,,,6.378758714
1715832516101299391,0.045,,,,6.386453291
1715832516108993968,0.045,,,,6.394147868
1715832516116688545,0.052,,,,6.401842445
1715832516124383122,0.052,,,,6.409537022
1715832516132077699,0.043,,,,6.417231599
1715832516139772276,0.031,,,,6.424926176
1715832516147466853,0.036,,,,6.432620753
1715832516155161430,0.038,,,,6.44031533
1715832516162856007,0.021,,,,6.448009907
1715832516170550584,0.028,,,,6.455704484
1715832516178245161,0.036,,,,6.463399061
1715832516185939738,0.026,,,,6.471093638
1715832516193634315,0.031,,,,6.478788215
1715832516201328892,0.064,,,,6.486482792
1715832516209023469,0.18,,,,6.494177369
1715832516216718046,0.394,,,,6.501871946
1715832516224412623,0.519,,,,6.509566523
1715832516232107200,0.278,,,,6.5172611
1715832516239801777,-0.103,,,,6.524955677
1715832516247496354,-0.115,,,,6.532650254
1715832516255190931,0.036,,,,6.540344831
1715832516262885508,-0.014,,,,6.548039408
1715832516270580085,-0.05,,,,6.555733985
1715832516278274662,0.0,,,,6.563428562
1715832516285969239,0.002,,,,6.571123139
1715832516293663816,-0.007,,604.0,,6.578817716
1715832516301358393,0.004,,,,6.586512293
1715832516309052970,0.012,,,,6.59420687
1715832516316747547,0.004,,,,6.601901447
1715832516324442124,0.007,,,,6.609596024
1715832516332136701,0.016,,,,6.617290601
1715832516339831278,0.012,,,,6.624985178
1715832516347525855,0.004,,,,6.632679755
1715832516355220432,0.002,,,,6.640374332
1715832516362915009,-0.004,,,,6.648068909
1715832516370609586,0.004,,,,6.655763486
1715832516378304163,0.009,,,,6.663458063
1715832516385998740,0.007,,,,6.67115264
1715832516393693317,0.014,,,,6.678847217
1715832516401387894,0.016,,,,6.686541794
1715832516409082471,0.014,,,,6.694236371
1715832516416777048,0.016,,,,6.701930948
1715832516424471625,0.014,,,,6.709625525
1715832516432166202,0.014,,,,6.717320102
1715832516439860779,0.009,,,,6.725014679
1715832516447555356,0.007,,,,6.732709256
1715832516455249948,0.009,,,,6.740403848
1715832516462944525,0.004,,,,6.748098425
1715832516470639102,0.002,,,,6.755793002
1715832516478333679,0.0,,,,6.763487579
1715832516486028256,-0.009,,,,6.771182156
1715832516493722833,-0.012,,,,6.778876733
1715832516501417410,-0.016,,,,6.78657131
1715832516509111987,-0.014,,,,6.794265887
1715832516516806564,-0.021,,,,6.801960464
1715832516524501141,-0.038,,,,6.809655041
1715832516532195718,-0.028,,,,6.817349618
1715832516539890295,-0.024,,,,6.825044195
1715832516547584872,-0.033,,,,6.832738772
1715832516555279449,-0.028,,,,6.840433349
1715832516562974026,-0.024,,,,6.848127926
1715832516570668603,-0.026,,,,6.855822503
1715832516578363180,-0.026,,,,6.86351708
1715832516586057757,-0.024,,,,6.871211657
1715832516593752334,-0.016,,,,6.878906234
1715832516601446911,-0.024,,,,6.886600811
1715832516609141488,-0.028,,,,6.894295388
1715832516616836065,-0.026,,,,6.901989965
1715832516624530642,-0.024,,,,6.909684542
1715832516632225219,-0.021,,,,6.917379119
1715832516639919796,-0.021,,,,6.925073696
1715832516647614373,-0.014,,,,6.932768273
1715832516655308950,-0.012,,,,6.94046285
1715832516663003527,-0.033,,,,6.948157427
1715832516670698104,-0.04,,,,6.955852004
1715832516678392681,-0.033,,,,6.963546581
1715832516686087258,-0.033,,,,6.971241158
1715832516693781835,-0.028,,,,6.978935735
1715832516701476412,-0.028,,,,6.986630312
1715832516709170989,-0.024,,,,6.994324889
1715832516716865566,-0.012,,,,7.002019466
1715832516724560143,-0.014,,,,7.009714043
1715832516732254720,-0.024,,,,7.01740862
1715832516739949297,-0.028,,,,7.025103197
1715832516747643874,-0.026,,,,7.032797774
1715832516755338451,-0.021,,,,7.040492351
1715832516763033028,-0.024,,,,7.048186928
1715832516770727605,-0.019,,,,7.055881505
1715832516778422182,-0.021,,,,7.063576082
1715832516786116759,-0.026,,,,7.071270659
1715832516793811336,-0.028,,,,7.078965236
1715832516801505913,-0.007,,,,7.086659813
1715832516809200490,0.115,,,,7.09435439
1715832516816895067,0.334,,,,7.102048967
1715832516824589644,0.461,,,,7.109743544
1715832516832284221,0.221,,,,7.117438121
1715832516839978798,-0.168,,,,7.125132698
1715832516847673375,-0.18,,,,7.132827275
1715832516855367952,-0.026,,,,7.140521852
1715832516863062529,-0.084,,,,7.148216429
1715832516870757106,-0.125,,,,7.155911006
1715832516878451683,-0.064,,,,7.163605583
1715832516886146260,-0.062,,589.0,,7.17130016
1715832516893840837,-0.076,,,,7.178994737
1715832516901535414,-0.06,,,,7.186689314
1715832516909229991,-0.06,,,,7.194383891
1715832516916924568,-0.067,,,,7.202078468
1715832516924619145,-0.057,,,,7.209773045
1715832516932313722,-0.045,,,,7.217467622
1715832516940008299,-0.052,,,,7.225162199
1715832516947702876,-0.05,,,,7.232856776
1715832516955397453,-0.045,,,,7.240551353
1715832516963092030,-0.05,,,,7.24824593
1715832516970786607,-0.04,,,,7.255940507
1715832516978481184,-0.033,,,,7.263635084
1715832516986175761,-0.031,,,,7.271329661
1715832516993870338,-0.024,,,,7.279024238
1715832517001564915,-0.028,,,,7.286718815
1715832517009259492,-0.028,,,,7.294413392
1715832517016954082,-0.021,97.0,,,7.302107982
1715832517024648450,-0.021,,,,7.30980235
1715832517032342818,-0.019,,,,7.317496718
1715832517040037186,-0.016,,,,7.325191086
1715832517047731554,-0.012,,,,7.332885454
1715832517055425922,-0.012,,,,7.340579822
1715832517063120290,-0.024,,,,7.34827419
1715832517070814658,-0.019,,,,7.355968558
1715832517078509026,-0.016,,,,7.363662926
1715832517086203394,-0.026,,,,7.371357294
1715832517093897762,-0.036,,,,7.379051662
1715832517101592130,-0.048,,,,7.38674603
1715832517109286498,-0.048,,,,7.394440398
1715832517116980866,-0.043,,,,7.402134766
1715832517124675234,-0.048,,,,7.409829134
1715832517132369602,-0.04,,,,7.417523502
1715832517140063970,-0.038,,,,7.42521787
1715832517147758338,-0.04,,,,7.432912238
1715832517155452706,-0.033,,,,7.440606606
1715832517163147074,-0.038,,,,7.448300974
1715832517170841442,-0.04,,,,7.455995342
1715832517178535810,-0.033,,,,7.46368971
1715832517186230178,-0.031,,,,7.471384078
1715832517193924546,-0.024,,,,7.479078446
1715832517201618914,-0.021,,,,7.486772814
1715832517209313282,-0.019,,,,7.494467182
1715832517217007650,-0.019,,,,7.50216155
1715832517224702018,-0.019,,,,7.509855918
1715832517232396386,-0.014,,,,7.517550286
1715832517240090754,-0.019,,,,7.525244654
1715832517247785122,-0.019,,,,7.532939022
1715832517255479490,-0.009,,,,7.54063339
1715832517263173858,-0.009,,,,7.548327758
1715832517270868226,-0.009,,,,7.556022126
1715832517278562594,-0.007,,,,7.563716494
1715832517286256962,-0.012,,,,7.571410862
1715832517293951330,-0.007,,,,7.57910523
1715832517301645698,-0.002,,,,7.586799598
1715832517309340066,0.002,,,,7.594493966
1715832517317034434,0.009,,,,7.602188334
1715832517324728802,0.012,,,,7.609882702
1715832517332423170,0.009,,,,7.61757707
1715832517340117538,-0.007,,,,7.625271438
1715832517347811906,-0.014,,,,7.632965806
1715832517355506274,-0.002,,,,7.640660174
1715832517363200642,0.0,,,,7.648354542
1715832517370895010,0.0,,,,7.65604891
1715832517378589378,0.002,,,,7.663743278
1715832517386283746,0.002,,,,7.671437646
1715832517393978114,0.004,,,,7.679132014
1715832517401672482,0.016,,,,7.686826382
1715832517409366850,0.091,,,,7.69452075
1715832517417061218,0.274,,,,7.702215118
1715832517424755586,0.492,,,,7.709909486
1715832517432449954,0.452,,,,7.717603854
1715832517440144322,0.05,,,,7.725298222
1715832517447838690,-0.185,,,,7.73299259
1715832517455533058,-0.031,,,,7.740686958
1715832517463227426,0.028,,578.0,,7.748381326
1715832517470921794,-0.052,,,,7.756075694
1715832517478616162,-0.028,,,,7.763770062
1715832517486310530,0.012,,,,7.77146443
1715832517494004898,-0.004,,,,7.779158798
1715832517501699266,-0.009,,,,7.786853166
1715832517509393634,0.009,,,,7.794547534
1715832517517088002,0.009,,,,7.802241902
1715832517524782370,0.004,,,,7.80993627
1715832517532476738,0.016,,,,7.817630638
1715832517540171106,0.016,,,,7.825325006
1715832517547865474,0.009,,,,7.833019374
1715832517555559842,0.019,,,,7.840713742
1715832517563254210,0.019,,,,7.84840811
1715832517570948578,0.016,,,,7.856102478
1715832517578642958,0.019,98.0,,,7.863796858
1715832517586337744,0.021,,,,7.871491644
1715832517594032530,0.024,,,,7.87918643
1715832517601727316,0.024,,,,7.886881216
1715832517609422102,0.028,,,,7.894576002
1715832517617116888,0.038,,,,7.902270788
1715832517624811674,0.033,,,,7.909965574
1715832517632506460,0.031,,,,7.91766036
1715832517640201246,0.033,,,,7.925355146
1715832517647896032,0.036,,,,7.933049932
1715832517655590818,0.04,,,,7.940744718
1715832517663285604,0.036,,,,7.948439504
1715832517670980390,0.031,,,,7.95613429
1715832517678675176,0.033,,,,7.963829076
1715832517686369962,0.031,,,,7.971523862
1715832517694064748,0.024,,,,7.979218648
1715832517701759534,0.019,,,,7.986913434
1715832517709454320,0.024,,,,7.99460822
1715832517717149106,0.026,,,,8.002303006
1715832517724843892,0.019,,,,8.009997792
1715832517732538678,0.019,,,,8.017692578
1715832517740233464,0.014,,,,8.025387364
1715832517747928250,0.009,,,,8.03308215
1715832517755623036,0.014,,,,8.040776936
1715832517763317822,0.009,,,,8.048471722
1715832517771012608,0.014,,,,8.056166508
1715832517778707394,0.014,,,,8.063861294
1715832517786402180,0.009,,,,8.07155608
1715832517794096966,0.019,,,,8.079250866
1715832517801791752,0.024,,,,8.086945652
1715832517809486538,0.021,,,,8.094640438
1715832517817181324,0.021,,,,8.102335224
1715832517824876110,0.021,,,,8.11003001
1715832517832570896,0.021,,,,8.117724796
1715832517840265682,0.014,,,,8.125419582
1715832517847960468,0.014,,,,8.133114368
1715832517855655254,0.024,,,,8.140809154
1715832517863350040,0.021,,,,8.14850394
1715832517871044826,0.024,,,,8.156198726
1715832517878739612,0.031,,,,8.163893512
1715832517886434398,0.028,,,,8.171588298
1715832517894129184,0.028,,,,8.179283084
1715832517901823970,0.024,,,,8.18697787
1715832517909518756,0.026,,,,8.194672656
1715832517917213542,0.038,,,,8.202367442
1715832517924908328,0.04,,,,8.210062228
1715832517932603114,0.043,,,,8.217757014
1715832517940297900,0.05,,,,8.2254518
1715832517947992686,0.052,,,,8.233146586
1715832517955687472,0.048,,,,8.240841372
1715832517963382258,0.033,,,,8.248536158
1715832517971077044,0.04,,,,8.256230944
1715832517978771830,0.045,,,,8.26392573
1715832517986466616,0.038,,,,8.271620516
1715832517994161402,0.043,,,,8.279315302
1715832518001856188,0.048,,,,8.287010088
1715832518009550974,0.043,,,,8.294704874
1715832518017245760,0.04,,,,8.30239966
1715832518024940546,0.067,,,,8.310094446
1715832518032635332,0.202,,572.0,,8.317789232
1715832518040330118,0.43,,,,8.325484018
1715832518048024904,0.541,,,,8.333178804
1715832518055719690,0.269,,,,8.34087359
1715832518063414476,-0.115,,,,8.348568376
1715832518071109262,-0.103,,,,8.356263162
1715832518078804048,0.043,,,,8.363957948
1715832518086498834,-0.014,,,,8.371652734
1715832518094193620,-0.043,,,,8.37934752
1715832518101888406,0.012,,,,8.387042306
1715832518109583192,0.009,,,,8.394737092
1715832518117277978,-0.004,,,,8.402431878
1715832518124972764,0.012,,,,8.410126664
1715832518132667550,0.026,,,,8.41782145
1715832518140362352,0.016,,,,8.425516252
1715832518148056720,0.019,,,,8.43321062
1715832518155751088,0.031,,,,8.440904988
1715832518163445456,0.024,,,,8.448599356
1715832518171139824,0.016,,,,8.456293724
1715832518178834192,0.024,,,,8.463988092
1715832518186528560,0.031,,,,8.47168246
1715832518194222928,0.038,,,,8.479376828
1715832518201917296,0.028,,,,8.487071196
1715832518209611664,0.028,,,,8.494765564
1715832518217306032,0.045,,,,8.502459932
1715832518225000400,0.045,,,,8.5101543
1715832518232694768,0.045,,,,8.517848668
1715832518240389136,0.048,,,,8.525543036
1715832518248083504,0.05,,,,8.533237404
1715832518255777872,0.052,,,,8.540931772
1715832518263472240,0.045,,,,8.54862614
1715832518271166608,0.048,,,,8.556320508
1715832518278860976,0.055,,,,8.564014876
1715832518286555344,0.05,,,,8.571709244
1715832518294249712,0.048,,,,8.579403612
1715832518301944080,0.043,,,,8.58709798
1715832518309638448,0.038,,,,8.594792348
1715832518317332816,0.036,,,,8.602486716
1715832518325027184,0.028,,,,8.610181084
1715832518332721552,0.026,,,,8.617875452
1715832518340415920,0.024,,,,8.62556982
1715832518348110288,0.016,,,,8.633264188
1715832518355804656,0.019,,,,8.640958556
1715832518363499024,0.021,,,,8.648652924
1715832518371193392,0.024,,,,8.656347292
1715832518378887760,0.021,,,,8.66404166
1715832518386582128,0.014,,,,8.671736028
1715832518394276496,0.024,,,,8.679430396
1715832518401970864,0.028,,,,8.687124764
1715832518409665232,0.026,,,,8.694819132
1715832518417359600,0.031,,,,8.7025135
1715832518425053968,0.033,,,,8.710207868
1715832518432748336,0.036,,,,8.717902236
1715832518440442704,0.033,,,,8.725596604
1715832518448137072,0.033,,,,8.733290972
1715832518455831440,0.04,,,,8.74098534
1715832518463525808,0.033,,,,8.748679708
1715832518471220176,0.031,,,,8.756374076
1715832518478914544,0.033,,,,8.764068444
1715832518486608912,0.031,,,,8.771762812
1715832518494303280,0.038,,,,8.77945718
1715832518501997648,0.038,,,,8.787151548
1715832518509692016,0.038,,,,8.794845916
1715832518517386384,0.045,,,,8.802540284
1715832518525080752,0.04,,,,8.810234652
1715832518532775120,0.036,,,,8.81792902
1715832518540469488,0.033,,,,8.825623388
1715832518548163856,0.036,,,,8.833317756
1715832518555858224,0.043,,,,8.841012124
1715832518563552592,0.045,,,,8.848706492
1715832518571246960,0.05,,,,8.85640086
1715832518578941328,0.052,,,,8.864095228
1715832518586635696,0.045,,,,8.871789596
1715832518594330064,0.04,,,,8.879483964
1715832518602024432,0.038,,,,8.887178332
1715832518609718800,0.045,,,,8.8948727
1715832518617413168,0.048,,585.0,,8.902567068
1715832518625107536,0.038,,,,8.910261436
1715832518632801904,0.048,,,,8.917955804
1715832518640496272,0.055,,,,8.925650172
1715832518648190640,0.045,,,,8.93334454
1715832518655885008,0.052,,,,8.941038908
1715832518663579376,0.108,,,,8.948733276
1715832518671273744,0.262,,,,8.956427644
1715832518678968112,0.471,,,,8.964122012
1715832518686662480,0.478,,,,8.97181638
1715832518694356848,0.137,,,,8.979510748
1715832518702051230,-0.141,99.0,,,8.98720513
1715832518709745876,-0.043,,,,8.994899776
1715832518717440522,0.052,,,,9.002594422
1715832518725135168,-0.024,,,,9.010289068
1715832518732829814,-0.019,,,,9.017983714
1715832518740524460,0.026,,,,9.02567836
1715832518748219106,0.009,,,,9.033373006
1715832518755913752,0.009,,,,9.041067652
1715832518763608398,0.024,,,,9.048762298
1715832518771303044,0.014,,,,9.056456944
1715832518778997690,0.007,,,,9.06415159
1715832518786692336,0.019,,,,9.071846236
1715832518794386982,0.026,,,,9.079540882
1715832518802081628,0.012,,,,9.087235528
1715832518809776274,0.014,,,,9.094930174
1715832518817470920,0.026,,,,9.10262482
1715832518825165566,0.012,,,,9.110319466
1715832518832860212,0.009,,,,9.118014112
1715832518840554858,0.024,,,,9.125708758
1715832518848249504,0.028,,,,9.133403404
1715832518855944150,0.031,,,,9.14109805
1715832518863638796,0.031,,,,9.148792696
1715832518871333442,0.036,,,,9.156487342
1715832518879028088,0.043,,,,9.164181988
1715832518886722734,0.04,,,,9.171876634
1715832518894417380,0.045,,,,9.17957128
1715832518902112026,0.045,,,,9.187265926
1715832518909806672,0.05,,,,9.194960572
1715832518917501318,0.052,,,,9.202655218
1715832518925195964,0.05,,,,9.210349864
1715832518932890610,0.052,,,,9.21804451
1715832518940585256,0.045,,,,9.225739156
1715832518948279902,0.031,,,,9.233433802
1715832518955974548,0.033,,,,9.241128448
1715832518963669194,0.028,,,,9.248823094
1715832518971363840,0.021,,,,9.25651774
1715832518979058486,0.014,,,,9.264212386
1715832518986753132,0.007,,,,9.271907032
1715832518994447778,0.014,,,,9.279601678
1715832519002142424,0.019,,,,9.287296324
1715832519009837070,0.019,,,,9.29499097
1715832519017531716,0.021,,,,9.302685616
1715832519025226362,0.019,,,,9.310380262
1715832519032921008,0.021,,,,9.318074908
1715832519040615654,0.021,,,,9.325769554
1715832519048310300,0.021,,,,9.3334642
1715832519056004946,0.031,,,,9.341158846
1715832519063699592,0.024,,,,9.348853492
1715832519071394238,0.019,,,,9.356548138
1715832519079088884,0.024,,,,9.364242784
1715832519086783530,0.026,,,,9.37193743
1715832519094478176,0.026,,,,9.379632076
1715832519102172822,0.024,,,,9.387326722
1715832519109867468,0.024,,,,9.395021368
1715832519117562114,0.028,,,,9.402716014
1715832519125256760,0.024,,,,9.41041066
1715832519132951406,0.024,,,,9.418105306
1715832519140646052,0.028,,,,9.425799952
1715832519148340698,0.024,,,,9.433494598
1715832519156035344,0.026,,,,9.441189244
1715832519163729990,0.021,,,,9.44888389
1715832519171424636,0.021,,,,9.456578536
1715832519179119282,0.016,,,,9.464273182
1715832519186813928,-0.002,,,,9.471967828
1715832519194508574,0.0,,,,9.479662474
1715832519202203220,0.014,,,,9.48735712
1715832519209897866,0.021,,,,9.495051766
1715832519217592512,0.021,,,,9.502746412
1715832519225287158,0.021,,604.0,,9.510441058
1715832519232981804,0.028,,,,9.518135704
1715832519240676450,0.021,,,,9.52583035
1715832519248371096,0.007,,,,9.533524996
1715832519256065742,0.016,,,,9.541219642
1715832519263760452,0.019,,,,9.548914352
1715832519271454959,0.014,,,,9.556608859
1715832519279149466,0.016,,,,9.564303366
1715832519286843973,0.014,,,,9.571997873
1715832519294538480,0.014,,,,9.57969238
1715832519302232987,0.012,,,,9.587386887
1715832519309927494,0.043,,,,9.595081394
1715832519317622001,0.175,,,,9.602775901
1715832519325316508,0.394,,,,9.610470408
1715832519333011015,0.485,,,,9.618164915
1715832519340705522,0.185,,,,9.625859422
1715832519348400029,-0.173,,,,9.633553929
1715832519356094536,-0.122,,,,9.641248436
1715832519363789043,0.002,,,,9.648942943
1715832519371483550,-0.076,,,,9.65663745
1715832519379178057,-0.093,,,,9.664331957
1715832519386872564,-0.028,,,,9.672026464
1715832519394567071,-0.033,,,,9.679720971
1715832519402261578,-0.057,,,,9.687415478
1715832519409956085,-0.04,,,,9.695109985
1715832519417650592,-0.028,,,,9.702804492
1715832519425345099,-0.036,,,,9.710498999
1715832519433039606,-0.028,,,,9.718193506
1715832519440734113,-0.021,,,,9.725888013
1715832519448428620,-0.026,,,,9.73358252
1715832519456123127,-0.026,,,,9.741277027
1715832519463817634,-0.026,,,,9.748971534
1715832519471512141,-0.026,,,,9.756666041
1715832519479206648,-0.021,,,,9.764360548
1715832519486901155,-0.021,,,,9.772055055
1715832519494595662,-0.019,,,,9.779749562
1715832519502290169,-0.016,,,,9.787444069
1715832519509984676,-0.012,,,,9.795138576
1715832519517679183,-0.009,,,,9.802833083
1715832519525373690,-0.012,,,,9.81052759
1715832519533068197,-0.007,,,,9.818222097
1715832519540762704,-0.007,,,,9.825916604
1715832519548457211,-0.019,,,,9.833611111
1715832519556151718,-0.024,,,,9.841305618
1715832519563846225,-0.026,,,,9.849000125
1715832519571540732,-0.024,,,,9.856694632
1715832519579235239,-0.021,,,,9.864389139
1715832519586929746,-0.031,,,,9.872083646
1715832519594624253,-0.033,,,,9.879778153
1715832519602318760,-0.036,,,,9.88747266
1715832519610013267,-0.045,,,,9.895167167
1715832519617707774,-0.05,,,,9.902861674
1715832519625402281,-0.052,,,,9.910556181
1715832519633096788,-0.05,,,,9.918250688
1715832519640791295,-0.057,,,,9.925945195
1715832519648485802,-0.057,,,,9.933639702
1715832519656180309,-0.043,,,,9.941334209
1715832519663874816,-0.05,,,,9.949028716
1715832519671569323,-0.055,,,,9.956723223
1715832519679263830,-0.045,,,,9.96441773
1715832519686958337,-0.052,,,,9.972112237
1715832519694652844,-0.062,,,,9.979806744
1715832519702347351,-0.057,,,,9.987501251
1715832519710041858,-0.052,,,,9.995195758
1715832519717736365,-0.05,,,,10.002890265
1715832519725430872,-0.057,,,,10.010584772
1715832519733125379,-0.057,,,,10.018279279
1715832519740819886,-0.055,,,,10.025973786
1715832519748514393,-0.062,,,,10.033668293
1715832519756208900,-0.06,,,,10.0413628
1715832519763903407,-0.055,,,,10.049057307
1715832519771597914,-0.052,,,,10.056751814
1715832519779292421,-0.057,,,,10.064446321
1715832519786986928,-0.06,,,,10.072140828
1715832519794681435,-0.055,,,,10.079835335
1715832519802375942,-0.064,,,,10.087529842
1715832519810070449,-0.072,,,,10.095224349
1715832519817764956,-0.069,,,,10.102918856
1715832519825459500,-0.074,99.0,601.0,,10.1106134
1715832519833154286,-0.064,,,,10.118308186
1715832519840849072,-0.06,,,,10.126002972
1715832519848543858,-0.067,,,,10.133697758
1715832519856238644,-0.06,,,,10.141392544
1715832519863933430,-0.062,,,,10.14908733
1715832519871628216,-0.081,,,,10.156782116
1715832519879323002,-0.096,,,,10.164476902
1715832519887017788,-0.098,,,,10.172171688
1715832519894712574,-0.079,,,,10.179866474
1715832519902407360,-0.076,,,,10.18756126
1715832519910102146,-0.091,,,,10.195256046
1715832519917796932,-0.096,,,,10.202950832
1715832519925491718,-0.096,,,,10.210645618
1715832519933186504,-0.086,,,,10.218340404
1715832519940881290,-0.019,,,,10.22603519
1715832519948576076,0.17,,,,10.233729976
1715832519956270862,0.404,,,,10.241424762
1715832519963965648,0.341,,,,10.249119548
1715832519971660434,-0.076,,,,10.256814334
1715832519979355220,-0.305,,,,10.26450912
1715832519987050006,-0.158,,,,10.272203906
1715832519994744792,-0.101,,,,10.279898692
1715832520002439578,-0.189,,,,10.287593478
1715832520010134364,-0.168,,,,10.295288264
1715832520017829150,-0.125,,,,10.30298305
1715832520025523936,-0.151,,,,10.310677836
1715832520033218722,-0.156,,,,10.318372622
1715832520040913508,-0.137,,,,10.326067408
1715832520048608294,-0.149,,,,10.333762194
1715832520056303080,-0.156,,,,10.34145698
1715832520063997866,-0.151,,,,10.349151766
1715832520071692652,-0.141,,,,10.356846552
1715832520079387438,-0.134,,,,10.364541338
1715832520087082224,-0.139,,,,10.372236124
1715832520094777010,-0.144,,,,10.37993091
1715832520102471796,-0.134,,,,10.387625696
1715832520110166582,-0.117,,,,10.395320482
1715832520117861368,-0.115,,,,10.403015268
1715832520125556154,-0.127,,,,10.410710054
1715832520133250940,-0.122,,,,10.41840484
1715832520140945726,-0.125,,,,10.426099626
1715832520148640512,-0.139,,,,10.433794412
1715832520156335298,-0.134,,,,10.441489198
1715832520164030084,-0.122,,,,10.449183984
1715832520171724870,-0.125,,,,10.45687877
1715832520179419656,-0.122,,,,10.464573556
1715832520187114442,-0.113,,,,10.472268342
1715832520194809228,-0.12,,,,10.479963128
1715832520202504014,-0.139,,,,10.487657914
1715832520210198800,-0.139,,,,10.4953527
1715832520217893586,-0.137,,,,10.503047486
1715832520225588372,-0.151,,,,10.510742272
1715832520233283158,-0.156,,,,10.518437058
1715832520240977944,-0.151,,,,10.526131844
1715832520248672730,-0.149,,,,10.53382663
1715832520256367516,-0.146,,,,10.541521416
1715832520264062302,-0.149,,,,10.549216202
1715832520271757088,-0.139,,,,10.556910988
1715832520279451874,-0.127,,,,10.564605774
1715832520287146660,-0.132,,,,10.57230056
1715832520294841446,-0.129,,,,10.579995346
1715832520302536232,-0.127,,,,10.587690132
1715832520310231018,-0.125,,,,10.595384918
1715832520317925804,-0.117,,,,10.603079704
1715832520325620590,-0.115,,,,10.61077449
1715832520333315376,-0.105,,,,10.618469276
1715832520341010162,-0.105,,,,10.626164062
1715832520348704948,-0.11,,,,10.633858848
1715832520356399734,-0.101,,,,10.641553634
1715832520364094520,-0.096,,,,10.64924842
1715832520371789306,-0.093,,,,10.656943206
1715832520379484092,-0.088,,,,10.664637992
1715832520387178894,-0.093,,,,10.672332794
1715832520394873262,-0.088,,,,10.680027162
1715832520402567630,-0.079,,,,10.68772153
1715832520410261998,-0.079,,,,10.695415898
1715832520417956366,-0.076,,,,10.703110266
1715832520425650734,-0.074,,604.0,,10.710804634
1715832520433345102,-0.067,,,,10.718499002
1715832520441039470,-0.069,,,,10.72619337
1715832520448733838,-0.081,,,,10.733887738
1715832520456428206,-0.072,,,,10.741582106
1715832520464122574,-0.057,,,,10.749276474
1715832520471816942,-0.052,,,,10.756970842
1715832520479511310,-0.055,,,,10.76466521
1715832520487205678,-0.062,,,,10.772359578
1715832520494900046,-0.062,,,,10.780053946
1715832520502594414,-0.057,,,,10.787748314
1715832520510288782,-0.064,,,,10.795442682
1715832520517983150,-0.06,,,,10.80313705
1715832520525677518,-0.045,,,,10.810831418
1715832520533371886,-0.043,,,,10.818525786
1715832520541066254,-0.055,,,,10.826220154
1715832520548760622,-0.055,,,,10.833914522
1715832520556454990,-0.014,,,,10.84160889
1715832520564149358,0.113,,,,10.849303258
1715832520571843726,0.363,,,,10.856997626
1715832520579538094,0.507,,,,10.864691994
1715832520587232462,0.202,,,,10.872386362
1715832520594926830,-0.226,,,,10.88008073
1715832520602621198,-0.209,,,,10.887775098
1715832520610315566,-0.045,,,,10.895469466
1715832520618009934,-0.105,,,,10.903163834
1715832520625704302,-0.141,,,,10.910858202
1715832520633398670,-0.076,,,,10.91855257
1715832520641093038,-0.072,,,,10.926246938
1715832520648787406,-0.093,,,,10.933941306
1715832520656481774,-0.072,,,,10.941635674
1715832520664176142,-0.062,,,,10.949330042
1715832520671870510,-0.069,,,,10.95702441
1715832520679564878,-0.052,,,,10.964718778
1715832520687259246,-0.045,,,,10.972413146
1715832520694953614,-0.057,,,,10.980107514
1715832520702647982,-0.074,,,,10.987801882
1715832520710342350,-0.069,,,,10.99549625
1715832520718036718,-0.055,,,,11.003190618
1715832520725731086,-0.057,,,,11.010884986
1715832520733425454,-0.052,,,,11.018579354
1715832520741119822,-0.038,,,,11.026273722
1715832520748814190,-0.04,,,,11.03396809
1715832520756508558,-0.038,,,,11.041662458
1715832520764202926,-0.026,,,,11.049356826
1715832520771897294,-0.016,,,,11.057051194
1715832520779591662,-0.014,,,,11.064745562
1715832520787286030,-0.021,,,,11.07243993
1715832520794980398,-0.019,,,,11.080134298
1715832520802674766,-0.009,,,,11.087828666
1715832520810369134,-0.009,,,,11.095523034
1715832520818063502,-0.012,,,,11.103217402
1715832520825757870,-0.014,,,,11.11091177
1715832520833452238,-0.019,,,,11.118606138
1715832520841146606,-0.024,,,,11.126300506
1715832520848840974,-0.031,,,,11.133994874
1715832520856535342,-0.026,,,,11.141689242
1715832520864229710,-0.028,,,,11.14938361
1715832520871924078,-0.028,,,,11.157077978
1715832520879618446,-0.021,,,,11.164772346
1715832520887312814,-0.021,,,,11.172466714
1715832520895007182,-0.019,,,,11.180161082
1715832520902701550,-0.014,,,,11.18785545
1715832520910395918,-0.009,,,,11.195549818
1715832520918090286,-0.002,,,,11.203244186
1715832520925784654,-0.002,,,,11.210938554
1715832520933479022,-0.002,,,,11.218632922
1715832520941173390,0.0,,,,11.22632729
1715832520948867770,-0.002,98.0,,,11.23402167
1715832520956562138,0.0,,,,11.241716038
1715832520964256506,0.0,,,,11.249410406
1715832520971950874,0.002,,,,11.257104774
1715832520979645242,0.0,,,,11.264799142
1715832520987339610,-0.009,,,,11.27249351
1715832520995033978,-0.009,,,,11.280187878
1715832521002728346,-0.004,,,,11.287882246
1715832521010422714,-0.002,,,,11.295576614
1715832521018117082,-0.009,,,,11.303270982
1715832521025811450,-0.019,,,,11.31096535
1715832521033505818,-0.012,,,,11.318659718
1715832521041200186,-0.007,,,,11.326354086
1715832521048894554,-0.014,,619.0,,11.334048454
1715832521056588922,-0.012,,,,11.341742822
1715832521064283290,-0.012,,,,11.34943719
1715832521071977658,-0.007,,,,11.357131558
1715832521079672026,0.002,,,,11.364825926
1715832521087366394,0.004,,,,11.372520294
1715832521095060762,0.012,,,,11.380214662
1715832521102755130,0.004,,,,11.38790903
1715832521110449498,-0.009,,,,11.395603398
1715832521118143866,-0.004,,,,11.403297766
1715832521125838234,0.002,,,,11.410992134
1715832521133532602,0.004,,,,11.418686502
1715832521141226970,0.004,,,,11.42638087
1715832521148921338,0.004,,,,11.434075238
1715832521156615706,0.009,,,,11.441769606
1715832521164310074,0.007,,,,11.449463974
1715832521172004442,0.014,,,,11.457158342
1715832521179698810,0.084,,,,11.46485271
1715832521187393178,0.271,,,,11.472547078
1715832521195087546,0.521,,,,11.480241446
1715832521202781914,0.497,,,,11.487935814
1715832521210476282,0.064,,,,11.495630182
1715832521218170650,-0.223,,,,11.50332455
1715832521225865018,-0.081,,,,11.511018918
1715832521233559386,0.002,,,,11.518713286
1715832521241253754,-0.084,,,,11.526407654
1715832521248948122,-0.064,,,,11.534102022
1715832521256642490,-0.014,,,,11.54179639
1715832521264336858,-0.036,,,,11.549490758
1715832521272031226,-0.036,,,,11.557185126
1715832521279725594,-0.016,,,,11.564879494
1715832521287419962,-0.028,,,,11.572573862
1715832521295114330,-0.031,,,,11.58026823
1715832521302808698,-0.021,,,,11.587962598
1715832521310503066,-0.021,,,,11.595656966
1715832521318197434,-0.014,,,,11.603351334
1715832521325891802,-0.009,,,,11.611045702
1715832521333586170,-0.004,,,,11.61874007
1715832521341280538,-0.004,,,,11.626434438
1715832521348974906,-0.007,,,,11.634128806
1715832521356669274,0.002,,,,11.641823174
1715832521364363642,0.014,,,,11.649517542
1715832521372058010,0.016,,,,11.65721191
1715832521379752378,0.014,,,,11.664906278
1715832521387446746,0.014,,,,11.672600646
1715832521395141114,0.026,,,,11.680295014
1715832521402835482,0.031,,,,11.687989382
1715832521410529850,0.028,,,,11.69568375
1715832521418224218,0.033,,,,11.703378118
1715832521425918586,0.036,,,,11.711072486
1715832521433612954,0.036,,,,11.718766854
1715832521441307322,0.036,,,,11.726461222
1715832521449001690,0.028,,,,11.73415559
1715832521456696058,0.028,,,,11.741849958
1715832521464390426,0.019,,,,11.749544326
1715832521472084794,0.012,,,,11.757238694
1715832521479779162,0.012,,,,11.764933062
1715832521487473530,0.002,,,,11.77262743
1715832521495167898,0.002,,,,11.780321798
1715832521502862266,0.007,,,,11.788016166
1715832521510556648,0.012,,,,11.795710548
1715832521518251434,0.016,,,,11.803405334
1715832521525946220,0.009,,,,11.81110012
1715832521533641006,0.0,,,,11.818794906
1715832521541335792,0.009,,,,11.826489692
1715832521549030578,0.014,,,,11.834184478
1715832521556725364,0.004,,,,11.841879264
1715832521564420150,-0.004,,,,11.84957405
1715832521572114936,0.004,,,,11.857268836
1715832521579809722,0.012,,,,11.864963622
1715832521587504508,0.002,,,,11.872658408
1715832521595199294,0.004,,,,11.880353194
1715832521602894080,0.009,,,,11.88804798
1715832521610588866,0.007,,,,11.895742766
1715832521618283652,0.004,,,,11.903437552
1715832521625978438,0.004,,,,11.911132338
1715832521633673224,0.012,,,,11.918827124
1715832521641368010,0.016,,,,11.92652191
1715832521649062796,0.009,,,,11.934216696
1715832521656757582,0.009,,,,11.941911482
1715832521664452368,0.004,,,,11.949606268
1715832521672147154,0.002,,,,11.957301054
1715832521679841940,0.007,,,,11.96499584
1715832521687536726,0.004,,637.0,,11.972690626
1715832521695231512,0.007,,,,11.980385412
1715832521702926298,0.007,,,,11.988080198
1715832521710621084,-0.002,,,,11.995774984
1715832521718315870,0.004,,,,12.00346977
1715832521726010656,0.019,,,,12.011164556
1715832521733705442,0.019,,,,12.018859342
1715832521741400228,0.007,,,,12.026554128
1715832521749095014,0.004,,,,12.034248914
1715832521756789800,0.012,,,,12.0419437
1715832521764484586,0.007,,,,12.049638486
1715832521772179372,0.002,,,,12.057333272
1715832521779874158,0.004,,,,12.065028058
1715832521787568944,0.002,,,,12.072722844
1715832521795263730,0.004,,,,12.08041763
1715832521802958516,0.0,,,,12.088112416
1715832521810653302,0.016,,,,12.095807202
1715832521818348088,0.137,,,,12.103501988
1715832521826042874,0.37,,,,12.111196774
1715832521833737660,0.541,,,,12.11889156
1715832521841432446,0.324,,,,12.126586346
1715832521849127232,-0.12,,,,12.134281132
1715832521856822018,-0.182,,,,12.141975918
1715832521864516804,-0.007,,,,12.149670704
1715832521872211590,-0.031,,,,12.15736549
1715832521879906376,-0.091,,,,12.165060276
1715832521887601162,-0.043,,,,12.172755062
1715832521895295948,-0.028,,,,12.180449848
1715832521902990734,-0.05,,,,12.188144634
1715832521910685520,-0.04,,,,12.19583942
1715832521918380306,-0.024,,,,12.203534206
1715832521926075092,-0.028,,,,12.211228992
1715832521933769878,-0.021,,,,12.218923778
1715832521941464664,-0.016,,,,12.226618564
1715832521949159450,-0.021,,,,12.23431335
1715832521956854236,-0.014,,,,12.242008136
1715832521964549022,-0.007,,,,12.249702922
1715832521972243808,-0.004,,,,12.257397708
1715832521979938594,-0.004,,,,12.265092494
1715832521987633380,-0.004,,,,12.27278728
1715832521995328166,0.004,,,,12.280482066
1715832522003022952,0.012,,,,12.288176852
1715832522010717738,0.009,,,,12.295871638
1715832522018412524,0.007,,,,12.303566424
1715832522026107310,0.007,,,,12.31126121
1715832522033802096,0.016,,,,12.318955996
1715832522041496882,0.024,,,,12.326650782
1715832522049191668,0.021,,,,12.334345568
1715832522056886454,0.031,,,,12.342040354
1715832522064581240,0.028,,,,12.34973514
1715832522072276042,0.026,97.0,,,12.357429942
1715832522079970410,0.028,,,,12.36512431
1715832522087664778,0.021,,,,12.372818678
1715832522095359146,0.016,,,,12.380513046
1715832522103053514,0.012,,,,12.388207414
1715832522110747882,0.007,,,,12.395901782
1715832522118442250,0.012,,,,12.40359615
1715832522126136618,0.004,,,,12.411290518
1715832522133830986,-0.002,,,,12.418984886
1715832522141525354,0.002,,,,12.426679254
1715832522149219722,0.007,,,,12.434373622
1715832522156914090,0.004,,,,12.44206799
1715832522164608458,-0.004,,,,12.449762358
1715832522172302826,0.002,,,,12.457456726
1715832522179997194,0.012,,,,12.465151094
1715832522187691562,0.0,,,,12.472845462
1715832522195385930,-0.004,,,,12.48053983
1715832522203080298,0.002,,,,12.488234198
1715832522210774666,-0.004,,,,12.495928566
1715832522218469034,-0.009,,,,12.503622934
1715832522226163402,-0.004,,,,12.511317302
1715832522233857770,0.004,,,,12.51901167
1715832522241552138,0.009,,,,12.526706038
1715832522249246506,0.004,,,,12.534400406
1715832522256940874,0.009,,,,12.542094774
1715832522264635242,0.007,,,,12.549789142
1715832522272329610,0.004,,,,12.55748351
1715832522280023978,0.009,,,,12.565177878
1715832522287718346,0.014,,,,12.572872246
1715832522295412714,0.019,,,,12.580566614
1715832522303107082,0.019,,,,12.588260982
1715832522310801450,0.014,,,,12.59595535
1715832522318495818,0.019,,,,12.603649718
1715832522326190186,0.019,,,,12.611344086
1715832522333884554,0.019,,648.0,,12.619038454
1715832522341578922,0.019,,,,12.626732822
1715832522349273290,0.019,,,,12.63442719
1715832522356967658,0.031,,,,12.642121558
1715832522364662026,0.038,,,,12.649815926
1715832522372356394,0.036,,,,12.657510294
1715832522380050762,0.045,,,,12.665204662
1715832522387745130,0.043,,,,12.67289903
1715832522395439498,0.033,,,,12.680593398
1715832522403133866,0.026,,,,12.688287766
1715832522410828234,0.028,,,,12.695982134
1715832522418522602,0.036,,,,12.703676502
1715832522426216970,0.033,,,,12.71137087
1715832522433911338,0.036,,,,12.719065238
1715832522441605706,0.043,,,,12.726759606
1715832522449300074,0.038,,,,12.734453974
1715832522456994442,0.04,,,,12.742148342
1715832522464688810,0.084,,,,12.74984271
1715832522472383178,0.247,,,,12.757537078
1715832522480077546,0.502,,,,12.765231446
1715832522487771914,0.545,,,,12.772925814
1715832522495466282,0.185,,,,12.780620182
1715832522503160650,-0.161,,,,12.78831455
1715832522510855018,-0.084,,,,12.796008918
1715832522518549386,0.031,,,,12.803703286
1715832522526243754,-0.043,,,,12.811397654
1715832522533938122,-0.043,,,,12.819092022
1715832522541632490,0.012,,,,12.82678639
1715832522549326858,-0.002,,,,12.834480758
1715832522557021226,-0.002,,,,12.842175126
1715832522564715594,0.024,,,,12.849869494
1715832522572409962,0.026,,,,12.857563862
1715832522580104330,0.024,,,,12.86525823
1715832522587798698,0.028,,,,12.872952598
1715832522595493066,0.036,,,,12.880646966
1715832522603187434,0.036,,,,12.888341334
1715832522610881802,0.033,,,,12.896035702
1715832522618576170,0.045,,,,12.90373007
1715832522626270538,0.05,,,,12.911424438
1715832522633964918,0.052,97.0,,,12.919118818
1715832522641659495,0.057,,,,12.926813395
1715832522649354072,0.06,,,,12.934507972
1715832522657048649,0.072,,,,12.942202549
1715832522664743226,0.076,,,,12.949897126
1715832522672437803,0.074,,,,12.957591703
1715832522680132380,0.084,,,,12.96528628
1715832522687826957,0.086,,,,12.972980857
1715832522695521534,0.084,,,,12.980675434
1715832522703216111,0.079,,,,12.988370011
1715832522710910688,0.074,,,,12.996064588
1715832522718605265,0.074,,,,13.003759165
1715832522726299842,0.069,,,,13.011453742
1715832522733994419,0.069,,,,13.019148319
1715832522741688996,0.069,,,,13.026842896
1715832522749383573,0.062,,,,13.034537473
1715832522757078150,0.062,,,,13.04223205
1715832522764772727,0.055,,,,13.049926627
1715832522772467304,0.05,,,,13.057621204
1715832522780161881,0.055,,,,13.065315781
1715832522787856458,0.05,,,,13.073010358
1715832522795551035,0.052,,,,13.080704935
1715832522803245612,0.057,,,,13.088399512
1715832522810940189,0.055,,,,13.096094089
1715832522818634766,0.055,,,,13.103788666
1715832522826329343,0.057,,,,13.111483243
1715832522834023920,0.067,,,,13.11917782
1715832522841718497,0.074,,,,13.126872397
1715832522849413074,0.072,,,,13.134566974
1715832522857107651,0.076,,,,13.142261551
1715832522864802228,0.074,,,,13.149956128
1715832522872496805,0.069,,,,13.157650705
1715832522880191382,0.076,,,,13.165345282
1715832522887885959,0.079,,,,13.173039859
1715832522895580536,0.081,,,,13.180734436
1715832522903275113,0.081,,,,13.188429013
1715832522910969690,0.079,,,,13.19612359
1715832522918664267,0.084,,,,13.203818167
1715832522926358844,0.084,,,,13.211512744
1715832522934053421,0.086,,,,13.219207321
1715832522941747998,0.086,,,,13.226901898
1715832522949442575,0.084,,,,13.234596475
1715832522957137152,0.088,,,,13.242291052
1715832522964831729,0.086,,628.0,,13.249985629
1715832522972526306,0.084,,,,13.257680206
1715832522980220883,0.086,,,,13.265374783
1715832522987915460,0.081,,,,13.27306936
1715832522995610037,0.088,,,,13.280763937
1715832523003304614,0.096,,,,13.288458514
1715832523010999191,0.086,,,,13.296153091
1715832523018693768,0.091,,,,13.303847668
1715832523026388345,0.098,,,,13.311542245
1715832523034082922,0.088,,,,13.319236822
1715832523041777499,0.084,,,,13.326931399
1715832523049472076,0.084,,,,13.334625976
1715832523057166653,0.086,,,,13.342320553
1715832523064861230,0.084,,,,13.35001513
1715832523072555807,0.086,,,,13.357709707
1715832523080250384,0.091,,,,13.365404284
1715832523087944961,0.081,,,,13.373098861
1715832523095639538,0.074,,,,13.380793438
1715832523103334115,0.096,,,,13.388488015
1715832523111028692,0.194,,,,13.396182592
1715832523118723269,0.406,,,,13.403877169
1715832523126417846,0.584,,,,13.411571746
1715832523134112423,0.423,,,,13.419266323
1715832523141807000,0.004,,,,13.4269609
1715832523149501577,-0.117,,,,13.434655477
1715832523157196154,0.048,,,,13.442350054
1715832523164890731,0.052,,,,13.450044631
1715832523172585308,-0.014,,,,13.457739208
1715832523180279885,0.028,,,,13.465433785
1715832523187974462,0.045,,,,13.473128362
1715832523195669054,0.028,,,,13.480822954
1715832523203363631,0.045,,,,13.488517531
1715832523211058208,0.055,,,,13.496212108
1715832523218752785,0.043,,,,13.503906685
1715832523226447362,0.038,,,,13.511601262
1715832523234141939,0.048,,,,13.519295839
1715832523241836516,0.045,,,,13.526990416
1715832523249531093,0.038,,,,13.534684993
1715832523257225670,0.052,,,,13.54237957
1715832523264920247,0.06,,,,13.550074147
1715832523272614824,0.06,,,,13.557768724
1715832523280309401,0.072,,,,13.565463301
1715832523288003978,0.079,,,,13.573157878
1715832523295698555,0.081,,,,13.580852455
1715832523303393132,0.086,,,,13.588547032
1715832523311087709,0.088,,,,13.596241609
1715832523318782286,0.098,,,,13.603936186
1715832523326476863,0.101,,,,13.611630763
1715832523334171440,0.101,,,,13.61932534
1715832523341866017,0.105,,,,13.627019917
1715832523349560594,0.108,,,,13.634714494
1715832523357255171,0.113,,,,13.642409071
1715832523364949748,0.113,,,,13.650103648
1715832523372644325,0.11,,,,13.657798225
1715832523380338902,0.11,,,,13.665492802
1715832523388033479,0.103,,,,13.673187379
1715832523395728056,0.101,,,,13.680881956
1715832523403422633,0.103,,,,13.688576533
1715832523411117210,0.096,,,,13.69627111
1715832523418811787,0.093,,,,13.703965687
1715832523426506364,0.088,,,,13.711660264
1715832523434200941,0.093,,,,13.719354841
1715832523441895518,0.101,,,,13.727049418
1715832523449590095,0.096,,,,13.734743995
1715832523457284672,0.101,,,,13.742438572
1715832523464979249,0.103,,,,13.750133149
1715832523472673826,0.098,,,,13.757827726
1715832523480368403,0.103,,,,13.765522303
1715832523488062980,0.105,,,,13.77321688
1715832523495757557,0.105,,,,13.780911457
1715832523503452134,0.098,,,,13.788606034
1715832523511146711,0.093,,,,13.796300611
1715832523518841288,0.103,,,,13.803995188
1715832523526535865,0.103,,,,13.811689765
1715832523534230442,0.103,,,,13.819384342
1715832523541925019,0.103,,,,13.827078919
1715832523549619596,0.103,,,,13.834773496
1715832523557314173,0.108,,,,13.842468073
1715832523565008750,0.105,,,,13.85016265
1715832523572703327,0.101,,,,13.857857227
1715832523580397904,0.108,,619.0,,13.865551804
1715832523588092481,0.108,,,,13.873246381
1715832523595787058,0.105,,,,13.880940958
1715832523603481635,0.108,,,,13.888635535
1715832523611176212,0.105,,,,13.896330112
1715832523618870789,0.103,,,,13.904024689
1715832523626565366,0.093,,,,13.911719266
1715832523634259943,0.091,,,,13.919413843
1715832523641954520,0.098,,,,13.92710842
1715832523649649097,0.096,,,,13.934802997
1715832523657343674,0.101,,,,13.942497574
1715832523665038251,0.105,,,,13.950192151
1715832523672732828,0.113,,,,13.957886728
1715832523680427405,0.12,,,,13.965581305
1715832523688121982,0.108,,,,13.973275882
1715832523695816559,0.096,,,,13.980970459
1715832523703511136,0.098,,,,13.988665036
1715832523711205713,0.096,,,,13.996359613
1715832523718900290,0.088,,,,14.00405419
1715832523726594867,0.079,,,,14.011748767
1715832523734289444,0.081,,,,14.019443344
1715832523741984021,0.079,,,,14.027137921
1715832523749678598,0.067,,,,14.034832498
1715832523757373188,0.091,97.0,,,14.042527088
1715832523765067556,0.189,,,,14.050221456
1715832523772761924,0.394,,,,14.057915824
1715832523780456292,0.581,,,,14.065610192
1715832523788150660,0.44,,,,14.07330456
1715832523795845028,0.028,,,,14.080998928
1715832523803539396,-0.105,,,,14.088693296
1715832523811233764,0.045,,,,14.096387664
1715832523818928132,0.055,,,,14.104082032
1715832523826622500,-0.009,,,,14.1117764
1715832523834316868,0.031,,,,14.119470768
1715832523842011236,0.057,,,,14.127165136
1715832523849705604,0.038,,,,14.134859504
1715832523857399972,0.05,,,,14.142553872
1715832523865094340,0.064,,,,14.15024824
1715832523872788708,0.057,,,,14.157942608
1715832523880483076,0.062,,,,14.165636976
1715832523888177444,0.067,,,,14.173331344
1715832523895871812,0.064,,,,14.181025712
1715832523903566180,0.069,,,,14.18872008
1715832523911260548,0.074,,,,14.196414448
1715832523918954916,0.081,,,,14.204108816
1715832523926649284,0.079,,,,14.211803184
1715832523934343652,0.079,,,,14.219497552
1715832523942038020,0.088,,,,14.22719192
1715832523949732388,0.091,,,,14.234886288
1715832523957426756,0.091,,,,14.242580656
1715832523965121124,0.091,,,,14.250275024
1715832523972815492,0.091,,,,14.257969392
1715832523980509860,0.091,,,,14.26566376
1715832523988204228,0.084,,,,14.273358128
1715832523995898596,0.084,,,,14.281052496
1715832524003592964,0.093,,,,14.288746864
1715832524011287332,0.096,,,,14.296441232
1715832524018981700,0.096,,,,14.3041356
1715832524026676068,0.093,,,,14.311829968
1715832524034370436,0.093,,,,14.319524336
1715832524042064804,0.091,,,,14.327218704
1715832524049759172,0.081,,,,14.334913072
1715832524057453540,0.081,,,,14.34260744
1715832524065147908,0.076,,,,14.350301808
1715832524072842276,0.067,,,,14.357996176
1715832524080536644,0.069,,,,14.365690544
1715832524088231012,0.072,,,,14.373384912
1715832524095925380,0.074,,,,14.38107928
1715832524103619748,0.072,,,,14.388773648
1715832524111314116,0.064,,,,14.396468016
1715832524119008484,0.069,,,,14.404162384
1715832524126702852,0.076,,,,14.411856752
1715832524134397220,0.076,,,,14.41955112
1715832524142091588,0.069,,,,14.427245488
1715832524149785956,0.064,,,,14.434939856
1715832524157480324,0.074,,,,14.442634224
1715832524165174692,0.069,,,,14.450328592
1715832524172869060,0.062,,,,14.45802296
1715832524180563428,0.072,,,,14.465717328
1715832524188257796,0.074,,,,14.473411696
1715832524195952164,0.069,,,,14.481106064
1715832524203646532,0.067,,620.0,,14.488800432
1715832524211340900,0.064,,,,14.4964948
1715832524219035268,0.06,,,,14.504189168
1715832524226729636,0.048,,,,14.511883536
1715832524234424004,0.045,,,,14.519577904
1715832524242118372,0.055,,,,14.527272272
1715832524249812740,0.055,,,,14.53496664
1715832524257507108,0.05,,,,14.542661008
1715832524265201476,0.04,,,,14.550355376
1715832524272895844,0.036,,,,14.558049744
1715832524280590212,0.045,,,,14.565744112
1715832524288284580,0.045,,,,14.57343848
1715832524295978948,0.045,,,,14.581132848
1715832524303673316,0.05,,,,14.588827216
1715832524311367684,0.055,,,,14.596521584
1715832524319062064,0.067,,,,14.604215964
1715832524326756850,0.064,,,,14.61191075
1715832524334451636,0.05,,,,14.619605536
1715832524342146422,0.04,,,,14.627300322
1715832524349841208,0.033,,,,14.634995108
1715832524357535994,0.036,,,,14.642689894
1715832524365230780,0.043,,,,14.65038468
1715832524372925566,0.036,,,,14.658079466
1715832524380620352,0.033,,,,14.665774252
1715832524388315138,0.031,,,,14.673469038
1715832524396009924,0.033,,,,14.681163824
1715832524403704710,0.067,,,,14.68885861
1715832524411399496,0.194,,,,14.696553396
1715832524419094282,0.423,,,,14.704248182
1715832524426789068,0.533,,,,14.711942968
1715832524434483854,0.257,,,,14.719637754
1715832524442178640,-0.125,,,,14.72733254
1715832524449873426,-0.108,,,,14.735027326
1715832524457568212,0.045,,,,14.742722112
1715832524465262998,-0.012,,,,14.750416898
1715832524472957784,-0.048,,,,14.758111684
1715832524480652570,0.007,,,,14.76580647
1715832524488347356,-0.002,,,,14.773501256
1715832524496042142,-0.019,,,,14.781196042
1715832524503736928,0.009,,,,14.788890828
1715832524511431714,0.016,,,,14.796585614
1715832524519126500,0.016,,,,14.8042804
1715832524526821286,0.019,,,,14.811975186
1715832524534516072,0.019,,,,14.819669972
1715832524542210858,0.024,,,,14.827364758
1715832524549905644,0.028,,,,14.835059544
1715832524557600430,0.033,,,,14.84275433
1715832524565295216,0.038,,,,14.850449116
1715832524572990002,0.04,,,,14.858143902
1715832524580684788,0.048,,,,14.865838688
1715832524588379574,0.043,,,,14.873533474
1715832524596074360,0.048,,,,14.88122826
1715832524603769146,0.055,,,,14.888923046
1715832524611463932,0.062,,,,14.896617832
1715832524619158718,0.062,,,,14.904312618
1715832524626853504,0.055,,,,14.912007404
1715832524634548290,0.06,,,,14.91970219
1715832524642243076,0.069,,,,14.927396976
1715832524649937862,0.06,,,,14.935091762
1715832524657632648,0.062,,,,14.942786548
1715832524665327434,0.069,,,,14.950481334
1715832524673022220,0.064,,,,14.95817612
1715832524680717006,0.057,,,,14.965870906
1715832524688411792,0.055,,,,14.973565692
1715832524696106578,0.055,,,,14.981260478
1715832524703801364,0.045,,,,14.988955264
1715832524711496150,0.036,,,,14.99665005
1715832524719190936,0.033,,,,15.004344836
1715832524726885722,0.021,,,,15.012039622
1715832524734580508,0.014,,,,15.019734408
1715832524742275294,0.024,,,,15.027429194
1715832524749970080,0.026,,,,15.03512398
1715832524757664866,0.031,,,,15.042818766
1715832524765359652,0.031,,,,15.050513552
1715832524773054438,0.033,,,,15.058208338
1715832524780749224,0.043,,,,15.065903124
1715832524788444010,0.043,,,,15.07359791
1715832524796138796,0.04,,,,15.081292696
1715832524803833582,0.043,,,,15.088987482
1715832524811528368,0.04,,,,15.096682268
1715832524819223154,0.048,,,,15.104377054
1715832524826917940,0.045,,,,15.11207184
1715832524834612726,0.043,,635.0,,15.119766626
1715832524842307512,0.052,,,,15.127461412
1715832524850002298,0.05,,,,15.135156198
1715832524857697084,0.048,,,,15.142850984
1715832524865391870,0.045,,,,15.15054577
1715832524873086656,0.045,,,,15.158240556
1715832524880781458,0.052,96.0,,,15.165935358
1715832524888475826,0.05,,,,15.173629726
1715832524896170194,0.045,,,,15.181324094
1715832524903864562,0.04,,,,15.189018462
1715832524911558930,0.036,,,,15.19671283
1715832524919253298,0.036,,,,15.204407198
1715832524926947666,0.038,,,,15.212101566
1715832524934642034,0.048,,,,15.219795934
1715832524942336402,0.057,,,,15.227490302
1715832524950030770,0.052,,,,15.23518467
1715832524957725138,0.05,,,,15.242879038
1715832524965419506,0.05,,,,15.250573406
1715832524973113874,0.043,,,,15.258267774
1715832524980808242,0.045,,,,15.265962142
1715832524988502610,0.045,,,,15.27365651
1715832524996196978,0.045,,,,15.281350878
1715832525003891346,0.043,,,,15.289045246
1715832525011585714,0.04,,,,15.296739614
1715832525019280082,0.045,,,,15.304433982
1715832525026974450,0.045,,,,15.31212835
1715832525034668818,0.084,,,,15.319822718
1715832525042363186,0.233,,,,15.327517086
1715832525050057554,0.466,,,,15.335211454
1715832525057751922,0.543,,,,15.342905822
1715832525065446290,0.221,,,,15.35060019
1715832525073140658,-0.132,,,,15.358294558
1715832525080835026,-0.062,,,,15.365988926
1715832525088529394,0.064,,,,15.373683294
1715832525096223762,-0.009,,,,15.381377662
1715832525103918130,-0.026,,,,15.38907203
1715832525111612498,0.028,,,,15.396766398
1715832525119306866,0.026,,,,15.404460766
1715832525127001234,0.016,,,,15.412155134
1715832525134695602,0.036,,,,15.419849502
1715832525142389970,0.045,,,,15.42754387
1715832525150084338,0.038,,,,15.435238238
1715832525157778706,0.043,,,,15.442932606
1715832525165473074,0.048,,,,15.450626974
1715832525173167442,0.045,,,,15.458321342
1715832525180861810,0.052,,,,15.46601571
1715832525188556178,0.055,,,,15.473710078
1715832525196250546,0.06,,,,15.481404446
1715832525203944914,0.064,,,,15.489098814
1715832525211639282,0.067,,,,15.496793182
1715832525219333650,0.067,,,,15.50448755
1715832525227028018,0.057,,,,15.512181918
1715832525234722386,0.055,,,,15.519876286
1715832525242416754,0.062,,,,15.527570654
1715832525250111122,0.062,,,,15.535265022
1715832525257805490,0.069,,,,15.54295939
1715832525265499858,0.074,,,,15.550653758
1715832525273194226,0.076,,,,15.558348126
1715832525280888594,0.084,,,,15.566042494
1715832525288582962,0.084,,,,15.573736862
1715832525296277330,0.081,,,,15.58143123
1715832525303971698,0.079,,,,15.589125598
1715832525311666066,0.069,,,,15.596819966
1715832525319360434,0.064,,,,15.604514334
1715832525327054802,0.06,,,,15.612208702
1715832525334749170,0.055,,,,15.61990307
1715832525342443538,0.057,,,,15.627597438
1715832525350137906,0.055,,,,15.635291806
1715832525357832274,0.06,,,,15.642986174
1715832525365526642,0.057,,,,15.650680542
1715832525373221010,0.055,,,,15.65837491
1715832525380915378,0.064,,,,15.666069278
1715832525388609746,0.067,,,,15.673763646
1715832525396304114,0.067,,,,15.681458014
1715832525403998482,0.069,,,,15.689152382
1715832525411692850,0.067,,,,15.69684675
1715832525419387218,0.072,,,,15.704541118
1715832525427081586,0.072,,,,15.712235486
1715832525434775954,0.072,,,,15.719929854
1715832525442470336,0.076,,,,15.727624236
1715832525450164704,0.076,,,,15.735318604
1715832525457859072,0.074,,,,15.743012972
1715832525465553440,0.074,,,,15.75070734
1715832525473247808,0.069,,,,15.758401708
1715832525480942176,0.072,,,,15.766096076
1715832525488636544,0.072,,651.0,,15.773790444
1715832525496330912,0.067,,,,15.781484812
1715832525504025280,0.067,,,,15.78917918
1715832525511719648,0.069,,,,15.796873548
1715832525519414016,0.072,,,,15.804567916
1715832525527108384,0.062,,,,15.812262284
1715832525534802752,0.06,,,,15.819956652
1715832525542497120,0.057,,,,15.82765102
1715832525550191488,0.052,,,,15.835345388
1715832525557885856,0.067,,,,15.843039756
1715832525565580224,0.079,,,,15.850734124
1715832525573274592,0.079,,,,15.858428492
1715832525580968960,0.081,,,,15.86612286
1715832525588663328,0.076,,,,15.873817228
1715832525596357696,0.074,,,,15.881511596
1715832525604052064,0.074,,,,15.889205964
1715832525611746432,0.074,,,,15.896900332
1715832525619440800,0.079,,,,15.9045947
1715832525627135168,0.076,,,,15.912289068
1715832525634829536,0.074,,,,15.919983436
1715832525642523904,0.074,,,,15.927677804
1715832525650218272,0.064,,,,15.935372172
1715832525657912640,0.064,,,,15.94306654
1715832525665607008,0.101,,,,15.950760908
1715832525673301376,0.233,,,,15.958455276
1715832525680995744,0.478,,,,15.966149644
1715832525688690112,0.606,,,,15.973844012
1715832525696384480,0.319,,,,15.98153838
1715832525704078848,-0.086,,,,15.989232748
1715832525711773216,-0.081,,,,15.996927116
1715832525719467584,0.072,,,,16.004621484
1715832525727161952,0.016,,,,16.012315852
1715832525734856320,-0.024,,,,16.02001022
1715832525742550688,0.028,,,,16.027704588
1715832525750245056,0.033,,,,16.035398956
1715832525757939424,0.024,,,,16.043093324
1715832525765633792,0.045,,,,16.050787692
1715832525773328160,0.055,,,,16.05848206
1715832525781022528,0.052,,,,16.066176428
1715832525788716896,0.055,,,,16.073870796
1715832525796411264,0.062,,,,16.081565164
1715832525804105632,0.064,,,,16.089259532
1715832525811800000,0.074,,,,16.0969539
1715832525819494368,0.084,,,,16.104648268
1715832525827188736,0.079,,,,16.112342636
1715832525834883104,0.084,,,,16.120037004
1715832525842577472,0.096,,,,16.127731372
1715832525850271840,0.093,,,,16.13542574
1715832525857966208,0.098,,,,16.143120108
1715832525865660576,0.105,,,,16.150814476
1715832525873354944,0.108,,,,16.158508844
1715832525881049312,0.115,,,,16.166203212
1715832525888743680,0.12,,,,16.17389758
1715832525896438048,0.125,,,,16.181591948
1715832525904132416,0.125,,,,16.189286316
1715832525911826784,0.12,,,,16.196980684
1715832525919521152,0.12,,,,16.204675052
1715832525927215520,0.125,,,,16.21236942
1715832525934909888,0.125,,,,16.220063788
1715832525942604256,0.117,,,,16.227758156
1715832525950298624,0.105,,,,16.235452524
1715832525957992992,0.103,,,,16.243146892
1715832525965687360,0.096,,,,16.25084126
1715832525973381728,0.086,,,,16.258535628
1715832525981076096,0.096,,,,16.266229996
1715832525988770464,0.096,,,,16.273924364
1715832525996464832,0.093,,,,16.281618732
1715832526004159212,0.093,95.0,,,16.289313112
1715832526011853998,0.093,,,,16.297007898
1715832526019548784,0.098,,,,16.304702684
1715832526027243570,0.098,,,,16.31239747
1715832526034938356,0.096,,,,16.320092256
1715832526042633142,0.101,,,,16.327787042
1715832526050327928,0.098,,,,16.335481828
1715832526058022714,0.088,,,,16.343176614
1715832526065717500,0.081,,,,16.3508714
1715832526073412286,0.088,,,,16.358566186
1715832526081107072,0.098,,,,16.366260972
1715832526088801858,0.091,,,,16.373955758
1715832526096496644,0.088,,,,16.381650544
1715832526104191430,0.096,,,,16.38934533
1715832526111886216,0.096,,,,16.397040116
1715832526119581002,0.096,,,,16.404734902
1715832526127275788,0.088,,643.0,,16.412429688
1715832526134970574,0.091,,,,16.420124474
1715832526142665360,0.096,,,,16.42781926
1715832526150360146,0.086,,,,16.435514046
1715832526158054932,0.084,,,,16.443208832
1715832526165749718,0.086,,,,16.450903618
1715832526173444504,0.079,,,,16.458598404
1715832526181139290,0.076,,,,16.46629319
1715832526188834076,0.081,,,,16.473987976
1715832526196528862,0.091,,,,16.481682762
1715832526204223648,0.096,,,,16.489377548
1715832526211918434,0.096,,,,16.497072334
1715832526219613220,0.101,,,,16.50476712
1715832526227308006,0.096,,,,16.512461906
1715832526235002792,0.086,,,,16.520156692
1715832526242697578,0.079,,,,16.527851478
1715832526250392364,0.076,,,,16.535546264
1715832526258087150,0.084,,,,16.54324105
1715832526265781936,0.081,,,,16.550935836
1715832526273476722,0.079,,,,16.558630622
1715832526281171508,0.088,,,,16.566325408
1715832526288866294,0.084,,,,16.574020194
1715832526296561080,0.096,,,,16.58171498
1715832526304255866,0.204,,,,16.589409766
1715832526311950652,0.43,,,,16.597104552
1715832526319645438,0.622,,,,16.604799338
1715832526327340224,0.44,,,,16.612494124
1715832526335035010,0.0,,,,16.62018891
1715832526342729796,-0.103,,,,16.627883696
1715832526350424582,0.067,,,,16.635578482
1715832526358119368,0.06,,,,16.643273268
1715832526365814154,-0.007,,,,16.650968054
1715832526373508940,0.04,,,,16.65866284
1715832526381203726,0.062,,,,16.666357626
1715832526388898512,0.038,,,,16.674052412
1715832526396593298,0.052,,,,16.681747198
1715832526404288084,0.069,,,,16.689441984
1715832526411982870,0.062,,,,16.69713677
1715832526419677656,0.064,,,,16.704831556
1715832526427372442,0.072,,,,16.712526342
1715832526435067228,0.074,,,,16.720221128
1715832526442762014,0.079,,,,16.727915914
1715832526450456800,0.076,,,,16.7356107
1715832526458151586,0.076,,,,16.743305486
1715832526465846372,0.084,,,,16.751000272
1715832526473541158,0.086,,,,16.758695058
1715832526481235944,0.093,,,,16.766389844
1715832526488930730,0.101,,,,16.77408463
1715832526496625516,0.105,,,,16.781779416
1715832526504320302,0.108,,,,16.789474202
1715832526512015088,0.115,,,,16.797168988
1715832526519709874,0.122,,,,16.804863774
1715832526527404660,0.122,,,,16.81255856
1715832526535099446,0.125,,,,16.820253346
1715832526542794232,0.132,,,,16.827948132
1715832526550489018,0.137,,,,16.835642918
1715832526558183804,0.144,,,,16.843337704
1715832526565878606,0.146,94.0,,,16.851032506
1715832526573572974,0.144,,,,16.858726874
1715832526581267342,0.141,,,,16.866421242
1715832526588961710,0.132,,,,16.87411561
1715832526596656078,0.122,,,,16.881809978
1715832526604350446,0.115,,,,16.889504346
1715832526612044814,0.105,,,,16.897198714
1715832526619739182,0.105,,,,16.904893082
1715832526627433550,0.103,,,,16.91258745
1715832526635127918,0.103,,,,16.920281818
1715832526642822286,0.11,,,,16.927976186
1715832526650516654,0.105,,,,16.935670554
1715832526658211022,0.101,,,,16.943364922
1715832526665905390,0.101,,,,16.95105929
1715832526673599758,0.108,,,,16.958753658
1715832526681294126,0.113,,,,16.966448026
1715832526688988494,0.103,,,,16.974142394
1715832526696682862,0.093,,,,16.981836762
1715832526704377230,0.088,,,,16.98953113
1715832526712071598,0.091,,,,16.997225498
1715832526719765966,0.098,,,,17.004919866
1715832526727460334,0.091,,,,17.012614234
1715832526735154702,0.081,,,,17.020308602
1715832526742849070,0.076,,,,17.02800297
1715832526750543438,0.072,,,,17.035697338
1715832526758237806,0.079,,,,17.043391706
1715832526765932174,0.084,,,,17.051086074
1715832526773626542,0.076,,,,17.058780442
1715832526781320910,0.076,,654.0,,17.06647481
1715832526789015278,0.076,,,,17.074169178
1715832526796709646,0.076,,,,17.081863546
1715832526804404014,0.079,,,,17.089557914
1715832526812098382,0.074,,,,17.097252282
1715832526819792750,0.079,,,,17.10494665
1715832526827487118,0.084,,,,17.112641018
1715832526835181486,0.088,,,,17.120335386
1715832526842875854,0.096,,,,17.128029754
1715832526850570222,0.103,,,,17.135724122
1715832526858264590,0.108,,,,17.14341849
1715832526865958958,0.101,,,,17.151112858
1715832526873653326,0.093,,,,17.158807226
1715832526881347694,0.103,,,,17.166501594
1715832526889042062,0.105,,,,17.174195962
1715832526896736430,0.11,,,,17.18189033
1715832526904430798,0.125,,,,17.189584698
1715832526912125166,0.132,,,,17.197279066
1715832526919819534,0.129,,,,17.204973434
1715832526927513902,0.122,,,,17.212667802
1715832526935208270,0.134,,,,17.22036217
1715832526942902638,0.218,,,,17.228056538
1715832526950597006,0.418,,,,17.235750906
1715832526958291374,0.62,,,,17.243445274
1715832526965985742,0.497,,,,17.251139642
1715832526973680110,0.069,,,,17.25883401
1715832526981374478,-0.088,,,,17.266528378
1715832526989068846,0.062,,,,17.274222746
1715832526996763214,0.081,,,,17.281917114
1715832527004457582,0.016,,,,17.289611482
1715832527012151950,0.052,,,,17.29730585
1715832527019846318,0.076,,,,17.305000218
1715832527027540686,0.05,,,,17.312694586
1715832527035235054,0.06,,,,17.320388954
1715832527042929422,0.084,,,,17.328083322
1715832527050623790,0.076,,,,17.33577769
1715832527058318158,0.074,,,,17.343472058
1715832527066012526,0.086,,,,17.351166426
1715832527073706894,0.088,,,,17.358860794
1715832527081401262,0.088,,,,17.366555162
1715832527089095630,0.091,,,,17.37424953
1715832527096789998,0.096,,,,17.381943898
1715832527104484366,0.103,,,,17.389638266
1715832527112178734,0.103,,,,17.397332634
1715832527119873102,0.11,,,,17.405027002
1715832527127567482,0.11,,,,17.412721382
1715832527135262268,0.11,,,,17.420416168
1715832527142957054,0.115,,,,17.428110954
1715832527150651840,0.12,,,,17.43580574
1715832527158346626,0.125,,,,17.443500526
1715832527166041412,0.12,,,,17.451195312
1715832527173736198,0.11,,,,17.458890098
1715832527181430984,0.122,,,,17.466584884
1715832527189125770,0.127,,,,17.47427967
1715832527196820556,0.12,,,,17.481974456
1715832527204515342,0.12,,,,17.489669242
1715832527212210128,0.122,,,,17.497364028
1715832527219904914,0.12,,,,17.505058814
1715832527227599700,0.113,,,,17.5127536
1715832527235294486,0.113,,,,17.520448386
1715832527242989272,0.11,,,,17.528143172
1715832527250684058,0.096,,,,17.535837958
1715832527258378844,0.096,,,,17.543532744
1715832527266073630,0.108,,,,17.55122753
1715832527273768416,0.113,,,,17.558922316
1715832527281463202,0.115,,,,17.566617102
1715832527289157988,0.115,,,,17.574311888
1715832527296852774,0.115,,,,17.582006674
1715832527304547560,0.12,,,,17.58970146
1715832527312242346,0.117,,,,17.597396246
1715832527319937132,0.12,,,,17.605091032
1715832527327631918,0.12,,,,17.612785818
1715832527335326704,0.122,,,,17.620480604
1715832527343021490,0.12,,,,17.62817539
1715832527350716276,0.11,,,,17.635870176
1715832527358411062,0.115,,,,17.643564962
1715832527366105848,0.12,,,,17.651259748
1715832527373800634,0.117,,,,17.658954534
1715832527381495420,0.115,,,,17.66664932
1715832527389190206,0.113,,,,17.674344106
1715832527396884992,0.115,,,,17.682038892
1715832527404579778,0.115,,,,17.689733678
1715832527412274564,0.105,,,,17.697428464
1715832527419969350,0.103,,,,17.70512325
1715832527427664136,0.105,,644.0,,17.712818036
1715832527435358922,0.101,,,,17.720512822
1715832527443053708,0.096,,,,17.728207608
1715832527450748494,0.091,,,,17.735902394
1715832527458443280,0.091,,,,17.74359718
1715832527466138066,0.086,,,,17.751291966
1715832527473832852,0.084,,,,17.758986752
1715832527481527638,0.096,,,,17.766681538
1715832527489222424,0.103,,,,17.774376324
1715832527496917210,0.098,,,,17.78207111
1715832527504611996,0.093,,,,17.789765896
1715832527512306782,0.091,,,,17.797460682
1715832527520001568,0.086,,,,17.805155468
1715832527527696354,0.074,,,,17.812850254
1715832527535391140,0.069,,,,17.82054504
1715832527543085926,0.074,,,,17.828239826
1715832527550780712,0.074,,,,17.835934612
1715832527558475498,0.076,,,,17.843629398
1715832527566170284,0.079,,,,17.851324184
1715832527573865070,0.069,,,,17.85901897
1715832527581559856,0.067,,,,17.866713756
1715832527589254642,0.108,,,,17.874408542
1715832527596949428,0.254,,,,17.882103328
1715832527604644214,0.488,,,,17.889798114
1715832527612339000,0.557,,,,17.8974929
1715832527620033786,0.24,,,,17.905187686
1715832527627728572,-0.122,,,,17.912882472
1715832527635423358,-0.074,,,,17.920577258
1715832527643118144,0.06,,,,17.928272044
1715832527650812930,-0.014,,,,17.93596683
1715832527658507716,-0.036,,,,17.943661616
1715832527666202502,0.021,,,,17.951356402
1715832527673897288,0.014,,,,17.959051188
1715832527681592074,0.0,,,,17.966745974
1715832527689286876,0.009,95.0,,,17.974440776
1715832527696981244,0.012,,,,17.982135144
1715832527704675612,0.014,,,,17.989829512
1715832527712369980,0.012,,,,17.99752388
1715832527720064348,0.014,,,,18.005218248
1715832527727758716,0.016,,,,18.012912616
1715832527735453084,0.012,,,,18.020606984
1715832527743147452,0.002,,,,18.028301352
1715832527750841820,0.0,,,,18.03599572
1715832527758536188,0.007,,,,18.043690088
1715832527766230556,0.012,,,,18.051384456
1715832527773924924,0.012,,,,18.059078824
1715832527781619292,0.019,,,,18.066773192
1715832527789313660,0.024,,,,18.07446756
1715832527797008028,0.024,,,,18.082161928
1715832527804702396,0.024,,,,18.089856296
1715832527812396764,0.024,,,,18.097550664
1715832527820091132,0.026,,,,18.105245032
1715832527827785500,0.028,,,,18.1129394
1715832527835479868,0.026,,,,18.120633768
1715832527843174236,0.028,,,,18.128328136
1715832527850868604,0.024,,,,18.136022504
1715832527858562972,0.014,,,,18.143716872
1715832527866257340,0.009,,,,18.15141124
1715832527873951708,0.012,,,,18.159105608
1715832527881646076,0.009,,,,18.166799976
1715832527889340444,0.002,,,,18.174494344
1715832527897034812,-0.004,,,,18.182188712
1715832527904729180,-0.004,,,,18.18988308
1715832527912423548,-0.007,,,,18.197577448
1715832527920117916,-0.004,,,,18.205271816
1715832527927812284,-0.004,,,,18.212966184
1715832527935506652,-0.009,,,,18.220660552
1715832527943201020,-0.009,,,,18.22835492
1715832527950895388,-0.009,,,,18.236049288
1715832527958589756,-0.007,,,,18.243743656
1715832527966284124,0.0,,,,18.251438024
1715832527973978492,0.0,,,,18.259132392
1715832527981672860,0.002,,,,18.26682676
1715832527989367228,0.0,,,,18.274521128
1715832527997061596,0.002,,,,18.282215496
1715832528004755964,0.004,,,,18.289909864
1715832528012450332,-0.004,,,,18.297604232
1715832528020144700,-0.002,,,,18.3052986
1715832528027839068,0.004,,,,18.312992968
1715832528035533436,0.0,,,,18.320687336
1715832528043227804,-0.007,,,,18.328381704
1715832528050922172,-0.007,,,,18.336076072
1715832528058616540,-0.004,,630.0,,18.34377044
1715832528066310908,-0.014,,,,18.351464808
1715832528074005276,-0.016,,,,18.359159176
1715832528081699644,-0.004,,,,18.366853544
1715832528089394012,-0.009,,,,18.374547912
1715832528097088380,-0.019,,,,18.38224228
1715832528104782748,-0.019,,,,18.389936648
1715832528112477116,-0.016,,,,18.397631016
1715832528120171484,-0.012,,,,18.405325384
1715832528127865852,-0.012,,,,18.413019752
1715832528135560220,-0.012,,,,18.42071412
1715832528143254588,-0.004,,,,18.428408488
1715832528150948956,-0.009,,,,18.436102856
1715832528158643324,-0.024,,,,18.443797224
1715832528166337692,-0.028,,,,18.451491592
1715832528174032060,-0.031,,,,18.45918596
1715832528181726428,-0.038,,,,18.466880328
1715832528189420796,-0.04,,,,18.474574696
1715832528197115164,-0.033,,,,18.482269064
1715832528204809532,-0.028,,,,18.489963432
1715832528212503900,-0.028,,,,18.4976578
1715832528220198268,-0.028,,,,18.505352168
1715832528227892636,0.007,,,,18.513046536
1715832528235587004,0.161,,,,18.520740904
1715832528243281372,0.404,,,,18.528435272
1715832528250975752,0.473,,,,18.536129652
1715832528258670120,0.134,,,,18.54382402
1715832528266364488,-0.223,,,,18.551518388
1715832528274058856,-0.158,,,,18.559212756
1715832528281753224,-0.036,,,,18.566907124
1715832528289447592,-0.113,,,,18.574601492
1715832528297141960,-0.115,,,,18.58229586
1715832528304836328,-0.055,,,,18.589990228
1715832528312530696,-0.076,,,,18.597684596
1715832528320225064,-0.084,,,,18.605378964
1715832528327919432,-0.05,,,,18.613073332
1715832528335613800,-0.043,,,,18.6207677
1715832528343308168,-0.055,,,,18.628462068
1715832528351002536,-0.05,,,,18.636156436
1715832528358696904,-0.038,,,,18.643850804
1715832528366391272,-0.04,,,,18.651545172
1715832528374085640,-0.04,,,,18.65923954
1715832528381780008,-0.031,,,,18.666933908
1715832528389474376,-0.028,,,,18.674628276
1715832528397168744,-0.026,,,,18.682322644
1715832528404863112,-0.021,,,,18.690017012
1715832528412557480,-0.024,,,,18.69771138
1715832528420251848,-0.021,,,,18.705405748
1715832528427946216,-0.021,,,,18.713100116
1715832528435640584,-0.016,,,,18.720794484
1715832528443334952,-0.007,,,,18.728488852
1715832528451029320,-0.007,,,,18.73618322
1715832528458723688,-0.007,,,,18.743877588
1715832528466418056,-0.007,,,,18.751571956
1715832528474112424,-0.007,,,,18.759266324
1715832528481806792,0.0,,,,18.766960692
1715832528489501160,0.002,,,,18.77465506
1715832528497195528,-0.004,,,,18.782349428
1715832528504889896,-0.012,,,,18.790043796
1715832528512584264,-0.016,,,,18.797738164
1715832528520278632,-0.016,,,,18.805432532
1715832528527973000,-0.024,,,,18.8131269
1715832528535667368,-0.026,,,,18.820821268
1715832528543361736,-0.024,,,,18.828515636
1715832528551056104,-0.026,,,,18.836210004
1715832528558750472,-0.021,,,,18.843904372
1715832528566444840,-0.016,,,,18.85159874
1715832528574139208,-0.014,,,,18.859293108
1715832528581833576,-0.014,,,,18.866987476
1715832528589527944,-0.014,,,,18.874681844
1715832528597222312,-0.007,,,,18.882376212
1715832528604916680,0.0,,,,18.89007058
1715832528612611048,-0.002,,,,18.897764948
1715832528620305416,0.002,,,,18.905459316
1715832528627999784,0.002,,,,18.913153684
1715832528635694152,-0.002,,,,18.920848052
1715832528643388520,0.0,,,,18.92854242
1715832528651082888,0.002,,,,18.936236788
1715832528658777256,0.007,,,,18.943931156
1715832528666471624,0.009,,,,18.951625524
1715832528674165992,0.002,,,,18.959319892
1715832528681860360,0.002,,,,18.96701426
1715832528689554728,0.007,,632.0,,18.974708628
1715832528697249096,0.007,,,,18.982402996
1715832528704943464,0.0,,,,18.990097364
1715832528712637832,0.0,,,,18.997791732
1715832528720332200,0.012,,,,19.0054861
1715832528728026568,0.007,,,,19.013180468
1715832528735720936,0.0,,,,19.020874836
1715832528743415304,0.002,,,,19.028569204
1715832528751109672,0.002,,,,19.036263572
1715832528758804040,0.0,,,,19.04395794
1715832528766498408,0.002,,,,19.051652308
1715832528774192776,0.012,,,,19.059346676
1715832528781887144,0.021,,,,19.067041044
1715832528789581512,0.012,,,,19.074735412
1715832528797275880,0.002,,,,19.08242978
1715832528804970248,0.004,,,,19.090124148
1715832528812664630,0.002,95.0,,,19.09781853
1715832528820358998,-0.002,,,,19.105512898
1715832528828053366,-0.004,,,,19.113207266
1715832528835747734,0.007,,,,19.120901634
1715832528843442102,0.012,,,,19.128596002
1715832528851136470,0.004,,,,19.13629037
1715832528858830838,0.007,,,,19.143984738
1715832528866525206,0.031,,,,19.151679106
1715832528874219574,0.127,,,,19.159373474
1715832528881913942,0.343,,,,19.167067842
1715832528889608310,0.524,,,,19.17476221
1715832528897302678,0.341,,,,19.182456578
1715832528904997046,-0.086,,,,19.190150946
1715832528912691414,-0.177,,,,19.197845314
1715832528920385782,-0.009,,,,19.205539682
1715832528928080150,-0.021,,,,19.21323405
1715832528935774518,-0.081,,,,19.220928418
1715832528943468886,-0.028,,,,19.228622786
1715832528951163254,-0.012,,,,19.236317154
1715832528958857622,-0.031,,,,19.244011522
1715832528966551990,-0.016,,,,19.25170589
1715832528974246358,-0.007,,,,19.259400258
1715832528981940726,-0.007,,,,19.267094626
1715832528989635094,-0.004,,,,19.274788994
1715832528997329462,0.004,,,,19.282483362
1715832529005023830,0.002,,,,19.29017773
1715832529012718198,-0.002,,,,19.297872098
1715832529020412566,0.007,,,,19.305566466
1715832529028106934,0.014,,,,19.313260834
1715832529035801302,0.014,,,,19.320955202
1715832529043495670,0.024,,,,19.32864957
1715832529051190038,0.028,,,,19.336343938
1715832529058884406,0.026,,,,19.344038306
1715832529066578774,0.026,,,,19.351732674
1715832529074273142,0.038,,,,19.359427042
1715832529081967510,0.048,,,,19.36712141
1715832529089661878,0.045,,,,19.374815778
1715832529097356246,0.04,,,,19.382510146
1715832529105050614,0.048,,,,19.390204514
1715832529112744982,0.05,,,,19.397898882
1715832529120439350,0.048,,,,19.40559325
1715832529128133718,0.045,,,,19.413287618
1715832529135828086,0.048,,,,19.420981986
1715832529143522454,0.043,,,,19.428676354
1715832529151216822,0.028,,,,19.436370722
1715832529158911190,0.026,,,,19.44406509
1715832529166605558,0.021,,,,19.451759458
1715832529174299926,0.007,,,,19.459453826
1715832529181994294,0.007,,,,19.467148194
1715832529189688662,0.014,,,,19.474842562
1715832529197383030,0.016,,,,19.48253693
1715832529205077398,0.019,,,,19.490231298
1715832529212771766,0.024,,,,19.497925666
1715832529220466134,0.026,,,,19.505620034
1715832529228160502,0.021,,,,19.513314402
1715832529235854870,0.016,,,,19.52100877
1715832529243549238,0.021,,,,19.528703138
1715832529251243606,0.028,,,,19.536397506
1715832529258937974,0.028,,,,19.544091874
1715832529266632342,0.014,,,,19.551786242
1715832529274326710,0.012,,,,19.55948061
1715832529282021078,0.026,,,,19.567174978
1715832529289715446,0.028,,,,19.574869346
1715832529297409814,0.024,,,,19.582563714
1715832529305104182,0.026,,,,19.590258082
1715832529312798550,0.026,,,,19.59795245
1715832529320492918,0.026,,633.0,,19.605646818
1715832529328187286,0.024,,,,19.613341186
1715832529335881654,0.024,,,,19.621035554
1715832529343576022,0.028,,,,19.628729922
1715832529351270390,0.021,,,,19.63642429
1715832529358964758,0.019,,,,19.644118658
1715832529366659126,0.021,,,,19.651813026
1715832529374353506,0.024,,,,19.659507406
1715832529382048292,0.024,,,,19.667202192
1715832529389743078,0.016,,,,19.674896978
1715832529397437864,0.021,,,,19.682591764
1715832529405132650,0.024,,,,19.69028655
1715832529412827436,0.009,,,,19.697981336
1715832529420522222,0.009,,,,19.705676122
1715832529428217008,0.021,,,,19.713370908
1715832529435911794,0.028,,,,19.721065694
1715832529443606580,0.031,,,,19.72876048
1715832529451301366,0.016,,,,19.736455266
1715832529458996152,0.007,,,,19.744150052
1715832529466690938,0.007,,,,19.751844838
1715832529474385724,0.007,,,,19.759539624
1715832529482080510,0.012,,,,19.76723441
1715832529489775296,0.014,,,,19.774929196
1715832529497470082,0.016,,,,19.782623982
1715832529505164868,0.021,,,,19.790318768
1715832529512859654,0.016,,,,19.798013554
1715832529520554440,0.019,,,,19.80570834
1715832529528249226,0.048,,,,19.813403126
1715832529535944012,0.168,,,,19.821097912
1715832529543638798,0.406,,,,19.828792698
1715832529551333584,0.5670000000000001,,,,19.836487484
1715832529559028370,0.331,,,,19.84418227
1715832529566723156,-0.103,,,,19.851877056
1715832529574417942,-0.153,,,,19.859571842
1715832529582112728,0.024,,,,19.867266628
1715832529589807514,-0.012,,,,19.874961414
1715832529597502300,-0.064,,,,19.8826562
1715832529605197086,-0.009,,,,19.890350986
1715832529612891872,0.0,,,,19.898045772
1715832529620586658,-0.019,,,,19.905740558
1715832529628281444,-0.004,,,,19.913435344
1715832529635976230,0.009,,,,19.92113013
1715832529643671016,0.012,,,,19.928824916
1715832529651365802,0.007,,,,19.936519702
1715832529659060588,0.012,,,,19.944214488
1715832529666755374,0.016,,,,19.951909274
1715832529674450160,0.019,,,,19.95960406
1715832529682144946,0.026,,,,19.967298846
1715832529689839732,0.031,,,,19.974993632
1715832529697534518,0.038,,,,19.982688418
1715832529705229304,0.043,,,,19.990383204
1715832529712924090,0.045,,,,19.99807799
1715832529720618876,0.055,,,,20.005772776
1715832529728313662,0.062,,,,20.013467562
1715832529736008448,0.067,,,,20.021162348
1715832529743703234,0.069,,,,20.028857134
1715832529751398020,0.062,,,,20.03655192
1715832529759092806,0.067,,,,20.044246706
1715832529766787592,0.069,,,,20.051941492
1715832529774482378,0.06,,,,20.059636278
1715832529782177164,0.057,,,,20.067331064
1715832529789871950,0.062,,,,20.07502585
1715832529797566736,0.064,,,,20.082720636
1715832529805261522,0.057,,,,20.090415422
1715832529812956308,0.045,,,,20.098110208
1715832529820651094,0.04,,,,20.105804994
1715832529828345880,0.038,,,,20.11349978
1715832529836040666,0.036,,,,20.121194566
1715832529843735452,0.033,,,,20.128889352
1715832529851430238,0.036,,,,20.136584138
1715832529859125024,0.043,,,,20.144278924
1715832529866819810,0.04,,,,20.15197371
1715832529874514596,0.04,,,,20.159668496
1715832529882209382,0.048,,,,20.167363282
1715832529889904168,0.05,,,,20.175058068
1715832529897598954,0.048,,,,20.182752854
1715832529905293740,0.048,,,,20.19044764
1715832529912988526,0.048,,,,20.198142426
1715832529920683312,0.052,,,,20.205837212
1715832529928378098,0.048,,,,20.213531998
1715832529936072900,0.048,94.0,,,20.2212268
1715832529943767268,0.055,,,,20.228921168
1715832529951461636,0.057,,,,20.236615536
1715832529959156004,0.055,,640.0,,20.244309904
1715832529966850372,0.055,,,,20.252004272
1715832529974544740,0.052,,,,20.25969864
1715832529982239108,0.052,,,,20.267393008
1715832529989933476,0.045,,,,20.275087376
1715832529997627844,0.038,,,,20.282781744
1715832530005322212,0.045,,,,20.290476112
1715832530013016580,0.048,,,,20.29817048
1715832530020710948,0.045,,,,20.305864848
1715832530028405316,0.04,,,,20.313559216
1715832530036099684,0.045,,,,20.321253584
1715832530043794052,0.052,,,,20.328947952
1715832530051488420,0.05,,,,20.33664232
1715832530059182788,0.052,,,,20.344336688
1715832530066877156,0.055,,,,20.352031056
1715832530074571524,0.048,,,,20.359725424
1715832530082265892,0.048,,,,20.367419792
1715832530089960260,0.05,,,,20.37511416
1715832530097654628,0.05,,,,20.382808528
1715832530105348996,0.052,,,,20.390502896
1715832530113043364,0.052,,,,20.398197264
1715832530120737732,0.057,,,,20.405891632
1715832530128432100,0.064,,,,20.413586
1715832530136126468,0.062,,,,20.421280368
1715832530143820836,0.05,,,,20.428974736
1715832530151515204,0.036,,,,20.436669104
1715832530159209572,0.04,,,,20.444363472
1715832530166903940,0.045,,,,20.45205784
1715832530174598308,0.045,,,,20.459752208
1715832530182292676,0.052,,,,20.467446576
1715832530189987044,0.055,,,,20.475140944
1715832530197681412,0.052,,,,20.482835312
1715832530205375780,0.055,,,,20.49052968
1715832530213070148,0.096,,,,20.498224048
1715832530220764516,0.252,,,,20.505918416
1715832530228458884,0.485,,,,20.513612784
1715832530236153252,0.56,,,,20.521307152
1715832530243847620,0.25,,,,20.52900152
1715832530251541988,-0.115,,,,20.536695888
1715832530259236356,-0.072,,,,20.544390256
1715832530266930724,0.057,,,,20.552084624
1715832530274625092,-0.014,,,,20.559778992
1715832530282319460,-0.038,,,,20.56747336
1715832530290013828,0.019,,,,20.575167728
1715832530297708196,0.021,,,,20.582862096
1715832530305402564,0.009,,,,20.590556464
1715832530313096932,0.028,,,,20.598250832
1715832530320791300,0.038,,,,20.6059452
1715832530328485668,0.031,,,,20.613639568
1715832530336180036,0.038,,,,20.621333936
1715832530343874404,0.045,,,,20.629028304
1715832530351568772,0.038,,,,20.636722672
1715832530359263140,0.043,,,,20.64441704
1715832530366957508,0.05,,,,20.652111408
1715832530374651876,0.052,,,,20.659805776
1715832530382346244,0.06,,,,20.667500144
1715832530390040612,0.057,,,,20.675194512
1715832530397734980,0.055,,,,20.68288888
1715832530405429348,0.06,,,,20.690583248
1715832530413123716,0.064,,,,20.698277616
1715832530420818084,0.072,,,,20.705971984
1715832530428512452,0.069,,,,20.713666352
1715832530436206820,0.067,,,,20.72136072
1715832530443901188,0.076,,,,20.729055088
1715832530451595556,0.086,,,,20.736749456
1715832530459289924,0.086,,,,20.744443824
1715832530466984292,0.084,,,,20.752138192
1715832530474678660,0.081,,,,20.75983256
1715832530482373028,0.086,,,,20.767526928
1715832530490067396,0.081,,,,20.775221296
1715832530497761776,0.074,,,,20.782915676
1715832530505456283,0.069,,,,20.790610183
1715832530513150790,0.067,,,,20.79830469
1715832530520845297,0.069,,,,20.805999197
1715832530528539804,0.062,,,,20.813693704
1715832530536234311,0.057,,,,20.821388211
1715832530543928818,0.064,,,,20.829082718
1715832530551623325,0.067,,,,20.836777225
1715832530559317832,0.062,,,,20.844471732
1715832530567012339,0.062,,,,20.852166239
1715832530574706846,0.067,,,,20.859860746
1715832530582401353,0.069,,,,20.867555253
1715832530590095860,0.064,,,,20.87524976
1715832530597790367,0.067,,,,20.882944267
1715832530605484874,0.074,,,,20.890638774
1715832530613179381,0.074,,650.0,,20.898333281
1715832530620873888,0.074,,,,20.906027788
1715832530628568395,0.067,,,,20.913722295
1715832530636262902,0.064,,,,20.921416802
1715832530643957409,0.067,,,,20.929111309
1715832530651651916,0.062,,,,20.936805816
1715832530659346423,0.064,,,,20.944500323
1715832530667040930,0.069,,,,20.95219483
1715832530674735437,0.067,,,,20.959889337
1715832530682429944,0.069,,,,20.967583844
1715832530690124451,0.069,,,,20.975278351
1715832530697818958,0.072,,,,20.982972858
1715832530705513465,0.069,,,,20.990667365
1715832530713207972,0.062,,,,20.998361872
1715832530720902479,0.062,,,,21.006056379
1715832530728596986,0.062,,,,21.013750886
1715832530736291493,0.057,,,,21.021445393
1715832530743986000,0.052,,,,21.0291399
1715832530751680507,0.052,,,,21.036834407
1715832530759375014,0.062,,,,21.044528914
1715832530767069521,0.062,,,,21.052223421
1715832530774764028,0.055,,,,21.059917928
1715832530782458535,0.052,,,,21.067612435
1715832530790153042,0.052,,,,21.075306942
1715832530797847549,0.057,,,,21.083001449
1715832530805542056,0.057,,,,21.090695956
1715832530813236563,0.064,,,,21.098390463
1715832530820931070,0.079,,,,21.10608497
1715832530828625577,0.079,,,,21.113779477
1715832530836320084,0.074,,,,21.121473984
1715832530844014591,0.074,,,,21.129168491
1715832530851709098,0.067,,,,21.136862998
1715832530859403605,0.064,,,,21.144557505
1715832530867098112,0.069,,,,21.152252012
1715832530874792619,0.074,,,,21.159946519
1715832530882487126,0.074,,,,21.167641026
1715832530890181633,0.067,,,,21.175335533
1715832530897876140,0.067,,,,21.18303004
1715832530905570647,0.069,,,,21.190724547
1715832530913265154,0.079,,,,21.198419054
1715832530920959661,0.153,,,,21.206113561
1715832530928654168,0.341,,,,21.213808068
1715832530936348675,0.553,,,,21.221502575
1715832530944043182,0.512,,,,21.229197082
1715832530951737689,0.12,,,,21.236891589
1715832530959432196,-0.117,,,,21.244586096
1715832530967126703,0.014,,,,21.252280603
1715832530974821210,0.076,,,,21.25997511
1715832530982515717,-0.002,,,,21.267669617
1715832530990210224,0.014,,,,21.275364124
1715832530997904731,0.057,,,,21.283058631
1715832531005599238,0.04,,,,21.290753138
1715832531013293745,0.033,,,,21.298447645
1715832531020988252,0.055,,,,21.306142152
1715832531028682759,0.055,,,,21.313836659
1715832531036377266,0.05,,,,21.321531166
1715832531044071773,0.057,,,,21.329225673
1715832531051766280,0.06,,,,21.33692018
1715832531059460823,0.067,94.0,,,21.344614723
1715832531067155469,0.069,,,,21.352309369
1715832531074850115,0.067,,,,21.360004015
1715832531082544761,0.076,,,,21.367698661
1715832531090239407,0.079,,,,21.375393307
1715832531097934053,0.074,,,,21.383087953
1715832531105628699,0.074,,,,21.390782599
1715832531113323345,0.081,,,,21.398477245
1715832531121017991,0.088,,,,21.406171891
1715832531128712637,0.084,,,,21.413866537
1715832531136407283,0.079,,,,21.421561183
1715832531144101929,0.086,,,,21.429255829
1715832531151796575,0.091,,,,21.436950475
1715832531159491221,0.093,,,,21.444645121
1715832531167185867,0.096,,,,21.452339767
1715832531174880513,0.098,,,,21.460034413
1715832531182575159,0.096,,,,21.467729059
1715832531190269805,0.091,,,,21.475423705
1715832531197964451,0.093,,,,21.483118351
1715832531205659097,0.093,,,,21.490812997
1715832531213353743,0.086,,,,21.498507643
1715832531221048389,0.081,,,,21.506202289
1715832531228743035,0.072,,,,21.513896935
1715832531236437681,0.072,,,,21.521591581
1715832531244132327,0.074,,,,21.529286227
1715832531251826973,0.067,,639.0,,21.536980873
1715832531259521619,0.067,,,,21.544675519
1715832531267216265,0.067,,,,21.552370165
1715832531274910911,0.06,,,,21.560064811
1715832531282605557,0.057,,,,21.567759457
1715832531290300203,0.055,,,,21.575454103
1715832531297994849,0.062,,,,21.583148749
1715832531305689495,0.062,,,,21.590843395
1715832531313384141,0.055,,,,21.598538041
1715832531321078787,0.062,,,,21.606232687
1715832531328773433,0.064,,,,21.613927333
1715832531336468079,0.064,,,,21.621621979
1715832531344162725,0.064,,,,21.629316625
1715832531351857371,0.06,,,,21.637011271
1715832531359552017,0.06,,,,21.644705917
1715832531367246663,0.055,,,,21.652400563
1715832531374941309,0.045,,,,21.660095209
1715832531382635955,0.045,,,,21.667789855
1715832531390330601,0.048,,,,21.675484501
1715832531398025247,0.055,,,,21.683179147
1715832531405719893,0.055,,,,21.690873793
1715832531413414539,0.048,,,,21.698568439
1715832531421109185,0.055,,,,21.706263085
1715832531428803831,0.052,,,,21.713957731
1715832531436498477,0.048,,,,21.721652377
1715832531444193123,0.057,,,,21.729347023
1715832531451887769,0.055,,,,21.737041669
1715832531459582415,0.052,,,,21.744736315
1715832531467277061,0.055,,,,21.752430961
1715832531474971707,0.062,,,,21.760125607
1715832531482666353,0.064,,,,21.767820253
1715832531490360999,0.055,,,,21.775514899
1715832531498055645,0.05,,,,21.783209545
1715832531505750291,0.06,,,,21.790904191
1715832531513444937,0.067,,,,21.798598837
1715832531521139583,0.074,,,,21.806293483
1715832531528834229,0.076,,,,21.813988129
1715832531536528875,0.074,,,,21.821682775
1715832531544223521,0.069,,,,21.829377421
1715832531551918167,0.057,,,,21.837072067
1715832531559612813,0.06,,,,21.844766713
1715832531567307459,0.067,,,,21.852461359
1715832531575002105,0.062,,,,21.860156005
1715832531582696751,0.062,,,,21.867850651
1715832531590391397,0.06,,,,21.875545297
1715832531598086043,0.062,,,,21.883239943
1715832531605780689,0.067,,,,21.890934589
1715832531613475335,0.069,,,,21.898629235
1715832531621170046,0.12,94.0,,,21.906323946
1715832531628864414,0.278,,,,21.914018314
1715832531636558782,0.509,,,,21.921712682
1715832531644253150,0.531,,,,21.92940705
1715832531651947518,0.165,,,,21.937101418
1715832531659641886,-0.134,,,,21.944795786
1715832531667336254,-0.033,,,,21.952490154
1715832531675030622,0.057,,,,21.960184522
1715832531682724990,-0.016,,,,21.96787889
1715832531690419358,-0.014,,,,21.975573258
1715832531698113726,0.036,,,,21.983267626
1715832531705808094,0.021,,,,21.990961994
1715832531713502462,0.016,,,,21.998656362
1715832531721196830,0.045,,,,22.00635073
1715832531728891198,0.04,,,,22.014045098
1715832531736585566,0.028,,,,22.021739466
1715832531744279934,0.043,,,,22.029433834
1715832531751974302,0.052,,,,22.037128202
1715832531759668670,0.05,,,,22.04482257
1715832531767363038,0.055,,,,22.052516938
1715832531775057406,0.055,,,,22.060211306
1715832531782751774,0.045,,,,22.067905674
1715832531790446142,0.045,,,,22.075600042
1715832531798140510,0.055,,,,22.08329441
1715832531805834878,0.057,,,,22.090988778
1715832531813529246,0.05,,,,22.098683146
1715832531821223614,0.057,,,,22.106377514
1715832531828917982,0.062,,,,22.114071882
1715832531836612350,0.067,,,,22.12176625
1715832531844306718,0.072,,,,22.129460618
1715832531852001086,0.069,,,,22.137154986
1715832531859695454,0.074,,,,22.144849354
1715832531867389822,0.074,,,,22.152543722
1715832531875084190,0.067,,,,22.16023809
