time,ecg,hr,rr,marker,norm_time
1715832326036479938,-0.625,92.0,,,0.0
1715832326044174306,-0.622,,,,0.007694368
1715832326051868674,-0.608,,,,0.015388736
1715832326059563042,-0.601,,,,0.023083104
1715832326067257410,-0.601,,,,0.030777472
1715832326074951778,-0.593,,,,0.03847184
1715832326082646146,-0.589,,,,0.046166208
1715832326090340514,-0.577,,,,0.053860576
1715832326098034882,-0.579,,,,0.061554944
1715832326105729250,-0.577,,,,0.069249312
1715832326113423618,-0.55,,,,0.07694368
1715832326121117986,-0.541,,,,0.084638048
1715832326128812354,-0.543,,,,0.092332416
1715832326136506722,-0.538,,,,0.100026784
1715832326144201090,-0.538,,,,0.107721152
1715832326151895458,-0.533,,,,0.11541552
1715832326159589826,-0.529,,,,0.123109888
1715832326167284194,-0.524,,,,0.130804256
1715832326174978562,-0.514,,,,0.138498624
1715832326182672930,-0.512,,,,0.146192992
1715832326190367298,-0.505,,,,0.15388736
1715832326198061666,-0.497,,,,0.161581728
1715832326205756034,-0.492,,,,0.169276096
1715832326213450402,-0.483,,,,0.176970464
1715832326221144770,-0.49,,,,0.184664832
1715832326228839138,-0.488,,,,0.1923592
1715832326236533506,-0.468,,,,0.200053568
1715832326244227874,-0.464,,,,0.207747936
1715832326251922242,-0.459,,658.0,,0.215442304
1715832326259616610,-0.461,,,,0.223136672
1715832326267310978,-0.456,,,,0.23083104
1715832326275005346,-0.444,,,,0.238525408
1715832326282699714,-0.449,,,,0.246219776
1715832326290394082,-0.442,,,,0.253914144
1715832326298088450,-0.428,,,,0.261608512
1715832326305782818,-0.432,,,,0.26930288
1715832326313477186,-0.435,,,,0.276997248
1715832326321171554,-0.44,,,,0.284691616
1715832326328865922,-0.437,,,,0.292385984
1715832326336560290,-0.43,,,,0.300080352
1715832326344254658,-0.43,,,,0.30777472
1715832326351949026,-0.418,,,,0.315469088
1715832326359643394,-0.413,,,,0.323163456
1715832326367337762,-0.416,,,,0.330857824
1715832326375032130,-0.413,,,,0.338552192
1715832326382726498,-0.408,,,,0.34624656
1715832326390420866,-0.346,,,,0.353940928
1715832326398115234,-0.194,,,,0.361635296
1715832326405809602,0.004,,,,0.369329664
1715832326413503970,0.024,,,,0.377024032
1715832326421198338,-0.317,,,,0.3847184
1715832326428892706,-0.593,,,,0.392412768
1715832326436587074,-0.476,,,,0.400107136
1715832326444281442,-0.367,,,,0.407801504
1715832326451975810,-0.435,,,,0.415495872
1715832326459670178,-0.432,,,,0.42319024
1715832326467364546,-0.382,,,,0.430884608
1715832326475058914,-0.382,,,,0.438578976
1715832326482753282,-0.387,,,,0.446273344
1715832326490447650,-0.36,,,,0.453967712
1715832326498142018,-0.353,,,,0.46166208
1715832326505836386,-0.353,,,,0.469356448
1715832326513530754,-0.331,,,,0.477050816
1715832326521225122,-0.331,,,,0.484745184
1715832326528919490,-0.336,,,,0.492439552
1715832326536613858,-0.319,,,,0.50013392
1715832326544308226,-0.312,,,,0.507828288
1715832326552002594,-0.3,,,,0.515522656
1715832326559696962,-0.293,,,,0.523217024
1715832326567391330,-0.29,,,,0.530911392
1715832326575085698,-0.281,,,,0.53860576
1715832326582780066,-0.278,,,,0.546300128
1715832326590474434,-0.266,,,,0.553994496
1715832326598168816,-0.257,92.0,,,0.561688878
1715832326605863602,-0.262,,,,0.569383664
1715832326613558388,-0.257,,,,0.57707845
1715832326621253174,-0.252,,,,0.584773236
1715832326628947960,-0.24,,,,0.592468022
1715832326636642746,-0.233,,,,0.600162808
1715832326644337532,-0.238,,,,0.607857594
1715832326652032318,-0.233,,,,0.61555238
1715832326659727104,-0.233,,,,0.623247166
1715832326667421890,-0.24,,,,0.630941952
1715832326675116676,-0.245,,,,0.638636738
1715832326682811462,-0.25,,,,0.646331524
1715832326690506248,-0.245,,,,0.65402631
1715832326698201034,-0.247,,,,0.661721096
1715832326705895820,-0.25,,,,0.669415882
1715832326713590606,-0.233,,,,0.677110668
1715832326721285392,-0.233,,,,0.684805454
1715832326728980178,-0.235,,,,0.69250024
1715832326736674964,-0.221,,,,0.700195026
1715832326744369750,-0.214,,,,0.707889812
1715832326752064536,-0.204,,,,0.715584598
1715832326759759322,-0.199,,,,0.723279384
1715832326767454108,-0.199,,,,0.73097417
1715832326775148894,-0.194,,,,0.738668956
1715832326782843680,-0.192,,,,0.746363742
1715832326790538466,-0.185,,,,0.754058528
1715832326798233252,-0.185,,,,0.761753314
1715832326805928038,-0.185,,,,0.7694481
1715832326813622824,-0.177,,,,0.777142886
1715832326821317610,-0.177,,,,0.784837672
1715832326829012396,-0.173,,,,0.792532458
1715832326836707182,-0.158,,,,0.800227244
1715832326844401968,-0.161,,,,0.80792203
1715832326852096754,-0.161,,,,0.815616816
1715832326859791540,-0.156,,,,0.823311602
1715832326867486326,-0.144,,,,0.831006388
1715832326875181112,-0.127,,,,0.838701174
1715832326882875898,-0.127,,,,0.84639596
1715832326890570684,-0.12,,,,0.854090746
1715832326898265470,-0.098,,649.0,,0.861785532
1715832326905960256,-0.086,,,,0.869480318
1715832326913655042,-0.072,,,,0.877175104
1715832326921349828,-0.06,,,,0.88486989
1715832326929044614,-0.062,,,,0.892564676
1715832326936739400,-0.086,,,,0.900259462
1715832326944434186,-0.101,,,,0.907954248
1715832326952128972,-0.079,,,,0.915649034
1715832326959823758,-0.076,,,,0.92334382
1715832326967518544,-0.096,,,,0.931038606
1715832326975213330,-0.091,,,,0.938733392
1715832326982908116,-0.079,,,,0.946428178
1715832326990602902,-0.072,,,,0.954122964
1715832326998297688,-0.067,,,,0.96181775
1715832327005992474,-0.038,,,,0.969512536
1715832327013687260,0.091,,,,0.977207322
1715832327021382046,0.293,,,,0.984902108
1715832327029076832,0.37,,,,0.992596894
1715832327036771618,0.101,,,,1.00029168
1715832327044466404,-0.221,,,,1.007986466
1715832327052161190,-0.163,,,,1.015681252
1715832327059855976,-0.038,,,,1.023376038
1715832327067550762,-0.098,,,,1.031070824
1715832327075245548,-0.101,,,,1.03876561
1715832327082940334,-0.043,,,,1.046460396
1715832327090635120,-0.048,,,,1.054155182
1715832327098329906,-0.06,,,,1.061849968
1715832327106024692,-0.036,,,,1.069544754
1715832327113719478,-0.021,,,,1.07723954
1715832327121414264,-0.036,,,,1.084934326
1715832327129109050,-0.038,,,,1.092629112
1715832327136803836,-0.031,,,,1.100323898
1715832327144498622,-0.033,,,,1.108018684
1715832327152193408,-0.021,,,,1.11571347
1715832327159888210,-0.007,,,,1.123408272
1715832327167582996,0.0,,,,1.131103058
1715832327175277782,0.009,,,,1.138797844
1715832327182972568,0.009,,,,1.14649263
1715832327190667354,0.021,,,,1.154187416
1715832327198362140,0.038,,,,1.161882202
1715832327206056926,0.033,,,,1.169576988
1715832327213751712,0.028,,,,1.177271774
1715832327221446498,0.026,,,,1.18496656
1715832327229141284,0.033,,,,1.192661346
1715832327236836070,0.036,,,,1.200356132
1715832327244530856,0.019,,,,1.208050918
1715832327252225642,0.016,,,,1.215745704
1715832327259920428,0.019,,,,1.22344049
1715832327267615214,0.016,,,,1.231135276
1715832327275310000,0.016,,,,1.238830062
1715832327283004786,0.007,,,,1.246524848
1715832327290699572,0.0,,,,1.254219634
1715832327298394358,-0.007,,,,1.26191442
1715832327306089144,-0.016,,,,1.269609206
1715832327313783930,-0.009,,,,1.277303992
1715832327321478716,-0.009,,,,1.284998778
1715832327329173502,-0.009,,,,1.292693564
1715832327336868288,-0.007,,,,1.30038835
1715832327344563074,-0.007,,,,1.308083136
1715832327352257860,-0.002,,,,1.315777922
1715832327359952646,-0.004,,,,1.323472708
1715832327367647432,-0.009,,,,1.331167494
1715832327375342218,-0.004,,,,1.33886228
1715832327383037004,-0.007,,,,1.346557066
1715832327390731790,-0.004,,,,1.354251852
1715832327398426576,-0.004,,,,1.361946638
1715832327406121362,-0.004,,,,1.369641424
1715832327413816148,0.0,,,,1.37733621
1715832327421510934,-0.007,,,,1.385030996
1715832327429205720,-0.004,,,,1.392725782
1715832327436900506,0.002,,,,1.400420568
1715832327444595292,-0.014,,,,1.408115354
1715832327452290078,-0.019,,,,1.41581014
1715832327459984864,-0.012,,,,1.423504926
1715832327467679650,-0.009,,,,1.431199712
1715832327475374436,-0.007,,,,1.438894498
1715832327483069222,-0.012,,,,1.446589284
1715832327490764008,-0.012,,,,1.45428407
1715832327498458794,-0.012,,,,1.461978856
1715832327506153580,-0.024,,,,1.469673642
1715832327513848366,-0.024,,,,1.477368428
1715832327521543152,-0.021,,,,1.485063214
1715832327529237938,-0.016,,,,1.492758
1715832327536932724,-0.014,,,,1.500452786
1715832327544627510,-0.016,,646.0,,1.508147572
1715832327552322296,-0.007,,,,1.515842358
1715832327560017082,-0.012,,,,1.523537144
1715832327567711868,-0.024,,,,1.53123193
1715832327575406654,-0.024,,,,1.538926716
1715832327583101440,-0.024,,,,1.546621502
1715832327590796226,-0.016,,,,1.554316288
1715832327598491012,-0.019,,,,1.562011074
1715832327606185798,-0.028,,,,1.56970586
1715832327613880584,-0.021,,,,1.577400646
1715832327621575370,-0.028,,,,1.585095432
1715832327629270156,-0.016,,,,1.592790218
1715832327636964942,0.064,,,,1.600485004
1715832327644659728,0.23,,,,1.60817979
1715832327652354514,0.389,,,,1.615874576
1715832327660049300,0.271,,,,1.623569362
1715832327667744086,-0.091,,,,1.631264148
1715832327675438872,-0.204,,,,1.638958934
1715832327683133658,-0.055,,,,1.64665372
1715832327690828444,-0.038,,,,1.654348506
1715832327698523230,-0.103,,,,1.662043292
1715832327706218016,-0.072,,,,1.669738078
1715832327713912802,-0.043,,,,1.677432864
1715832327721607604,-0.064,93.0,,,1.685127666
1715832327729302111,-0.06,,,,1.692822173
1715832327736996618,-0.038,,,,1.70051668
1715832327744691125,-0.043,,,,1.708211187
1715832327752385632,-0.04,,,,1.715905694
1715832327760080139,-0.031,,,,1.723600201
1715832327767774646,-0.033,,,,1.731294708
1715832327775469153,-0.036,,,,1.738989215
1715832327783163660,-0.048,,,,1.746683722
1715832327790858167,-0.04,,,,1.754378229
1715832327798552674,-0.028,,,,1.762072736
1715832327806247181,-0.033,,,,1.769767243
1715832327813941688,-0.043,,,,1.77746175
1715832327821636195,-0.045,,,,1.785156257
1715832327829330702,-0.033,,,,1.792850764
1715832327837025209,-0.026,,,,1.800545271
1715832327844719716,-0.033,,,,1.808239778
1715832327852414223,-0.033,,,,1.815934285
1715832327860108730,-0.038,,,,1.823628792
1715832327867803237,-0.043,,,,1.831323299
1715832327875497744,-0.038,,,,1.839017806
1715832327883192251,-0.045,,,,1.846712313
1715832327890886758,-0.052,,,,1.85440682
1715832327898581265,-0.062,,,,1.862101327
1715832327906275772,-0.072,,,,1.869795834
1715832327913970279,-0.069,,,,1.877490341
1715832327921664786,-0.076,,,,1.885184848
1715832327929359293,-0.093,,,,1.892879355
1715832327937053800,-0.096,,,,1.900573862
1715832327944748307,-0.093,,,,1.908268369
1715832327952442814,-0.088,,,,1.915962876
1715832327960137321,-0.091,,,,1.923657383
1715832327967831828,-0.079,,,,1.93135189
1715832327975526335,-0.067,,,,1.939046397
1715832327983220842,-0.079,,,,1.946740904
1715832327990915349,-0.069,,,,1.954435411
1715832327998609856,-0.055,,,,1.962129918
1715832328006304363,-0.055,,,,1.969824425
1715832328013998870,-0.045,,,,1.977518932
1715832328021693377,-0.043,,,,1.985213439
1715832328029387884,-0.043,,,,1.992907946
1715832328037082391,-0.043,,,,2.000602453
1715832328044776898,-0.048,,,,2.00829696
1715832328052471405,-0.043,,,,2.015991467
1715832328060165912,-0.05,,,,2.023685974
1715832328067860419,-0.048,,,,2.031380481
1715832328075554926,-0.038,,,,2.039074988
1715832328083249433,-0.05,,,,2.046769495
1715832328090943940,-0.06,,,,2.054464002
1715832328098638447,-0.067,,,,2.062158509
1715832328106332954,-0.067,,,,2.069853016
1715832328114027461,-0.052,,,,2.077547523
1715832328121721968,-0.06,,,,2.08524203
1715832328129416475,-0.064,,,,2.092936537
1715832328137110982,-0.06,,592.0,,2.100631044
1715832328144805489,-0.064,,,,2.108325551
1715832328152499996,-0.06,,,,2.116020058
1715832328160194503,-0.057,,,,2.123714565
1715832328167889010,-0.062,,,,2.131409072
1715832328175583517,-0.057,,,,2.139103579
1715832328183278024,-0.052,,,,2.146798086
1715832328190972531,-0.04,,,,2.154492593
1715832328198667038,-0.043,,,,2.1621871
1715832328206361545,-0.069,,,,2.169881607
1715832328214056052,-0.074,,,,2.177576114
1715832328221750559,-0.072,,,,2.185270621
1715832328229445066,-0.074,,,,2.192965128
1715832328237139573,-0.076,,,,2.200659635
1715832328244834080,-0.084,,,,2.208354142
1715832328252528587,-0.086,,,,2.216048649
1715832328260223094,-0.098,,,,2.223743156
1715832328267917601,-0.103,,,,2.231437663
1715832328275612108,-0.079,,,,2.23913217
1715832328283306654,-0.004,,,,2.246826716
1715832328291001300,0.163,,,,2.254521362
1715832328298695946,0.3,,,,2.262216008
1715832328306390592,0.156,,,,2.269910654
1715832328314085238,-0.185,,,,2.2776053
1715832328321779884,-0.271,,,,2.285299946
1715832328329474530,-0.132,,,,2.292994592
1715832328337169176,-0.127,,,,2.300689238
1715832328344863822,-0.18,,,,2.308383884
1715832328352558468,-0.134,,,,2.31607853
1715832328360253114,-0.115,,,,2.323773176
1715832328367947760,-0.132,,,,2.331467822
1715832328375642406,-0.113,,,,2.339162468
1715832328383337052,-0.103,,,,2.346857114
1715832328391031698,-0.101,,,,2.35455176
1715832328398726344,-0.091,,,,2.362246406
1715832328406420990,-0.088,,,,2.369941052
1715832328414115636,-0.086,,,,2.377635698
1715832328421810282,-0.084,,,,2.385330344
1715832328429504928,-0.069,,,,2.39302499
1715832328437199574,-0.06,,,,2.400719636
1715832328444894220,-0.069,,,,2.408414282
1715832328452588866,-0.076,,,,2.416108928
1715832328460283512,-0.079,,,,2.423803574
1715832328467978158,-0.067,,,,2.43149822
1715832328475672804,-0.05,,,,2.439192866
1715832328483367450,-0.052,,,,2.446887512
1715832328491062096,-0.043,,,,2.454582158
1715832328498756742,-0.038,,,,2.462276804
1715832328506451388,-0.048,,,,2.46997145
1715832328514146034,-0.036,,,,2.477666096
1715832328521840680,-0.026,,,,2.485360742
1715832328529535326,-0.026,,,,2.493055388
1715832328537229972,-0.021,,,,2.500750034
1715832328544924618,-0.016,,,,2.50844468
1715832328552619264,-0.012,,,,2.516139326
1715832328560313910,-0.024,,,,2.523833972
1715832328568008556,-0.028,,,,2.531528618
1715832328575703202,-0.026,,,,2.539223264
1715832328583397848,-0.031,,,,2.54691791
1715832328591092494,-0.031,,,,2.554612556
1715832328598787140,-0.033,,,,2.562307202
1715832328606481786,-0.038,,,,2.570001848
1715832328614176432,-0.033,,,,2.577696494
1715832328621871078,-0.038,,,,2.58539114
1715832328629565724,-0.036,,,,2.593085786
1715832328637260370,-0.028,,,,2.600780432
1715832328644955016,-0.038,,,,2.608475078
1715832328652649662,-0.043,,,,2.616169724
1715832328660344308,-0.045,,,,2.62386437
1715832328668038954,-0.043,,,,2.631559016
1715832328675733600,-0.033,,,,2.639253662
1715832328683428246,-0.043,,,,2.646948308
1715832328691122892,-0.052,,,,2.654642954
1715832328698817538,-0.055,,,,2.6623376
1715832328706512184,-0.05,,,,2.670032246
1715832328714206830,-0.043,,,,2.677726892
1715832328721901476,-0.045,,,,2.685421538
1715832328729596122,-0.04,,,,2.693116184
1715832328737290768,-0.04,,,,2.70081083
1715832328744985414,-0.048,,,,2.708505476
1715832328752680060,-0.04,,,,2.716200122
1715832328760374706,-0.038,,,,2.723894768
1715832328768069352,-0.045,,,,2.731589414
1715832328775763998,-0.048,,,,2.73928406
1715832328783458644,-0.05,,,,2.746978706
1715832328791153290,-0.043,,,,2.754673352
1715832328798847936,-0.04,,,,2.762367998
1715832328806542582,-0.04,,,,2.770062644
1715832328814237228,-0.031,,674.0,,2.77775729
1715832328821931874,-0.033,,,,2.785451936
1715832328829626520,-0.033,,,,2.793146582
1715832328837321166,-0.024,,,,2.800841228
1715832328845015874,-0.028,94.0,,,2.808535936
1715832328852710660,-0.031,,,,2.816230722
1715832328860405446,-0.026,,,,2.823925508
1715832328868100232,-0.024,,,,2.831620294
1715832328875795018,-0.021,,,,2.83931508
1715832328883489804,-0.024,,,,2.847009866
1715832328891184590,-0.026,,,,2.854704652
1715832328898879376,-0.033,,,,2.862399438
1715832328906574162,-0.031,,,,2.870094224
1715832328914268948,-0.004,,,,2.87778901
1715832328921963734,0.074,,,,2.885483796
1715832328929658520,0.242,,,,2.893178582
1715832328937353306,0.365,,,,2.900873368
1715832328945048092,0.187,,,,2.908568154
1715832328952742878,-0.144,,,,2.91626294
1715832328960437664,-0.199,,,,2.923957726
1715832328968132450,-0.069,,,,2.931652512
1715832328975827236,-0.081,,,,2.939347298
1715832328983522022,-0.122,,,,2.947042084
1715832328991216808,-0.074,,,,2.95473687
1715832328998911594,-0.057,,,,2.962431656
1715832329006606380,-0.084,,,,2.970126442
1715832329014301166,-0.072,,,,2.977821228
1715832329021995952,-0.057,,,,2.985516014
1715832329029690738,-0.057,,,,2.9932108
1715832329037385524,-0.052,,,,3.000905586
1715832329045080310,-0.057,,,,3.008600372
1715832329052775096,-0.057,,,,3.016295158
1715832329060469882,-0.055,,,,3.023989944
1715832329068164668,-0.052,,,,3.03168473
1715832329075859454,-0.043,,,,3.039379516
1715832329083554240,-0.038,,,,3.047074302
1715832329091249026,-0.033,,,,3.054769088
1715832329098943812,-0.036,,,,3.062463874
1715832329106638598,-0.038,,,,3.07015866
1715832329114333384,-0.028,,,,3.077853446
1715832329122028170,-0.031,,,,3.085548232
1715832329129722956,-0.036,,,,3.093243018
1715832329137417742,-0.036,,,,3.100937804
1715832329145112528,-0.038,,,,3.10863259
1715832329152807314,-0.033,,,,3.116327376
1715832329160502100,-0.033,,,,3.124022162
1715832329168196886,-0.036,,,,3.131716948
1715832329175891672,-0.031,,,,3.139411734
1715832329183586458,-0.04,,,,3.14710652
1715832329191281244,-0.05,,,,3.154801306
1715832329198976030,-0.057,,,,3.162496092
1715832329206670816,-0.062,,,,3.170190878
1715832329214365602,-0.064,,,,3.177885664
1715832329222060388,-0.076,,,,3.18558045
1715832329229755174,-0.076,,,,3.193275236
1715832329237449960,-0.074,,,,3.200970022
1715832329245144746,-0.086,,,,3.208664808
1715832329252839532,-0.084,,,,3.216359594
1715832329260534318,-0.081,,,,3.22405438
1715832329268229104,-0.081,,,,3.231749166
1715832329275923890,-0.076,,,,3.239443952
1715832329283618676,-0.088,,,,3.247138738
1715832329291313462,-0.093,,,,3.254833524
1715832329299008248,-0.093,,,,3.26252831
1715832329306703034,-0.096,,,,3.270223096
1715832329314397820,-0.091,,,,3.277917882
1715832329322092606,-0.098,,,,3.285612668
1715832329329787392,-0.103,,,,3.293307454
1715832329337482178,-0.105,,,,3.30100224
1715832329345176964,-0.108,,,,3.308697026
1715832329352871750,-0.103,,,,3.316391812
1715832329360566536,-0.11,,,,3.324086598
1715832329368261322,-0.122,,,,3.331781384
1715832329375956108,-0.125,,,,3.33947617
1715832329383650894,-0.132,,,,3.347170956
1715832329391345680,-0.125,,,,3.354865742
1715832329399040466,-0.125,,,,3.362560528
1715832329406735268,-0.134,,,,3.37025533
1715832329414430054,-0.132,,,,3.377950116
1715832329422124840,-0.139,,609.0,,3.385644902
1715832329429819626,-0.151,,,,3.393339688
1715832329437514412,-0.156,,,,3.401034474
1715832329445209198,-0.156,,,,3.40872926
1715832329452903984,-0.158,,,,3.416424046
1715832329460598770,-0.177,,,,3.424118832
1715832329468293556,-0.187,,,,3.431813618
1715832329475988342,-0.18,,,,3.439508404
1715832329483683128,-0.177,,,,3.44720319
1715832329491377914,-0.18,,,,3.454897976
1715832329499072700,-0.192,,,,3.462592762
1715832329506767486,-0.197,,,,3.470287548
1715832329514462272,-0.187,,,,3.477982334
1715832329522157058,-0.199,,,,3.48567712
1715832329529851844,-0.206,,,,3.493371906
1715832329537546630,-0.197,,,,3.501066692
1715832329545241416,-0.199,,,,3.508761478
1715832329552936202,-0.202,,,,3.516456264
1715832329560630988,-0.209,,,,3.52415105
1715832329568325774,-0.197,,,,3.531845836
1715832329576020560,-0.11,,,,3.539540622
1715832329583715346,0.057,,,,3.547235408
1715832329591410132,0.221,,,,3.554930194
1715832329599104918,0.093,,,,3.56262498
1715832329606799704,-0.295,,,,3.570319766
1715832329614494490,-0.413,,,,3.578014552
1715832329622189276,-0.254,,,,3.585709338
1715832329629884062,-0.242,,,,3.593404124
1715832329637578848,-0.305,,,,3.60109891
1715832329645273634,-0.264,,,,3.608793696
1715832329652968420,-0.24,,,,3.616488482
1715832329660663206,-0.269,,,,3.624183268
1715832329668357992,-0.259,,,,3.631878054
1715832329676052778,-0.24,,,,3.63957284
1715832329683747564,-0.259,,,,3.647267626
1715832329691442350,-0.254,,,,3.654962412
1715832329699137136,-0.247,,,,3.662657198
1715832329706831922,-0.254,,,,3.670351984
1715832329714526708,-0.245,,,,3.67804677
1715832329722221494,-0.238,,,,3.685741556
1715832329729916280,-0.238,,,,3.693436342
1715832329737611066,-0.235,,,,3.701131128
1715832329745305852,-0.23,,,,3.708825914
1715832329753000638,-0.218,,,,3.7165207
1715832329760695424,-0.216,,,,3.724215486
1715832329768390210,-0.216,,,,3.731910272
1715832329776084996,-0.211,,,,3.739605058
1715832329783779782,-0.211,,,,3.747299844
1715832329791474568,-0.206,,,,3.75499463
1715832329799169354,-0.199,,,,3.762689416
1715832329806864140,-0.197,,,,3.770384202
1715832329814558926,-0.194,,,,3.778078988
1715832329822253712,-0.194,,,,3.785773774
1715832329829948498,-0.192,,,,3.79346856
1715832329837643284,-0.192,,,,3.801163346
1715832329845338070,-0.204,,,,3.808858132
1715832329853032856,-0.206,,,,3.816552918
1715832329860727642,-0.211,,,,3.824247704
1715832329868422428,-0.216,,,,3.83194249
1715832329876117214,-0.218,,,,3.839637276
1715832329883812000,-0.23,,,,3.847332062
1715832329891506786,-0.228,,,,3.855026848
1715832329899201572,-0.223,,,,3.862721634
1715832329906896358,-0.226,,,,3.87041642
1715832329914591144,-0.226,,,,3.878111206
1715832329922285930,-0.228,,,,3.885805992
1715832329929980716,-0.23,,,,3.893500778
1715832329937675502,-0.23,,,,3.901195564
1715832329945370288,-0.233,,,,3.90889035
1715832329953065074,-0.221,,,,3.916585136
1715832329960759860,-0.214,,,,3.924279922
1715832329968454664,-0.218,95.0,,,3.931974726
1715832329976149310,-0.228,,,,3.939669372
1715832329983843956,-0.238,,,,3.947364018
1715832329991538602,-0.228,,,,3.955058664
1715832329999233248,-0.218,,,,3.96275331
1715832330006927894,-0.221,,,,3.970447956
1715832330014622540,-0.214,,,,3.978142602
1715832330022317186,-0.216,,,,3.985837248
1715832330030011832,-0.223,,,,3.993531894
1715832330037706478,-0.223,,617.0,,4.00122654
1715832330045401124,-0.216,,,,4.008921186
1715832330053095770,-0.206,,,,4.016615832
1715832330060790416,-0.211,,,,4.024310478
1715832330068485062,-0.211,,,,4.032005124
1715832330076179708,-0.199,,,,4.03969977
1715832330083874354,-0.204,,,,4.047394416
1715832330091569000,-0.206,,,,4.055089062
1715832330099263646,-0.202,,,,4.062783708
1715832330106958292,-0.197,,,,4.070478354
1715832330114652938,-0.192,,,,4.078173
1715832330122347584,-0.192,,,,4.085867646
1715832330130042230,-0.182,,,,4.093562292
1715832330137736876,-0.168,,,,4.101256938
1715832330145431522,-0.173,,,,4.108951584
1715832330153126168,-0.175,,,,4.11664623
1715832330160820814,-0.18,,,,4.124340876
1715832330168515460,-0.18,,,,4.132035522
1715832330176210106,-0.177,,,,4.139730168
1715832330183904752,-0.175,,,,4.147424814
1715832330191599398,-0.163,,,,4.15511946
1715832330199294044,-0.161,,,,4.162814106
1715832330206988690,-0.173,,,,4.170508752
1715832330214683336,-0.17,,,,4.178203398
1715832330222377982,-0.146,,,,4.185898044
1715832330230072628,-0.04,,,,4.19359269
1715832330237767274,0.165,,,,4.201287336
1715832330245461920,0.307,,,,4.208981982
1715832330253156566,0.098,,,,4.216676628
1715832330260851212,-0.293,,,,4.224371274
1715832330268545858,-0.315,,,,4.23206592
1715832330276240504,-0.137,,,,4.239760566
1715832330283935150,-0.175,,,,4.247455212
1715832330291629796,-0.226,,,,4.255149858
1715832330299324442,-0.175,,,,4.262844504
1715832330307019088,-0.168,,,,4.27053915
1715832330314713734,-0.173,,,,4.278233796
1715832330322408380,-0.163,,,,4.285928442
1715832330330103026,-0.163,,,,4.293623088
1715832330337797672,-0.165,,,,4.301317734
1715832330345492318,-0.165,,,,4.30901238
1715832330353186964,-0.163,,,,4.316707026
1715832330360881610,-0.168,,,,4.324401672
1715832330368576256,-0.165,,,,4.332096318
1715832330376270902,-0.156,,,,4.339790964
1715832330383965548,-0.156,,,,4.34748561
1715832330391660194,-0.156,,,,4.355180256
1715832330399354840,-0.156,,,,4.362874902
1715832330407049486,-0.156,,,,4.370569548
1715832330414744132,-0.156,,,,4.378264194
1715832330422438778,-0.161,,,,4.38595884
1715832330430133424,-0.144,,,,4.393653486
1715832330437828070,-0.132,,,,4.401348132
1715832330445522716,-0.141,,,,4.409042778
1715832330453217362,-0.137,,,,4.416737424
1715832330460912008,-0.127,,,,4.42443207
1715832330468606654,-0.12,,,,4.432126716
1715832330476301300,-0.113,,,,4.439821362
1715832330483995946,-0.117,,,,4.447516008
1715832330491690592,-0.125,,,,4.455210654
1715832330499385238,-0.127,,,,4.4629053
1715832330507079884,-0.122,,,,4.470599946
1715832330514774530,-0.12,,,,4.478294592
1715832330522469176,-0.125,,,,4.485989238
1715832330530163886,-0.125,,,,4.493683948
1715832330537858602,-0.134,,,,4.501378664
1715832330545553318,-0.144,,,,4.50907338
1715832330553248034,-0.132,,,,4.516768096
1715832330560942750,-0.129,,,,4.524462812
1715832330568637466,-0.139,,,,4.532157528
1715832330576332182,-0.141,,,,4.539852244
1715832330584026898,-0.141,,,,4.54754696
1715832330591721614,-0.132,,,,4.555241676
1715832330599416330,-0.134,,,,4.562936392
1715832330607111046,-0.146,,,,4.570631108
1715832330614805762,-0.137,,,,4.578325824
1715832330622500478,-0.132,,,,4.58602054
1715832330630195194,-0.132,,,,4.593715256
1715832330637889910,-0.125,,,,4.601409972
1715832330645584626,-0.122,,,,4.609104688
1715832330653279342,-0.12,,,,4.616799404
1715832330660974058,-0.129,,627.0,,4.62449412
1715832330668668774,-0.132,,,,4.632188836
1715832330676363490,-0.122,,,,4.639883552
1715832330684058206,-0.12,,,,4.647578268
1715832330691752922,-0.117,,,,4.655272984
1715832330699447638,-0.12,,,,4.6629677
1715832330707142354,-0.122,,,,4.670662416
1715832330714837070,-0.117,,,,4.678357132
1715832330722531786,-0.122,,,,4.686051848
1715832330730226502,-0.115,,,,4.693746564
1715832330737921218,-0.108,,,,4.70144128
1715832330745615934,-0.11,,,,4.709135996
1715832330753310650,-0.105,,,,4.716830712
1715832330761005366,-0.108,,,,4.724525428
1715832330768700082,-0.11,,,,4.732220144
1715832330776394798,-0.103,,,,4.73991486
1715832330784089514,-0.103,,,,4.747609576
1715832330791784230,-0.091,,,,4.755304292
1715832330799478946,-0.081,,,,4.762999008
1715832330807173662,-0.084,,,,4.770693724
1715832330814868378,-0.084,,,,4.77838844
1715832330822563094,-0.091,,,,4.786083156
1715832330830257810,-0.081,,,,4.793777872
1715832330837952526,-0.064,,,,4.801472588
1715832330845647242,-0.067,,,,4.809167304
1715832330853341958,-0.064,,,,4.81686202
1715832330861036674,-0.062,,,,4.824556736
1715832330868731390,-0.06,,,,4.832251452
1715832330876426106,-0.055,,,,4.839946168
1715832330884120822,-0.052,,,,4.847640884
1715832330891815538,-0.004,,,,4.8553356
1715832330899510254,0.129,,,,4.863030316
1715832330907204970,0.324,,,,4.870725032
1715832330914899686,0.367,,,,4.878419748
1715832330922594402,0.052,,,,4.886114464
1715832330930289118,-0.245,,,,4.89380918
1715832330937983834,-0.161,,,,4.901503896
1715832330945678550,-0.052,,,,4.909198612
1715832330953373266,-0.12,,,,4.916893328
1715832330961067982,-0.122,,,,4.924588044
1715832330968762698,-0.067,,,,4.93228276
1715832330976457414,-0.069,,,,4.939977476
1715832330984152130,-0.084,,,,4.947672192
1715832330991846846,-0.067,,,,4.955366908
1715832330999541562,-0.072,,,,4.963061624
1715832331007236278,-0.079,,,,4.97075634
1715832331014930994,-0.064,,,,4.978451056
1715832331022625710,-0.072,,,,4.986145772
1715832331030320426,-0.076,,,,4.993840488
1715832331038015142,-0.064,,,,5.001535204
1715832331045709858,-0.067,,,,5.00922992
1715832331053404574,-0.064,,,,5.016924636
1715832331061099290,-0.062,,,,5.024619352
1715832331068794006,-0.055,,,,5.032314068
1715832331076488722,-0.045,,,,5.040008784
1715832331084183438,-0.048,,,,5.0477035
1715832331091878194,-0.043,95.0,,,5.055398256
1715832331099573189,-0.031,,,,5.063093251
1715832331107268184,-0.024,,,,5.070788246
1715832331114963179,-0.014,,,,5.078483241
1715832331122658174,-0.012,,,,5.086178236
1715832331130353169,-0.004,,,,5.093873231
1715832331138048164,-0.004,,,,5.101568226
1715832331145743159,-0.019,,,,5.109263221
1715832331153438154,-0.014,,,,5.116958216
1715832331161133149,-0.012,,,,5.124653211
1715832331168828144,-0.014,,,,5.132348206
1715832331176523139,-0.016,,,,5.140043201
1715832331184218134,-0.028,,,,5.147738196
1715832331191913129,-0.021,,,,5.155433191
1715832331199608124,-0.019,,,,5.163128186
1715832331207303119,-0.024,,,,5.170823181
1715832331214998114,-0.016,,,,5.178518176
1715832331222693109,-0.016,,,,5.186213171
1715832331230388104,-0.014,,,,5.193908166
1715832331238083099,-0.007,,,,5.201603161
1715832331245778094,-0.004,,,,5.209298156
1715832331253473089,0.0,,,,5.216993151
1715832331261168084,-0.002,,,,5.224688146
1715832331268863079,-0.002,,,,5.232383141
1715832331276558074,0.004,,,,5.240078136
1715832331284253069,0.004,,,,5.247773131
1715832331291948064,0.009,,,,5.255468126
1715832331299643059,0.004,,,,5.263163121
1715832331307338054,0.002,,646.0,,5.270858116
1715832331315033049,0.009,,,,5.278553111
1715832331322728044,0.007,,,,5.286248106
1715832331330423039,0.004,,,,5.293943101
1715832331338118034,0.007,,,,5.301638096
1715832331345813029,0.002,,,,5.309333091
1715832331353508024,0.007,,,,5.317028086
1715832331361203019,0.004,,,,5.324723081
1715832331368898014,-0.004,,,,5.332418076
1715832331376593009,-0.009,,,,5.340113071
1715832331384288004,-0.016,,,,5.347808066
1715832331391982999,-0.019,,,,5.355503061
1715832331399677994,-0.024,,,,5.363198056
1715832331407372989,-0.033,,,,5.370893051
1715832331415067984,-0.036,,,,5.378588046
1715832331422762979,-0.038,,,,5.386283041
1715832331430457974,-0.033,,,,5.393978036
1715832331438152969,-0.038,,,,5.401673031
1715832331445847964,-0.052,,,,5.409368026
1715832331453542959,-0.05,,,,5.417063021
1715832331461237954,-0.048,,,,5.424758016
1715832331468932949,-0.045,,,,5.432453011
1715832331476627944,-0.043,,,,5.440148006
1715832331484322939,-0.043,,,,5.447843001
1715832331492017934,-0.052,,,,5.455537996
1715832331499712929,-0.076,,,,5.463232991
1715832331507407924,-0.086,,,,5.470927986
1715832331515102919,-0.067,,,,5.478622981
1715832331522797914,-0.062,,,,5.486317976
1715832331530492909,-0.072,,,,5.494012971
1715832331538187904,-0.072,,,,5.501707966
1715832331545882899,-0.072,,,,5.509402961
1715832331553577894,-0.067,,,,5.517097956
1715832331561272889,-0.06,,,,5.524792951
1715832331568967884,0.004,,,,5.532487946
1715832331576662879,0.177,,,,5.540182941
1715832331584357874,0.36,,,,5.547877936
1715832331592052869,0.288,,,,5.555572931
1715832331599747864,-0.086,,,,5.563267926
1715832331607442859,-0.262,,,,5.570962921
1715832331615137854,-0.113,,,,5.578657916
1715832331622832849,-0.084,,,,5.586352911
1715832331630527844,-0.151,,,,5.594047906
1715832331638222839,-0.115,,,,5.601742901
1715832331645917834,-0.093,,,,5.609437896
1715832331653612846,-0.117,94.0,,,5.617132908
1715832331661307283,-0.108,,,,5.624827345
1715832331669001720,-0.079,,,,5.632521782
1715832331676696157,-0.079,,,,5.640216219
1715832331684390594,-0.086,,,,5.647910656
1715832331692085031,-0.076,,,,5.655605093
1715832331699779468,-0.074,,,,5.66329953
1715832331707473905,-0.076,,,,5.670993967
1715832331715168342,-0.069,,,,5.678688404
1715832331722862779,-0.067,,,,5.686382841
1715832331730557216,-0.064,,,,5.694077278
1715832331738251653,-0.064,,,,5.701771715
1715832331745946090,-0.069,,,,5.709466152
1715832331753640527,-0.055,,,,5.717160589
1715832331761334964,-0.043,,,,5.724855026
1715832331769029401,-0.04,,,,5.732549463
1715832331776723838,-0.038,,,,5.7402439
1715832331784418275,-0.036,,,,5.747938337
1715832331792112712,-0.024,,,,5.755632774
1715832331799807149,-0.021,,,,5.763327211
1715832331807501586,-0.021,,,,5.771021648
1715832331815196023,-0.014,,,,5.778716085
1715832331822890460,-0.016,,,,5.786410522
1715832331830584897,-0.016,,,,5.794104959
1715832331838279334,-0.014,,,,5.801799396
1715832331845973771,-0.019,,,,5.809493833
1715832331853668208,-0.021,,,,5.81718827
1715832331861362645,-0.028,,,,5.824882707
1715832331869057082,-0.033,,,,5.832577144
1715832331876751519,-0.028,,,,5.840271581
1715832331884445956,-0.031,,,,5.847966018
1715832331892140393,-0.033,,,,5.855660455
1715832331899834830,-0.038,,,,5.863354892
1715832331907529267,-0.036,,,,5.871049329
1715832331915223704,-0.026,,,,5.878743766
1715832331922918141,-0.033,,,,5.886438203
1715832331930612578,-0.033,,,,5.89413264
1715832331938307015,-0.031,,,,5.901827077
1715832331946001452,-0.036,,638.0,,5.909521514
1715832331953695889,-0.028,,,,5.917215951
1715832331961390326,-0.028,,,,5.924910388
1715832331969084763,-0.031,,,,5.932604825
1715832331976779200,-0.028,,,,5.940299262
1715832331984473637,-0.033,,,,5.947993699
1715832331992168074,-0.031,,,,5.955688136
1715832331999862511,-0.031,,,,5.963382573
1715832332007556948,-0.038,,,,5.97107701
1715832332015251385,-0.045,,,,5.978771447
1715832332022945822,-0.045,,,,5.986465884
1715832332030640259,-0.031,,,,5.994160321
1715832332038334696,-0.031,,,,6.001854758
1715832332046029133,-0.04,,,,6.009549195
1715832332053723570,-0.033,,,,6.017243632
1715832332061418007,-0.028,,,,6.024938069
1715832332069112444,-0.024,,,,6.032632506
1715832332076806881,-0.012,,,,6.040326943
1715832332084501318,-0.004,,,,6.04802138
1715832332092195755,0.014,,,,6.055715817
1715832332099890192,0.024,,,,6.063410254
1715832332107584629,0.014,,,,6.071104691
1715832332115279066,0.024,,,,6.078799128
1715832332122973503,0.024,,,,6.086493565
1715832332130667940,0.012,,,,6.094188002
1715832332138362377,0.021,,,,6.101882439
1715832332146056814,0.064,,,,6.109576876
1715832332153751251,0.125,,,,6.117271313
1715832332161445688,0.199,,,,6.12496575
1715832332169140125,0.264,,,,6.132660187
1715832332176834562,0.18,,,,6.140354624
1715832332184528999,-0.052,,,,6.148049061
1715832332192223436,-0.173,,,,6.155743498
1715832332199917873,-0.139,,,,6.163437935
1715832332207612310,-0.117,,,,6.171132372
1715832332215306810,-0.12,,,,6.178826872
1715832332223001944,-0.11,,,,6.186522006
1715832332230697078,-0.093,,,,6.19421714
1715832332238392212,-0.088,,,,6.201912274
1715832332246087346,-0.091,,,,6.209607408
1715832332253782480,-0.093,,,,6.217302542
1715832332261477614,-0.096,,,,6.224997676
1715832332269172748,-0.081,,,,6.23269281
1715832332276867882,-0.069,,,,6.240387944
1715832332284563016,-0.079,,,,6.248083078
1715832332292258150,-0.079,,,,6.255778212
1715832332299953284,-0.074,,,,6.263473346
1715832332307648418,-0.076,,,,6.27116848
1715832332315343552,-0.076,,,,6.278863614
1715832332323038686,-0.079,,,,6.286558748
1715832332330733820,-0.079,,,,6.294253882
1715832332338428954,-0.084,,,,6.301949016
1715832332346124088,-0.086,,,,6.30964415
1715832332353819222,-0.072,,,,6.317339284
1715832332361514356,-0.067,,,,6.325034418
1715832332369209490,-0.064,,,,6.332729552
1715832332376904624,-0.055,,,,6.340424686
1715832332384599758,-0.052,,,,6.34811982
1715832332392294892,-0.04,,,,6.355814954
1715832332399990026,-0.024,,,,6.363510088
1715832332407685160,-0.016,,,,6.371205222
1715832332415380294,-0.004,,,,6.378900356
1715832332423075428,-0.002,,,,6.38659549
1715832332430770562,-0.002,,,,6.394290624
1715832332438465696,-0.002,,,,6.401985758
1715832332446160830,-0.004,,,,6.409680892
1715832332453855964,-0.007,,,,6.417376026
1715832332461551098,-0.019,,,,6.42507116
1715832332469246232,-0.024,,,,6.432766294
1715832332476941366,-0.021,,,,6.440461428
1715832332484636500,-0.026,,,,6.448156562
1715832332492331634,-0.026,,,,6.455851696
1715832332500026768,-0.026,,,,6.46354683
1715832332507721902,-0.028,,,,6.471241964
1715832332515417036,-0.033,,,,6.478937098
1715832332523112170,-0.043,,,,6.486632232
1715832332530807304,-0.033,,,,6.494327366
1715832332538502438,-0.026,,,,6.5020225
1715832332546197572,-0.028,,,,6.509717634
1715832332553892706,-0.026,,,,6.517412768
1715832332561587840,-0.033,,,,6.525107902
1715832332569282974,-0.043,,,,6.532803036
1715832332576978108,-0.04,,,,6.54049817
1715832332584673242,-0.043,,,,6.548193304
1715832332592368376,-0.036,,,,6.555888438
1715832332600063510,-0.031,,655.0,,6.563583572
1715832332607758644,-0.04,,,,6.571278706
1715832332615453778,-0.05,,,,6.57897384
1715832332623148912,-0.055,,,,6.586668974
1715832332630844046,-0.048,,,,6.594364108
1715832332638539180,-0.055,,,,6.602059242
1715832332646234314,-0.062,,,,6.609754376
1715832332653929448,-0.055,,,,6.61744951
1715832332661624582,-0.06,,,,6.625144644
1715832332669319716,-0.062,,,,6.632839778
1715832332677014850,-0.057,,,,6.640534912
1715832332684709984,-0.06,,,,6.648230046
1715832332692405118,-0.06,,,,6.65592518
1715832332700100252,-0.072,,,,6.663620314
1715832332707795386,-0.081,,,,6.671315448
1715832332715490520,-0.069,,,,6.679010582
1715832332723185654,-0.074,,,,6.686705716
1715832332730880788,-0.086,,,,6.69440085
1715832332738575922,-0.088,,,,6.702095984
1715832332746271056,-0.086,,,,6.709791118
1715832332753966190,-0.081,,,,6.717486252
1715832332761661324,-0.091,,,,6.725181386
1715832332769356458,-0.093,,,,6.73287652
1715832332777051634,-0.086,94.0,,,6.740571696
1715832332784746002,-0.091,,,,6.748266064
1715832332792440370,-0.096,,,,6.755960432
1715832332800134738,-0.098,,,,6.7636548
1715832332807829106,-0.103,,,,6.771349168
1715832332815523474,-0.101,,,,6.779043536
1715832332823217842,-0.108,,,,6.786737904
1715832332830912210,-0.103,,,,6.794432272
1715832332838606578,-0.088,,,,6.80212664
1715832332846300946,-0.091,,,,6.809821008
1715832332853995314,-0.105,,,,6.817515376
1715832332861689682,-0.117,,,,6.825209744
1715832332869384050,-0.115,,,,6.832904112
1715832332877078418,-0.113,,,,6.84059848
1715832332884772786,-0.127,,,,6.848292848
1715832332892467154,-0.127,,,,6.855987216
1715832332900161522,-0.122,,,,6.863681584
1715832332907855890,-0.129,,,,6.871375952
1715832332915550258,-0.122,,,,6.87907032
1715832332923244626,-0.081,,,,6.886764688
1715832332930938994,0.045,,,,6.894459056
1715832332938633362,0.25,,,,6.902153424
1715832332946327730,0.307,,,,6.909847792
1715832332954022098,0.007,,,,6.91754216
1715832332961716466,-0.327,,,,6.925236528
1715832332969410834,-0.266,,,,6.932930896
1715832332977105202,-0.141,,,,6.940625264
1715832332984799570,-0.216,,,,6.948319632
1715832332992493938,-0.23,,,,6.956014
1715832333000188306,-0.18,,,,6.963708368
1715832333007882674,-0.187,,,,6.971402736
1715832333015577042,-0.202,,,,6.979097104
1715832333023271410,-0.199,,,,6.986791472
1715832333030965778,-0.199,,,,6.99448584
1715832333038660146,-0.197,,,,7.002180208
1715832333046354514,-0.189,,,,7.009874576
1715832333054048882,-0.182,,,,7.017568944
1715832333061743250,-0.187,,,,7.025263312
1715832333069437618,-0.189,,,,7.03295768
1715832333077131986,-0.185,,,,7.040652048
1715832333084826354,-0.182,,,,7.048346416
1715832333092520722,-0.175,,,,7.056040784
1715832333100215090,-0.177,,,,7.063735152
1715832333107909458,-0.175,,,,7.07142952
1715832333115603826,-0.168,,,,7.079123888
1715832333123298194,-0.177,,,,7.086818256
1715832333130992562,-0.177,,,,7.094512624
1715832333138686930,-0.165,,,,7.102206992
1715832333146381298,-0.163,,,,7.10990136
1715832333154075666,-0.161,,,,7.117595728
1715832333161770034,-0.163,,,,7.125290096
1715832333169464402,-0.158,,,,7.132984464
1715832333177158770,-0.149,,,,7.140678832
1715832333184853138,-0.156,,,,7.1483732
1715832333192547506,-0.153,,,,7.156067568
1715832333200241874,-0.156,,,,7.163761936
1715832333207936242,-0.17,,,,7.171456304
1715832333215630610,-0.187,,,,7.179150672
1715832333223324978,-0.194,,,,7.18684504
1715832333231019346,-0.189,,,,7.194539408
1715832333238713714,-0.199,,,,7.202233776
1715832333246408082,-0.218,,,,7.209928144
1715832333254102450,-0.214,,652.0,,7.217622512
1715832333261796818,-0.211,,,,7.22531688
1715832333269491186,-0.216,,,,7.233011248
1715832333277185554,-0.214,,,,7.240705616
1715832333284879922,-0.211,,,,7.248399984
1715832333292574290,-0.209,,,,7.256094352
1715832333300268658,-0.218,,,,7.26378872
1715832333307963026,-0.218,,,,7.271483088
1715832333315657394,-0.209,,,,7.279177456
1715832333323351762,-0.211,,,,7.286871824
1715832333331046130,-0.221,,,,7.294566192
1715832333338740512,-0.221,,,,7.302260574
1715832333346435298,-0.226,,,,7.30995536
1715832333354130084,-0.223,,,,7.317650146
1715832333361824870,-0.221,,,,7.325344932
1715832333369519656,-0.221,,,,7.333039718
1715832333377214442,-0.223,,,,7.340734504
1715832333384909228,-0.223,,,,7.34842929
1715832333392604014,-0.218,,,,7.356124076
1715832333400298800,-0.221,,,,7.363818862
1715832333407993586,-0.221,,,,7.371513648
1715832333415688372,-0.216,,,,7.379208434
1715832333423383158,-0.228,,,,7.38690322
1715832333431077944,-0.233,,,,7.394598006
1715832333438772730,-0.226,,,,7.402292792
1715832333446467516,-0.223,,,,7.409987578
1715832333454162302,-0.218,,,,7.417682364
1715832333461857088,-0.214,,,,7.42537715
1715832333469551874,-0.206,,,,7.433071936
1715832333477246660,-0.199,,,,7.440766722
1715832333484941446,-0.199,,,,7.448461508
1715832333492636232,-0.206,,,,7.456156294
1715832333500331018,-0.209,,,,7.46385108
1715832333508025804,-0.199,,,,7.471545866
1715832333515720590,-0.197,,,,7.479240652
1715832333523415376,-0.209,,,,7.486935438
1715832333531110162,-0.206,,,,7.494630224
1715832333538804948,-0.197,,,,7.50232501
1715832333546499734,-0.197,,,,7.510019796
1715832333554194520,-0.187,,,,7.517714582
1715832333561889306,-0.163,,,,7.525409368
1715832333569584092,-0.074,,,,7.533104154
1715832333577278878,0.12,,,,7.54079894
1715832333584973664,0.283,,,,7.548493726
1715832333592668450,0.12,,,,7.556188512
1715832333600363236,-0.271,,,,7.563883298
1715832333608058022,-0.348,,,,7.571578084
1715832333615752808,-0.18,,,,7.57927287
1715832333623447594,-0.199,,,,7.586967656
1715832333631142380,-0.252,,,,7.594662442
1715832333638837166,-0.192,,,,7.602357228
1715832333646531952,-0.173,,,,7.610052014
1715832333654226738,-0.192,,,,7.6177468
1715832333661921524,-0.175,,,,7.625441586
1715832333669616310,-0.161,,,,7.633136372
1715832333677311096,-0.163,,,,7.640831158
1715832333685005882,-0.156,,,,7.648525944
1715832333692700668,-0.149,,,,7.65622073
1715832333700395454,-0.153,,,,7.663915516
1715832333708090240,-0.146,,,,7.671610302
1715832333715785026,-0.134,,,,7.679305088
1715832333723479812,-0.137,,,,7.686999874
1715832333731174598,-0.129,,,,7.69469466
1715832333738869384,-0.12,,,,7.702389446
1715832333746564170,-0.115,,,,7.710084232
1715832333754258956,-0.103,,,,7.717779018
1715832333761953742,-0.101,,,,7.725473804
1715832333769648528,-0.101,,,,7.73316859
1715832333777343314,-0.096,,,,7.740863376
1715832333785038100,-0.091,,,,7.748558162
1715832333792732886,-0.079,,,,7.756252948
1715832333800427672,-0.067,,,,7.763947734
1715832333808122458,-0.069,,,,7.77164252
1715832333815817244,-0.072,,,,7.779337306
1715832333823512030,-0.069,,,,7.787032092
1715832333831206816,-0.062,,,,7.794726878
1715832333838901602,-0.064,,,,7.802421664
1715832333846596388,-0.076,,,,7.81011645
1715832333854291174,-0.086,,,,7.817811236
1715832333861985960,-0.096,,,,7.825506022
1715832333869680746,-0.098,,,,7.833200808
1715832333877375532,-0.091,,,,7.840895594
1715832333885070318,-0.093,,,,7.84859038
1715832333892765104,-0.096,,,,7.856285166
1715832333900459906,-0.096,93.0,,,7.863979968
1715832333908154692,-0.091,,,,7.871674754
1715832333915849478,-0.081,,,,7.87936954
1715832333923544264,-0.079,,666.0,,7.887064326
1715832333931239050,-0.079,,,,7.894759112
1715832333938933836,-0.076,,,,7.902453898
1715832333946628622,-0.072,,,,7.910148684
1715832333954323408,-0.069,,,,7.91784347
1715832333962018194,-0.076,,,,7.925538256
1715832333969712980,-0.079,,,,7.933233042
1715832333977407766,-0.072,,,,7.940927828
1715832333985102552,-0.074,,,,7.948622614
1715832333992797338,-0.076,,,,7.9563174
1715832334000492124,-0.076,,,,7.964012186
1715832334008186910,-0.069,,,,7.971706972
1715832334015881696,-0.06,,,,7.979401758
1715832334023576482,-0.072,,,,7.987096544
1715832334031271268,-0.074,,,,7.99479133
1715832334038966054,-0.062,,,,8.002486116
1715832334046660840,-0.055,,,,8.010180902
1715832334054355626,-0.057,,,,8.017875688
1715832334062050412,-0.052,,,,8.025570474
1715832334069745198,-0.043,,,,8.03326526
1715832334077439984,-0.04,,,,8.040960046
1715832334085134770,-0.045,,,,8.048654832
1715832334092829556,-0.043,,,,8.056349618
1715832334100524342,-0.038,,,,8.064044404
1715832334108219128,-0.033,,,,8.07173919
1715832334115913914,-0.024,,,,8.079433976
1715832334123608700,-0.012,,,,8.087128762
1715832334131303486,-0.009,,,,8.094823548
1715832334138998272,-0.024,,,,8.102518334
1715832334146693058,-0.028,,,,8.11021312
1715832334154387844,-0.012,,,,8.117907906
1715832334162082630,-0.004,,,,8.125602692
1715832334169777416,-0.009,,,,8.133297478
1715832334177472202,-0.012,,,,8.140992264
1715832334185166988,-0.007,,,,8.14868705
1715832334192861774,-0.002,,,,8.156381836
1715832334200556560,-0.002,,,,8.164076622
1715832334208251346,0.014,,,,8.171771408
1715832334215946132,0.11,,,,8.179466194
1715832334223640918,0.307,,,,8.18716098
1715832334231335704,0.464,,,,8.194855766
1715832334239030490,0.276,,,,8.202550552
1715832334246725276,-0.108,,,,8.210245338
1715832334254420062,-0.163,,,,8.217940124
1715832334262114848,-0.002,,,,8.22563491
1715832334269809634,-0.021,,,,8.233329696
1715832334277504420,-0.067,,,,8.241024482
1715832334285199206,-0.019,,,,8.248719268
1715832334292893992,-0.007,,,,8.256414054
1715832334300588778,-0.026,,,,8.26410884
1715832334308283564,-0.007,,,,8.271803626
1715832334315978350,0.004,,,,8.279498412
1715832334323673136,-0.004,,,,8.287193198
1715832334331367922,-0.002,,,,8.294887984
1715832334339062708,0.009,,,,8.30258277
1715832334346757494,0.014,,,,8.310277556
1715832334354452280,0.016,,,,8.317972342
1715832334362147066,0.016,,,,8.325667128
1715832334369841852,0.021,,,,8.333361914
1715832334377536638,0.031,,,,8.3410567
1715832334385231424,0.033,,,,8.348751486
1715832334392926210,0.048,,,,8.356446272
1715832334400620996,0.057,,,,8.364141058
1715832334408315782,0.055,,,,8.371835844
1715832334416010568,0.05,,,,8.37953063
1715832334423705354,0.055,,,,8.387225416
1715832334431400140,0.069,,,,8.394920202
1715832334439094926,0.069,,,,8.402614988
1715832334446789712,0.067,,,,8.410309774
1715832334454484498,0.072,,,,8.41800456
1715832334462179300,0.072,,,,8.425699362
1715832334469874086,0.074,,,,8.433394148
1715832334477568872,0.074,,,,8.441088934
1715832334485263658,0.072,,,,8.44878372
1715832334492958444,0.069,,,,8.456478506
1715832334500653230,0.055,,,,8.464173292
1715832334508348016,0.04,,,,8.471868078
1715832334516042802,0.043,,,,8.479562864
1715832334523737588,0.033,,,,8.48725765
1715832334531432374,0.016,,,,8.494952436
1715832334539127160,0.012,,,,8.502647222
1715832334546821946,0.021,,,,8.510342008
1715832334554516732,0.028,,,,8.518036794
1715832334562211518,0.019,,,,8.52573158
1715832334569906304,0.014,,,,8.533426366
1715832334577601090,0.016,,,,8.541121152
1715832334585295876,0.016,,,,8.548815938
1715832334592990662,0.014,,674.0,,8.556510724
1715832334600685448,0.009,,,,8.56420551
1715832334608380234,0.0,,,,8.571900296
1715832334616075020,-0.004,,,,8.579595082
1715832334623769806,-0.007,,,,8.587289868
1715832334631464592,-0.004,,,,8.594984654
1715832334639159378,-0.002,,,,8.60267944
1715832334646854164,-0.007,,,,8.610374226
1715832334654548950,-0.009,,,,8.618069012
1715832334662243736,-0.009,,,,8.625763798
1715832334669938522,-0.002,,,,8.633458584
1715832334677633308,-0.002,,,,8.64115337
1715832334685328094,-0.012,,,,8.648848156
1715832334693022880,-0.012,,,,8.656542942
1715832334700717666,-0.007,,,,8.664237728
1715832334708412452,-0.009,,,,8.671932514
1715832334716107238,-0.012,,,,8.6796273
1715832334723802024,-0.012,,,,8.687322086
1715832334731496810,-0.004,,,,8.695016872
1715832334739191596,-0.004,,,,8.702711658
1715832334746886382,-0.004,,,,8.710406444
1715832334754581168,0.004,,,,8.71810123
1715832334762275954,0.0,,,,8.725796016
1715832334769970740,-0.009,,,,8.733490802
1715832334777665526,-0.009,,,,8.741185588
1715832334785360312,-0.004,,,,8.748880374
1715832334793055098,0.002,,,,8.75657516
1715832334800749884,0.0,,,,8.764269946
1715832334808444670,0.002,,,,8.771964732
1715832334816139456,0.004,,,,8.779659518
1715832334823834242,-0.002,,,,8.787354304
1715832334831529028,0.0,,,,8.79504909
1715832334839223814,0.05,,,,8.802743876
1715832334846918600,0.194,,,,8.810438662
1715832334854613386,0.394,,,,8.818133448
1715832334862308172,0.396,,,,8.825828234
1715832334870002958,0.057,,,,8.83352302
1715832334877697744,-0.199,,,,8.841217806
1715832334885392530,-0.091,,,,8.848912592
1715832334893087316,-0.004,,,,8.856607378
1715832334900782102,-0.081,,,,8.864302164
1715832334908476888,-0.072,,,,8.87199695
1715832334916171674,-0.021,,,,8.879691736
1715832334923866460,-0.04,,,,8.887386522
1715832334931561246,-0.043,,,,8.895081308
1715832334939256032,-0.024,,,,8.902776094
1715832334946950818,-0.021,,,,8.91047088
1715832334954645604,-0.021,,,,8.918165666
1715832334962340390,-0.019,,,,8.925860452
1715832334970035176,-0.016,,,,8.933555238
1715832334977729962,-0.014,,,,8.941250024
1715832334985424748,-0.012,,,,8.94894481
1715832334993119534,-0.002,,,,8.956639596
1715832335000814320,0.002,,,,8.964334382
1715832335008509106,0.0,,,,8.972029168
1715832335016203892,-0.002,,,,8.979723954
1715832335023898694,0.004,92.0,,,8.987418756
1715832335031593480,0.007,,,,8.995113542
1715832335039288266,0.0,,,,9.002808328
1715832335046983052,0.004,,,,9.010503114
1715832335054677838,0.016,,,,9.0181979
1715832335062372624,0.014,,,,9.025892686
1715832335070067410,0.009,,,,9.033587472
1715832335077762196,0.009,,,,9.041282258
1715832335085456982,0.014,,,,9.048977044
1715832335093151768,0.019,,,,9.05667183
1715832335100846554,0.009,,,,9.064366616
1715832335108541340,0.007,,,,9.072061402
1715832335116236126,0.016,,,,9.079756188
1715832335123930912,0.012,,,,9.087450974
1715832335131625698,0.002,,,,9.09514576
1715832335139320484,0.0,,,,9.102840546
1715832335147015270,0.0,,,,9.110535332
1715832335154710056,-0.002,,,,9.118230118
1715832335162404842,-0.007,,,,9.125924904
1715832335170099628,-0.009,,,,9.13361969
1715832335177794414,-0.012,,584.0,,9.141314476
1715832335185489200,-0.016,,,,9.149009262
1715832335193183986,-0.014,,,,9.156704048
1715832335200878772,-0.014,,,,9.164398834
1715832335208573558,-0.012,,,,9.17209362
1715832335216268344,-0.009,,,,9.179788406
1715832335223963130,-0.014,,,,9.187483192
1715832335231657916,-0.012,,,,9.195177978
1715832335239352702,-0.009,,,,9.202872764
1715832335247047488,-0.014,,,,9.21056755
1715832335254742274,-0.014,,,,9.218262336
1715832335262437060,-0.016,,,,9.225957122
1715832335270131846,-0.016,,,,9.233651908
1715832335277826632,-0.016,,,,9.241346694
1715832335285521418,-0.021,,,,9.24904148
1715832335293216204,-0.026,,,,9.256736266
1715832335300910990,-0.021,,,,9.264431052
1715832335308605776,-0.019,,,,9.272125838
1715832335316300562,-0.019,,,,9.279820624
1715832335323995348,-0.019,,,,9.28751541
1715832335331690134,-0.019,,,,9.295210196
1715832335339384920,-0.028,,,,9.302904982
1715832335347079706,-0.033,,,,9.310599768
1715832335354774492,-0.016,,,,9.318294554
1715832335362469278,-0.007,,,,9.32598934
1715832335370164064,-0.009,,,,9.333684126
1715832335377858850,-0.009,,,,9.341378912
1715832335385553636,-0.009,,,,9.349073698
1715832335393248422,-0.009,,,,9.356768484
1715832335400943208,-0.014,,,,9.36446327
1715832335408637994,-0.012,,,,9.372158056
1715832335416332780,-0.007,,,,9.379852842
1715832335424027566,-0.009,,,,9.387547628
1715832335431722352,-0.009,,,,9.395242414
1715832335439417138,-0.004,,,,9.4029372
1715832335447111924,-0.004,,,,9.410631986
1715832335454806710,-0.002,,,,9.418326772
1715832335462501496,0.033,,,,9.426021558
1715832335470196282,0.165,,,,9.433716344
1715832335477891068,0.367,,,,9.44141113
1715832335485585854,0.418,,,,9.449105916
1715832335493280640,0.122,,,,9.456800702
1715832335500975426,-0.187,,,,9.464495488
1715832335508670212,-0.115,,,,9.472190274
1715832335516364998,0.007,,,,9.47988506
1715832335524059784,-0.062,,,,9.487579846
1715832335531754570,-0.081,,,,9.495274632
1715832335539449356,-0.038,,,,9.502969418
1715832335547144142,-0.04,,,,9.510664204
1715832335554838928,-0.038,,,,9.51835899
1715832335562533714,-0.024,,,,9.526053776
1715832335570228500,-0.024,,,,9.533748562
1715832335577923286,-0.028,,,,9.541443348
1715832335585618088,-0.026,91.0,,,9.54913815
1715832335593312874,-0.021,,,,9.556832936
1715832335601007660,-0.019,,,,9.564527722
1715832335608702446,-0.028,,,,9.572222508
1715832335616397232,-0.038,,,,9.579917294
1715832335624092018,-0.031,,,,9.58761208
1715832335631786804,-0.019,,,,9.595306866
1715832335639481590,-0.021,,,,9.603001652
1715832335647176376,-0.024,,,,9.610696438
1715832335654871162,-0.019,,,,9.618391224
1715832335662565948,-0.024,,,,9.62608601
1715832335670260734,-0.028,,,,9.633780796
1715832335677955520,-0.026,,,,9.641475582
1715832335685650306,-0.024,,,,9.649170368
1715832335693345092,-0.019,,,,9.656865154
1715832335701039878,-0.019,,,,9.66455994
1715832335708734664,-0.021,,,,9.672254726
1715832335716429450,-0.014,,,,9.679949512
1715832335724124236,-0.012,,,,9.687644298
1715832335731819022,-0.019,,,,9.695339084
1715832335739513808,-0.031,,,,9.70303387
1715832335747208594,-0.036,,,,9.710728656
1715832335754903380,-0.04,,,,9.718423442
1715832335762598166,-0.052,,,,9.726118228
1715832335770292952,-0.057,,,,9.733813014
1715832335777987738,-0.06,,,,9.7415078
1715832335785682524,-0.062,,,,9.749202586
1715832335793377310,-0.064,,,,9.756897372
1715832335801072096,-0.069,,,,9.764592158
1715832335808766882,-0.067,,,,9.772286944
1715832335816461668,-0.062,,,,9.77998173
1715832335824156454,-0.069,,,,9.787676516
1715832335831851240,-0.074,,,,9.795371302
1715832335839546026,-0.079,,,,9.803066088
1715832335847240812,-0.079,,,,9.810760874
1715832335854935598,-0.079,,,,9.81845566
1715832335862630384,-0.076,,,,9.826150446
1715832335870325170,-0.069,,,,9.833845232
1715832335878019956,-0.069,,,,9.841540018
1715832335885714742,-0.081,,,,9.849234804
1715832335893409528,-0.081,,,,9.85692959
1715832335901104314,-0.079,,,,9.864624376
1715832335908799100,-0.081,,,,9.872319162
1715832335916493886,-0.086,,,,9.880013948
1715832335924188672,-0.091,,,,9.887708734
1715832335931883458,-0.093,,,,9.89540352
1715832335939578244,-0.105,,,,9.903098306
1715832335947273030,-0.115,,,,9.910793092
1715832335954967816,-0.105,,773.0,,9.918487878
1715832335962662602,-0.108,,,,9.926182664
1715832335970357388,-0.113,,,,9.93387745
1715832335978052174,-0.113,,,,9.941572236
1715832335985746960,-0.11,,,,9.949267022
1715832335993441746,-0.098,,,,9.956961808
1715832336001136532,-0.093,,,,9.964656594
1715832336008831318,-0.108,,,,9.97235138
1715832336016526104,-0.117,,,,9.980046166
1715832336024220890,-0.12,,,,9.987740952
1715832336031915676,-0.115,,,,9.995435738
1715832336039610462,-0.125,,,,10.003130524
1715832336047305248,-0.134,,,,10.01082531
1715832336055000034,-0.132,,,,10.018520096
1715832336062694820,-0.127,,,,10.026214882
1715832336070389606,-0.132,,,,10.033909668
1715832336078084392,-0.132,,,,10.041604454
1715832336085779178,-0.105,,,,10.04929924
1715832336093473964,0.012,,,,10.056994026
1715832336101168750,0.223,,,,10.064688812
1715832336108863536,0.327,,,,10.072383598
1715832336116558322,0.055,,,,10.080078384
1715832336124253108,-0.312,,,,10.08777317
1715832336131947894,-0.281,,,,10.095467956
1715832336139642680,-0.129,,,,10.103162742
1715832336147337482,-0.192,,,,10.110857544
1715832336155031850,-0.223,,,,10.118551912
1715832336162726218,-0.165,,,,10.12624628
1715832336170420586,-0.168,,,,10.133940648
1715832336178114954,-0.197,,,,10.141635016
1715832336185809322,-0.185,,,,10.149329384
1715832336193503690,-0.168,,,,10.157023752
1715832336201198058,-0.168,,,,10.16471812
1715832336208892426,-0.17,,,,10.172412488
1715832336216586794,-0.17,,,,10.180106856
1715832336224281162,-0.168,,,,10.187801224
1715832336231975530,-0.158,,,,10.195495592
1715832336239669898,-0.153,,,,10.20318996
1715832336247364266,-0.156,,,,10.210884328
1715832336255058634,-0.158,,,,10.218578696
1715832336262753002,-0.153,,,,10.226273064
1715832336270447370,-0.144,,,,10.233967432
1715832336278141738,-0.141,,,,10.2416618
1715832336285836106,-0.141,,,,10.249356168
1715832336293530474,-0.137,,,,10.257050536
1715832336301224842,-0.139,,,,10.264744904
1715832336308919210,-0.141,,,,10.272439272
1715832336316613578,-0.134,,,,10.28013364
1715832336324307946,-0.137,,,,10.287828008
1715832336332002314,-0.144,,,,10.295522376
1715832336339696682,-0.141,,,,10.303216744
1715832336347391050,-0.134,,,,10.310911112
1715832336355085418,-0.137,,,,10.31860548
1715832336362779786,-0.146,,,,10.326299848
1715832336370474154,-0.151,,,,10.333994216
1715832336378168522,-0.153,,,,10.341688584
1715832336385862890,-0.158,,,,10.349382952
1715832336393557258,-0.158,,,,10.35707732
1715832336401251626,-0.158,,,,10.364771688
1715832336408945994,-0.161,,,,10.372466056
1715832336416640362,-0.161,,,,10.380160424
1715832336424334730,-0.161,,,,10.387854792
1715832336432029098,-0.156,,,,10.39554916
1715832336439723466,-0.156,,,,10.403243528
1715832336447417834,-0.158,,,,10.410937896
1715832336455112202,-0.163,,,,10.418632264
1715832336462806570,-0.163,,,,10.426326632
1715832336470500938,-0.156,,,,10.434021
1715832336478195306,-0.158,,,,10.441715368
1715832336485889674,-0.17,,,,10.449409736
1715832336493584042,-0.173,,,,10.457104104
1715832336501278410,-0.17,,,,10.464798472
1715832336508972778,-0.17,,,,10.47249284
1715832336516667146,-0.168,,,,10.480187208
1715832336524361514,-0.17,,,,10.487881576
1715832336532055882,-0.175,,,,10.495575944
1715832336539750250,-0.185,,,,10.503270312
1715832336547444618,-0.189,,,,10.51096468
1715832336555138986,-0.187,,,,10.518659048
1715832336562833354,-0.185,,,,10.526353416
1715832336570527722,-0.192,,,,10.534047784
1715832336578222090,-0.202,,,,10.541742152
1715832336585916458,-0.206,,,,10.54943652
1715832336593610826,-0.194,,642.0,,10.557130888
1715832336601305194,-0.192,,,,10.564825256
1715832336608999562,-0.194,,,,10.572519624
1715832336616693930,-0.18,,,,10.580213992
1715832336624388298,-0.177,,,,10.58790836
1715832336632082666,-0.189,,,,10.595602728
1715832336639777034,-0.187,,,,10.603297096
1715832336647471402,-0.168,,,,10.610991464
1715832336655165770,-0.163,,,,10.618685832
1715832336662860138,-0.168,,,,10.6263802
1715832336670554506,-0.161,,,,10.634074568
1715832336678248874,-0.156,,,,10.641768936
1715832336685943242,-0.156,,,,10.649463304
1715832336693637610,-0.153,,,,10.657157672
1715832336701331978,-0.113,,,,10.66485204
1715832336709026360,0.028,92.0,,,10.672546422
1715832336716721146,0.254,,,,10.680241208
1715832336724415932,0.312,,,,10.687935994
1715832336732110718,-0.007,,,,10.69563078
1715832336739805504,-0.341,,,,10.703325566
1715832336747500290,-0.264,,,,10.711020352
1715832336755195076,-0.129,,,,10.718715138
1715832336762889862,-0.202,,,,10.726409924
1715832336770584648,-0.214,,,,10.73410471
1715832336778279434,-0.158,,,,10.741799496
1715832336785974220,-0.17,,,,10.749494282
1715832336793669006,-0.175,,,,10.757189068
1715832336801363792,-0.149,,,,10.764883854
1715832336809058578,-0.149,,,,10.77257864
1715832336816753364,-0.165,,,,10.780273426
1715832336824448150,-0.153,,,,10.787968212
1715832336832142936,-0.134,,,,10.795662998
1715832336839837722,-0.137,,,,10.803357784
1715832336847532508,-0.141,,,,10.81105257
1715832336855227294,-0.132,,,,10.818747356
1715832336862922080,-0.12,,,,10.826442142
1715832336870616866,-0.115,,,,10.834136928
1715832336878311652,-0.113,,,,10.841831714
1715832336886006438,-0.105,,,,10.8495265
1715832336893701224,-0.098,,,,10.857221286
1715832336901396010,-0.105,,,,10.864916072
1715832336909090796,-0.108,,,,10.872610858
1715832336916785582,-0.091,,,,10.880305644
1715832336924480368,-0.086,,,,10.88800043
1715832336932175154,-0.088,,,,10.895695216
1715832336939869940,-0.084,,,,10.903390002
1715832336947564726,-0.079,,,,10.911084788
1715832336955259512,-0.079,,,,10.918779574
1715832336962954298,-0.081,,,,10.92647436
1715832336970649084,-0.081,,,,10.934169146
1715832336978343870,-0.088,,,,10.941863932
1715832336986038656,-0.096,,,,10.949558718
1715832336993733442,-0.096,,,,10.957253504
1715832337001428228,-0.098,,,,10.96494829
1715832337009123014,-0.098,,,,10.972643076
1715832337016817800,-0.096,,,,10.980337862
1715832337024512586,-0.096,,,,10.988032648
1715832337032207372,-0.086,,,,10.995727434
1715832337039902158,-0.081,,,,11.00342222
1715832337047596944,-0.086,,,,11.011117006
1715832337055291730,-0.093,,,,11.018811792
1715832337062986516,-0.093,,,,11.026506578
1715832337070681302,-0.084,,,,11.034201364
1715832337078376088,-0.076,,,,11.04189615
1715832337086070874,-0.074,,,,11.049590936
1715832337093765660,-0.072,,,,11.057285722
1715832337101460446,-0.069,,,,11.064980508
1715832337109155232,-0.064,,,,11.072675294
1715832337116850018,-0.06,,,,11.08037008
1715832337124544804,-0.06,,,,11.088064866
1715832337132239590,-0.055,,,,11.095759652
1715832337139934376,-0.055,,,,11.103454438
1715832337147629162,-0.05,,,,11.111149224
1715832337155323948,-0.038,,,,11.11884401
1715832337163018734,-0.036,,,,11.126538796
1715832337170713520,-0.038,,,,11.134233582
1715832337178408306,-0.04,,,,11.141928368
1715832337186103092,-0.04,,,,11.149623154
1715832337193797878,-0.036,,,,11.15731794
1715832337201492664,-0.031,,,,11.165012726
1715832337209187450,-0.021,,,,11.172707512
1715832337216882236,-0.012,,,,11.180402298
1715832337224577022,-0.016,,,,11.188097084
1715832337232271808,-0.012,,,,11.19579187
1715832337239966594,-0.002,,646.0,,11.203486656
1715832337247661380,-0.002,,,,11.211181442
1715832337255356166,-0.014,,,,11.218876228
1715832337263050952,-0.021,,,,11.226571014
1715832337270745754,-0.014,,,,11.234265816
1715832337278440540,-0.012,,,,11.241960602
1715832337286135326,-0.014,,,,11.249655388
1715832337293830112,-0.012,,,,11.257350174
1715832337301524898,-0.014,,,,11.26504496
1715832337309219684,-0.016,,,,11.272739746
1715832337316914470,-0.002,,,,11.280434532
1715832337324609256,0.076,,,,11.288129318
1715832337332304042,0.281,,,,11.295824104
1715832337339998828,0.461,,,,11.30351889
1715832337347693614,0.293,,,,11.311213676
1715832337355388400,-0.103,,,,11.318908462
1715832337363083186,-0.177,,,,11.326603248
1715832337370777972,-0.007,,,,11.334298034
1715832337378472758,-0.019,,,,11.34199282
1715832337386167544,-0.076,,,,11.349687606
1715832337393862330,-0.016,,,,11.357382392
1715832337401557116,0.004,,,,11.365077178
1715832337409251902,-0.021,,,,11.372771964
1715832337416946688,-0.014,,,,11.38046675
1715832337424641474,0.004,,,,11.388161536
1715832337432336260,0.007,,,,11.395856322
1715832337440031046,0.009,,,,11.403551108
1715832337447725832,0.016,,,,11.411245894
1715832337455420618,0.019,,,,11.41894068
1715832337463115404,0.019,,,,11.426635466
1715832337470810190,0.031,,,,11.434330252
1715832337478504976,0.04,,,,11.442025038
1715832337486199762,0.043,,,,11.449719824
1715832337493894548,0.05,,,,11.45741461
1715832337501589334,0.055,,,,11.465109396
1715832337509284120,0.055,,,,11.472804182
1715832337516978906,0.072,,,,11.480498968
1715832337524673692,0.088,,,,11.488193754
1715832337532368478,0.098,,,,11.49588854
1715832337540063264,0.101,,,,11.503583326
1715832337547758050,0.113,,,,11.511278112
1715832337555452836,0.117,,,,11.518972898
1715832337563147622,0.108,,,,11.526667684
1715832337570842408,0.117,,,,11.53436247
1715832337578537194,0.125,,,,11.542057256
1715832337586231980,0.113,,,,11.549752042
1715832337593926766,0.108,,,,11.557446828
1715832337601621552,0.098,,,,11.565141614
1715832337609316338,0.091,,,,11.5728364
1715832337617011124,0.086,,,,11.580531186
1715832337624705910,0.076,,,,11.588225972
1715832337632400696,0.076,,,,11.595920758
1715832337640095482,0.074,,,,11.603615544
1715832337647790268,0.069,,,,11.61131033
1715832337655485054,0.074,,,,11.619005116
1715832337663179840,0.079,,,,11.626699902
1715832337670874626,0.081,,,,11.634394688
1715832337678569412,0.084,,,,11.642089474
1715832337686264198,0.081,,,,11.64978426
1715832337693958984,0.084,,,,11.657479046
1715832337701653770,0.088,,,,11.665173832
1715832337709348556,0.096,,,,11.672868618
1715832337717043342,0.098,,,,11.680563404
1715832337724738128,0.101,,,,11.68825819
1715832337732432914,0.105,,,,11.695952976
1715832337740127700,0.11,,,,11.703647762
1715832337747822486,0.125,,,,11.711342548
1715832337755517272,0.141,,,,11.719037334
1715832337763212058,0.161,,,,11.72673212
1715832337770906844,0.182,,,,11.734426906
1715832337778601630,0.194,,,,11.742121692
1715832337786296416,0.202,,,,11.749816478
1715832337793991202,0.216,,,,11.757511264
1715832337801685988,0.216,,,,11.76520605
1715832337809380774,0.209,,,,11.772900836
1715832337817075560,0.211,,,,11.780595622
1715832337824770346,0.214,,,,11.788290408
1715832337832465148,0.216,93.0,,,11.79598521
1715832337840159934,0.221,,,,11.803679996
1715832337847854720,0.228,,,,11.811374782
1715832337855549506,0.223,,,,11.819069568
1715832337863244292,0.211,,,,11.826764354
1715832337870939078,0.216,,627.0,,11.83445914
1715832337878633864,0.209,,,,11.842153926
1715832337886328650,0.187,,,,11.849848712
1715832337894023436,0.182,,,,11.857543498
1715832337901718222,0.185,,,,11.865238284
1715832337909413008,0.192,,,,11.87293307
1715832337917107794,0.202,,,,11.880627856
1715832337924802580,0.192,,,,11.888322642
1715832337932497366,0.187,,,,11.896017428
1715832337940192152,0.192,,,,11.903712214
1715832337947886938,0.202,,,,11.911407
1715832337955581724,0.269,,,,11.919101786
1715832337963276510,0.432,,,,11.926796572
1715832337970971296,0.62,,,,11.934491358
1715832337978666082,0.557,,,,11.942186144
1715832337986360868,0.187,,,,11.94988093
1715832337994055654,0.007,,,,11.957575716
1715832338001750440,0.151,,,,11.965270502
1715832338009445226,0.197,,,,11.972965288
1715832338017140012,0.129,,,,11.980660074
1715832338024834798,0.17,,,,11.98835486
1715832338032529584,0.226,,,,11.996049646
1715832338040224370,0.216,,,,12.003744432
1715832338047919156,0.216,,,,12.011439218
1715832338055613942,0.228,,,,12.019134004
1715832338063308728,0.214,,,,12.02682879
1715832338071003514,0.206,,,,12.034523576
1715832338078698300,0.214,,,,12.042218362
1715832338086393086,0.216,,,,12.049913148
1715832338094087872,0.218,,,,12.057607934
1715832338101782658,0.214,,,,12.06530272
1715832338109477444,0.214,,,,12.072997506
1715832338117172230,0.221,,,,12.080692292
1715832338124867016,0.221,,,,12.088387078
1715832338132561802,0.226,,,,12.096081864
1715832338140256588,0.226,,,,12.10377665
1715832338147951374,0.226,,,,12.111471436
1715832338155646160,0.233,,,,12.119166222
1715832338163340946,0.233,,,,12.126861008
1715832338171035732,0.23,,,,12.134555794
1715832338178730518,0.23,,,,12.14225058
1715832338186425304,0.23,,,,12.149945366
1715832338194120090,0.238,,,,12.157640152
1715832338201814876,0.24,,,,12.165334938
1715832338209509662,0.245,,,,12.173029724
1715832338217204448,0.24,,,,12.18072451
1715832338224899234,0.23,,,,12.188419296
1715832338232594020,0.23,,,,12.196114082
1715832338240288806,0.23,,,,12.203808868
1715832338247983592,0.211,,,,12.211503654
1715832338255678378,0.187,,,,12.21919844
1715832338263373164,0.173,,,,12.226893226
1715832338271067950,0.187,,,,12.234588012
1715832338278762736,0.214,,,,12.242282798
1715832338286457522,0.228,,,,12.249977584
1715832338294152308,0.233,,,,12.25767237
1715832338301847094,0.238,,,,12.265367156
1715832338309541880,0.252,,,,12.273061942
1715832338317236666,0.262,,,,12.280756728
1715832338324931452,0.266,,,,12.288451514
1715832338332626238,0.276,,,,12.2961463
1715832338340321024,0.271,,,,12.303841086
1715832338348015810,0.266,,,,12.311535872
1715832338355710596,0.281,,,,12.319230658
1715832338363405382,0.29,,,,12.326925444
1715832338371100168,0.288,,,,12.33462023
1715832338378794954,0.283,,,,12.342315016
1715832338386489740,0.286,,,,12.350009802
1715832338394184542,0.293,,,,12.357704604
1715832338401878979,0.293,,,,12.365399041
1715832338409573416,0.293,,,,12.373093478
1715832338417267853,0.288,,,,12.380787915
1715832338424962290,0.283,,,,12.388482352
1715832338432656727,0.286,,,,12.396176789
1715832338440351164,0.283,,,,12.403871226
1715832338448045601,0.283,,,,12.411565663
1715832338455740038,0.283,,,,12.4192601
1715832338463434475,0.264,,,,12.426954537
1715832338471128912,0.257,,,,12.434648974
1715832338478823349,0.259,,,,12.442343411
1715832338486517786,0.254,,,,12.450037848
1715832338494212223,0.252,,624.0,,12.457732285
1715832338501906660,0.252,,,,12.465426722
1715832338509601097,0.259,,,,12.473121159
1715832338517295534,0.264,,,,12.480815596
1715832338524989971,0.257,,,,12.488510033
1715832338532684408,0.254,,,,12.49620447
1715832338540378845,0.24,,,,12.503898907
1715832338548073282,0.226,,,,12.511593344
1715832338555767719,0.226,,,,12.519287781
1715832338563462156,0.214,,,,12.526982218
1715832338571156593,0.197,,,,12.534676655
1715832338578851030,0.192,,,,12.542371092
1715832338586545467,0.194,,,,12.550065529
1715832338594239904,0.192,,,,12.557759966
1715832338601934341,0.182,,,,12.565454403
1715832338609628778,0.185,,,,12.57314884
1715832338617323215,0.245,,,,12.580843277
1715832338625017652,0.399,,,,12.588537714
1715832338632712089,0.5650000000000001,,,,12.596232151
1715832338640406526,0.454,,,,12.603926588
1715832338648100963,0.086,,,,12.611621025
1715832338655795400,-0.045,,,,12.619315462
1715832338663489837,0.093,,,,12.627009899
1715832338671184274,0.113,,,,12.634704336
1715832338678878711,0.05,,,,12.642398773
1715832338686573148,0.081,,,,12.65009321
1715832338694267585,0.11,,,,12.657787647
1715832338701962022,0.086,,,,12.665482084
1715832338709656459,0.091,,,,12.673176521
1715832338717350896,0.113,,,,12.680870958
1715832338725045333,0.108,,,,12.688565395
1715832338732739770,0.11,,,,12.696259832
1715832338740434207,0.12,,,,12.703954269
1715832338748128644,0.122,,,,12.711648706
1715832338755823081,0.122,,,,12.719343143
1715832338763517518,0.12,,,,12.72703758
1715832338771211955,0.12,,,,12.734732017
1715832338778906392,0.12,,,,12.742426454
1715832338786600829,0.117,,,,12.750120891
1715832338794295266,0.117,,,,12.757815328
1715832338801989703,0.115,,,,12.765509765
1715832338809684140,0.113,,,,12.773204202
1715832338817378577,0.11,,,,12.780898639
1715832338825073014,0.103,,,,12.788593076
1715832338832767451,0.103,,,,12.796287513
1715832338840461888,0.101,,,,12.80398195
1715832338848156325,0.091,,,,12.811676387
1715832338855850762,0.084,,,,12.819370824
1715832338863545199,0.081,,,,12.827065261
1715832338871239636,0.079,,,,12.834759698
1715832338878934073,0.072,,,,12.842454135
1715832338886628510,0.06,,,,12.850148572
1715832338894322947,0.05,,,,12.857843009
1715832338902017384,0.036,,,,12.865537446
1715832338909711821,0.028,,,,12.873231883
1715832338917406258,0.026,,,,12.88092632
1715832338925100695,0.019,,,,12.888620757
1715832338932795132,0.012,,,,12.896315194
1715832338940489569,0.002,,,,12.904009631
1715832338948184006,0.0,,,,12.911704068
1715832338955878506,0.004,94.0,,,12.919398568
1715832338963573222,0.0,,,,12.927093284
1715832338971267938,-0.007,,,,12.934788
1715832338978962654,-0.012,,,,12.942482716
1715832338986657370,-0.009,,,,12.950177432
1715832338994352086,-0.007,,,,12.957872148
1715832339002046802,-0.024,,,,12.965566864
1715832339009741518,-0.031,,,,12.97326158
1715832339017436234,-0.021,,,,12.980956296
1715832339025130950,-0.028,,,,12.988651012
1715832339032825666,-0.043,,,,12.996345728
1715832339040520382,-0.048,,,,13.004040444
1715832339048215098,-0.048,,,,13.01173516
1715832339055909814,-0.057,,,,13.019429876
1715832339063604530,-0.076,,,,13.027124592
1715832339071299246,-0.088,,,,13.034819308
1715832339078993962,-0.086,,,,13.042514024
1715832339086688678,-0.086,,,,13.05020874
1715832339094383394,-0.096,,,,13.057903456
1715832339102078110,-0.103,,,,13.065598172
1715832339109772826,-0.103,,,,13.073292888
1715832339117467542,-0.11,,624.0,,13.080987604
1715832339125162258,-0.132,,,,13.08868232
1715832339132856974,-0.141,,,,13.096377036
1715832339140551690,-0.146,,,,13.104071752
1715832339148246406,-0.153,,,,13.111766468
1715832339155941122,-0.156,,,,13.119461184
1715832339163635838,-0.163,,,,13.1271559
1715832339171330554,-0.168,,,,13.134850616
1715832339179025270,-0.175,,,,13.142545332
1715832339186719986,-0.189,,,,13.150240048
1715832339194414702,-0.199,,,,13.157934764
1715832339202109418,-0.209,,,,13.16562948
1715832339209804134,-0.214,,,,13.173324196
1715832339217498850,-0.214,,,,13.181018912
1715832339225193566,-0.221,,,,13.188713628
1715832339232888282,-0.226,,,,13.196408344
1715832339240582998,-0.233,,,,13.20410306
1715832339248277714,-0.25,,,,13.211797776
1715832339255972430,-0.242,,,,13.219492492
1715832339263667146,-0.161,,,,13.227187208
1715832339271361862,0.028,,,,13.234881924
1715832339279056578,0.189,,,,13.24257664
1715832339286751294,0.036,,,,13.250271356
1715832339294446010,-0.348,,,,13.257966072
1715832339302140726,-0.456,,,,13.265660788
1715832339309835442,-0.293,,,,13.273355504
1715832339317530158,-0.283,,,,13.28105022
1715832339325224874,-0.353,,,,13.288744936
1715832339332919590,-0.307,,,,13.296439652
1715832339340614306,-0.281,,,,13.304134368
1715832339348309022,-0.298,,,,13.311829084
1715832339356003738,-0.281,,,,13.3195238
1715832339363698454,-0.262,,,,13.327218516
1715832339371393170,-0.262,,,,13.334913232
1715832339379087886,-0.259,,,,13.342607948
1715832339386782602,-0.247,,,,13.350302664
1715832339394477318,-0.24,,,,13.35799738
1715832339402172034,-0.24,,,,13.365692096
1715832339409866750,-0.23,,,,13.373386812
1715832339417561466,-0.226,,,,13.381081528
1715832339425256182,-0.223,,,,13.388776244
1715832339432950898,-0.211,,,,13.39647096
1715832339440645614,-0.209,,,,13.404165676
1715832339448340330,-0.214,,,,13.411860392
1715832339456035046,-0.211,,,,13.419555108
1715832339463729762,-0.206,,,,13.427249824
1715832339471424478,-0.197,,,,13.43494454
1715832339479119194,-0.187,,,,13.442639256
1715832339486813910,-0.187,,,,13.450333972
1715832339494508626,-0.187,,,,13.458028688
1715832339502203342,-0.187,,,,13.465723404
1715832339509898058,-0.185,,,,13.47341812
1715832339517592812,-0.182,,,,13.481112874
1715832339525287598,-0.185,,,,13.48880766
1715832339532982384,-0.194,,,,13.496502446
1715832339540677170,-0.211,,,,13.504197232
1715832339548371956,-0.216,,,,13.511892018
1715832339556066742,-0.206,,,,13.519586804
1715832339563761528,-0.204,,,,13.52728159
1715832339571456314,-0.214,,,,13.534976376
1715832339579151100,-0.223,,,,13.542671162
1715832339586845886,-0.209,,,,13.550365948
1715832339594540672,-0.194,,,,13.558060734
1715832339602235458,-0.204,,,,13.56575552
1715832339609930244,-0.202,,,,13.573450306
1715832339617625030,-0.185,,,,13.581145092
1715832339625319816,-0.182,,,,13.588839878
1715832339633014602,-0.185,,,,13.596534664
1715832339640709388,-0.173,,,,13.60422945
1715832339648404174,-0.161,,,,13.611924236
1715832339656098960,-0.158,,,,13.619619022
1715832339663793746,-0.158,,,,13.627313808
1715832339671488532,-0.149,,,,13.635008594
1715832339679183318,-0.141,,,,13.64270338
1715832339686878104,-0.144,,,,13.650398166
1715832339694572890,-0.137,,,,13.658092952
1715832339702267676,-0.132,,,,13.665787738
1715832339709962462,-0.125,,,,13.673482524
1715832339717657248,-0.125,,,,13.68117731
1715832339725352034,-0.129,,,,13.688872096
1715832339733046820,-0.127,,614.0,,13.696566882
1715832339740741606,-0.127,,,,13.704261668
1715832339748436392,-0.127,,,,13.711956454
1715832339756131178,-0.127,,,,13.71965124
1715832339763825964,-0.134,,,,13.727346026
1715832339771520750,-0.137,,,,13.735040812
1715832339779215536,-0.132,,,,13.742735598
1715832339786910322,-0.125,,,,13.750430384
1715832339794605108,-0.11,,,,13.75812517
1715832339802299894,-0.105,,,,13.765819956
1715832339809994680,-0.117,,,,13.773514742
1715832339817689466,-0.129,,,,13.781209528
1715832339825384252,-0.12,,,,13.788904314
1715832339833079038,-0.103,,,,13.7965991
1715832339840773824,-0.103,,,,13.804293886
1715832339848468610,-0.101,,,,13.811988672
1715832339856163396,-0.096,,,,13.819683458
1715832339863858182,-0.101,,,,13.827378244
1715832339871552968,-0.096,,,,13.83507303
1715832339879247754,-0.079,,,,13.842767816
1715832339886942540,-0.012,,,,13.850462602
1715832339894637326,0.163,,,,13.858157388
1715832339902332112,0.36,,,,13.865852174
1715832339910026898,0.293,,,,13.87354696
1715832339917721684,-0.091,,,,13.881241746
1715832339925416470,-0.295,,,,13.888936532
1715832339933111256,-0.146,,,,13.896631318
1715832339940806042,-0.093,,,,13.904326104
1715832339948500828,-0.165,,,,13.91202089
1715832339956195614,-0.139,,,,13.919715676
1715832339963890400,-0.105,,,,13.927410462
1715832339971585186,-0.122,,,,13.935105248
1715832339979279972,-0.115,,,,13.942800034
1715832339986974758,-0.098,,,,13.95049482
1715832339994669544,-0.101,,,,13.958189606
1715832340002364330,-0.101,,,,13.965884392
1715832340010059116,-0.088,,,,13.973579178
1715832340017753902,-0.088,,,,13.981273964
1715832340025448688,-0.096,,,,13.98896875
1715832340033143474,-0.081,,,,13.996663536
1715832340040838260,-0.072,,,,14.004358322
1715832340048533046,-0.069,,,,14.012053108
1715832340056227832,-0.062,,,,14.019747894
1715832340063922618,-0.057,,,,14.02744268
1715832340071617404,-0.055,,,,14.035137466
1715832340079312208,-0.057,95.0,,,14.04283227
1715832340087006994,-0.055,,,,14.050527056
1715832340094701780,-0.043,,,,14.058221842
1715832340102396566,-0.038,,,,14.065916628
1715832340110091352,-0.033,,,,14.073611414
1715832340117786138,-0.026,,,,14.0813062
1715832340125480924,-0.026,,,,14.089000986
1715832340133175710,-0.026,,,,14.096695772
1715832340140870496,-0.036,,,,14.104390558
1715832340148565282,-0.043,,,,14.112085344
1715832340156260068,-0.038,,,,14.11978013
1715832340163954854,-0.04,,,,14.127474916
1715832340171649640,-0.05,,,,14.135169702
1715832340179344426,-0.062,,,,14.142864488
1715832340187039212,-0.064,,,,14.150559274
1715832340194733998,-0.055,,,,14.15825406
1715832340202428784,-0.057,,,,14.165948846
1715832340210123570,-0.057,,,,14.173643632
1715832340217818356,-0.052,,,,14.181338418
1715832340225513142,-0.052,,,,14.189033204
1715832340233207928,-0.048,,,,14.19672799
1715832340240902714,-0.04,,,,14.204422776
1715832340248597500,-0.036,,,,14.212117562
1715832340256292286,-0.031,,,,14.219812348
1715832340263987072,-0.036,,,,14.227507134
1715832340271681858,-0.038,,,,14.23520192
1715832340279376644,-0.033,,,,14.242896706
1715832340287071430,-0.028,,,,14.250591492
1715832340294766216,-0.031,,,,14.258286278
1715832340302461002,-0.033,,,,14.265981064
1715832340310155788,-0.026,,,,14.27367585
1715832340317850574,-0.024,,,,14.281370636
1715832340325545360,-0.033,,,,14.289065422
1715832340333240146,-0.031,,,,14.296760208
1715832340340934932,-0.031,,,,14.304454994
1715832340348629718,-0.031,,618.0,,14.31214978
1715832340356324504,-0.026,,,,14.319844566
1715832340364019290,-0.033,,,,14.327539352
1715832340371714076,-0.033,,,,14.335234138
1715832340379408862,-0.033,,,,14.342928924
1715832340387103648,-0.036,,,,14.35062371
1715832340394798434,-0.031,,,,14.358318496
1715832340402493220,-0.026,,,,14.366013282
1715832340410188006,-0.024,,,,14.373708068
1715832340417882792,-0.024,,,,14.381402854
1715832340425577578,-0.016,,,,14.38909764
1715832340433272364,-0.009,,,,14.396792426
1715832340440967150,-0.024,,,,14.404487212
1715832340448661936,-0.036,,,,14.412181998
1715832340456356722,-0.026,,,,14.419876784
1715832340464051508,-0.024,,,,14.42757157
1715832340471746294,-0.021,,,,14.435266356
1715832340479441080,-0.021,,,,14.442961142
1715832340487135866,-0.021,,,,14.450655928
1715832340494830652,-0.021,,,,14.458350714
1715832340502525438,-0.031,,,,14.4660455
1715832340510220224,-0.021,,,,14.473740286
1715832340517915010,0.067,,,,14.481435072
1715832340525609796,0.262,,,,14.489129858
1715832340533304582,0.43,,,,14.496824644
1715832340540999368,0.269,,,,14.50451943
1715832340548694154,-0.125,,,,14.512214216
1715832340556388940,-0.216,,,,14.519909002
1715832340564083726,-0.05,,,,14.527603788
1715832340571778512,-0.06,,,,14.535298574
1715832340579473298,-0.134,,,,14.54299336
1715832340587168084,-0.084,,,,14.550688146
1715832340594862870,-0.052,,,,14.558382932
1715832340602557656,-0.076,,,,14.566077718
1715832340610252442,-0.062,,,,14.573772504
1715832340617947228,-0.045,,,,14.58146729
1715832340625642014,-0.057,,,,14.589162076
1715832340633336800,-0.05,,,,14.596856862
1715832340641031602,-0.04,94.0,,,14.604551664
1715832340648726179,-0.043,,,,14.612246241
1715832340656420756,-0.045,,,,14.619940818
1715832340664115333,-0.038,,,,14.627635395
1715832340671809910,-0.026,,,,14.635329972
1715832340679504487,-0.021,,,,14.643024549
1715832340687199064,-0.024,,,,14.650719126
1715832340694893641,-0.016,,,,14.658413703
1715832340702588218,-0.009,,,,14.66610828
1715832340710282795,-0.007,,,,14.673802857
1715832340717977372,-0.007,,,,14.681497434
1715832340725671949,-0.004,,,,14.689192011
1715832340733366526,0.002,,,,14.696886588
1715832340741061103,-0.002,,,,14.704581165
1715832340748755680,-0.002,,,,14.712275742
1715832340756450257,0.007,,,,14.719970319
1715832340764144834,0.0,,,,14.727664896
1715832340771839411,-0.007,,,,14.735359473
1715832340779533988,-0.016,,,,14.74305405
1715832340787228565,-0.026,,,,14.750748627
1715832340794923142,-0.026,,,,14.758443204
1715832340802617719,-0.036,,,,14.766137781
1715832340810312296,-0.045,,,,14.773832358
1715832340818006873,-0.048,,,,14.781526935
1715832340825701450,-0.05,,,,14.789221512
1715832340833396027,-0.048,,,,14.796916089
1715832340841090604,-0.04,,,,14.804610666
1715832340848785181,-0.038,,,,14.812305243
1715832340856479758,-0.038,,,,14.81999982
1715832340864174335,-0.036,,,,14.827694397
1715832340871868912,-0.026,,,,14.835388974
1715832340879563489,-0.026,,,,14.843083551
1715832340887258066,-0.028,,,,14.850778128
1715832340894952643,-0.019,,,,14.858472705
1715832340902647220,-0.016,,,,14.866167282
1715832340910341797,-0.009,,,,14.873861859
1715832340918036374,-0.007,,,,14.881556436
1715832340925730951,-0.012,,,,14.889251013
1715832340933425528,-0.004,,,,14.89694559
1715832340941120105,0.0,,,,14.904640167
1715832340948814682,0.0,,,,14.912334744
1715832340956509259,0.0,,,,14.920029321
1715832340964203836,0.002,,,,14.927723898
1715832340971898413,0.007,,,,14.935418475
1715832340979592990,0.004,,633.0,,14.943113052
1715832340987287567,0.004,,,,14.950807629
1715832340994982144,0.016,,,,14.958502206
1715832341002676721,0.014,,,,14.966196783
1715832341010371298,0.004,,,,14.97389136
1715832341018065875,0.002,,,,14.981585937
1715832341025760452,0.009,,,,14.989280514
1715832341033455029,0.019,,,,14.996975091
1715832341041149606,0.019,,,,15.004669668
1715832341048844183,0.026,,,,15.012364245
1715832341056538760,0.033,,,,15.020058822
1715832341064233337,0.033,,,,15.027753399
1715832341071927914,0.038,,,,15.035447976
1715832341079622491,0.033,,,,15.043142553
1715832341087317068,0.024,,,,15.05083713
1715832341095011645,0.033,,,,15.058531707
1715832341102706222,0.04,,,,15.066226284
1715832341110400799,0.04,,,,15.073920861
1715832341118095376,0.048,,,,15.081615438
1715832341125789953,0.052,,,,15.089310015
1715832341133484530,0.048,,,,15.097004592
1715832341141179107,0.045,,,,15.104699169
1715832341148873684,0.067,,,,15.112393746
1715832341156568261,0.151,,,,15.120088323
1715832341164262838,0.331,,,,15.1277829
1715832341171957415,0.49,,,,15.135477477
1715832341179651992,0.334,,,,15.143172054
1715832341187346569,-0.043,,,,15.150866631
1715832341195041146,-0.12,,,,15.158561208
1715832341202735738,0.036,,,,15.1662558
1715832341210430315,0.036,,,,15.173950377
1715832341218124892,-0.021,,,,15.181644954
1715832341225819469,0.016,,,,15.189339531
1715832341233514046,0.036,,,,15.197034108
1715832341241208623,0.014,,,,15.204728685
1715832341248903200,0.019,,,,15.212423262
1715832341256597777,0.028,,,,15.220117839
1715832341264292354,0.028,,,,15.227812416
1715832341271986931,0.036,,,,15.235506993
1715832341279681508,0.031,,,,15.24320157
1715832341287376085,0.016,,,,15.250896147
1715832341295070662,0.024,,,,15.258590724
1715832341302765239,0.038,,,,15.266285301
1715832341310459816,0.048,,,,15.273979878
1715832341318154393,0.055,,,,15.281674455
1715832341325848970,0.06,,,,15.289369032
1715832341333543547,0.072,,,,15.297063609
1715832341341238124,0.076,,,,15.304758186
1715832341348932701,0.081,,,,15.312452763
1715832341356627278,0.091,,,,15.32014734
1715832341364321855,0.093,,,,15.327841917
1715832341372016432,0.096,,,,15.335536494
1715832341379711009,0.093,,,,15.343231071
1715832341387405586,0.096,,,,15.350925648
1715832341395100163,0.105,,,,15.358620225
1715832341402794740,0.103,,,,15.366314802
1715832341410489317,0.103,,,,15.374009379
1715832341418183894,0.103,,,,15.381703956
1715832341425878471,0.096,,,,15.389398533
1715832341433573048,0.086,,,,15.39709311
1715832341441267625,0.079,,,,15.404787687
1715832341448962202,0.074,,,,15.412482264
1715832341456656779,0.067,,,,15.420176841
1715832341464351356,0.057,,,,15.427871418
1715832341472045933,0.06,,,,15.435565995
1715832341479740510,0.06,,,,15.443260572
1715832341487435087,0.057,,,,15.450955149
1715832341495129664,0.06,,,,15.458649726
1715832341502824241,0.052,,,,15.466344303
1715832341510518818,0.052,,,,15.47403888
1715832341518213395,0.055,,,,15.481733457
1715832341525907972,0.048,,,,15.489428034
1715832341533602549,0.052,,,,15.497122611
1715832341541297126,0.057,,,,15.504817188
1715832341548991703,0.055,,,,15.512511765
1715832341556686280,0.06,,,,15.520206342
1715832341564380857,0.062,,,,15.527900919
1715832341572075434,0.062,,,,15.535595496
1715832341579770011,0.057,,,,15.543290073
1715832341587464588,0.052,,,,15.55098465
1715832341595159165,0.057,,,,15.558679227
1715832341602853742,0.062,,,,15.566373804
1715832341610548319,0.062,,,,15.574068381
1715832341618242896,0.055,,,,15.581762958
1715832341625937473,0.057,,,,15.589457535
1715832341633632050,0.067,,,,15.597152112
1715832341641326627,0.062,,661.0,,15.604846689
1715832341649021204,0.055,,,,15.612541266
1715832341656715781,0.052,,,,15.620235843
1715832341664410358,0.048,,,,15.62793042
1715832341672104935,0.05,,,,15.635624997
1715832341679799512,0.052,,,,15.643319574
1715832341687494089,0.052,,,,15.651014151
1715832341695188666,0.057,,,,15.658708728
1715832341702883243,0.06,,,,15.666403305
1715832341710577820,0.062,,,,15.674097882
1715832341718272397,0.06,,,,15.681792459
1715832341725966974,0.052,,,,15.689487036
1715832341733661551,0.052,,,,15.697181613
1715832341741356128,0.05,,,,15.70487619
1715832341749050705,0.045,,,,15.712570767
1715832341756745282,0.052,,,,15.720265344
1715832341764439872,0.055,94.0,,,15.727959934
1715832341772134658,0.055,,,,15.73565472
1715832341779829444,0.048,,,,15.743349506
1715832341787524230,0.055,,,,15.751044292
1715832341795219016,0.115,,,,15.758739078
1715832341802913802,0.271,,,,15.766433864
1715832341810608588,0.464,,,,15.77412865
1715832341818303374,0.418,,,,15.781823436
1715832341825998160,0.055,,,,15.789518222
1715832341833692946,-0.139,,,,15.797213008
1715832341841387732,-0.002,,,,15.804907794
1715832341849082518,0.048,,,,15.81260258
1715832341856777304,-0.024,,,,15.820297366
1715832341864472090,0.0,,,,15.827992152
1715832341872166876,0.045,,,,15.835686938
1715832341879861662,0.026,,,,15.843381724
1715832341887556448,0.021,,,,15.85107651
1715832341895251234,0.043,,,,15.858771296
1715832341902946020,0.04,,,,15.866466082
1715832341910640806,0.04,,,,15.874160868
1715832341918335592,0.05,,,,15.881855654
1715832341926030378,0.052,,,,15.88955044
1715832341933725164,0.057,,,,15.897245226
1715832341941419950,0.057,,,,15.904940012
1715832341949114736,0.06,,,,15.912634798
1715832341956809522,0.069,,,,15.920329584
1715832341964504308,0.072,,,,15.92802437
1715832341972199094,0.072,,,,15.935719156
1715832341979893880,0.072,,,,15.943413942
1715832341987588666,0.074,,,,15.951108728
1715832341995283452,0.079,,,,15.958803514
1715832342002978238,0.079,,,,15.9664983
1715832342010673024,0.081,,,,15.974193086
1715832342018367810,0.086,,,,15.981887872
1715832342026062596,0.086,,,,15.989582658
1715832342033757382,0.088,,,,15.997277444
1715832342041452168,0.088,,,,16.00497223
1715832342049146954,0.091,,,,16.012667016
1715832342056841740,0.091,,,,16.020361802
1715832342064536526,0.084,,,,16.028056588
1715832342072231312,0.079,,,,16.035751374
1715832342079926098,0.074,,,,16.04344616
1715832342087620884,0.057,,,,16.051140946
1715832342095315670,0.045,,,,16.058835732
1715832342103010456,0.043,,,,16.066530518
1715832342110705242,0.05,,,,16.074225304
1715832342118400028,0.05,,,,16.08192009
1715832342126094814,0.045,,,,16.089614876
1715832342133789600,0.052,,,,16.097309662
1715832342141484386,0.052,,,,16.105004448
1715832342149179172,0.05,,,,16.112699234
1715832342156873958,0.052,,,,16.12039402
1715832342164568744,0.05,,,,16.128088806
1715832342172263530,0.05,,,,16.135783592
1715832342179958316,0.048,,,,16.143478378
1715832342187653102,0.048,,,,16.151173164
1715832342195347888,0.05,,,,16.15886795
1715832342203042674,0.05,,,,16.166562736
1715832342210737460,0.048,,,,16.174257522
1715832342218432246,0.043,,,,16.181952308
1715832342226127032,0.045,,,,16.189647094
1715832342233821818,0.045,,,,16.19734188
1715832342241516604,0.033,,,,16.205036666
1715832342249211390,0.033,,,,16.212731452
1715832342256906176,0.036,,,,16.220426238
1715832342264600962,0.028,,,,16.228121024
1715832342272295748,0.028,,,,16.23581581
1715832342279990534,0.026,,,,16.243510596
1715832342287685320,0.021,,646.0,,16.251205382
1715832342295380106,0.021,,,,16.258900168
1715832342303074892,0.009,,,,16.266594954
1715832342310769678,0.0,,,,16.27428974
1715832342318464464,0.004,,,,16.281984526
1715832342326159266,0.009,,,,16.289679328
1715832342333854052,0.012,,,,16.297374114
1715832342341548838,0.012,,,,16.3050689
1715832342349243624,0.012,,,,16.312763686
1715832342356938410,0.0,,,,16.320458472
1715832342364633196,-0.019,,,,16.328153258
1715832342372327982,-0.016,,,,16.335848044
1715832342380022768,-0.009,,,,16.34354283
1715832342387717554,-0.012,,,,16.351237616
1715832342395412340,-0.016,,,,16.358932402
1715832342403107126,-0.024,,,,16.366627188
1715832342410801912,-0.028,,,,16.374321974
1715832342418496698,-0.033,,,,16.38201676
1715832342426191484,-0.026,,,,16.389711546
1715832342433886270,0.052,,,,16.397406332
1715832342441581056,0.223,,,,16.405101118
1715832342449275842,0.399,,,,16.412795904
1715832342456970628,0.305,,,,16.42049069
1715832342464665414,-0.069,,,,16.428185476
1715832342472360200,-0.221,,,,16.435880262
1715832342480054986,-0.076,,,,16.443575048
1715832342487749772,-0.055,,,,16.451269834
1715832342495444558,-0.12,,,,16.45896462
1715832342503139344,-0.084,,,,16.466659406
1715832342510834130,-0.052,,,,16.474354192
1715832342518528916,-0.072,,,,16.482048978
1715832342526223702,-0.069,,,,16.489743764
1715832342533918488,-0.055,,,,16.49743855
1715832342541613274,-0.067,,,,16.505133336
1715832342549308060,-0.06,,,,16.512828122
1715832342557002846,-0.04,,,,16.520522908
1715832342564697632,-0.05,,,,16.528217694
1715832342572392418,-0.057,,,,16.53591248
1715832342580087204,-0.055,,,,16.543607266
1715832342587781990,-0.057,,,,16.551302052
1715832342595476776,-0.06,,,,16.558996838
1715832342603171562,-0.057,,,,16.566691624
1715832342610866348,-0.052,,,,16.57438641
1715832342618561134,-0.048,,,,16.582081196
1715832342626255920,-0.048,,,,16.589775982
1715832342633950706,-0.048,,,,16.597470768
1715832342641645492,-0.05,,,,16.605165554
1715832342649340278,-0.04,,,,16.61286034
1715832342657035064,-0.038,,,,16.620555126
1715832342664729850,-0.048,,,,16.628249912
1715832342672424636,-0.045,,,,16.635944698
1715832342680119422,-0.04,,,,16.643639484
1715832342687814208,-0.045,,,,16.65133427
1715832342695508994,-0.052,,,,16.659029056
1715832342703203780,-0.057,,,,16.666723842
1715832342710898566,-0.062,,,,16.674418628
1715832342718593352,-0.074,,,,16.682113414
1715832342726288138,-0.091,,,,16.6898082
1715832342733982924,-0.096,,,,16.697502986
1715832342741677710,-0.103,,,,16.705197772
1715832342749372496,-0.108,,,,16.712892558
1715832342757067282,-0.105,,,,16.720587344
1715832342764762068,-0.105,,,,16.72828213
1715832342772456854,-0.105,,,,16.735976916
1715832342780151640,-0.113,,,,16.743671702
1715832342787846426,-0.115,,,,16.751366488
1715832342795541212,-0.11,,,,16.759061274
1715832342803235998,-0.117,,,,16.76675606
1715832342810930784,-0.12,,,,16.774450846
1715832342818625570,-0.122,,,,16.782145632
1715832342826320356,-0.127,,,,16.789840418
1715832342834015142,-0.127,,,,16.797535204
1715832342841709928,-0.132,,,,16.80522999
1715832342849404714,-0.132,,,,16.812924776
1715832342857099500,-0.132,,,,16.820619562
1715832342864794286,-0.137,,,,16.828314348
1715832342872489072,-0.141,,,,16.836009134
1715832342880183858,-0.141,,,,16.84370392
1715832342887878660,-0.139,94.0,,,16.851398722
1715832342895573028,-0.144,,,,16.85909309
1715832342903267396,-0.158,,,,16.866787458
1715832342910961764,-0.158,,625.0,,16.874481826
1715832342918656132,-0.158,,,,16.882176194
1715832342926350500,-0.17,,,,16.889870562
1715832342934044868,-0.185,,,,16.89756493
1715832342941739236,-0.189,,,,16.905259298
1715832342949433604,-0.18,,,,16.912953666
1715832342957127972,-0.17,,,,16.920648034
1715832342964822340,-0.175,,,,16.928342402
1715832342972516708,-0.177,,,,16.93603677
1715832342980211076,-0.185,,,,16.943731138
1715832342987905444,-0.192,,,,16.951425506
1715832342995599812,-0.189,,,,16.959119874
1715832343003294180,-0.189,,,,16.966814242
1715832343010988548,-0.192,,,,16.97450861
1715832343018682916,-0.202,,,,16.982202978
1715832343026377284,-0.209,,,,16.989897346
1715832343034071652,-0.204,,,,16.997591714
1715832343041766020,-0.206,,,,17.005286082
1715832343049460388,-0.204,,,,17.01298045
1715832343057154756,-0.149,,,,17.020674818
1715832343064849124,0.021,,,,17.028369186
1715832343072543492,0.242,,,,17.036063554
1715832343080237860,0.206,,,,17.043757922
1715832343087932228,-0.199,,,,17.05145229
1715832343095626596,-0.456,,,,17.059146658
1715832343103320964,-0.315,,,,17.066841026
1715832343111015332,-0.228,,,,17.074535394
1715832343118709700,-0.315,,,,17.082229762
1715832343126404068,-0.303,,,,17.08992413
1715832343134098436,-0.254,,,,17.097618498
1715832343141792804,-0.278,,,,17.105312866
1715832343149487172,-0.283,,,,17.113007234
1715832343157181540,-0.264,,,,17.120701602
1715832343164875908,-0.269,,,,17.12839597
1715832343172570276,-0.271,,,,17.136090338
1715832343180264644,-0.271,,,,17.143784706
1715832343187959012,-0.276,,,,17.151479074
1715832343195653380,-0.266,,,,17.159173442
1715832343203347748,-0.259,,,,17.16686781
1715832343211042116,-0.259,,,,17.174562178
1715832343218736484,-0.264,,,,17.182256546
1715832343226430852,-0.276,,,,17.189950914
1715832343234125220,-0.278,,,,17.197645282
1715832343241819588,-0.274,,,,17.20533965
1715832343249513956,-0.266,,,,17.213034018
1715832343257208324,-0.274,,,,17.220728386
1715832343264902692,-0.276,,,,17.228422754
1715832343272597060,-0.269,,,,17.236117122
1715832343280291428,-0.271,,,,17.24381149
1715832343287985796,-0.274,,,,17.251505858
1715832343295680164,-0.278,,,,17.259200226
1715832343303374532,-0.288,,,,17.266894594
1715832343311068900,-0.283,,,,17.274588962
1715832343318763268,-0.288,,,,17.28228333
1715832343326457636,-0.305,,,,17.289977698
1715832343334152004,-0.312,,,,17.297672066
1715832343341846372,-0.312,,,,17.305366434
1715832343349540740,-0.317,,,,17.313060802
1715832343357235108,-0.339,,,,17.32075517
1715832343364929476,-0.355,,,,17.328449538
1715832343372623844,-0.353,,,,17.336143906
1715832343380318212,-0.36,,,,17.343838274
1715832343388012580,-0.36,,,,17.351532642
1715832343395706948,-0.358,,,,17.35922701
1715832343403401316,-0.363,,,,17.366921378
1715832343411095684,-0.37,,,,17.374615746
1715832343418790052,-0.382,,,,17.382310114
1715832343426484420,-0.387,,,,17.390004482
1715832343434178788,-0.387,,,,17.39769885
1715832343441873156,-0.391,,,,17.405393218
1715832343449567538,-0.389,,,,17.4130876
1715832343457262324,-0.401,,,,17.420782386
1715832343464957110,-0.425,,,,17.428477172
1715832343472651896,-0.423,,,,17.436171958
1715832343480346682,-0.423,,,,17.443866744
1715832343488041468,-0.425,,,,17.45156153
1715832343495736254,-0.43,,,,17.459256316
1715832343503431040,-0.449,,,,17.466951102
1715832343511125826,-0.447,,,,17.474645888
1715832343518820612,-0.435,,,,17.482340674
1715832343526515398,-0.452,,,,17.49003546
1715832343534210184,-0.476,,,,17.497730246
1715832343541904970,-0.478,,629.0,,17.505425032
1715832343549599756,-0.471,,,,17.513119818
1715832343557294542,-0.476,,,,17.520814604
1715832343564989328,-0.471,,,,17.52850939
1715832343572684114,-0.476,,,,17.536204176
1715832343580378900,-0.492,,,,17.543898962
1715832343588073686,-0.485,,,,17.551593748
1715832343595768472,-0.492,,,,17.559288534
1715832343603463258,-0.533,,,,17.56698332
1715832343611158044,-0.531,,,,17.574678106
1715832343618852830,-0.526,,,,17.582372892
1715832343626547616,-0.543,,,,17.590067678
1715832343634242402,-0.526,,,,17.597762464
1715832343641937188,-0.524,,,,17.60545725
1715832343649631974,-0.56,,,,17.613152036
1715832343657326760,-0.5690000000000001,,,,17.620846822
1715832343665021546,-0.524,,,,17.628541608
1715832343672716332,-0.358,,,,17.636236394
1715832343680411118,-0.12,,,,17.64393118
1715832343688105904,-0.141,,,,17.651625966
1715832343695800690,-0.5650000000000001,,,,17.659320752
1715832343703495476,-0.8290000000000001,,,,17.667015538
1715832343711190262,-0.682,,,,17.674710324
1715832343718885048,-0.62,,,,17.68240511
1715832343726579834,-0.6970000000000001,,,,17.690099896
1715832343734274620,-0.663,,,,17.697794682
1715832343741969406,-0.639,,,,17.705489468
1715832343749664192,-0.67,,,,17.713184254
1715832343757358978,-0.644,,,,17.72087904
1715832343765053764,-0.625,,,,17.728573826
1715832343772748550,-0.663,,,,17.736268612
1715832343780443336,-0.666,,,,17.743963398
1715832343788138122,-0.622,,,,17.751658184
1715832343795832908,-0.608,,,,17.75935297
1715832343803527694,-0.627,,,,17.767047756
1715832343811222480,-0.63,,,,17.774742542
1715832343818917266,-0.606,,,,17.782437328
1715832343826612052,-0.589,,,,17.790132114
1715832343834306838,-0.596,,,,17.7978269
1715832343842001624,-0.603,,,,17.805521686
1715832343849696410,-0.593,,,,17.813216472
1715832343857391196,-0.591,,,,17.820911258
1715832343865085982,-0.598,,,,17.828606044
1715832343872780768,-0.593,,,,17.83630083
1715832343880475554,-0.603,,,,17.843995616
1715832343888170340,-0.615,,,,17.851690402
1715832343895865126,-0.606,,,,17.859385188
1715832343903559912,-0.61,,,,17.867079974
1715832343911254698,-0.625,,,,17.87477476
1715832343918949484,-0.63,,,,17.882469546
1715832343926644270,-0.651,,,,17.890164332
1715832343934339056,-0.68,,,,17.897859118
1715832343942033842,-0.707,,,,17.905553904
1715832343949728628,-0.714,,,,17.91324869
1715832343957423414,-0.731,,,,17.920943476
1715832343965118200,-0.788,,,,17.928638262
1715832343972812986,-0.793,,,,17.936333048
1715832343980507772,-0.779,,,,17.944027834
1715832343988202558,-0.812,,,,17.95172262
1715832343995897344,-0.8220000000000001,,,,17.959417406
1715832344003592130,-0.81,,,,17.967112192
1715832344011286932,-0.834,94.0,,,17.974806994
1715832344018981718,-0.86,,,,17.98250178
1715832344026676504,-0.851,,,,17.990196566
1715832344034371290,-0.846,,,,17.997891352
1715832344042066076,-0.87,,,,18.005586138
1715832344049760862,-0.889,,,,18.013280924
1715832344057455648,-0.899,,,,18.02097571
1715832344065150434,-0.911,,,,18.028670496
1715832344072845220,-0.913,,,,18.036365282
1715832344080540006,-0.935,,,,18.044060068
1715832344088234792,-0.949,,,,18.051754854
1715832344095929578,-0.93,,,,18.05944964
1715832344103624364,-0.947,,,,18.067144426
1715832344111319150,-0.99,,,,18.074839212
1715832344119013936,-0.995,,,,18.082533998
1715832344126708722,-0.99,,,,18.090228784
1715832344134403508,-0.983,,,,18.09792357
1715832344142098294,-0.976,,,,18.105618356
1715832344149793080,-0.995,,,,18.113313142
1715832344157487866,-1.0,,,,18.121007928
1715832344165182652,-0.978,,,,18.128702714
1715832344172877438,-0.971,,,,18.1363975
1715832344180572224,-0.985,,639.0,,18.144092286
1715832344188267010,-0.973,,,,18.151787072
1715832344195961796,-0.961,,,,18.159481858
1715832344203656582,-0.971,,,,18.167176644
1715832344211351368,-0.985,,,,18.17487143
1715832344219046154,-0.985,,,,18.182566216
1715832344226740940,-0.959,,,,18.190261002
1715832344234435726,-0.959,,,,18.197955788
1715832344242130512,-0.973,,,,18.205650574
1715832344249825298,-0.949,,,,18.21334536
1715832344257520084,-0.894,,,,18.221040146
1715832344265214870,-0.856,,,,18.228734932
1715832344272909656,-0.728,,,,18.236429718
1715832344280604442,-0.49,,,,18.244124504
1715832344288299228,-0.562,,,,18.25181929
1715832344295994014,-0.99,,,,18.259514076
1715832344303688800,-1.127,,,,18.267208862
1715832344311383586,-0.952,,,,18.274903648
1715832344319078372,-0.942,,,,18.282598434
1715832344326773158,-0.988,,,,18.29029322
1715832344334467944,-0.947,,,,18.297988006
1715832344342162730,-0.952,,,,18.305682792
1715832344349857516,-0.952,,,,18.313377578
1715832344357552302,-0.906,,,,18.321072364
1715832344365247088,-0.882,,,,18.32876715
1715832344372941874,-0.904,,,,18.336461936
1715832344380636660,-0.921,,,,18.344156722
1715832344388331446,-0.887,,,,18.351851508
1715832344396026232,-0.858,,,,18.359546294
1715832344403721018,-0.877,,,,18.36724108
1715832344411415804,-0.877,,,,18.374935866
1715832344419110590,-0.858,,,,18.382630652
1715832344426805376,-0.856,,,,18.390325438
1715832344434500162,-0.848,,,,18.398020224
1715832344442194948,-0.8290000000000001,,,,18.40571501
1715832344449889734,-0.8240000000000001,,,,18.413409796
1715832344457584520,-0.8290000000000001,,,,18.421104582
1715832344465279306,-0.805,,,,18.428799368
1715832344472974092,-0.783,,,,18.436494154
1715832344480668878,-0.793,,,,18.44418894
1715832344488363664,-0.776,,,,18.451883726
1715832344496058450,-0.747,,,,18.459578512
1715832344503753236,-0.75,,,,18.467273298
1715832344511448022,-0.743,,,,18.474968084
1715832344519142808,-0.733,,,,18.48266287
1715832344526837594,-0.733,,,,18.490357656
1715832344534532380,-0.731,,,,18.498052442
1715832344542227166,-0.735,,,,18.505747228
1715832344549921952,-0.731,,,,18.513442014
1715832344557616738,-0.714,,,,18.5211368
1715832344565311524,-0.704,,,,18.528831586
1715832344573006326,-0.7020000000000001,94.0,,,18.536526388
1715832344580700833,-0.707,,,,18.544220895
1715832344588395340,-0.682,,,,18.551915402
1715832344596089847,-0.661,,,,18.559609909
1715832344603784354,-0.67,,,,18.567304416
1715832344611478861,-0.67,,,,18.574998923
1715832344619173368,-0.663,,,,18.58269343
1715832344626867875,-0.656,,,,18.590387937
1715832344634562382,-0.634,,,,18.598082444
1715832344642256889,-0.63,,,,18.605776951
1715832344649951396,-0.622,,,,18.613471458
1715832344657645903,-0.61,,,,18.621165965
1715832344665340410,-0.606,,,,18.628860472
1715832344673034917,-0.603,,,,18.636554979
1715832344680729424,-0.596,,,,18.644249486
1715832344688423931,-0.586,,,,18.651943993
1715832344696118438,-0.577,,,,18.6596385
1715832344703812945,-0.577,,,,18.667333007
1715832344711507452,-0.5720000000000001,,,,18.675027514
1715832344719201959,-0.5670000000000001,,,,18.682722021
1715832344726896466,-0.553,,,,18.690416528
1715832344734590973,-0.531,,,,18.698111035
1715832344742285480,-0.533,,,,18.705805542
1715832344749979987,-0.526,,,,18.713500049
1715832344757674494,-0.517,,,,18.721194556
1715832344765369001,-0.519,,,,18.728889063
1715832344773063508,-0.495,,,,18.73658357
1715832344780758015,-0.485,,,,18.744278077
1715832344788452522,-0.495,,,,18.751972584
1715832344796147029,-0.488,,,,18.759667091
1715832344803841536,-0.471,,,,18.767361598
1715832344811536043,-0.456,,,,18.775056105
1715832344819230550,-0.456,,641.0,,18.782750612
1715832344826925057,-0.454,,,,18.790445119
1715832344834619564,-0.442,,,,18.798139626
1715832344842314071,-0.437,,,,18.805834133
1715832344850008578,-0.42,,,,18.81352864
1715832344857703085,-0.355,,,,18.821223147
1715832344865397592,-0.194,,,,18.828917654
1715832344873092099,0.026,,,,18.836612161
1715832344880786606,0.0,,,,18.844306668
1715832344888481113,-0.396,,,,18.852001175
1715832344896175620,-0.625,,,,18.859695682
1715832344903870127,-0.461,,,,18.867390189
1715832344911564634,-0.389,,,,18.875084696
1715832344919259141,-0.471,,,,18.882779203
1715832344926953648,-0.437,,,,18.89047371
1715832344934648155,-0.389,,,,18.898168217
1715832344942342662,-0.425,,,,18.905862724
1715832344950037169,-0.43,,,,18.913557231
1715832344957731676,-0.389,,,,18.921251738
1715832344965426183,-0.387,,,,18.928946245
1715832344973120690,-0.406,,,,18.936640752
1715832344980815197,-0.396,,,,18.944335259
1715832344988509704,-0.372,,,,18.952029766
1715832344996204211,-0.363,,,,18.959724273
1715832345003898718,-0.363,,,,18.96741878
1715832345011593225,-0.348,,,,18.975113287
1715832345019287732,-0.334,,,,18.982807794
1715832345026982239,-0.334,,,,18.990502301
1715832345034676746,-0.334,,,,18.998196808
1715832345042371253,-0.324,,,,19.005891315
1715832345050065760,-0.312,,,,19.013585822
1715832345057760267,-0.312,,,,19.021280329
1715832345065454774,-0.31,,,,19.028974836
1715832345073149281,-0.295,,,,19.036669343
1715832345080843788,-0.295,,,,19.04436385
1715832345088538295,-0.295,,,,19.052058357
1715832345096232802,-0.288,,,,19.059752864
1715832345103927309,-0.286,,,,19.067447371
1715832345111621816,-0.281,,,,19.075141878
1715832345119316323,-0.283,,,,19.082836385
1715832345127010830,-0.298,,,,19.090530892
1715832345134705376,-0.3,,,,19.098225438
1715832345142400022,-0.29,,,,19.105920084
1715832345150094668,-0.29,,,,19.11361473
1715832345157789314,-0.3,,,,19.121309376
1715832345165483960,-0.293,,,,19.129004022
1715832345173178606,-0.281,,,,19.136698668
1715832345180873252,-0.283,,,,19.144393314
1715832345188567898,-0.281,,,,19.15208796
1715832345196262544,-0.274,,,,19.159782606
1715832345203957190,-0.271,,,,19.167477252
1715832345211651836,-0.276,,,,19.175171898
1715832345219346482,-0.278,,,,19.182866544
1715832345227041128,-0.262,,,,19.19056119
1715832345234735774,-0.247,,,,19.198255836
1715832345242430420,-0.25,,,,19.205950482
1715832345250125066,-0.25,,,,19.213645128
1715832345257819712,-0.245,,,,19.221339774
1715832345265514358,-0.247,,,,19.22903442
1715832345273209004,-0.25,,,,19.236729066
1715832345280903650,-0.247,,,,19.244423712
1715832345288598296,-0.242,,,,19.252118358
1715832345296292942,-0.24,,,,19.259813004
1715832345303987588,-0.242,,,,19.26750765
1715832345311682234,-0.24,,,,19.275202296
1715832345319376880,-0.23,,,,19.282896942
1715832345327071526,-0.228,,,,19.290591588
1715832345334766172,-0.233,,,,19.298286234
1715832345342460818,-0.235,,,,19.30598088
1715832345350155464,-0.228,,,,19.313675526
1715832345357850110,-0.226,,,,19.321370172
1715832345365544756,-0.221,,,,19.329064818
1715832345373239402,-0.202,,,,19.336759464
1715832345380934048,-0.18,,,,19.34445411
1715832345388628694,-0.168,,,,19.352148756
1715832345396323340,-0.168,,,,19.359843402
1715832345404017986,-0.165,,,,19.367538048
1715832345411712632,-0.153,,,,19.375232694
1715832345419407278,-0.158,,,,19.38292734
1715832345427101924,-0.163,,,,19.390621986
1715832345434796570,-0.144,,,,19.398316632
1715832345442491216,-0.122,,,,19.406011278
1715832345450185862,-0.079,,,,19.413705924
1715832345457880508,-0.004,,638.0,,19.42140057
1715832345465575154,0.04,,,,19.429095216
1715832345473269800,-0.088,,,,19.436789862
1715832345480964446,-0.353,,,,19.444484508
1715832345488659092,-0.416,,,,19.452179154
1715832345496353738,-0.295,,,,19.4598738
1715832345504048384,-0.3,,,,19.467568446
1715832345511743030,-0.341,,,,19.475263092
1715832345519437676,-0.295,,,,19.482957738
1715832345527132322,-0.262,,,,19.490652384
1715832345534826968,-0.269,,,,19.49834703
1715832345542521614,-0.266,,,,19.506041676
1715832345550216260,-0.242,,,,19.513736322
1715832345557910906,-0.228,,,,19.521430968
1715832345565605552,-0.223,,,,19.529125614
1715832345573300198,-0.221,,,,19.53682026
1715832345580994844,-0.228,,,,19.544514906
1715832345588689490,-0.221,,,,19.552209552
1715832345596384136,-0.209,,,,19.559904198
1715832345604078782,-0.209,,,,19.567598844
1715832345611773428,-0.204,,,,19.57529349
1715832345619468074,-0.192,,,,19.582988136
1715832345627162720,-0.194,,,,19.590682782
1715832345634857366,-0.194,,,,19.598377428
1715832345642552012,-0.177,,,,19.606072074
1715832345650246658,-0.156,,,,19.61376672
1715832345657941304,-0.151,,,,19.621461366
1715832345665635950,-0.146,,,,19.629156012
1715832345673330596,-0.127,,,,19.636850658
1715832345681025242,-0.117,,,,19.644545304
1715832345688719888,-0.11,,,,19.65223995
1715832345696414596,-0.096,95.0,,,19.659934658
1715832345704109382,-0.081,,,,19.667629444
1715832345711804168,-0.069,,,,19.67532423
1715832345719498954,-0.069,,,,19.683019016
1715832345727193740,-0.076,,,,19.690713802
1715832345734888526,-0.079,,,,19.698408588
1715832345742583312,-0.084,,,,19.706103374
1715832345750278098,-0.084,,,,19.71379816
1715832345757972884,-0.086,,,,19.721492946
1715832345765667670,-0.093,,,,19.729187732
1715832345773362456,-0.088,,,,19.736882518
1715832345781057242,-0.086,,,,19.744577304
1715832345788752028,-0.084,,,,19.75227209
1715832345796446814,-0.074,,,,19.759966876
1715832345804141600,-0.074,,,,19.767661662
1715832345811836386,-0.079,,,,19.775356448
1715832345819531172,-0.086,,,,19.783051234
1715832345827225958,-0.076,,,,19.79074602
1715832345834920744,-0.067,,,,19.798440806
1715832345842615530,-0.074,,,,19.806135592
1715832345850310316,-0.074,,,,19.813830378
1715832345858005102,-0.064,,,,19.821525164
1715832345865699888,-0.064,,,,19.82921995
1715832345873394674,-0.062,,,,19.836914736
1715832345881089460,-0.055,,,,19.844609522
1715832345888784246,-0.045,,,,19.852304308
1715832345896479032,-0.043,,,,19.859999094
1715832345904173818,-0.045,,,,19.86769388
1715832345911868604,-0.036,,,,19.875388666
1715832345919563390,-0.031,,,,19.883083452
1715832345927258176,-0.031,,,,19.890778238
1715832345934952962,-0.028,,,,19.898473024
1715832345942647748,-0.024,,,,19.90616781
1715832345950342534,-0.016,,,,19.913862596
1715832345958037320,-0.014,,,,19.921557382
1715832345965732106,-0.014,,,,19.929252168
1715832345973426892,-0.007,,,,19.936946954
1715832345981121678,-0.007,,,,19.94464174
1715832345988816464,0.0,,,,19.952336526
1715832345996511250,0.009,,,,19.960031312
1715832346004206036,0.014,,,,19.967726098
1715832346011900822,0.019,,,,19.975420884
1715832346019595608,0.014,,,,19.98311567
1715832346027290394,0.009,,,,19.990810456
1715832346034985180,0.019,,,,19.998505242
1715832346042679966,0.021,,,,20.006200028
1715832346050374752,0.019,,,,20.013894814
1715832346058069538,0.019,,,,20.0215896
1715832346065764324,0.021,,,,20.029284386
1715832346073459110,0.026,,,,20.036979172
1715832346081153896,0.024,,625.0,,20.044673958
1715832346088848682,0.04,,,,20.052368744
1715832346096543468,0.141,,,,20.06006353
1715832346104238254,0.37,,,,20.067758316
1715832346111933040,0.562,,,,20.075453102
1715832346119627826,0.363,,,,20.083147888
1715832346127322612,-0.088,,,,20.090842674
1715832346135017398,-0.18,,,,20.09853746
1715832346142712184,0.002,,,,20.106232246
1715832346150406970,0.0,,,,20.113927032
1715832346158101756,-0.055,,,,20.121621818
1715832346165796542,0.002,,,,20.129316604
1715832346173491328,0.026,,,,20.13701139
1715832346181186114,0.0,,,,20.144706176
1715832346188880900,0.019,,,,20.152400962
1715832346196575686,0.043,,,,20.160095748
1715832346204270472,0.031,,,,20.167790534
1715832346211965258,0.033,,,,20.17548532
1715832346219660044,0.043,,,,20.183180106
1715832346227354830,0.04,,,,20.190874892
1715832346235049616,0.043,,,,20.198569678
1715832346242744402,0.055,,,,20.206264464
1715832346250439188,0.064,,,,20.21395925
1715832346258133990,0.067,,,,20.221654052
1715832346265828776,0.069,,,,20.229348838
1715832346273523562,0.079,,,,20.237043624
1715832346281218348,0.079,,,,20.24473841
1715832346288913134,0.079,,,,20.252433196
1715832346296607920,0.076,,,,20.260127982
1715832346304302706,0.081,,,,20.267822768
1715832346311997492,0.093,,,,20.275517554
1715832346319692278,0.091,,,,20.28321234
1715832346327387064,0.081,,,,20.290907126
1715832346335081850,0.088,,,,20.298601912
1715832346342776636,0.101,,,,20.306296698
1715832346350471422,0.105,,,,20.313991484
1715832346358166208,0.105,,,,20.32168627
1715832346365860994,0.101,,,,20.329381056
1715832346373555780,0.091,,,,20.337075842
1715832346381250566,0.081,,,,20.344770628
1715832346388945352,0.081,,,,20.352465414
1715832346396640138,0.084,,,,20.3601602
1715832346404334924,0.076,,,,20.367854986
1715832346412029710,0.067,,,,20.375549772
1715832346419724496,0.052,,,,20.383244558
1715832346427419282,0.055,,,,20.390939344
1715832346435114068,0.069,,,,20.39863413
1715832346442808854,0.069,,,,20.406328916
1715832346450503640,0.069,,,,20.414023702
1715832346458198426,0.074,,,,20.421718488
1715832346465893212,0.074,,,,20.429413274
1715832346473587998,0.079,,,,20.43710806
1715832346481282784,0.081,,,,20.444802846
1715832346488977570,0.086,,,,20.452497632
1715832346496672356,0.088,,,,20.460192418
1715832346504367142,0.084,,,,20.467887204
1715832346512061928,0.086,,,,20.47558199
1715832346519756714,0.091,,,,20.483276776
1715832346527451500,0.096,,,,20.490971562
1715832346535146286,0.093,,,,20.498666348
1715832346542841072,0.088,,,,20.506361134
1715832346550535858,0.093,,,,20.51405592
1715832346558230644,0.098,,,,20.521750706
1715832346565925430,0.096,,,,20.529445492
1715832346573620216,0.101,,,,20.537140278
1715832346581315002,0.098,,,,20.544835064
1715832346589009788,0.093,,,,20.55252985
1715832346596704574,0.096,,,,20.560224636
1715832346604399360,0.098,,,,20.567919422
1715832346612094146,0.105,,,,20.575614208
1715832346619788932,0.108,,,,20.583308994
1715832346627483718,0.115,,,,20.59100378
1715832346635178504,0.115,,,,20.598698566
1715832346642873290,0.096,,,,20.606393352
1715832346650568076,0.091,,,,20.614088138
1715832346658262862,0.101,,,,20.621782924
1715832346665957648,0.103,,,,20.62947771
1715832346673652434,0.103,,,,20.637172496
1715832346681347220,0.103,,,,20.644867282
1715832346689042006,0.105,,608.0,,20.652562068
1715832346696736792,0.105,,,,20.660256854
1715832346704431578,0.108,,,,20.66795164
1715832346712126364,0.137,,,,20.675646426
1715832346719821150,0.245,,,,20.683341212
1715832346727515936,0.468,,,,20.691035998
1715832346735210722,0.63,,,,20.698730784
1715832346742905508,0.404,,,,20.70642557
1715832346750600294,-0.024,,,,20.714120356
1715832346758295080,-0.081,,,,20.721815142
1715832346765989866,0.093,,,,20.729509928
1715832346773684652,0.069,,,,20.737204714
1715832346781379438,0.014,,,,20.7448995
1715832346789074224,0.074,,,,20.752594286
1715832346796769010,0.091,,,,20.760289072
1715832346804463796,0.064,,,,20.767983858
1715832346812158582,0.081,,,,20.775678644
1715832346819853386,0.098,97.0,,,20.783373448
1715832346827548172,0.093,,,,20.791068234
1715832346835242958,0.098,,,,20.79876302
1715832346842937744,0.101,,,,20.806457806
1715832346850632530,0.098,,,,20.814152592
1715832346858327316,0.101,,,,20.821847378
1715832346866022102,0.101,,,,20.829542164
1715832346873716888,0.105,,,,20.83723695
1715832346881411674,0.11,,,,20.844931736
1715832346889106460,0.113,,,,20.852626522
1715832346896801246,0.113,,,,20.860321308
1715832346904496032,0.115,,,,20.868016094
1715832346912190818,0.12,,,,20.87571088
1715832346919885604,0.113,,,,20.883405666
1715832346927580390,0.103,,,,20.891100452
1715832346935275176,0.113,,,,20.898795238
1715832346942969962,0.12,,,,20.906490024
1715832346950664748,0.12,,,,20.91418481
1715832346958359534,0.113,,,,20.921879596
1715832346966054320,0.117,,,,20.929574382
1715832346973749106,0.122,,,,20.937269168
1715832346981443892,0.115,,,,20.944963954
1715832346989138678,0.11,,,,20.95265874
1715832346996833464,0.11,,,,20.960353526
1715832347004528250,0.103,,,,20.968048312
1715832347012223036,0.096,,,,20.975743098
1715832347019917822,0.091,,,,20.983437884
1715832347027612608,0.093,,,,20.99113267
1715832347035307394,0.098,,,,20.998827456
1715832347043002180,0.098,,,,21.006522242
1715832347050696966,0.101,,,,21.014217028
1715832347058391752,0.103,,,,21.021911814
1715832347066086538,0.101,,,,21.0296066
1715832347073781324,0.105,,,,21.037301386
1715832347081476110,0.105,,,,21.044996172
1715832347089170896,0.11,,,,21.052690958
1715832347096865682,0.11,,,,21.060385744
1715832347104560468,0.103,,,,21.06808053
1715832347112255254,0.105,,,,21.075775316
1715832347119950040,0.113,,,,21.083470102
1715832347127644826,0.113,,,,21.091164888
1715832347135339612,0.108,,,,21.098859674
1715832347143034398,0.096,,,,21.10655446
1715832347150729184,0.096,,,,21.114249246
1715832347158423970,0.098,,,,21.121944032
1715832347166118756,0.096,,,,21.129638818
1715832347173813542,0.098,,,,21.137333604
1715832347181508328,0.101,,,,21.14502839
1715832347189203114,0.103,,,,21.152723176
1715832347196897900,0.101,,,,21.160417962
1715832347204592686,0.098,,,,21.168112748
1715832347212287472,0.103,,,,21.175807534
1715832347219982258,0.101,,,,21.18350232
1715832347227677044,0.098,,,,21.191197106
1715832347235371830,0.101,,,,21.198891892
1715832347243066616,0.098,,,,21.206586678
1715832347250761402,0.096,,,,21.214281464
1715832347258456188,0.101,,,,21.22197625
1715832347266150974,0.11,,,,21.229671036
1715832347273845760,0.122,,,,21.237365822
1715832347281540546,0.12,,,,21.245060608
1715832347289235332,0.11,,599.0,,21.252755394
1715832347296930118,0.103,,,,21.26045018
1715832347304624904,0.108,,,,21.268144966
1715832347312319690,0.12,,,,21.275839752
1715832347320014476,0.12,,,,21.283534538
1715832347327709262,0.127,,,,21.291229324
1715832347335404048,0.129,,,,21.29892411
1715832347343098834,0.122,,,,21.306618896
1715832347350793620,0.127,,,,21.314313682
1715832347358488406,0.146,,,,21.322008468
1715832347366183192,0.228,,,,21.329703254
1715832347373877978,0.43,,,,21.33739804
1715832347381572780,0.632,,,,21.345092842
1715832347389267566,0.509,,,,21.352787628
1715832347396962352,0.079,,,,21.360482414
1715832347404657138,-0.088,,,,21.3681772
1715832347412351924,0.081,,,,21.375871986
1715832347420046710,0.108,,,,21.383566772
1715832347427741496,0.031,,,,21.391261558
1715832347435436282,0.062,,,,21.398956344
1715832347443131068,0.091,,,,21.40665113
1715832347450825854,0.081,,,,21.414345916
1715832347458520640,0.084,,,,21.422040702
1715832347466215426,0.088,,,,21.429735488
1715832347473910212,0.088,,,,21.437430274
1715832347481604998,0.088,,,,21.44512506
1715832347489299784,0.093,,,,21.452819846
1715832347496994570,0.093,,,,21.460514632
1715832347504689356,0.091,,,,21.468209418
1715832347512384142,0.098,,,,21.475904204
1715832347520078928,0.098,,,,21.48359899
1715832347527773714,0.098,,,,21.491293776
1715832347535468500,0.105,,,,21.498988562
1715832347543163286,0.11,,,,21.506683348
1715832347550858072,0.113,,,,21.514378134
1715832347558552858,0.117,,,,21.52207292
1715832347566247644,0.12,,,,21.529767706
1715832347573942430,0.12,,,,21.537462492
1715832347581637216,0.122,,,,21.545157278
1715832347589332002,0.132,,,,21.552852064
1715832347597026788,0.139,,,,21.56054685
1715832347604721574,0.141,,,,21.568241636
1715832347612416360,0.141,,,,21.575936422
1715832347620111146,0.134,,,,21.583631208
1715832347627805932,0.139,,,,21.591325994
1715832347635500718,0.144,,,,21.59902078
1715832347643195504,0.127,,,,21.606715566
1715832347650890290,0.108,,,,21.614410352
1715832347658585076,0.093,,,,21.622105138
1715832347666279862,0.093,,,,21.629799924
1715832347673974648,0.098,,,,21.63749471
1715832347681669434,0.093,,,,21.645189496
1715832347689364220,0.093,,,,21.652884282
1715832347697059006,0.096,,,,21.660579068
1715832347704753792,0.088,,,,21.668273854
1715832347712448578,0.091,,,,21.67596864
1715832347720143364,0.098,,,,21.683663426
1715832347727838150,0.101,,,,21.691358212
1715832347735532936,0.096,,,,21.699052998
1715832347743227722,0.093,,,,21.706747784
1715832347750922508,0.101,,,,21.71444257
1715832347758617294,0.101,,,,21.722137356
1715832347766312080,0.096,,,,21.729832142
1715832347774006866,0.098,,,,21.737526928
1715832347781701652,0.098,,,,21.745221714
1715832347789396438,0.093,,,,21.7529165
1715832347797091224,0.093,,,,21.760611286
1715832347804786010,0.093,,,,21.768306072
1715832347812480796,0.096,,,,21.776000858
1715832347820175582,0.091,,,,21.783695644
1715832347827870368,0.091,,,,21.79139043
1715832347835565154,0.098,,,,21.799085216
1715832347843259940,0.093,,,,21.806780002
1715832347850954726,0.088,,,,21.814474788
1715832347858649512,0.086,,,,21.822169574
1715832347866344298,0.091,,,,21.82986436
1715832347874039084,0.096,,,,21.837559146
1715832347881733870,0.091,,594.0,,21.845253932
1715832347889428656,0.084,,,,21.852948718
1715832347897123442,0.076,,,,21.860643504
1715832347904818228,0.072,,,,21.86833829
1715832347912513014,0.076,,,,21.876033076
1715832347920207800,0.081,,,,21.883727862
1715832347927902586,0.091,,,,21.891422648
1715832347935597372,0.096,,,,21.899117434
1715832347943292174,0.088,97.0,,,21.906812236
1715832347950986960,0.081,,,,21.914507022
1715832347958681746,0.081,,,,21.922201808
