time,ecg,hr,rr,marker,norm_time
1716265314381337386,0.121,79.0,,,0.0
1716265314389031684,0.126,,,,0.007694298
1716265314396725982,0.318,,,,0.015388596
1716265314404420280,0.754,,,,0.023082894
1716265314412114578,1.185,,,,0.030777192
1716265314419808876,1.26,,,,0.03847149
1716265314427503174,0.508,,,,0.046165788
1716265314435197472,-0.5760000000000001,,,,0.053860086
1716265314442891770,-0.5740000000000001,,,,0.061554384
1716265314450586068,0.087,,,,0.069248682
1716265314458280366,0.136,,,,0.07694298
1716265314465974664,-0.004,,,,0.084637278
1716265314473668962,0.126,,,,0.092331576
1716265314481363260,0.155,,,,0.100025874
1716265314489057558,0.092,,,,0.107720172
1716265314496751856,0.141,,,,0.11541447
1716265314504446154,0.17,,,,0.123108768
1716265314512140452,0.148,,715.0,,0.130803066
1716265314519834750,0.165,,,,0.138497364
1716265314527529048,0.182,,,,0.146191662
1716265314535223346,0.182,,,,0.15388596
1716265314542917644,0.197,,,,0.161580258
1716265314550611942,0.216,,,,0.169274556
1716265314558306240,0.226,,,,0.176968854
1716265314566000538,0.248,,,,0.184663152
1716265314573694836,0.282,,,,0.19235745
1716265314581389134,0.321,,,,0.200051748
1716265314589083432,0.355,,,,0.207746046
1716265314596777730,0.391,,,,0.215440344
1716265314604472028,0.43,,,,0.223134642
1716265314612166326,0.464,,,,0.23082894
1716265314619860624,0.484,,,,0.238523238
1716265314627554922,0.496,,,,0.246217536
1716265314635249220,0.489,,,,0.253911834
1716265314642943518,0.45,,,,0.261606132
1716265314650637816,0.382,,,,0.26930043
1716265314658332114,0.291,,,,0.276994728
1716265314666026412,0.194,,,,0.284689026
1716265314673720710,0.107,,,,0.292383324
1716265314681415008,0.046,,,,0.300077622
1716265314689109306,0.009,,,,0.30777192
1716265314696803604,-0.019,,,,0.315466218
1716265314704497902,-0.043,,,,0.323160516
1716265314712192200,-0.055,,,,0.330854814
1716265314719886498,-0.058,,,,0.338549112
1716265314727580796,-0.058,,,,0.34624341
1716265314735275094,-0.06,,,,0.353937708
1716265314742969392,-0.058,,,,0.361632006
1716265314750663690,-0.053,,,,0.369326304
1716265314758357988,-0.051,,,,0.377020602
1716265314766052286,-0.048,,,,0.3847149
1716265314773746584,-0.043,,,,0.392409198
1716265314781440882,-0.034,,,,0.400103496
1716265314789135180,-0.026,,,,0.407797794
1716265314796829478,-0.024,,,,0.415492092
1716265314804523776,-0.026,,,,0.42318639
1716265314812218074,-0.026,,,,0.430880688
1716265314819912372,-0.019,,,,0.438574986
1716265314827606670,-0.017,,,,0.446269284
1716265314835300968,-0.014,,,,0.453963582
1716265314842995266,-0.007,,,,0.46165788
1716265314850689564,-0.002,,,,0.469352178
1716265314858383862,-0.002,,,,0.477046476
1716265314866078160,0.0,,,,0.484740774
1716265314873772458,0.007,,,,0.492435072
1716265314881466756,0.007,,,,0.50012937
1716265314889161054,0.009,,,,0.507823668
1716265314896855352,0.017,,,,0.515517966
1716265314904549650,0.021,,,,0.523212264
1716265314912243948,0.029,,,,0.530906562
1716265314919938246,0.029,,,,0.53860086
1716265314927632544,0.029,,,,0.546295158
1716265314935326842,0.034,,,,0.553989456
1716265314943021174,0.038,,,,0.561683788
1716265314950715124,0.041,,,,0.569377738
1716265314958409074,0.034,,,,0.577071688
1716265314966103024,0.021,,,,0.584765638
1716265314973796974,0.014,,,,0.592459588
1716265314981490924,0.017,,,,0.600153538
1716265314989184874,0.029,,,,0.607847488
1716265314996878824,0.051,,,,0.615541438
1716265315004572774,0.075,,,,0.623235388
1716265315012266724,0.087,,,,0.630929338
1716265315019960674,0.082,,,,0.638623288
1716265315027654624,0.075,,,,0.646317238
1716265315035348574,0.065,,,,0.654011188
1716265315043042524,0.048,,,,0.661705138
1716265315050736474,0.036,,,,0.669399088
1716265315058430424,0.043,,,,0.677093038
1716265315066124374,0.051,,,,0.684786988
1716265315073818324,0.055,,,,0.692480938
1716265315081512274,0.058,,,,0.700174888
1716265315089206224,0.055,,,,0.707868838
1716265315096900174,0.058,,,,0.715562788
1716265315104594124,0.063,,,,0.723256738
1716265315112288074,0.048,,,,0.730950688
1716265315119982024,0.065,,,,0.738644638
1716265315127675974,0.265,,,,0.746338588
1716265315135369924,0.656,,,,0.754032538
1716265315143063874,1.026,,,,0.761726488
1716265315150757824,1.007,,,,0.769420438
1716265315158451774,0.226,,,,0.777114388
1716265315166145724,-0.659,,,,0.784808338
1716265315173839674,-0.523,,,,0.792502288
1716265315181533624,0.036,,,,0.800196238
1716265315189227574,0.065,,,,0.807890188
1716265315196921524,-0.002,,,,0.815584138
1716265315204615474,0.124,,,,0.823278088
1716265315212309424,0.141,,,,0.830972038
1716265315220003374,0.097,,,,0.838665988
1716265315227697324,0.136,,712.0,,0.846359938
1716265315235391274,0.167,,,,0.854053888
1716265315243085224,0.155,,,,0.861747838
1716265315250779174,0.163,,,,0.869441788
1716265315258473124,0.177,,,,0.877135738
1716265315266167074,0.184,,,,0.884829688
1716265315273861024,0.187,,,,0.892523638
1716265315281554974,0.204,,,,0.900217588
1716265315289248924,0.228,,,,0.907911538
1716265315296942874,0.255,,,,0.915605488
1716265315304636824,0.282,,,,0.923299438
1716265315312330774,0.304,,,,0.930993388
1716265315320024724,0.335,,,,0.938687338
1716265315327718674,0.379,,,,0.946381288
1716265315335412624,0.411,,,,0.954075238
1716265315343106574,0.43,,,,0.961769188
1716265315350800524,0.455,,,,0.969463138
1716265315358494474,0.467,,,,0.977157088
1716265315366188424,0.452,,,,0.984851038
1716265315373882374,0.413,,,,0.992544988
1716265315381576324,0.347,,,,1.000238938
1716265315389270274,0.262,,,,1.007932888
1716265315396964224,0.172,,,,1.015626838
1716265315404658174,0.092,,,,1.023320788
1716265315412352124,0.031,,,,1.031014738
1716265315420046074,-0.009,,,,1.038708688
1716265315427740024,-0.041,,,,1.046402638
1716265315435433974,-0.068,,,,1.054096588
1716265315443127924,-0.075,,,,1.061790538
1716265315450821874,-0.063,,,,1.069484488
1716265315458515824,-0.058,,,,1.077178438
1716265315466209774,-0.065,,,,1.084872388
1716265315473903724,-0.058,,,,1.092566338
1716265315481597674,-0.046,,,,1.100260288
1716265315489291624,-0.043,,,,1.107954238
1716265315496985574,-0.043,,,,1.115648188
1716265315504679534,-0.038,80.0,,,1.123342148
1716265315512373902,-0.036,,,,1.131036516
1716265315520068270,-0.034,,,,1.138730884
1716265315527762638,-0.029,,,,1.146425252
1716265315535457006,-0.024,,,,1.15411962
1716265315543151374,-0.021,,,,1.161813988
1716265315550845742,-0.014,,,,1.169508356
1716265315558540110,-0.012,,,,1.177202724
1716265315566234478,-0.009,,,,1.184897092
1716265315573928846,0.0,,,,1.19259146
1716265315581623214,0.012,,,,1.200285828
1716265315589317582,0.019,,,,1.207980196
1716265315597011950,0.021,,,,1.215674564
1716265315604706318,0.014,,,,1.223368932
1716265315612400686,0.007,,,,1.2310633
1716265315620095054,0.014,,,,1.238757668
1716265315627789422,0.021,,,,1.246452036
1716265315635483790,0.024,,,,1.254146404
1716265315643178158,0.024,,,,1.261840772
1716265315650872526,0.026,,,,1.26953514
1716265315658566894,0.026,,,,1.277229508
1716265315666261262,0.029,,,,1.284923876
1716265315673955630,0.034,,,,1.292618244
1716265315681649998,0.036,,,,1.300312612
1716265315689344366,0.038,,,,1.30800698
1716265315697038734,0.038,,,,1.315701348
1716265315704733102,0.041,,,,1.323395716
1716265315712427470,0.051,,,,1.331090084
1716265315720121838,0.053,,,,1.338784452
1716265315727816206,0.051,,,,1.34647882
1716265315735510574,0.046,,,,1.354173188
1716265315743204942,0.031,,,,1.361867556
1716265315750899310,0.021,,,,1.369561924
1716265315758593678,0.031,,,,1.377256292
1716265315766288046,0.051,,,,1.38495066
1716265315773982414,0.07,,,,1.392645028
1716265315781676782,0.09,,,,1.400339396
1716265315789371150,0.097,,,,1.408033764
1716265315797065518,0.09,,,,1.415728132
1716265315804759886,0.085,,,,1.4234225
1716265315812454254,0.08,,,,1.431116868
1716265315820148622,0.055,,,,1.438811236
1716265315827842990,0.041,,,,1.446505604
1716265315835537358,0.053,,,,1.454199972
1716265315843231726,0.055,,,,1.46189434
1716265315850926094,0.048,,,,1.469588708
1716265315858620462,0.053,,,,1.477283076
1716265315866314830,0.063,,,,1.484977444
1716265315874009198,0.07,,,,1.492671812
1716265315881703566,0.072,,,,1.50036618
1716265315889397934,0.051,,,,1.508060548
1716265315897092302,0.053,,,,1.515754916
1716265315904786670,0.248,,,,1.523449284
1716265315912481038,0.647,,,,1.531143652
1716265315920175406,1.021,,,,1.53883802
1716265315927869774,1.039,,,,1.546532388
1716265315935564142,0.306,,,,1.554226756
1716265315943258510,-0.61,,716.0,,1.561921124
1716265315950952878,-0.557,,,,1.569615492
1716265315958647246,0.002,,,,1.57730986
1716265315966341614,0.075,,,,1.585004228
1716265315974035982,-0.004,,,,1.592698596
1716265315981730350,0.104,,,,1.600392964
1716265315989424718,0.131,,,,1.608087332
1716265315997119086,0.08,,,,1.6157817
1716265316004813454,0.099,,,,1.623476068
1716265316012507822,0.141,,,,1.631170436
1716265316020202190,0.143,,,,1.638864804
1716265316027896558,0.15,,,,1.646559172
1716265316035590926,0.172,,,,1.65425354
1716265316043285294,0.187,,,,1.661947908
1716265316050979662,0.199,,,,1.669642276
1716265316058674030,0.223,,,,1.677336644
1716265316066368410,0.245,,,,1.685031024
1716265316074062569,0.262,,,,1.692725183
1716265316081756728,0.294,,,,1.700419342
1716265316089450887,0.333,,,,1.708113501
1716265316097145046,0.364,,,,1.71580766
1716265316104839205,0.406,,,,1.723501819
1716265316112533364,0.452,,,,1.731195978
1716265316120227523,0.474,,,,1.738890137
1716265316127921682,0.491,,,,1.746584296
1716265316135615841,0.501,,,,1.754278455
1716265316143310000,0.481,,,,1.761972614
1716265316151004159,0.437,,,,1.769666773
1716265316158698318,0.372,,,,1.777360932
1716265316166392477,0.284,,,,1.785055091
1716265316174086636,0.182,,,,1.79274925
1716265316181780795,0.09,,,,1.800443409
1716265316189474954,0.026,,,,1.808137568
1716265316197169113,-0.017,,,,1.815831727
1716265316204863272,-0.058,,,,1.823525886
1716265316212557431,-0.082,,,,1.831220045
1716265316220251590,-0.087,,,,1.838914204
1716265316227945749,-0.082,,,,1.846608363
1716265316235639908,-0.08,,,,1.854302522
1716265316243334067,-0.08,,,,1.861996681
1716265316251028226,-0.072,,,,1.86969084
1716265316258722385,-0.041,,,,1.877384999
1716265316266416544,-0.036,,,,1.885079158
1716265316274110703,-0.063,,,,1.892773317
1716265316281804862,-0.065,,,,1.900467476
1716265316289499021,-0.048,,,,1.908161635
1716265316297193180,-0.043,,,,1.915855794
1716265316304887339,-0.031,,,,1.923549953
1716265316312581498,-0.024,,,,1.931244112
1716265316320275657,-0.029,,,,1.938938271
1716265316327969816,-0.031,,,,1.94663243
1716265316335663975,-0.021,,,,1.954326589
1716265316343358134,-0.007,,,,1.962020748
1716265316351052293,-0.002,,,,1.969714907
1716265316358746452,0.002,,,,1.977409066
1716265316366440611,0.009,,,,1.985103225
1716265316374134770,0.021,,,,1.992797384
1716265316381828929,0.034,,,,2.000491543
1716265316389523088,0.036,,,,2.008185702
1716265316397217247,0.034,,,,2.015879861
1716265316404911406,0.034,,,,2.02357402
1716265316412605565,0.031,,,,2.031268179
1716265316420299724,0.034,,,,2.038962338
1716265316427993883,0.046,,,,2.046656497
1716265316435688042,0.043,,,,2.054350656
1716265316443382201,0.031,,,,2.062044815
1716265316451076360,0.036,,,,2.069738974
1716265316458770519,0.053,,,,2.077433133
1716265316466464678,0.06,,,,2.085127292
1716265316474158837,0.055,,,,2.092821451
1716265316481852996,0.053,,,,2.10051561
1716265316489547155,0.051,,,,2.108209769
1716265316497241314,0.048,,,,2.115903928
1716265316504935473,0.041,,,,2.123598087
1716265316512629632,0.026,,,,2.131292246
1716265316520323791,0.024,,,,2.138986405
1716265316528017950,0.038,,,,2.146680564
1716265316535712109,0.058,,,,2.154374723
1716265316543406268,0.077,,,,2.162068882
1716265316551100427,0.099,,,,2.169763041
1716265316558794586,0.107,,,,2.1774572
1716265316566488745,0.092,,,,2.185151359
1716265316574182904,0.077,,,,2.192845518
1716265316581877063,0.07,,,,2.200539677
1716265316589571222,0.058,,,,2.208233836
1716265316597265381,0.055,,,,2.215927995
1716265316604959540,0.063,,,,2.223622154
1716265316612653699,0.065,,,,2.231316313
1716265316620347858,0.068,,,,2.239010472
1716265316628042028,0.068,80.0,,,2.246704642
1716265316635736187,0.07,,,,2.254398801
1716265316643430346,0.077,,706.0,,2.26209296
1716265316651124505,0.08,,,,2.269787119
1716265316658818664,0.065,,,,2.277481278
1716265316666512823,0.15,,,,2.285175437
1716265316674206982,0.484,,,,2.292869596
1716265316681901141,0.922,,,,2.300563755
1716265316689595300,1.121,,,,2.308257914
1716265316697289459,0.656,,,,2.315952073
1716265316704983618,-0.372,,,,2.323646232
1716265316712677777,-0.783,,,,2.331340391
1716265316720371936,-0.257,,,,2.33903455
1716265316728066095,0.051,,,,2.346728709
1716265316735760254,-0.043,,,,2.354422868
1716265316743454413,0.021,,,,2.362117027
1716265316751148572,0.111,,,,2.369811186
1716265316758842731,0.063,,,,2.377505345
1716265316766536890,0.065,,,,2.385199504
1716265316774231049,0.111,,,,2.392893663
1716265316781925208,0.111,,,,2.400587822
1716265316789619367,0.107,,,,2.408281981
1716265316797313526,0.131,,,,2.41597614
1716265316805007685,0.148,,,,2.423670299
1716265316812701844,0.158,,,,2.431364458
1716265316820396003,0.175,,,,2.439058617
1716265316828090162,0.192,,,,2.446752776
1716265316835784321,0.209,,,,2.454446935
1716265316843478480,0.233,,,,2.462141094
1716265316851172639,0.262,,,,2.469835253
1716265316858866798,0.296,,,,2.477529412
1716265316866560957,0.333,,,,2.485223571
1716265316874255116,0.364,,,,2.49291773
1716265316881949275,0.399,,,,2.500611889
1716265316889643434,0.425,,,,2.508306048
1716265316897337593,0.433,,,,2.516000207
1716265316905031752,0.42,,,,2.523694366
1716265316912725911,0.396,,,,2.531388525
1716265316920420070,0.347,,,,2.539082684
1716265316928114229,0.262,,,,2.546776843
1716265316935808388,0.16,,,,2.554471002
1716265316943502547,0.075,,,,2.562165161
1716265316951196706,0.004,,,,2.56985932
1716265316958890865,-0.046,,,,2.577553479
1716265316966585024,-0.07,,,,2.585247638
1716265316974279183,-0.085,,,,2.592941797
1716265316981973342,-0.102,,,,2.600635956
1716265316989667501,-0.109,,,,2.608330115
1716265316997361660,-0.102,,,,2.616024274
1716265317005055819,-0.097,,,,2.623718433
1716265317012749978,-0.09,,,,2.631412592
1716265317020444137,-0.082,,,,2.639106751
1716265317028138296,-0.077,,,,2.64680091
1716265317035832455,-0.075,,,,2.654495069
1716265317043526614,-0.068,,,,2.662189228
1716265317051220773,-0.063,,,,2.669883387
1716265317058914932,-0.058,,,,2.677577546
1716265317066609091,-0.048,,,,2.685271705
1716265317074303250,-0.038,,,,2.692965864
1716265317081997409,-0.034,,,,2.700660023
1716265317089691568,-0.024,,,,2.708354182
1716265317097385727,-0.012,,,,2.716048341
1716265317105079886,-0.002,,,,2.7237425
1716265317112774045,0.004,,,,2.731436659
1716265317120468204,0.012,,,,2.739130818
1716265317128162363,0.014,,,,2.746824977
1716265317135856522,0.014,,,,2.754519136
1716265317143550681,0.019,,,,2.762213295
1716265317151244840,0.024,,,,2.769907454
1716265317158938999,0.029,,,,2.777601613
1716265317166633158,0.031,,,,2.785295772
1716265317174327317,0.024,,,,2.792989931
1716265317182021476,0.026,,,,2.80068409
1716265317189715644,0.034,81.0,,,2.808378258
1716265317197409663,0.031,,,,2.816072277
1716265317205103682,0.031,,,,2.823766296
1716265317212797701,0.034,,,,2.831460315
1716265317220491720,0.038,,,,2.839154334
1716265317228185739,0.034,,,,2.846848353
1716265317235879758,0.034,,,,2.854542372
1716265317243573777,0.038,,,,2.862236391
1716265317251267796,0.043,,,,2.86993041
1716265317258961815,0.041,,,,2.877624429
1716265317266655834,0.036,,,,2.885318448
1716265317274349853,0.036,,,,2.893012467
1716265317282043872,0.046,,,,2.900706486
1716265317289737891,0.051,,,,2.908400505
1716265317297431910,0.051,,,,2.916094524
1716265317305125929,0.053,,,,2.923788543
1716265317312819948,0.046,,,,2.931482562
1716265317320513967,0.029,,,,2.939176581
1716265317328207986,0.029,,,,2.9468706
1716265317335902005,0.043,,,,2.954564619
1716265317343596024,0.058,,,,2.962258638
1716265317351290043,0.075,,,,2.969952657
1716265317358984062,0.09,,,,2.977646676
1716265317366678081,0.09,,722.0,,2.985340695
1716265317374372100,0.082,,,,2.993034714
1716265317382066119,0.075,,,,3.000728733
1716265317389760138,0.055,,,,3.008422752
1716265317397454157,0.038,,,,3.016116771
1716265317405148176,0.048,,,,3.02381079
1716265317412842195,0.058,,,,3.031504809
1716265317420536214,0.055,,,,3.039198828
1716265317428230233,0.063,,,,3.046892847
1716265317435924252,0.07,,,,3.054586866
1716265317443618271,0.07,,,,3.062280885
1716265317451312290,0.07,,,,3.069974904
1716265317459006309,0.058,,,,3.077668923
1716265317466700328,0.094,,,,3.085362942
1716265317474394347,0.333,,,,3.093056961
1716265317482088366,0.744,,,,3.10075098
1716265317489782385,1.08,,,,3.108444999
1716265317497476404,0.997,,,,3.116139018
1716265317505170423,0.15,,,,3.123833037
1716265317512864442,-0.6910000000000001,,,,3.131527056
1716265317520558461,-0.44,,,,3.139221075
1716265317528252480,0.097,,,,3.146915094
1716265317535946499,0.051,,,,3.154609113
1716265317543640518,-0.007,,,,3.162303132
1716265317551334537,0.116,,,,3.169997151
1716265317559028556,0.107,,,,3.17769117
1716265317566722575,0.068,,,,3.185385189
1716265317574416594,0.109,,,,3.193079208
1716265317582110613,0.119,,,,3.200773227
1716265317589804632,0.104,,,,3.208467246
1716265317597498651,0.121,,,,3.216161265
1716265317605192670,0.138,,,,3.223855284
1716265317612886689,0.148,,,,3.231549303
1716265317620580708,0.163,,,,3.239243322
1716265317628274727,0.182,,,,3.246937341
1716265317635968746,0.204,,,,3.25463136
1716265317643662765,0.231,,,,3.262325379
1716265317651356784,0.262,,,,3.270019398
1716265317659050803,0.299,,,,3.277713417
1716265317666744822,0.34,,,,3.285407436
1716265317674438841,0.386,,,,3.293101455
1716265317682132860,0.423,,,,3.300795474
1716265317689826879,0.45,,,,3.308489493
1716265317697520898,0.472,,,,3.316183512
1716265317705214917,0.481,,,,3.323877531
1716265317712908936,0.472,,,,3.33157155
1716265317720602955,0.435,,,,3.339265569
1716265317728296974,0.364,,,,3.346959588
1716265317735990993,0.27,,,,3.354653607
1716265317743685012,0.167,,,,3.362347626
1716265317751379090,0.082,,,,3.370041704
1716265317759073388,0.029,,,,3.377736002
1716265317766767686,-0.009,,,,3.3854303
1716265317774461984,-0.046,,,,3.393124598
1716265317782156282,-0.068,,,,3.400818896
1716265317789850580,-0.072,,,,3.408513194
1716265317797544878,-0.08,,,,3.416207492
1716265317805239176,-0.087,,,,3.42390179
1716265317812933474,-0.08,,,,3.431596088
1716265317820627772,-0.068,,,,3.439290386
1716265317828322070,-0.068,,,,3.446984684
1716265317836016368,-0.072,,,,3.454678982
1716265317843710666,-0.07,,,,3.46237328
1716265317851404964,-0.058,,,,3.470067578
1716265317859099262,-0.048,,,,3.477761876
1716265317866793560,-0.046,,,,3.485456174
1716265317874487858,-0.038,,,,3.493150472
1716265317882182156,-0.024,,,,3.50084477
1716265317889876454,-0.014,,,,3.508539068
1716265317897570752,-0.007,,,,3.516233366
1716265317905265050,-0.002,,,,3.523927664
1716265317912959348,0.0,,,,3.531621962
1716265317920653646,0.002,,,,3.53931626
1716265317928347944,0.007,,,,3.547010558
1716265317936042242,0.019,,,,3.554704856
1716265317943736540,0.024,,,,3.562399154
1716265317951430838,0.021,,,,3.570093452
1716265317959125136,0.021,,,,3.57778775
1716265317966819434,0.021,,,,3.585482048
1716265317974513732,0.019,,,,3.593176346
1716265317982208030,0.021,,,,3.600870644
1716265317989902328,0.029,,,,3.608564942
1716265317997596626,0.029,,,,3.61625924
1716265318005290924,0.026,,,,3.623953538
1716265318012985222,0.029,,,,3.631647836
1716265318020679520,0.036,,,,3.639342134
1716265318028373818,0.041,,,,3.647036432
1716265318036068116,0.043,,,,3.65473073
1716265318043762414,0.048,,,,3.662425028
1716265318051456712,0.053,,,,3.670119326
1716265318059151010,0.051,,,,3.677813624
1716265318066845308,0.053,,,,3.685507922
1716265318074539606,0.055,,,,3.69320222
1716265318082233904,0.06,,,,3.700896518
1716265318089928202,0.065,,,,3.708590816
1716265318097622500,0.065,,729.0,,3.716285114
1716265318105316798,0.065,,,,3.723979412
1716265318113011096,0.063,,,,3.73167371
1716265318120705394,0.063,,,,3.739368008
1716265318128399692,0.06,,,,3.747062306
1716265318136093990,0.048,,,,3.754756604
1716265318143788288,0.043,,,,3.762450902
1716265318151482586,0.055,,,,3.7701452
1716265318159176884,0.068,,,,3.777839498
1716265318166871182,0.082,,,,3.785533796
1716265318174565480,0.107,,,,3.793228094
1716265318182259778,0.119,,,,3.800922392
1716265318189954076,0.107,,,,3.80861669
1716265318197648374,0.097,,,,3.816310988
1716265318205342672,0.094,,,,3.824005286
1716265318213036970,0.077,,,,3.831699584
1716265318220731268,0.063,,,,3.839393882
1716265318228425566,0.072,,,,3.84708818
1716265318236119864,0.08,,,,3.854782478
1716265318243814162,0.077,,,,3.862476776
1716265318251508460,0.08,,,,3.870171074
1716265318259202758,0.082,,,,3.877865372
1716265318266897056,0.082,,,,3.88555967
1716265318274591354,0.077,,,,3.893253968
1716265318282285652,0.058,,,,3.900948266
1716265318289979950,0.08,,,,3.908642564
1716265318297674248,0.301,,,,3.916336862
1716265318305368546,0.6950000000000001,,,,3.92403116
1716265318313062878,1.019,81.0,,,3.931725492
1716265318320756828,0.914,,,,3.939419442
1716265318328450778,0.077,,,,3.947113392
1716265318336144728,-0.6910000000000001,,,,3.954807342
1716265318343838678,-0.44,,,,3.962501292
1716265318351532628,0.038,,,,3.970195242
1716265318359226578,0.014,,,,3.977889192
1716265318366920528,-0.014,,,,3.985583142
1716265318374614478,0.092,,,,3.993277092
1716265318382308428,0.082,,,,4.000971042
1716265318390002378,0.055,,,,4.008664992
1716265318397696328,0.097,,,,4.016358942
1716265318405390278,0.107,,,,4.024052892
1716265318413084228,0.097,,,,4.031746842
1716265318420778178,0.119,,,,4.039440792
1716265318428472128,0.133,,,,4.047134742
1716265318436166078,0.138,,,,4.054828692
1716265318443860028,0.16,,,,4.062522642
1716265318451553978,0.184,,,,4.070216592
1716265318459247928,0.197,,,,4.077910542
1716265318466941878,0.216,,,,4.085604492
1716265318474635828,0.248,,,,4.093298442
1716265318482329778,0.282,,,,4.100992392
1716265318490023728,0.318,,,,4.108686342
1716265318497717678,0.362,,,,4.116380292
1716265318505411628,0.401,,,,4.124074242
1716265318513105578,0.42,,,,4.131768192
1716265318520799528,0.43,,,,4.139462142
1716265318528493478,0.44,,,,4.147156092
1716265318536187428,0.435,,,,4.154850042
1716265318543881378,0.403,,,,4.162543992
1716265318551575328,0.34,,,,4.170237942
1716265318559269278,0.255,,,,4.177931892
1716265318566963228,0.167,,,,4.185625842
1716265318574657178,0.09,,,,4.193319792
1716265318582351128,0.031,,,,4.201013742
1716265318590045078,-0.012,,,,4.208707692
1716265318597739028,-0.036,,,,4.216401642
1716265318605432978,-0.051,,,,4.224095592
1716265318613126928,-0.06,,,,4.231789542
1716265318620820878,-0.063,,,,4.239483492
1716265318628514828,-0.055,,,,4.247177442
1716265318636208778,-0.046,,,,4.254871392
1716265318643902728,-0.041,,,,4.262565342
1716265318651596678,-0.038,,,,4.270259292
1716265318659290628,-0.038,,,,4.277953242
1716265318666984578,-0.031,,,,4.285647192
1716265318674678528,-0.021,,,,4.293341142
1716265318682372478,-0.017,,,,4.301035092
1716265318690066428,-0.009,,,,4.308729042
1716265318697760378,0.0,,,,4.316422992
1716265318705454328,0.004,,,,4.324116942
1716265318713148278,0.007,,,,4.331810892
1716265318720842228,0.012,,,,4.339504842
1716265318728536178,0.017,,,,4.347198792
1716265318736230128,0.021,,,,4.354892742
1716265318743924078,0.031,,,,4.362586692
1716265318751618028,0.038,,,,4.370280642
1716265318759311978,0.041,,,,4.377974592
1716265318767005928,0.043,,,,4.385668542
1716265318774699878,0.048,,,,4.393362492
1716265318782393828,0.051,,,,4.401056442
1716265318790087778,0.043,,,,4.408750392
1716265318797781728,0.041,,,,4.416444342
1716265318805475678,0.046,,,,4.424138292
1716265318813169628,0.051,,,,4.431832242
1716265318820863578,0.055,,,,4.439526192
1716265318828557528,0.055,,,,4.447220142
1716265318836251478,0.058,,,,4.454914092
1716265318843945428,0.048,,,,4.462608042
1716265318851639378,0.036,,,,4.470301992
1716265318859333328,0.036,,,,4.477995942
1716265318867027278,0.046,,,,4.485689892
1716265318874721238,0.048,,777.0,,4.493383852
1716265318882415188,0.038,,,,4.501077802
1716265318890109138,0.041,,,,4.508771752
1716265318897803088,0.046,,,,4.516465702
1716265318905497038,0.048,,,,4.524159652
1716265318913190988,0.051,,,,4.531853602
1716265318920884938,0.058,,,,4.539547552
1716265318928578888,0.06,,,,4.547241502
1716265318936272838,0.053,,,,4.554935452
1716265318943966788,0.046,,,,4.562629402
1716265318951660738,0.048,,,,4.570323352
1716265318959354688,0.043,,,,4.578017302
1716265318967048638,0.031,,,,4.585711252
1716265318974742588,0.031,,,,4.593405202
1716265318982436538,0.043,,,,4.601099152
1716265318990130488,0.06,,,,4.608793102
1716265318997824438,0.087,,,,4.616487052
1716265319005518388,0.099,,,,4.624181002
1716265319013212338,0.094,,,,4.631874952
1716265319020906288,0.09,,,,4.639568902
1716265319028600238,0.08,,,,4.647262852
1716265319036294188,0.068,,,,4.654956802
1716265319043988138,0.055,,,,4.662650752
1716265319051682088,0.058,,,,4.670344702
1716265319059376038,0.068,,,,4.678038652
1716265319067069988,0.068,,,,4.685732602
1716265319074763938,0.065,,,,4.693426552
1716265319082457888,0.068,,,,4.701120502
1716265319090151838,0.068,,,,4.708814452
1716265319097845788,0.068,,,,4.716508402
1716265319105539738,0.068,,,,4.724202352
1716265319113233688,0.063,,,,4.731896302
1716265319120927638,0.16,,,,4.739590252
1716265319128621588,0.476,,,,4.747284202
1716265319136315538,0.873,,,,4.754978152
1716265319144009488,1.053,,,,4.762672102
1716265319151703438,0.637,,,,4.770366052
1716265319159397388,-0.306,,,,4.778060002
1716265319167091338,-0.6980000000000001,,,,4.785753952
1716265319174785288,-0.236,,,,4.793447902
1716265319182479238,0.051,,,,4.801141852
1716265319190173188,-0.012,,,,4.808835802
1716265319197867138,0.058,,,,4.816529752
1716265319205561088,0.133,,,,4.824223702
1716265319213255038,0.097,,,,4.831917652
1716265319220948988,0.107,,,,4.839611602
1716265319228642938,0.148,,,,4.847305552
1716265319236336888,0.143,,,,4.854999502
1716265319244030838,0.145,,,,4.862693452
1716265319251724788,0.17,,,,4.870387402
1716265319259418738,0.182,,,,4.878081352
1716265319267112688,0.192,,,,4.885775302
1716265319274806638,0.211,,,,4.893469252
1716265319282500588,0.233,,,,4.901163202
1716265319290194538,0.262,,,,4.908857152
1716265319297888488,0.294,,,,4.916551102
1716265319305582438,0.316,,,,4.924245052
1716265319313276388,0.352,,,,4.931939002
1716265319320970338,0.401,,,,4.939632952
1716265319328664288,0.437,,,,4.947326902
1716265319336358238,0.462,,,,4.955020852
1716265319344052188,0.489,,,,4.962714802
1716265319351746138,0.496,,,,4.970408752
1716265319359440088,0.476,,,,4.978102702
1716265319367134038,0.455,,,,4.985796652
1716265319374827988,0.423,,,,4.993490602
1716265319382521938,0.345,,,,5.001184552
1716265319390215888,0.25,,,,5.008878502
1716265319397909838,0.17,,,,5.016572452
1716265319405603788,0.094,,,,5.024266402
1716265319413297738,0.024,,,,5.031960352
1716265319420991688,-0.024,,,,5.039654302
1716265319428685638,-0.048,,,,5.047348252
1716265319436379596,-0.065,80.0,,,5.05504221
1716265319444073964,-0.082,,,,5.062736578
1716265319451768332,-0.082,,,,5.070430946
1716265319459462700,-0.07,,,,5.078125314
1716265319467157068,-0.065,,,,5.085819682
1716265319474851436,-0.07,,,,5.09351405
1716265319482545804,-0.063,,,,5.101208418
1716265319490240172,-0.053,,,,5.108902786
1716265319497934540,-0.048,,,,5.116597154
1716265319505628908,-0.048,,,,5.124291522
1716265319513323276,-0.046,,,,5.13198589
1716265319521017644,-0.041,,,,5.139680258
1716265319528712012,-0.031,,,,5.147374626
1716265319536406380,-0.026,,,,5.155068994
1716265319544100748,-0.024,,,,5.162763362
1716265319551795116,-0.014,,,,5.17045773
1716265319559489484,-0.004,,,,5.178152098
1716265319567183852,0.0,,,,5.185846466
1716265319574878220,0.007,,,,5.193540834
1716265319582572588,0.019,,,,5.201235202
1716265319590266956,0.029,,,,5.20892957
1716265319597961324,0.034,,,,5.216623938
1716265319605655692,0.031,,,,5.224318306
1716265319613350060,0.034,,,,5.232012674
1716265319621044428,0.031,,,,5.239707042
1716265319628738796,0.026,,,,5.24740141
1716265319636433164,0.026,,765.0,,5.255095778
1716265319644127532,0.031,,,,5.262790146
1716265319651821900,0.036,,,,5.270484514
1716265319659516268,0.041,,,,5.278178882
1716265319667210636,0.043,,,,5.28587325
1716265319674905004,0.036,,,,5.293567618
1716265319682599372,0.034,,,,5.301261986
1716265319690293740,0.038,,,,5.308956354
1716265319697988108,0.041,,,,5.316650722
1716265319705682476,0.043,,,,5.32434509
1716265319713376844,0.038,,,,5.332039458
1716265319721071212,0.036,,,,5.339733826
1716265319728765580,0.046,,,,5.347428194
1716265319736459948,0.051,,,,5.355122562
1716265319744154316,0.041,,,,5.36281693
1716265319751848684,0.034,,,,5.370511298
1716265319759543052,0.036,,,,5.378205666
1716265319767237420,0.038,,,,5.385900034
1716265319774931788,0.051,,,,5.393594402
1716265319782626156,0.072,,,,5.40128877
1716265319790320524,0.085,,,,5.408983138
1716265319798014892,0.077,,,,5.416677506
1716265319805709260,0.063,,,,5.424371874
1716265319813403628,0.055,,,,5.432066242
1716265319821097996,0.048,,,,5.43976061
1716265319828792364,0.036,,,,5.447454978
1716265319836486732,0.038,,,,5.455149346
1716265319844181100,0.046,,,,5.462843714
1716265319851875468,0.043,,,,5.470538082
1716265319859569836,0.038,,,,5.47823245
1716265319867264204,0.043,,,,5.485926818
1716265319874958572,0.043,,,,5.493621186
1716265319882652940,0.038,,,,5.501315554
1716265319890347308,0.046,,,,5.509009922
1716265319898041676,0.068,,,,5.51670429
1716265319905736044,0.233,,,,5.524398658
1716265319913430412,0.642,,,,5.532093026
1716265319921124780,1.068,,,,5.539787394
1716265319928819148,1.129,,,,5.547481762
1716265319936513516,0.428,,,,5.55517613
1716265319944207884,-0.605,,,,5.562870498
1716265319951902252,-0.744,,,,5.570564866
1716265319959596620,-0.184,,,,5.578259234
1716265319967290988,-0.012,,,,5.585953602
1716265319974985356,-0.048,,,,5.59364797
1716265319982679724,0.082,,,,5.601342338
1716265319990374092,0.131,,,,5.609036706
1716265319998068472,0.082,,,,5.616731086
1716265320005762422,0.109,,,,5.624425036
1716265320013456372,0.148,,,,5.632118986
1716265320021150322,0.143,,,,5.639812936
1716265320028844272,0.153,,,,5.647506886
1716265320036538222,0.18,,,,5.655200836
1716265320044232172,0.192,,,,5.662894786
1716265320051926122,0.204,,,,5.670588736
1716265320059620072,0.228,,,,5.678282686
1716265320067314022,0.253,,,,5.685976636
1716265320075007972,0.279,,,,5.693670586
1716265320082701922,0.306,,,,5.701364536
1716265320090395872,0.338,,,,5.709058486
1716265320098089822,0.384,,,,5.716752436
1716265320105783772,0.428,,,,5.724446386
1716265320113477722,0.459,,,,5.732140336
1716265320121171672,0.489,,,,5.739834286
1716265320128865622,0.513,,,,5.747528236
1716265320136559572,0.52,,,,5.755222186
1716265320144253522,0.51,,,,5.762916136
1716265320151947472,0.479,,,,5.770610086
1716265320159641422,0.418,,,,5.778304036
1716265320167335372,0.326,,,,5.785997986
1716265320175029322,0.216,,,,5.793691936
1716265320182723272,0.111,,,,5.801385886
1716265320190417222,0.024,,,,5.809079836
1716265320198111172,-0.034,,,,5.816773786
1716265320205805122,-0.068,,,,5.824467736
1716265320213499072,-0.085,,,,5.832161686
1716265320221193022,-0.097,,,,5.839855636
1716265320228886972,-0.107,,,,5.847549586
1716265320236580922,-0.107,,,,5.855243536
1716265320244274872,-0.097,,,,5.862937486
1716265320251968822,-0.09,,,,5.870631436
1716265320259662772,-0.087,,,,5.878325386
1716265320267356722,-0.085,,,,5.886019336
1716265320275050672,-0.08,,,,5.893713286
1716265320282744622,-0.07,,,,5.901407236
1716265320290438572,-0.063,,,,5.909101186
1716265320298132522,-0.058,,,,5.916795136
1716265320305826472,-0.051,,,,5.924489086
1716265320313520422,-0.041,,,,5.932183036
1716265320321214372,-0.036,,,,5.939876986
1716265320328908322,-0.031,,,,5.947570936
1716265320336602272,-0.021,,,,5.955264886
1716265320344296222,-0.014,,,,5.962958836
1716265320351990172,-0.009,,,,5.970652786
1716265320359684122,-0.012,,,,5.978346736
1716265320367378072,-0.014,,,,5.986040686
1716265320375072022,-0.009,,,,5.993734636
1716265320382765972,-0.007,,,,6.001428586
1716265320390459922,-0.009,,,,6.009122536
1716265320398153872,-0.002,,,,6.016816486
1716265320405847822,0.002,,,,6.024510436
1716265320413541772,0.0,,,,6.032204386
1716265320421235722,0.0,,,,6.039898336
1716265320428929672,0.0,,,,6.047592286
1716265320436623622,-0.002,,,,6.055286236
1716265320444317572,0.0,,804.0,,6.062980186
1716265320452011522,0.004,,,,6.070674136
1716265320459705472,0.007,,,,6.078368086
1716265320467399422,0.007,,,,6.086062036
1716265320475093372,0.012,,,,6.093755986
1716265320482787322,0.017,,,,6.101449936
1716265320490481272,0.017,,,,6.109143886
1716265320498175222,0.004,,,,6.116837836
1716265320505869172,0.002,,,,6.124531786
1716265320513563122,0.014,,,,6.132225736
1716265320521257072,0.031,,,,6.139919686
1716265320528951022,0.048,,,,6.147613636
1716265320536644972,0.065,,,,6.155307586
1716265320544338922,0.07,,,,6.163001536
1716265320552032872,0.058,,,,6.170695486
1716265320559726830,0.051,80.0,,,6.178389444
1716265320567420780,0.041,,,,6.186083394
1716265320575114730,0.026,,,,6.193777344
1716265320582808680,0.026,,,,6.201471294
1716265320590502630,0.031,,,,6.209165244
1716265320598196580,0.031,,,,6.216859194
1716265320605890530,0.036,,,,6.224553144
1716265320613584480,0.043,,,,6.232247094
1716265320621278430,0.038,,,,6.239941044
1716265320628972380,0.036,,,,6.247634994
1716265320636666330,0.026,,,,6.255328944
1716265320644360280,0.038,,,,6.263022894
1716265320652054230,0.221,,,,6.270716844
1716265320659748180,0.625,,,,6.278410794
1716265320667442130,1.019,,,,6.286104744
1716265320675136080,1.08,,,,6.293798694
1716265320682830030,0.386,,,,6.301492644
1716265320690523980,-0.644,,,,6.309186594
1716265320698217930,-0.717,,,,6.316880544
1716265320705911880,-0.099,,,,6.324574494
1716265320713605830,0.034,,,,6.332268444
1716265320721299780,-0.06,,,,6.339962394
1716265320728993730,0.06,,,,6.347656344
1716265320736687680,0.111,,,,6.355350294
1716265320744381630,0.055,,,,6.363044244
1716265320752075580,0.085,,,,6.370738194
1716265320759769530,0.126,,,,6.378432144
1716265320767463480,0.116,,,,6.386126094
1716265320775157430,0.124,,,,6.393820044
1716265320782851380,0.148,,,,6.401513994
1716265320790545330,0.155,,,,6.409207944
1716265320798239280,0.17,,,,6.416901894
1716265320805933230,0.194,,,,6.424595844
1716265320813627180,0.218,,,,6.432289794
1716265320821321130,0.243,,,,6.439983744
1716265320829015080,0.272,,,,6.447677694
1716265320836709030,0.309,,,,6.455371644
1716265320844402980,0.35,,,,6.463065594
1716265320852096930,0.391,,,,6.470759544
1716265320859790880,0.428,,,,6.478453494
1716265320867484830,0.45,,,,6.486147444
1716265320875178780,0.469,,,,6.493841394
1716265320882872730,0.479,,,,6.501535344
1716265320890566680,0.472,,,,6.509229294
1716265320898260630,0.442,,,,6.516923244
1716265320905954580,0.384,,,,6.524617194
1716265320913648530,0.294,,,,6.532311144
1716265320921342480,0.187,,,,6.540005094
1716265320929036430,0.092,,,,6.547699044
1716265320936730380,0.024,,,,6.555392994
1716265320944424330,-0.024,,,,6.563086944
1716265320952118280,-0.058,,,,6.570780894
1716265320959812230,-0.077,,,,6.578474844
1716265320967506180,-0.087,,,,6.586168794
1716265320975200130,-0.085,,,,6.593862744
1716265320982894080,-0.08,,,,6.601556694
1716265320990588030,-0.075,,,,6.609250644
1716265320998281980,-0.068,,,,6.616944594
1716265321005975930,-0.06,,,,6.624638544
1716265321013669880,-0.055,,,,6.632332494
1716265321021363830,-0.043,,,,6.640026444
1716265321029057780,-0.031,,,,6.647720394
1716265321036751730,-0.024,,,,6.655414344
1716265321044445680,-0.019,,,,6.663108294
1716265321052139630,-0.012,,,,6.670802244
1716265321059833580,-0.007,,,,6.678496194
1716265321067527530,-0.002,,,,6.686190144
1716265321075221480,0.0,,,,6.693884094
1716265321082915430,0.007,,,,6.701578044
1716265321090609380,0.017,,,,6.709271994
1716265321098303330,0.019,,,,6.716965944
1716265321105997280,0.017,,,,6.724659894
1716265321113691230,0.021,,,,6.732353844
1716265321121385188,0.031,,,,6.740047802
1716265321129079138,0.034,,,,6.747741752
1716265321136773088,0.036,,,,6.755435702
1716265321144467038,0.041,,,,6.763129652
1716265321152160988,0.041,,,,6.770823602
1716265321159854938,0.041,,,,6.778517552
1716265321167548888,0.041,,,,6.786211502
1716265321175242838,0.038,,,,6.793905452
1716265321182936788,0.036,,,,6.801599402
1716265321190630738,0.029,,,,6.809293352
1716265321198324688,0.021,,,,6.816987302
1716265321206018638,0.026,,,,6.824681252
1716265321213712588,0.034,,,,6.832375202
1716265321221406538,0.031,,,,6.840069152
1716265321229100488,0.021,,,,6.847763102
1716265321236794438,0.014,,,,6.855457052
1716265321244488388,0.017,,,,6.863151002
1716265321252182338,0.029,,,,6.870844952
1716265321259876288,0.048,,,,6.878538902
1716265321267570238,0.065,,823.0,,6.886232852
1716265321275264188,0.077,,,,6.893926802
1716265321282958138,0.077,,,,6.901620752
1716265321290652088,0.07,,,,6.909314702
1716265321298346038,0.065,,,,6.917008652
1716265321306039988,0.055,,,,6.924702602
1716265321313733938,0.043,,,,6.932396552
1716265321321427888,0.053,,,,6.940090502
1716265321329121838,0.063,,,,6.947784452
1716265321336815788,0.06,,,,6.955478402
1716265321344509738,0.06,,,,6.963172352
1716265321352203688,0.063,,,,6.970866302
1716265321359897638,0.065,,,,6.978560252
1716265321367591588,0.055,,,,6.986254202
1716265321375285538,0.031,,,,6.993948152
1716265321382979488,0.048,,,,7.001642102
1716265321390673438,0.253,,,,7.009336052
1716265321398367388,0.639,,,,7.017030002
1716265321406061338,0.987,,,,7.024723952
1716265321413755288,1.007,,,,7.032417902
1716265321421449238,0.291,,,,7.040111852
1716265321429143188,-0.671,,,,7.047805802
1716265321436837138,-0.639,,,,7.055499752
1716265321444531088,-0.029,,,,7.063193702
1716265321452225038,0.053,,,,7.070887652
1716265321459918988,-0.038,,,,7.078581602
1716265321467612938,0.08,,,,7.086275552
1716265321475306888,0.114,,,,7.093969502
1716265321483000838,0.063,,,,7.101663452
1716265321490694788,0.094,,,,7.109357402
1716265321498388738,0.124,,,,7.117051352
1716265321506082688,0.116,,,,7.124745302
1716265321513776638,0.126,,,,7.132439252
1716265321521470588,0.145,,,,7.140133202
1716265321529164538,0.155,,,,7.147827152
1716265321536858488,0.175,,,,7.155521102
1716265321544552438,0.197,,,,7.163215052
1716265321552246388,0.216,,,,7.170909002
1716265321559940338,0.245,,,,7.178602952
1716265321567634288,0.282,,,,7.186296902
1716265321575328238,0.313,,,,7.193990852
1716265321583022188,0.35,,,,7.201684802
1716265321590716138,0.394,,,,7.209378752
1716265321598410088,0.433,,,,7.217072702
1716265321606104038,0.462,,,,7.224766652
1716265321613797988,0.476,,,,7.232460602
1716265321621491938,0.481,,,,7.240154552
1716265321629185888,0.476,,,,7.247848502
1716265321636879838,0.445,,,,7.255542452
1716265321644573788,0.384,,,,7.263236402
1716265321652267738,0.299,,,,7.270930352
1716265321659961688,0.201,,,,7.278624302
1716265321667655638,0.107,,,,7.286318252
1716265321675349588,0.038,,,,7.294012202
1716265321683043548,-0.004,79.0,,,7.301706162
1716265321690737916,-0.034,,,,7.30940053
1716265321698432284,-0.053,,,,7.317094898
1716265321706126652,-0.065,,,,7.324789266
1716265321713821020,-0.063,,,,7.332483634
1716265321721515388,-0.058,,,,7.340178002
1716265321729209756,-0.065,,,,7.34787237
1716265321736904124,-0.068,,,,7.355566738
1716265321744598492,-0.055,,,,7.363261106
1716265321752292860,-0.046,,,,7.370955474
1716265321759987228,-0.043,,,,7.378649842
1716265321767681596,-0.034,,,,7.38634421
1716265321775375964,-0.021,,,,7.394038578
1716265321783070332,-0.017,,,,7.401732946
1716265321790764700,-0.014,,,,7.409427314
1716265321798459068,-0.009,,,,7.417121682
1716265321806153436,-0.002,,,,7.42481605
1716265321813847804,0.002,,,,7.432510418
1716265321821542172,0.007,,,,7.440204786
1716265321829236540,0.012,,,,7.447899154
1716265321836930908,0.017,,,,7.455593522
1716265321844625276,0.021,,,,7.46328789
1716265321852319644,0.026,,,,7.470982258
1716265321860014012,0.031,,,,7.478676626
1716265321867708380,0.034,,,,7.486370994
1716265321875402748,0.034,,,,7.494065362
1716265321883097116,0.029,,,,7.50175973
1716265321890791484,0.026,,,,7.509454098
1716265321898485852,0.034,,,,7.517148466
1716265321906180220,0.031,,,,7.524842834
1716265321913874588,0.029,,,,7.532537202
1716265321921568956,0.034,,,,7.54023157
1716265321929263324,0.036,,,,7.547925938
1716265321936957692,0.036,,,,7.555620306
1716265321944652060,0.036,,,,7.563314674
1716265321952346428,0.041,,,,7.571009042
1716265321960040796,0.046,,,,7.57870341
1716265321967735164,0.046,,,,7.586397778
1716265321975429532,0.043,,,,7.594092146
1716265321983123900,0.034,,,,7.601786514
1716265321990818268,0.031,,,,7.609480882
1716265321998512636,0.038,,,,7.61717525
1716265322006207004,0.055,,,,7.624869618
1716265322013901372,0.072,,,,7.632563986
1716265322021595740,0.085,,,,7.640258354
1716265322029290108,0.09,,,,7.647952722
1716265322036984476,0.08,,,,7.65564709
1716265322044678844,0.075,,,,7.663341458
1716265322052373212,0.07,,,,7.671035826
1716265322060067580,0.055,,,,7.678730194
1716265322067761948,0.046,,,,7.686424562
1716265322075456316,0.055,,,,7.69411893
1716265322083150684,0.063,,,,7.701813298
1716265322090845052,0.06,,828.0,,7.709507666
1716265322098539420,0.063,,,,7.717202034
1716265322106233788,0.07,,,,7.724896402
1716265322113928156,0.072,,,,7.73259077
1716265322121622524,0.068,,,,7.740285138
1716265322129316892,0.058,,,,7.747979506
1716265322137011260,0.087,,,,7.755673874
1716265322144705628,0.299,,,,7.763368242
1716265322152399996,0.678,,,,7.77106261
1716265322160094364,0.995,,,,7.778756978
1716265322167788732,0.963,,,,7.786451346
1716265322175483100,0.216,,,,7.794145714
1716265322183177468,-0.674,,,,7.801840082
1716265322190871836,-0.552,,,,7.80953445
1716265322198566204,0.021,,,,7.817228818
1716265322206260572,0.06,,,,7.824923186
1716265322213954940,-0.014,,,,7.832617554
1716265322221649308,0.107,,,,7.840311922
1716265322229343676,0.126,,,,7.84800629
1716265322237038044,0.08,,,,7.855700658
1716265322244732424,0.114,78.0,,,7.863395038
1716265322252426374,0.141,,,,7.871088988
1716265322260120324,0.128,,,,7.878782938
1716265322267814274,0.141,,,,7.886476888
1716265322275508224,0.167,,,,7.894170838
1716265322283202174,0.177,,,,7.901864788
1716265322290896124,0.189,,,,7.909558738
1716265322298590074,0.211,,,,7.917252688
1716265322306284024,0.228,,,,7.924946638
1716265322313977974,0.253,,,,7.932640588
1716265322321671924,0.287,,,,7.940334538
1716265322329365874,0.318,,,,7.948028488
1716265322337059824,0.345,,,,7.955722438
1716265322344753774,0.386,,,,7.963416388
1716265322352447724,0.428,,,,7.971110338
1716265322360141674,0.452,,,,7.978804288
1716265322367835624,0.467,,,,7.986498238
1716265322375529574,0.476,,,,7.994192188
1716265322383223524,0.462,,,,8.001886138
1716265322390917474,0.42,,,,8.009580088
1716265322398611424,0.355,,,,8.017274038
1716265322406305374,0.265,,,,8.024967988
1716265322413999324,0.167,,,,8.032661938
1716265322421693274,0.085,,,,8.040355888
1716265322429387224,0.021,,,,8.048049838
1716265322437081174,-0.024,,,,8.055743788
1716265322444775124,-0.053,,,,8.063437738
1716265322452469074,-0.07,,,,8.071131688
1716265322460163024,-0.075,,,,8.078825638
1716265322467856974,-0.077,,,,8.086519588
1716265322475550924,-0.072,,,,8.094213538
1716265322483244874,-0.068,,,,8.101907488
1716265322490938824,-0.063,,,,8.109601438
1716265322498632774,-0.053,,,,8.117295388
1716265322506326724,-0.043,,,,8.124989338
1716265322514020674,-0.034,,,,8.132683288
1716265322521714624,-0.026,,,,8.140377238
1716265322529408574,-0.019,,,,8.148071188
1716265322537102524,-0.014,,,,8.155765138
1716265322544796474,-0.012,,,,8.163459088
1716265322552490424,-0.004,,,,8.171153038
1716265322560184374,0.004,,,,8.178846988
1716265322567878324,0.009,,,,8.186540938
1716265322575572274,0.009,,,,8.194234888
1716265322583266224,0.014,,,,8.201928838
1716265322590960174,0.021,,,,8.209622788
1716265322598654124,0.029,,,,8.217316738
1716265322606348074,0.034,,,,8.225010688
1716265322614042024,0.038,,,,8.232704638
1716265322621735974,0.043,,,,8.240398588
1716265322629429924,0.043,,,,8.248092538
1716265322637123874,0.043,,,,8.255786488
1716265322644817824,0.043,,,,8.263480438
1716265322652511774,0.038,,,,8.271174388
1716265322660205724,0.036,,,,8.278868338
1716265322667899674,0.036,,,,8.286562288
1716265322675593624,0.034,,,,8.294256238
1716265322683287574,0.036,,,,8.301950188
1716265322690981524,0.041,,,,8.309644138
1716265322698675474,0.043,,,,8.317338088
1716265322706369424,0.046,,,,8.325032038
1716265322714063374,0.046,,,,8.332725988
1716265322721757324,0.041,,,,8.340419938
1716265322729451274,0.043,,,,8.348113888
1716265322737145224,0.048,,,,8.355807838
1716265322744839174,0.055,,,,8.363501788
1716265322752533124,0.058,,,,8.371195738
1716265322760227074,0.055,,,,8.378889688
1716265322767921024,0.043,,,,8.386583638
1716265322775614974,0.038,,,,8.394277588
1716265322783308924,0.043,,,,8.401971538
1716265322791002874,0.055,,,,8.409665488
1716265322798696824,0.072,,,,8.417359438
1716265322806390782,0.09,,,,8.425053396
1716265322814085150,0.097,,,,8.432747764
1716265322821779518,0.092,,,,8.440442132
1716265322829473886,0.087,,,,8.4481365
1716265322837168254,0.08,,,,8.455830868
1716265322844862622,0.06,,,,8.463525236
1716265322852556990,0.048,,,,8.471219604
1716265322860251358,0.053,,,,8.478913972
1716265322867945726,0.053,,,,8.48660834
1716265322875640094,0.048,,782.0,,8.494302708
1716265322883334462,0.046,,,,8.501997076
1716265322891028830,0.034,,,,8.509691444
1716265322898723198,0.019,,,,8.517385812
1716265322906417566,0.024,,,,8.52508018
1716265322914111934,0.029,,,,8.532774548
1716265322921806302,0.036,,,,8.540468916
1716265322929500670,0.182,,,,8.548163284
1716265322937195038,0.537,,,,8.555857652
1716265322944889406,0.9,,,,8.56355202
1716265322952583774,1.009,,,,8.571246388
1716265322960278142,0.479,,,,8.578940756
1716265322967972510,-0.513,,,,8.586635124
1716265322975666878,-0.727,,,,8.594329492
1716265322983361246,-0.131,,,,8.60202386
1716265322991055614,0.08,,,,8.609718228
1716265322998749982,-0.038,,,,8.617412596
1716265323006444350,0.048,,,,8.625106964
1716265323014138718,0.119,,,,8.632801332
1716265323021833086,0.063,,,,8.6404957
1716265323029527454,0.075,,,,8.648190068
1716265323037221822,0.121,,,,8.655884436
1716265323044916190,0.119,,,,8.663578804
1716265323052610558,0.124,,,,8.671273172
1716265323060304926,0.145,,,,8.67896754
1716265323067999294,0.16,,,,8.686661908
1716265323075693662,0.172,,,,8.694356276
1716265323083388030,0.192,,,,8.702050644
1716265323091082398,0.216,,,,8.709745012
1716265323098776766,0.25,,,,8.71743938
1716265323106471134,0.282,,,,8.725133748
1716265323114165502,0.311,,,,8.732828116
1716265323121859870,0.35,,,,8.740522484
1716265323129554238,0.394,,,,8.748216852
1716265323137248606,0.425,,,,8.75591122
1716265323144942974,0.455,,,,8.763605588
1716265323152637342,0.484,,,,8.771299956
1716265323160331710,0.496,,,,8.778994324
1716265323168026078,0.489,,,,8.786688692
1716265323175720446,0.462,,,,8.79438306
1716265323183414814,0.411,,,,8.802077428
1716265323191109182,0.328,,,,8.809771796
1716265323198803550,0.226,,,,8.817466164
1716265323206497918,0.131,,,,8.825160532
1716265323214192286,0.053,,,,8.8328549
1716265323221886654,-0.004,,,,8.840549268
1716265323229581022,-0.043,,,,8.848243636
1716265323237275390,-0.07,,,,8.855938004
1716265323244969758,-0.082,,,,8.863632372
1716265323252664126,-0.077,,,,8.87132674
1716265323260358494,-0.075,,,,8.879021108
1716265323268052862,-0.08,,,,8.886715476
1716265323275747230,-0.072,,,,8.894409844
1716265323283441598,-0.063,,,,8.902104212
1716265323291135966,-0.063,,,,8.90979858
1716265323298830334,-0.051,,,,8.917492948
1716265323306524702,-0.034,,,,8.925187316
1716265323314219070,-0.038,,,,8.932881684
1716265323321913438,-0.043,,,,8.940576052
1716265323329607806,-0.024,,,,8.94827042
1716265323337302174,-0.009,,,,8.955964788
1716265323344996542,-0.007,,,,8.963659156
1716265323352690910,-0.004,,,,8.971353524
1716265323360385278,0.0,,,,8.979047892
1716265323368079658,0.002,78.0,,,8.986742272
1716265323375773608,0.012,,,,8.994436222
1716265323383467558,0.012,,,,9.002130172
1716265323391161508,0.007,,,,9.009824122
1716265323398855458,0.009,,,,9.017518072
1716265323406549408,0.012,,,,9.025212022
1716265323414243358,0.012,,,,9.032905972
1716265323421937308,0.021,,,,9.040599922
1716265323429631258,0.034,,,,9.048293872
1716265323437325208,0.029,,,,9.055987822
1716265323445019158,0.019,,,,9.063681772
1716265323452713108,0.019,,,,9.071375722
1716265323460407058,0.021,,,,9.079069672
1716265323468101008,0.019,,,,9.086763622
1716265323475794958,0.019,,,,9.094457572
1716265323483488908,0.026,,,,9.102151522
1716265323491182858,0.031,,,,9.109845472
1716265323498876808,0.026,,,,9.117539422
1716265323506570758,0.024,,,,9.125233372
1716265323514264708,0.036,,,,9.132927322
1716265323521958658,0.046,,,,9.140621272
1716265323529652608,0.046,,,,9.148315222
1716265323537346558,0.046,,,,9.156009172
1716265323545040508,0.053,,,,9.163703122
1716265323552734458,0.048,,,,9.171397072
1716265323560428408,0.043,,,,9.179091022
1716265323568122358,0.048,,,,9.186784972
1716265323575816308,0.055,,,,9.194478922
1716265323583510258,0.068,,,,9.202172872
1716265323591204208,0.085,,,,9.209866822
1716265323598898158,0.092,,,,9.217560772
1716265323606592108,0.087,,,,9.225254722
1716265323614286058,0.077,,,,9.232948672
1716265323621980008,0.068,,746.0,,9.240642622
1716265323629673958,0.046,,,,9.248336572
1716265323637367908,0.026,,,,9.256030522
1716265323645061858,0.034,,,,9.263724472
1716265323652755808,0.051,,,,9.271418422
1716265323660449758,0.055,,,,9.279112372
1716265323668143708,0.051,,,,9.286806322
1716265323675837658,0.053,,,,9.294500272
1716265323683531608,0.058,,,,9.302194222
1716265323691225558,0.06,,,,9.309888172
1716265323698919508,0.06,,,,9.317582122
1716265323706613458,0.06,,,,9.325276072
1716265323714307408,0.199,,,,9.332970022
1716265323722001358,0.579,,,,9.340663972
1716265323729695308,0.995,,,,9.348357922
1716265323737389258,1.138,,,,9.356051872
1716265323745083208,0.608,,,,9.363745822
1716265323752777158,-0.452,,,,9.371439772
1716265323760471108,-0.805,,,,9.379133722
1716265323768165058,-0.25,,,,9.386827672
1716265323775859008,0.034,,,,9.394521622
1716265323783552958,-0.041,,,,9.402215572
1716265323791246908,0.053,,,,9.409909522
1716265323798940858,0.131,,,,9.417603472
1716265323806634808,0.075,,,,9.425297422
1716265323814328758,0.085,,,,9.432991372
1716265323822022708,0.133,,,,9.440685322
1716265323829716658,0.126,,,,9.448379272
1716265323837410608,0.126,,,,9.456073222
1716265323845104558,0.153,,,,9.463767172
1716265323852798508,0.163,,,,9.471461122
1716265323860492458,0.172,,,,9.479155072
1716265323868186408,0.199,,,,9.486849022
1716265323875880358,0.218,,,,9.494542972
1716265323883574308,0.24,,,,9.502236922
1716265323891268258,0.27,,,,9.509930872
1716265323898962208,0.304,,,,9.517624822
1716265323906656158,0.345,,,,9.525318772
1716265323914350108,0.394,,,,9.533012722
1716265323922044058,0.435,,,,9.540706672
1716265323929738016,0.469,,,,9.54840063
1716265323937432035,0.493,,,,9.556094649
1716265323945126054,0.506,,,,9.563788668
1716265323952820073,0.498,,,,9.571482687
1716265323960514092,0.469,,,,9.579176706
1716265323968208111,0.411,,,,9.586870725
1716265323975902130,0.316,,,,9.594564744
1716265323983596149,0.199,,,,9.602258763
1716265323991290168,0.099,,,,9.609952782
1716265323998984187,0.024,,,,9.617646801
1716265324006678206,-0.038,,,,9.62534082
1716265324014372225,-0.085,,,,9.633034839
1716265324022066244,-0.107,,,,9.640728858
1716265324029760263,-0.111,,,,9.648422877
1716265324037454282,-0.116,,,,9.656116896
1716265324045148301,-0.116,,,,9.663810915
1716265324052842320,-0.107,,,,9.671504934
1716265324060536339,-0.094,,,,9.679198953
1716265324068230358,-0.09,,,,9.686892972
1716265324075924377,-0.085,,,,9.694586991
1716265324083618396,-0.072,,,,9.70228101
1716265324091312415,-0.063,,,,9.709975029
1716265324099006434,-0.06,,,,9.717669048
1716265324106700453,-0.06,,,,9.725363067
1716265324114394472,-0.053,,,,9.733057086
1716265324122088491,-0.043,,,,9.740751105
1716265324129782510,-0.043,,,,9.748445124
1716265324137476529,-0.041,,,,9.756139143
1716265324145170548,-0.029,,,,9.763833162
1716265324152864567,-0.024,,,,9.771527181
1716265324160558586,-0.024,,,,9.7792212
1716265324168252605,-0.014,,,,9.786915219
1716265324175946624,0.0,,,,9.794609238
1716265324183640643,0.004,,,,9.802303257
1716265324191334662,0.004,,,,9.809997276
1716265324199028681,0.009,,,,9.817691295
1716265324206722700,0.014,,,,9.825385314
1716265324214416719,0.014,,,,9.833079333
1716265324222110738,0.014,,,,9.840773352
1716265324229804757,0.019,,,,9.848467371
1716265324237498776,0.021,,,,9.85616139
1716265324245192795,0.024,,,,9.863855409
1716265324252886814,0.026,,,,9.871549428
1716265324260580833,0.031,,,,9.879243447
1716265324268274852,0.034,,,,9.886937466
1716265324275968871,0.036,,,,9.894631485
1716265324283662890,0.036,,,,9.902325504
1716265324291356909,0.036,,,,9.910019523
1716265324299050928,0.038,,,,9.917713542
1716265324306744947,0.038,,,,9.925407561
1716265324314438966,0.043,,,,9.93310158
1716265324322132985,0.051,,,,9.940795599
1716265324329827004,0.048,,,,9.948489618
1716265324337521023,0.036,,,,9.956183637
1716265324345215042,0.024,,,,9.963877656
1716265324352909061,0.031,,,,9.971571675
1716265324360603080,0.046,,738.0,,9.979265694
1716265324368297099,0.053,,,,9.986959713
1716265324375991118,0.058,,,,9.994653732
1716265324383685137,0.075,,,,10.002347751
1716265324391379156,0.082,,,,10.01004177
1716265324399073175,0.065,,,,10.017735789
1716265324406767194,0.051,,,,10.025429808
1716265324414461213,0.048,,,,10.033123827
1716265324422155232,0.036,,,,10.040817846
1716265324429849251,0.029,,,,10.048511865
1716265324437543270,0.036,,,,10.056205884
1716265324445237289,0.041,,,,10.063899903
1716265324452931308,0.046,,,,10.071593922
1716265324460625327,0.048,,,,10.079287941
1716265324468319346,0.051,,,,10.08698196
1716265324476013365,0.053,,,,10.094675979
1716265324483707384,0.053,,,,10.102369998
1716265324491401462,0.055,79.0,,,10.110064076
1716265324499095760,0.192,,,,10.117758374
1716265324506790058,0.562,,,,10.125452672
1716265324514484356,0.968,,,,10.13314697
1716265324522178654,1.124,,,,10.140841268
1716265324529872952,0.627,,,,10.148535566
1716265324537567250,-0.445,,,,10.156229864
1716265324545261548,-0.8290000000000001,,,,10.163924162
1716265324552955846,-0.226,,,,10.17161846
1716265324560650144,0.08,,,,10.179312758
1716265324568344442,-0.051,,,,10.187007056
1716265324576038740,0.024,,,,10.194701354
1716265324583733038,0.119,,,,10.202395652
1716265324591427336,0.065,,,,10.21008995
1716265324599121634,0.072,,,,10.217784248
1716265324606815932,0.121,,,,10.225478546
1716265324614510230,0.111,,,,10.233172844
1716265324622204528,0.109,,,,10.240867142
1716265324629898826,0.136,,,,10.24856144
1716265324637593124,0.15,,,,10.256255738
1716265324645287422,0.155,,,,10.263950036
1716265324652981720,0.177,,,,10.271644334
1716265324660676018,0.199,,,,10.279338632
1716265324668370316,0.221,,,,10.28703293
1716265324676064614,0.255,,,,10.294727228
1716265324683758912,0.296,,,,10.302421526
1716265324691453210,0.335,,,,10.310115824
1716265324699147508,0.377,,,,10.317810122
1716265324706841806,0.413,,,,10.32550442
1716265324714536104,0.447,,,,10.333198718
1716265324722230402,0.476,,,,10.340893016
1716265324729924700,0.486,,,,10.348587314
1716265324737618998,0.481,,,,10.356281612
1716265324745313296,0.459,,,,10.36397591
1716265324753007594,0.403,,,,10.371670208
1716265324760701892,0.311,,,,10.379364506
1716265324768396190,0.204,,,,10.387058804
1716265324776090488,0.111,,,,10.394753102
1716265324783784786,0.038,,,,10.4024474
1716265324791479084,-0.019,,,,10.410141698
1716265324799173382,-0.058,,,,10.417835996
1716265324806867680,-0.075,,,,10.425530294
1716265324814561978,-0.087,,,,10.433224592
1716265324822256276,-0.092,,,,10.44091889
1716265324829950574,-0.087,,,,10.448613188
1716265324837644872,-0.08,,,,10.456307486
1716265324845339170,-0.08,,,,10.464001784
1716265324853033468,-0.075,,,,10.471696082
1716265324860727766,-0.068,,,,10.47939038
1716265324868422064,-0.063,,,,10.487084678
1716265324876116362,-0.058,,,,10.494778976
1716265324883810660,-0.051,,,,10.502473274
1716265324891504958,-0.046,,,,10.510167572
1716265324899199256,-0.043,,,,10.51786187
1716265324906893554,-0.046,,,,10.525556168
1716265324914587852,-0.043,,,,10.533250466
1716265324922282150,-0.036,,,,10.540944764
1716265324929976448,-0.029,,,,10.548639062
1716265324937670746,-0.024,,,,10.55633336
1716265324945365044,-0.021,,,,10.564027658
1716265324953059342,-0.012,,,,10.571721956
1716265324960753640,-0.004,,,,10.579416254
1716265324968447938,-0.002,,,,10.587110552
1716265324976142236,0.0,,,,10.59480485
1716265324983836534,0.004,,,,10.602499148
1716265324991530832,0.009,,,,10.610193446
1716265324999225130,0.009,,,,10.617887744
1716265325006919428,0.012,,,,10.625582042
1716265325014613726,0.019,,,,10.63327634
1716265325022308024,0.021,,,,10.640970638
1716265325030002322,0.019,,,,10.648664936
1716265325037696620,0.021,,,,10.656359234
1716265325045390918,0.024,,,,10.664053532
1716265325053085250,0.029,,,,10.671747864
1716265325060779200,0.031,,,,10.679441814
1716265325068473150,0.031,,,,10.687135764
1716265325076167100,0.031,,,,10.694829714
1716265325083861050,0.034,,,,10.702523664
1716265325091555000,0.038,,,,10.710217614
1716265325099248950,0.041,,,,10.717911564
1716265325106942900,0.036,,,,10.725605514
1716265325114636850,0.029,,754.0,,10.733299464
1716265325122330800,0.024,,,,10.740993414
1716265325130024750,0.024,,,,10.748687364
1716265325137718700,0.031,,,,10.756381314
1716265325145412650,0.034,,,,10.764075264
1716265325153106600,0.031,,,,10.771769214
1716265325160800550,0.031,,,,10.779463164
1716265325168494500,0.024,,,,10.787157114
1716265325176188450,0.017,,,,10.794851064
1716265325183882400,0.026,,,,10.802545014
1716265325191576350,0.046,,,,10.810238964
1716265325199270300,0.063,,,,10.817932914
1716265325206964250,0.075,,,,10.825626864
1716265325214658200,0.08,,,,10.833320814
1716265325222352150,0.077,,,,10.841014764
1716265325230046100,0.075,,,,10.848708714
1716265325237740050,0.07,,,,10.856402664
1716265325245434000,0.053,,,,10.864096614
1716265325253127950,0.043,,,,10.871790564
1716265325260821900,0.051,,,,10.879484514
1716265325268515850,0.053,,,,10.887178464
1716265325276209800,0.051,,,,10.894872414
1716265325283903750,0.051,,,,10.902566364
1716265325291597700,0.051,,,,10.910260314
1716265325299291650,0.051,,,,10.917954264
1716265325306985600,0.051,,,,10.925648214
1716265325314679550,0.046,,,,10.933342164
1716265325322373500,0.085,,,,10.941036114
1716265325330067450,0.309,,,,10.948730064
1716265325337761400,0.6930000000000001,,,,10.956424014
1716265325345455350,1.014,,,,10.964117964
1716265325353149300,0.985,,,,10.971811914
1716265325360843250,0.204,,,,10.979505864
1716265325368537200,-0.72,,,,10.987199814
1716265325376231150,-0.5760000000000001,,,,10.994893764
1716265325383925100,0.029,,,,11.002587714
1716265325391619050,0.053,,,,11.010281664
1716265325399313000,-0.034,,,,11.017975614
1716265325407006950,0.092,,,,11.025669564
1716265325414700900,0.102,,,,11.033363514
1716265325422394850,0.048,,,,11.041057464
1716265325430088800,0.092,,,,11.048751414
1716265325437782750,0.126,,,,11.056445364
1716265325445476700,0.111,,,,11.064139314
1716265325453170650,0.124,,,,11.071833264
1716265325460864600,0.145,,,,11.079527214
1716265325468558550,0.158,,,,11.087221164
1716265325476252500,0.175,,,,11.094915114
1716265325483946450,0.194,,,,11.102609064
1716265325491640400,0.216,,,,11.110303014
1716265325499334350,0.248,,,,11.117996964
1716265325507028300,0.279,,,,11.125690914
1716265325514722250,0.316,,,,11.133384864
1716265325522416200,0.36,,,,11.141078814
1716265325530110150,0.403,,,,11.148772764
1716265325537804100,0.435,,,,11.156466714
1716265325545498050,0.464,,,,11.164160664
1716265325553192000,0.491,,,,11.171854614
1716265325560885950,0.503,,,,11.179548564
1716265325568579900,0.493,,,,11.187242514
1716265325576273850,0.459,,,,11.194936464
1716265325583967800,0.394,,,,11.202630414
1716265325591661750,0.301,,,,11.210324364
1716265325599355700,0.197,,,,11.218018314
1716265325607049650,0.104,,,,11.225712264
1716265325614743610,0.036,79.0,,,11.233406224
1716265325622437560,-0.014,,,,11.241100174
1716265325630131510,-0.051,,,,11.248794124
1716265325637825460,-0.065,,,,11.256488074
1716265325645519410,-0.068,,,,11.264182024
1716265325653213360,-0.07,,,,11.271875974
1716265325660907310,-0.072,,,,11.279569924
1716265325668601260,-0.065,,,,11.287263874
1716265325676295210,-0.058,,,,11.294957824
1716265325683989160,-0.051,,,,11.302651774
1716265325691683110,-0.051,,,,11.310345724
1716265325699377060,-0.048,,,,11.318039674
1716265325707071010,-0.036,,,,11.325733624
1716265325714764960,-0.034,,,,11.333427574
1716265325722458910,-0.041,,,,11.341121524
1716265325730152860,-0.041,,,,11.348815474
1716265325737846810,-0.026,,,,11.356509424
1716265325745540760,-0.021,,,,11.364203374
1716265325753234710,-0.019,,,,11.371897324
1716265325760928660,-0.012,,,,11.379591274
1716265325768622610,-0.009,,,,11.387285224
1716265325776316560,-0.007,,,,11.394979174
1716265325784010510,0.0,,,,11.402673124
1716265325791704460,0.007,,,,11.410367074
1716265325799398410,0.012,,,,11.418061024
1716265325807092360,0.014,,,,11.425754974
1716265325814786310,0.014,,,,11.433448924
1716265325822480260,0.021,,,,11.441142874
1716265325830174210,0.029,,,,11.448836824
1716265325837868160,0.031,,,,11.456530774
1716265325845562110,0.029,,,,11.464224724
1716265325853256060,0.026,,,,11.471918674
1716265325860950010,0.024,,,,11.479612624
1716265325868643960,0.024,,,,11.487306574
1716265325876337910,0.024,,,,11.495000524
1716265325884031860,0.026,,,,11.502694474
1716265325891725810,0.034,,,,11.510388424
1716265325899419760,0.036,,787.0,,11.518082374
1716265325907113710,0.034,,,,11.525776324
1716265325914807660,0.026,,,,11.533470274
1716265325922501610,0.024,,,,11.541164224
1716265325930195560,0.026,,,,11.548858174
1716265325937889510,0.031,,,,11.556552124
1716265325945583460,0.034,,,,11.564246074
1716265325953277410,0.036,,,,11.571940024
1716265325960971360,0.038,,,,11.579633974
1716265325968665310,0.043,,,,11.587327924
1716265325976359260,0.048,,,,11.595021874
1716265325984053210,0.051,,,,11.602715824
1716265325991747160,0.053,,,,11.610409774
1716265325999441110,0.055,,,,11.618103724
1716265326007135060,0.058,,,,11.625797674
1716265326014829010,0.06,,,,11.633491624
1716265326022522960,0.058,,,,11.641185574
1716265326030216910,0.055,,,,11.648879524
1716265326037910860,0.048,,,,11.656573474
1716265326045604810,0.036,,,,11.664267424
1716265326053298760,0.036,,,,11.671961374
1716265326060992710,0.051,,,,11.679655324
1716265326068686660,0.07,,,,11.687349274
1716265326076380610,0.085,,,,11.695043224
1716265326084074560,0.092,,,,11.702737174
1716265326091768510,0.087,,,,11.710431124
1716265326099462460,0.077,,,,11.718125074
1716265326107156410,0.072,,,,11.725819024
1716265326114850360,0.065,,,,11.733512974
1716265326122544310,0.051,,,,11.741206924
1716265326130238260,0.046,,,,11.748900874
1716265326137932210,0.053,,,,11.756594824
1716265326145626160,0.06,,,,11.764288774
1716265326153320110,0.063,,,,11.771982724
1716265326161014060,0.068,,,,11.779676674
1716265326168708010,0.07,,,,11.787370624
1716265326176401968,0.072,78.0,,,11.795064582
1716265326184096336,0.072,,,,11.80275895
1716265326191790704,0.063,,,,11.810453318
1716265326199485072,0.104,,,,11.818147686
1716265326207179440,0.335,,,,11.825842054
1716265326214873808,0.71,,,,11.833536422
1716265326222568176,1.012,,,,11.84123079
1716265326230262544,0.944,,,,11.848925158
1716265326237956912,0.133,,,,11.856619526
1716265326245651280,-0.708,,,,11.864313894
1716265326253345648,-0.479,,,,11.872008262
1716265326261040016,0.075,,,,11.87970263
1716265326268734384,0.06,,,,11.887396998
1716265326276428752,0.0,,,,11.895091366
1716265326284123120,0.126,,,,11.902785734
1716265326291817488,0.128,,,,11.910480102
1716265326299511856,0.087,,,,11.91817447
1716265326307206224,0.131,,,,11.925868838
1716265326314900592,0.155,,,,11.933563206
1716265326322594960,0.141,,,,11.941257574
1716265326330289328,0.158,,,,11.948951942
1716265326337983696,0.177,,,,11.95664631
1716265326345678064,0.18,,,,11.964340678
1716265326353372432,0.192,,,,11.972035046
1716265326361066800,0.218,,,,11.979729414
1716265326368761168,0.238,,,,11.987423782
1716265326376455536,0.26,,,,11.99511815
1716265326384149904,0.291,,,,12.002812518
1716265326391844272,0.328,,,,12.010506886
1716265326399538640,0.369,,,,12.018201254
1716265326407233008,0.411,,,,12.025895622
1716265326414927376,0.442,,,,12.03358999
1716265326422621744,0.462,,,,12.041284358
1716265326430316112,0.484,,,,12.048978726
1716265326438010480,0.501,,,,12.056673094
1716265326445704848,0.491,,,,12.064367462
1716265326453399216,0.457,,,,12.07206183
1716265326461093584,0.396,,,,12.079756198
1716265326468787952,0.306,,,,12.087450566
1716265326476482320,0.204,,,,12.095144934
1716265326484176688,0.121,,,,12.102839302
1716265326491871056,0.053,,,,12.11053367
1716265326499565424,-0.002,,,,12.118228038
1716265326507259792,-0.038,,,,12.125922406
1716265326514954160,-0.051,,,,12.133616774
1716265326522648528,-0.058,,,,12.141311142
1716265326530342896,-0.063,,,,12.14900551
1716265326538037264,-0.058,,,,12.156699878
1716265326545731632,-0.055,,,,12.164394246
1716265326553426000,-0.051,,,,12.172088614
1716265326561120368,-0.048,,,,12.179782982
1716265326568814736,-0.041,,,,12.18747735
1716265326576509104,-0.029,,,,12.195171718
1716265326584203472,-0.024,,,,12.202866086
1716265326591897840,-0.031,,,,12.210560454
1716265326599592208,-0.029,,,,12.218254822
1716265326607286576,-0.017,,,,12.22594919
1716265326614980944,-0.012,,,,12.233643558
1716265326622675312,-0.012,,,,12.241337926
1716265326630369680,-0.004,,,,12.249032294
1716265326638064048,0.0,,,,12.256726662
1716265326645758416,0.0,,,,12.26442103
1716265326653452784,-0.002,,,,12.272115398
1716265326661147152,0.002,,,,12.279809766
1716265326668841520,0.009,,,,12.287504134
1716265326676535888,0.014,,,,12.295198502
1716265326684230256,0.017,,785.0,,12.30289287
1716265326691924624,0.019,,,,12.310587238
1716265326699618992,0.024,,,,12.318281606
1716265326707313360,0.026,,,,12.325975974
1716265326715007728,0.024,,,,12.333670342
1716265326722702096,0.026,,,,12.34136471
1716265326730396464,0.029,,,,12.349059078
1716265326738090844,0.024,,,,12.356753458
1716265326745785212,0.026,,,,12.364447826
1716265326753479580,0.031,,,,12.372142194
1716265326761173948,0.034,,,,12.379836562
1716265326768868316,0.031,,,,12.38753093
1716265326776562684,0.026,,,,12.395225298
1716265326784257052,0.029,,,,12.402919666
1716265326791951420,0.036,,,,12.410614034
1716265326799645788,0.038,,,,12.418308402
1716265326807340156,0.036,,,,12.42600277
1716265326815034524,0.034,,,,12.433697138
1716265326822728892,0.034,,,,12.441391506
1716265326830423260,0.026,,,,12.449085874
1716265326838117628,0.024,,,,12.456780242
1716265326845811996,0.034,,,,12.46447461
1716265326853506364,0.034,,,,12.472168978
1716265326861200732,0.021,,,,12.479863346
1716265326868895100,0.021,,,,12.487557714
1716265326876589468,0.026,,,,12.495252082
1716265326884283836,0.026,,,,12.50294645
1716265326891978204,0.024,,,,12.510640818
1716265326899672572,0.029,,,,12.518335186
1716265326907366940,0.034,,,,12.526029554
1716265326915061308,0.034,,,,12.533723922
1716265326922755676,0.031,,,,12.54141829
1716265326930450044,0.034,,,,12.549112658
1716265326938144412,0.041,,,,12.556807026
1716265326945838780,0.043,,,,12.564501394
1716265326953533148,0.038,,,,12.572195762
1716265326961227516,0.041,,,,12.57989013
1716265326968921884,0.038,,,,12.587584498
1716265326976616252,0.031,,,,12.595278866
1716265326984310620,0.036,,,,12.602973234
1716265326992004988,0.063,,,,12.610667602
1716265326999699356,0.092,,,,12.61836197
1716265327007393724,0.104,,,,12.626056338
1716265327015088092,0.097,,,,12.633750706
1716265327022782460,0.09,,,,12.641445074
1716265327030476828,0.087,,,,12.649139442
1716265327038171196,0.077,,,,12.65683381
1716265327045865564,0.06,,,,12.664528178
1716265327053559932,0.058,,,,12.672222546
1716265327061254300,0.065,,,,12.679916914
1716265327068948668,0.07,,,,12.687611282
1716265327076643036,0.072,,,,12.69530565
1716265327084337404,0.072,,,,12.703000018
1716265327092031772,0.07,,,,12.710694386
1716265327099726140,0.07,,,,12.718388754
1716265327107420508,0.077,,,,12.726083122
1716265327115114876,0.08,,,,12.73377749
1716265327122809244,0.104,,,,12.741471858
1716265327130503612,0.299,,,,12.749166226
1716265327138197980,0.676,,,,12.756860594
1716265327145892348,1.024,,,,12.764554962
1716265327153586716,1.043,,,,12.77224933
1716265327161281084,0.328,,,,12.779943698
1716265327168975452,-0.63,,,,12.787638066
1716265327176669820,-0.601,,,,12.795332434
1716265327184364188,-0.002,,,,12.803026802
1716265327192058556,0.085,,,,12.81072117
1716265327199752924,0.0,,,,12.818415538
1716265327207447292,0.116,,,,12.826109906
1716265327215141660,0.148,,,,12.833804274
1716265327222836028,0.099,,,,12.841498642
1716265327230530396,0.136,,,,12.84919301
1716265327238224764,0.165,,,,12.856887378
1716265327245919132,0.143,,,,12.864581746
1716265327253613500,0.153,,,,12.872276114
1716265327261307868,0.182,,,,12.879970482
1716265327269002236,0.192,,,,12.88766485
1716265327276696604,0.206,,,,12.895359218
1716265327284390972,0.233,,,,12.903053586
1716265327292085340,0.25,,,,12.910747954
1716265327299779720,0.27,78.0,,,12.918442334
1716265327307473739,0.306,,,,12.926136353
1716265327315167758,0.345,,,,12.933830372
1716265327322861777,0.377,,,,12.941524391
1716265327330555796,0.411,,,,12.94921841
1716265327338249815,0.447,,,,12.956912429
1716265327345943834,0.476,,,,12.964606448
1716265327353637853,0.501,,,,12.972300467
1716265327361331872,0.515,,,,12.979994486
1716265327369025891,0.508,,,,12.987688505
1716265327376719910,0.481,,,,12.995382524
1716265327384413929,0.428,,,,13.003076543
1716265327392107948,0.343,,,,13.010770562
1716265327399801967,0.24,,,,13.018464581
1716265327407495986,0.136,,,,13.0261586
1716265327415190005,0.053,,,,13.033852619
1716265327422884024,-0.014,,,,13.041546638
1716265327430578043,-0.07,,,,13.049240657
1716265327438272062,-0.102,,,,13.056934676
1716265327445966081,-0.109,,,,13.064628695
1716265327453660100,-0.114,,,,13.072322714
1716265327461354119,-0.124,,,,13.080016733
1716265327469048138,-0.124,,785.0,,13.087710752
1716265327476742157,-0.111,,,,13.095404771
1716265327484436176,-0.092,,,,13.10309879
1716265327492130195,-0.082,,,,13.110792809
1716265327499824214,-0.085,,,,13.118486828
1716265327507518233,-0.077,,,,13.126180847
1716265327515212252,-0.065,,,,13.133874866
1716265327522906271,-0.063,,,,13.141568885
1716265327530600290,-0.065,,,,13.149262904
1716265327538294309,-0.053,,,,13.156956923
1716265327545988328,-0.043,,,,13.164650942
1716265327553682347,-0.038,,,,13.172344961
1716265327561376366,-0.029,,,,13.18003898
1716265327569070385,-0.024,,,,13.187732999
1716265327576764404,-0.026,,,,13.195427018
1716265327584458423,-0.024,,,,13.203121037
1716265327592152442,-0.017,,,,13.210815056
1716265327599846461,-0.017,,,,13.218509075
1716265327607540480,-0.019,,,,13.226203094
1716265327615234499,-0.019,,,,13.233897113
1716265327622928518,-0.012,,,,13.241591132
1716265327630622537,-0.002,,,,13.249285151
1716265327638316556,-0.007,,,,13.25697917
1716265327646010575,-0.012,,,,13.264673189
1716265327653704594,-0.007,,,,13.272367208
1716265327661398613,-0.007,,,,13.280061227
1716265327669092632,-0.012,,,,13.287755246
1716265327676786651,-0.004,,,,13.295449265
1716265327684480670,0.009,,,,13.303143284
1716265327692174689,0.012,,,,13.310837303
1716265327699868708,0.009,,,,13.318531322
1716265327707562727,0.019,,,,13.326225341
1716265327715256746,0.026,,,,13.33391936
1716265327722950765,0.031,,,,13.341613379
1716265327730644784,0.038,,,,13.349307398
1716265327738338803,0.041,,,,13.357001417
1716265327746032822,0.043,,,,13.364695436
1716265327753726841,0.043,,,,13.372389455
1716265327761420860,0.041,,,,13.380083474
1716265327769114879,0.043,,,,13.387777493
1716265327776808898,0.051,,,,13.395471512
1716265327784502917,0.053,,,,13.403165531
1716265327792196936,0.053,,,,13.41085955
1716265327799890955,0.055,,,,13.418553569
1716265327807584974,0.051,,,,13.426247588
1716265327815278993,0.048,,,,13.433941607
1716265327822973012,0.055,,,,13.441635626
1716265327830667031,0.06,,,,13.449329645
1716265327838361050,0.06,,,,13.457023664
1716265327846055069,0.06,,,,13.464717683
1716265327853749088,0.06,,,,13.472411702
1716265327861443166,0.065,,,,13.48010578
1716265327869137464,0.068,,,,13.487800078
1716265327876831762,0.063,,,,13.495494376
1716265327884526060,0.068,,,,13.503188674
1716265327892220358,0.092,,,,13.510882972
1716265327899914656,0.114,,,,13.51857727
1716265327907608954,0.116,,,,13.526271568
1716265327915303252,0.109,,,,13.533965866
1716265327922997550,0.109,,,,13.541660164
1716265327930691848,0.107,,,,13.549354462
1716265327938386146,0.087,,,,13.55704876
1716265327946080444,0.06,,,,13.564743058
1716265327953774742,0.058,,,,13.572437356
1716265327961469040,0.07,,,,13.580131654
1716265327969163338,0.07,,,,13.587825952
1716265327976857636,0.07,,,,13.59552025
1716265327984551934,0.077,,,,13.603214548
1716265327992246232,0.077,,,,13.610908846
1716265327999940530,0.075,,,,13.618603144
1716265328007634828,0.082,,,,13.626297442
1716265328015329126,0.087,,,,13.63399174
1716265328023023424,0.126,,,,13.641686038
1716265328030717722,0.355,,,,13.649380336
1716265328038412020,0.778,,,,13.657074634
1716265328046106318,1.146,,,,13.664768932
1716265328053800616,1.099,,,,13.67246323
1716265328061494914,0.255,,,,13.680157528
1716265328069189212,-0.72,,,,13.687851826
1716265328076883510,-0.613,,,,13.695546124
1716265328084577808,-0.019,,,,13.703240422
1716265328092272106,0.041,,,,13.71093472
1716265328099966404,-0.017,,,,13.718629018
1716265328107660702,0.119,,,,13.726323316
1716265328115355000,0.138,,,,13.734017614
1716265328123049298,0.087,,,,13.741711912
1716265328130743596,0.131,,,,13.74940621
1716265328138437894,0.163,,,,13.757100508
1716265328146132192,0.148,,,,13.764794806
1716265328153826490,0.16,,,,13.772489104
1716265328161520788,0.189,,,,13.780183402
1716265328169215086,0.201,,,,13.7878777
1716265328176909384,0.214,,,,13.795571998
1716265328184603682,0.238,,,,13.803266296
1716265328192297980,0.262,,,,13.810960594
1716265328199992278,0.291,,,,13.818654892
1716265328207686576,0.323,,,,13.82634919
1716265328215380874,0.355,,,,13.834043488
1716265328223075172,0.394,,,,13.841737786
1716265328230769470,0.44,,,,13.849432084
1716265328238463768,0.481,,,,13.857126382
1716265328246158066,0.51,,,,13.86482068
1716265328253852364,0.525,,,,13.872514978
1716265328261546662,0.525,,,,13.880209276
1716265328269240960,0.515,,,,13.887903574
1716265328276935258,0.486,,,,13.895597872
1716265328284629556,0.42,,,,13.90329217
1716265328292323854,0.321,,,,13.910986468
1716265328300018152,0.211,,828.0,,13.918680766
1716265328307712450,0.104,,,,13.926375064
1716265328315406748,0.021,,,,13.934069362
1716265328323101046,-0.031,,,,13.94176366
1716265328330795344,-0.068,,,,13.949457958
1716265328338489642,-0.087,,,,13.957152256
1716265328346183940,-0.092,,,,13.964846554
1716265328353878238,-0.092,,,,13.972540852
1716265328361572536,-0.094,,,,13.98023515
1716265328369266834,-0.09,,,,13.987929448
1716265328376961132,-0.082,,,,13.995623746
1716265328384655430,-0.08,,,,14.003318044
1716265328392349728,-0.077,,,,14.011012342
1716265328400044026,-0.075,,,,14.01870664
1716265328407738324,-0.068,,,,14.026400938
1716265328415432622,-0.063,,,,14.034095236
1716265328423126954,-0.06,78.0,,,14.041789568
1716265328430820904,-0.06,,,,14.049483518
1716265328438514854,-0.063,,,,14.057177468
1716265328446208804,-0.063,,,,14.064871418
1716265328453902754,-0.063,,,,14.072565368
1716265328461596704,-0.058,,,,14.080259318
1716265328469290654,-0.043,,,,14.087953268
1716265328476984604,-0.038,,,,14.095647218
1716265328484678554,-0.036,,,,14.103341168
1716265328492372504,-0.026,,,,14.111035118
1716265328500066454,-0.017,,,,14.118729068
1716265328507760404,-0.012,,,,14.126423018
1716265328515454354,-0.007,,,,14.134116968
1716265328523148304,0.0,,,,14.141810918
1716265328530842254,0.004,,,,14.149504868
1716265328538536204,0.007,,,,14.157198818
1716265328546230154,0.009,,,,14.164892768
1716265328553924104,0.012,,,,14.172586718
1716265328561618054,0.009,,,,14.180280668
1716265328569312004,0.009,,,,14.187974618
1716265328577005954,0.014,,,,14.195668568
1716265328584699904,0.017,,,,14.203362518
1716265328592393854,0.019,,,,14.211056468
1716265328600087804,0.021,,,,14.218750418
1716265328607781754,0.024,,,,14.226444368
1716265328615475704,0.029,,,,14.234138318
1716265328623169654,0.034,,,,14.241832268
1716265328630863604,0.036,,,,14.249526218
1716265328638557554,0.038,,,,14.257220168
1716265328646251504,0.046,,,,14.264914118
1716265328653945454,0.055,,,,14.272608068
1716265328661639404,0.06,,,,14.280302018
1716265328669333354,0.063,,,,14.287995968
1716265328677027304,0.068,,,,14.295689918
1716265328684721254,0.07,,,,14.303383868
1716265328692415204,0.075,,,,14.311077818
1716265328700109154,0.08,,,,14.318771768
1716265328707803104,0.082,,,,14.326465718
1716265328715497054,0.082,,,,14.334159668
1716265328723191004,0.08,,,,14.341853618
1716265328730884954,0.082,,,,14.349547568
1716265328738578904,0.087,,,,14.357241518
1716265328746272854,0.087,,,,14.364935468
1716265328753966804,0.085,,,,14.372629418
1716265328761660754,0.087,,,,14.380323368
1716265328769354704,0.087,,,,14.388017318
1716265328777048654,0.075,,,,14.395711268
1716265328784742604,0.068,,,,14.403405218
1716265328792436554,0.082,,,,14.411099168
1716265328800130504,0.102,,,,14.418793118
1716265328807824454,0.107,,,,14.426487068
1716265328815518404,0.107,,,,14.434181018
1716265328823212354,0.109,,,,14.441874968
1716265328830906304,0.109,,,,14.449568918
1716265328838600254,0.104,,,,14.457262868
1716265328846294204,0.097,,,,14.464956818
1716265328853988154,0.085,,,,14.472650768
1716265328861682104,0.072,,,,14.480344718
1716265328869376054,0.08,,,,14.488038668
1716265328877070004,0.092,,,,14.495732618
1716265328884763954,0.094,,,,14.503426568
1716265328892457904,0.102,,,,14.511120518
1716265328900151854,0.111,,,,14.518814468
1716265328907845804,0.114,,,,14.526508418
1716265328915539754,0.111,,,,14.534202368
1716265328923233704,0.104,,,,14.541896318
1716265328930927654,0.133,,,,14.549590268
1716265328938621604,0.343,,,,14.557284218
1716265328946315554,0.725,,,,14.564978168
1716265328954009504,1.06,,,,14.572672118
1716265328961703454,1.085,,,,14.580366068
1716265328969397404,0.362,,,,14.588060018
1716265328977091354,-0.608,,,,14.595753968
1716265328984785314,-0.547,,,,14.603447928
1716265328992479264,0.068,,,,14.611141878
1716265329000173214,0.119,,,,14.618835828
1716265329007867164,0.012,,,,14.626529778
1716265329015561114,0.136,,,,14.634223728
1716265329023255064,0.16,,,,14.641917678
1716265329030949014,0.104,,,,14.649611628
1716265329038642964,0.138,,,,14.657305578
1716265329046336914,0.165,,,,14.664999528
1716265329054030864,0.143,,,,14.672693478
1716265329061724814,0.15,,,,14.680387428
1716265329069418764,0.172,,,,14.688081378
1716265329077112714,0.175,,,,14.695775328
1716265329084806664,0.18,,,,14.703469278
1716265329092500614,0.197,,,,14.711163228
1716265329100194564,0.218,,,,14.718857178
1716265329107888514,0.243,,,,14.726551128
1716265329115582464,0.272,,,,14.734245078
1716265329123276414,0.309,,,,14.741939028
1716265329130970364,0.347,,,,14.749632978
1716265329138664314,0.386,,,,14.757326928
1716265329146358264,0.428,,,,14.765020878
1716265329154052214,0.469,,,,14.772714828
1716265329161746164,0.501,,,,14.780408778
1716265329169440114,0.515,,,,14.788102728
1716265329177134064,0.513,,877.0,,14.795796678
1716265329184828014,0.491,,,,14.803490628
1716265329192521964,0.44,,,,14.811184578
1716265329200215914,0.35,,,,14.818878528
1716265329207909864,0.243,,,,14.826572478
1716265329215603814,0.148,,,,14.834266428
1716265329223297764,0.068,,,,14.841960378
1716265329230991714,0.004,,,,14.849654328
1716265329238685664,-0.031,,,,14.857348278
1716265329246379614,-0.051,,,,14.865042228
1716265329254073564,-0.06,,,,14.872736178
1716265329261767514,-0.065,,,,14.880430128
1716265329269461464,-0.065,,,,14.888124078
1716265329277155414,-0.06,,,,14.895818028
1716265329284849364,-0.053,,,,14.903511978
1716265329292543314,-0.048,,,,14.911205928
1716265329300237264,-0.046,,,,14.918899878
1716265329307931214,-0.038,,,,14.926593828
1716265329315625164,-0.034,,,,14.934287778
1716265329323319114,-0.031,,,,14.941981728
1716265329331013064,-0.024,,,,14.949675678
1716265329338707014,-0.014,,,,14.957369628
1716265329346400964,-0.009,,,,14.965063578
1716265329354094914,-0.004,,,,14.972757528
1716265329361788864,-0.002,,,,14.980451478
1716265329369482814,0.002,,,,14.988145428
1716265329377176764,0.009,,,,14.995839378
1716265329384870714,0.014,,,,15.003533328
1716265329392564664,0.021,,,,15.011227278
1716265329400258614,0.029,,,,15.018921228
1716265329407952564,0.031,,,,15.026615178
1716265329415646514,0.031,,,,15.034309128
1716265329423340464,0.038,,,,15.042003078
1716265329431034414,0.046,,,,15.049697028
1716265329438728364,0.041,,,,15.057390978
1716265329446422314,0.034,,,,15.065084928
1716265329454116264,0.031,,,,15.072778878
1716265329461810214,0.034,,,,15.080472828
1716265329469504164,0.034,,,,15.088166778
1716265329477198114,0.038,,,,15.095860728
1716265329484892064,0.043,,,,15.103554678
1716265329492586014,0.046,,,,15.111248628
1716265329500279964,0.043,,,,15.118942578
1716265329507973914,0.046,,,,15.126636528
1716265329515667864,0.051,,,,15.134330478
1716265329523361814,0.055,,,,15.142024428
1716265329531055764,0.058,,,,15.149718378
1716265329538749714,0.058,,,,15.157412328
1716265329546443672,0.053,77.0,,,15.165106286
1716265329554138040,0.055,,,,15.172800654
1716265329561832408,0.063,,,,15.180495022
1716265329569526776,0.065,,,,15.18818939
1716265329577221144,0.07,,,,15.195883758
1716265329584915512,0.077,,,,15.203578126
1716265329592609880,0.075,,,,15.211272494
1716265329600304248,0.075,,,,15.218966862
1716265329607998616,0.082,,,,15.22666123
1716265329615692984,0.082,,,,15.234355598
1716265329623387352,0.077,,,,15.242049966
1716265329631081720,0.08,,,,15.249744334
1716265329638776088,0.087,,,,15.257438702
1716265329646470456,0.082,,,,15.26513307
1716265329654164824,0.08,,,,15.272827438
1716265329661859192,0.082,,,,15.280521806
1716265329669553560,0.087,,,,15.288216174
1716265329677247928,0.09,,,,15.295910542
1716265329684942296,0.092,,,,15.30360491
1716265329692636664,0.094,,,,15.311299278
1716265329700331032,0.097,,,,15.318993646
1716265329708025400,0.094,,,,15.326688014
1716265329715719768,0.085,,,,15.334382382
1716265329723414136,0.082,,,,15.34207675
1716265329731108504,0.092,,,,15.349771118
1716265329738802872,0.114,,,,15.357465486
1716265329746497240,0.133,,,,15.365159854
1716265329754191608,0.143,,,,15.372854222
1716265329761885976,0.138,,,,15.38054859
1716265329769580344,0.131,,,,15.388242958
1716265329777274712,0.126,,,,15.395937326
1716265329784969080,0.114,,,,15.403631694
1716265329792663448,0.094,,,,15.411326062
1716265329800357816,0.087,,,,15.41902043
1716265329808052184,0.097,,,,15.426714798
1716265329815746552,0.102,,,,15.434409166
1716265329823440920,0.099,,,,15.442103534
1716265329831135288,0.099,,,,15.449797902
1716265329838829656,0.104,,,,15.45749227
1716265329846524024,0.109,,,,15.465186638
1716265329854218392,0.111,,,,15.472881006
1716265329861912760,0.102,,,,15.480575374
1716265329869607128,0.124,,,,15.488269742
1716265329877301496,0.321,,,,15.49596411
1716265329884995864,0.681,,,,15.503658478
1716265329892690232,1.002,,,,15.511352846
1716265329900384600,1.036,,,,15.519047214
1716265329908078968,0.367,,,,15.526741582
1716265329915773336,-0.562,,,,15.53443595
1716265329923467704,-0.528,,,,15.542130318
1716265329931162072,0.055,,,,15.549824686
1716265329938856440,0.116,,,,15.557519054
1716265329946550808,0.004,,,,15.565213422
1716265329954245176,0.109,,,,15.57290779
1716265329961939544,0.141,,,,15.580602158
1716265329969633912,0.09,,,,15.588296526
1716265329977328280,0.121,,,,15.595990894
1716265329985022648,0.153,,,,15.603685262
1716265329992717016,0.143,,,,15.61137963
1716265330000411384,0.153,,,,15.619073998
1716265330008105752,0.172,,,,15.626768366
1716265330015800120,0.175,,,,15.634462734
1716265330023494488,0.189,,,,15.642157102
1716265330031188856,0.211,,,,15.64985147
1716265330038883224,0.223,,,,15.657545838
1716265330046577592,0.24,,,,15.665240206
1716265330054271960,0.274,,,,15.672934574
1716265330061966328,0.309,,,,15.680628942
1716265330069660696,0.345,,,,15.68832331
1716265330077355064,0.384,,,,15.696017678
1716265330085049432,0.418,,,,15.703712046
1716265330092743800,0.447,,,,15.711406414
1716265330100438168,0.469,,925.0,,15.719100782
1716265330108132548,0.476,,,,15.726795162
1716265330115826498,0.476,,,,15.734489112
1716265330123520448,0.462,,,,15.742183062
1716265330131214398,0.411,,,,15.749877012
1716265330138908348,0.328,,,,15.757570962
1716265330146602298,0.231,,,,15.765264912
1716265330154296248,0.133,,,,15.772958862
1716265330161990198,0.051,,,,15.780652812
1716265330169684148,-0.007,,,,15.788346762
1716265330177378098,-0.043,,,,15.796040712
1716265330185072048,-0.063,,,,15.803734662
1716265330192765998,-0.08,,,,15.811428612
1716265330200459948,-0.085,,,,15.819122562
1716265330208153898,-0.077,,,,15.826816512
1716265330215847848,-0.07,,,,15.834510462
1716265330223541798,-0.068,,,,15.842204412
1716265330231235748,-0.06,,,,15.849898362
1716265330238929698,-0.051,,,,15.857592312
1716265330246623648,-0.046,,,,15.865286262
1716265330254317598,-0.038,,,,15.872980212
1716265330262011548,-0.031,,,,15.880674162
1716265330269705498,-0.019,,,,15.888368112
1716265330277399448,-0.017,,,,15.896062062
1716265330285093398,-0.017,,,,15.903756012
1716265330292787348,-0.012,,,,15.911449962
1716265330300481298,-0.004,,,,15.919143912
1716265330308175248,0.002,,,,15.926837862
1716265330315869198,0.007,,,,15.934531812
1716265330323563148,0.014,,,,15.942225762
1716265330331257098,0.017,,,,15.949919712
1716265330338951048,0.019,,,,15.957613662
1716265330346644998,0.026,,,,15.965307612
1716265330354338948,0.036,,,,15.973001562
1716265330362032898,0.041,,,,15.980695512
1716265330369726848,0.043,,,,15.988389462
1716265330377420798,0.043,,,,15.996083412
1716265330385114748,0.046,,,,16.003777362
1716265330392808698,0.051,,,,16.011471312
1716265330400502648,0.051,,,,16.019165262
1716265330408196598,0.048,,,,16.026859212
1716265330415890548,0.051,,,,16.034553162
1716265330423584498,0.058,,,,16.042247112
1716265330431278448,0.058,,,,16.049941062
1716265330438972398,0.055,,,,16.057635012
1716265330446666348,0.055,,,,16.065328962
1716265330454360298,0.048,,,,16.073022912
1716265330462054248,0.043,,,,16.080716862
1716265330469748198,0.051,,,,16.088410812
1716265330477442148,0.055,,,,16.096104762
1716265330485136098,0.055,,,,16.103798712
1716265330492830048,0.058,,,,16.111492662
1716265330500523998,0.06,,,,16.119186612
1716265330508217948,0.068,,,,16.126880562
1716265330515911898,0.072,,,,16.134574512
1716265330523605848,0.07,,,,16.142268462
1716265330531299798,0.07,,,,16.149962412
1716265330538993748,0.075,,,,16.157656362
1716265330546687698,0.077,,,,16.165350312
1716265330554381648,0.08,,,,16.173044262
1716265330562075598,0.08,,,,16.180738212
1716265330569769548,0.08,,,,16.188432162
1716265330577463498,0.085,,,,16.196126112
1716265330585157448,0.087,,,,16.203820062
1716265330592851398,0.087,,,,16.211514012
1716265330600545348,0.092,,,,16.219207962
1716265330608239298,0.092,,,,16.226901912
1716265330615933248,0.09,,,,16.234595862
1716265330623627198,0.092,,,,16.242289812
1716265330631321148,0.097,,,,16.249983762
1716265330639015098,0.09,,,,16.257677712
1716265330646709048,0.087,,,,16.265371662
1716265330654402998,0.097,,,,16.273065612
1716265330662096948,0.097,,,,16.280759562
1716265330669790906,0.092,76.0,,,16.28845352
1716265330677484925,0.087,,,,16.296147539
1716265330685178944,0.082,,,,16.303841558
1716265330692872963,0.085,,,,16.311535577
1716265330700566982,0.107,,,,16.319229596
1716265330708261001,0.133,,,,16.326923615
1716265330715955020,0.138,,,,16.334617634
1716265330723649039,0.131,,,,16.342311653
1716265330731343058,0.114,,,,16.350005672
1716265330739037077,0.107,,,,16.357699691
1716265330746731096,0.102,,,,16.36539371
1716265330754425115,0.085,,,,16.373087729
1716265330762119134,0.07,,,,16.380781748
1716265330769813153,0.077,,,,16.388475767
1716265330777507172,0.085,,,,16.396169786
1716265330785201191,0.082,,,,16.403863805
1716265330792895210,0.077,,,,16.411557824
1716265330800589229,0.085,,,,16.419251843
1716265330808283248,0.094,,,,16.426945862
1716265330815977267,0.097,,,,16.434639881
1716265330823671286,0.082,,,,16.4423339
1716265330831365305,0.099,,,,16.450027919
1716265330839059324,0.272,,,,16.457721938
1716265330846753343,0.603,,,,16.465415957
1716265330854447362,0.917,,,,16.473109976
1716265330862141381,0.997,,,,16.480803995
1716265330869835400,0.437,,,,16.488498014
1716265330877529419,-0.474,,,,16.496192033
1716265330885223438,-0.5640000000000001,,,,16.503886052
1716265330892917457,-0.004,,,,16.511580071
1716265330900611476,0.119,,,,16.51927409
1716265330908305495,0.009,,,,16.526968109
1716265330915999514,0.104,,,,16.534662128
1716265330923693533,0.153,,,,16.542356147
1716265330931387552,0.102,,,,16.550050166
1716265330939081571,0.119,,,,16.557744185
1716265330946775590,0.15,,,,16.565438204
1716265330954469609,0.138,,,,16.573132223
1716265330962163628,0.138,,,,16.580826242
1716265330969857647,0.16,,,,16.588520261
1716265330977551666,0.172,,,,16.59621428
1716265330985245685,0.182,,,,16.603908299
1716265330992939704,0.201,,,,16.611602318
1716265331000633723,0.218,,899.0,,16.619296337
1716265331008327742,0.233,,,,16.626990356
1716265331016021761,0.26,,,,16.634684375
1716265331023715780,0.282,,,,16.642378394
1716265331031409799,0.306,,,,16.650072413
1716265331039103818,0.345,,,,16.657766432
1716265331046797837,0.386,,,,16.665460451
1716265331054491856,0.418,,,,16.67315447
1716265331062185875,0.435,,,,16.680848489
1716265331069879894,0.447,,,,16.688542508
1716265331077573913,0.452,,,,16.696236527
1716265331085267932,0.44,,,,16.703930546
1716265331092961951,0.396,,,,16.711624565
1716265331100655970,0.323,,,,16.719318584
1716265331108349989,0.236,,,,16.727012603
1716265331116044008,0.143,,,,16.734706622
1716265331123738027,0.065,,,,16.742400641
1716265331131432046,0.009,,,,16.75009466
1716265331139126065,-0.024,,,,16.757788679
1716265331146820084,-0.051,,,,16.765482698
1716265331154514103,-0.068,,,,16.773176717
1716265331162208122,-0.072,,,,16.780870736
1716265331169902141,-0.072,,,,16.788564755
1716265331177596160,-0.072,,,,16.796258774
1716265331185290179,-0.068,,,,16.803952793
1716265331192984198,-0.058,,,,16.811646812
1716265331200678217,-0.051,,,,16.819340831
1716265331208372236,-0.043,,,,16.82703485
1716265331216066255,-0.038,,,,16.834728869
1716265331223760274,-0.034,,,,16.842422888
1716265331231454352,-0.026,75.0,,,16.850116966
1716265331239148650,-0.021,,,,16.857811264
1716265331246842948,-0.014,,,,16.865505562
1716265331254537246,-0.007,,,,16.87319986
1716265331262231544,-0.007,,,,16.880894158
1716265331269925842,-0.017,,,,16.888588456
1716265331277620140,-0.017,,,,16.896282754
1716265331285314438,-0.007,,,,16.903977052
1716265331293008736,0.0,,,,16.91167135
1716265331300703034,0.002,,,,16.919365648
1716265331308397332,0.002,,,,16.927059946
1716265331316091630,0.007,,,,16.934754244
1716265331323785928,0.017,,,,16.942448542
1716265331331480226,0.021,,,,16.95014284
1716265331339174524,0.029,,,,16.957837138
1716265331346868822,0.036,,,,16.965531436
1716265331354563120,0.036,,,,16.973225734
1716265331362257418,0.038,,,,16.980920032
1716265331369951716,0.046,,,,16.98861433
1716265331377646014,0.046,,,,16.996308628
1716265331385340312,0.038,,,,17.004002926
1716265331393034610,0.038,,,,17.011697224
1716265331400728908,0.048,,,,17.019391522
1716265331408423206,0.053,,,,17.02708582
1716265331416117504,0.051,,,,17.034780118
1716265331423811802,0.051,,,,17.042474416
1716265331431506100,0.058,,,,17.050168714
1716265331439200398,0.06,,,,17.057863012
1716265331446894696,0.06,,,,17.06555731
1716265331454588994,0.055,,,,17.073251608
1716265331462283292,0.048,,,,17.080945906
1716265331469977590,0.051,,,,17.088640204
1716265331477671888,0.055,,,,17.096334502
1716265331485366186,0.053,,,,17.1040288
1716265331493060484,0.055,,,,17.111723098
1716265331500754782,0.063,,,,17.119417396
1716265331508449080,0.065,,,,17.127111694
1716265331516143378,0.063,,,,17.134805992
1716265331523837676,0.063,,,,17.14250029
1716265331531531974,0.063,,,,17.150194588
1716265331539226272,0.063,,,,17.157888886
1716265331546920570,0.068,,,,17.165583184
1716265331554614868,0.075,,,,17.173277482
1716265331562309166,0.072,,,,17.18097178
1716265331570003464,0.07,,,,17.188666078
1716265331577697762,0.072,,,,17.196360376
1716265331585392060,0.077,,,,17.204054674
1716265331593086358,0.08,,,,17.211748972
1716265331600780656,0.08,,,,17.21944327
1716265331608474954,0.085,,,,17.227137568
1716265331616169252,0.087,,,,17.234831866
1716265331623863550,0.075,,,,17.242526164
1716265331631557848,0.06,,,,17.250220462
1716265331639252146,0.06,,,,17.25791476
1716265331646946444,0.077,,,,17.265609058
1716265331654640742,0.099,,,,17.273303356
1716265331662335040,0.121,,,,17.280997654
1716265331670029338,0.126,,,,17.288691952
1716265331677723636,0.114,,,,17.29638625
1716265331685417934,0.097,,,,17.304080548
1716265331693112232,0.097,,,,17.311774846
1716265331700806530,0.102,,,,17.319469144
1716265331708500828,0.085,,,,17.327163442
1716265331716195126,0.072,,,,17.33485774
1716265331723889424,0.075,,,,17.342552038
1716265331731583722,0.08,,,,17.350246336
1716265331739278020,0.082,,,,17.357940634
1716265331746972318,0.082,,,,17.365634932
1716265331754666616,0.077,,,,17.37332923
1716265331762360914,0.07,,,,17.381023528
1716265331770055212,0.068,,,,17.388717826
1716265331777749510,0.065,,,,17.396412124
1716265331785443808,0.153,,,,17.404106422
1716265331793138140,0.457,,,,17.411800754
1716265331800832090,0.854,,,,17.419494704
1716265331808526040,1.082,,,,17.427188654
1716265331816219990,0.798,,,,17.434882604
1716265331823913940,-0.143,,,,17.442576554
1716265331831607890,-0.742,,,,17.450270504
1716265331839301840,-0.347,,,,17.457964454
1716265331846995790,0.041,,,,17.465658404
1716265331854689740,-0.014,,,,17.473352354
1716265331862383690,0.014,,,,17.481046304
1716265331870077640,0.116,,,,17.488740254
1716265331877771590,0.09,,,,17.496434204
1716265331885465540,0.077,,,,17.504128154
1716265331893159490,0.121,,,,17.511822104
1716265331900853440,0.124,,,,17.519516054
1716265331908547390,0.119,,908.0,,17.527210004
1716265331916241340,0.138,,,,17.534903954
1716265331923935290,0.153,,,,17.542597904
1716265331931629240,0.158,,,,17.550291854
1716265331939323190,0.175,,,,17.557985804
1716265331947017140,0.197,,,,17.565679754
1716265331954711090,0.226,,,,17.573373704
1716265331962405040,0.25,,,,17.581067654
1716265331970098990,0.272,,,,17.588761604
1716265331977792940,0.306,,,,17.596455554
1716265331985486890,0.357,,,,17.604149504
1716265331993180840,0.399,,,,17.611843454
1716265332000874790,0.428,,,,17.619537404
1716265332008568740,0.45,,,,17.627231354
1716265332016262690,0.469,,,,17.634925304
1716265332023956640,0.479,,,,17.642619254
1716265332031650590,0.474,,,,17.650313204
1716265332039344540,0.44,,,,17.658007154
1716265332047038490,0.372,,,,17.665701104
1716265332054732440,0.272,,,,17.673395054
1716265332062426390,0.17,,,,17.681089004
1716265332070120340,0.082,,,,17.688782954
1716265332077814290,0.012,,,,17.696476904
1716265332085508240,-0.043,,,,17.704170854
1716265332093202190,-0.082,,,,17.711864804
1716265332100896140,-0.102,,,,17.719558754
1716265332108590090,-0.107,,,,17.727252704
1716265332116284040,-0.107,,,,17.734946654
1716265332123977990,-0.099,,,,17.742640604
1716265332131671940,-0.09,,,,17.750334554
1716265332139365890,-0.087,,,,17.758028504
1716265332147059840,-0.092,,,,17.765722454
1716265332154753790,-0.085,,,,17.773416404
1716265332162447740,-0.068,,,,17.781110354
1716265332170141690,-0.063,,,,17.788804304
1716265332177835640,-0.065,,,,17.796498254
1716265332185529590,-0.055,,,,17.804192204
1716265332193223540,-0.043,,,,17.811886154
1716265332200917490,-0.041,,,,17.819580104
1716265332208611440,-0.038,,,,17.827274054
1716265332216305390,-0.026,,,,17.834968004
1716265332223999340,-0.017,,,,17.842661954
1716265332231693290,-0.014,,,,17.850355904
1716265332239387240,-0.002,,,,17.858049854
1716265332247081190,0.004,,,,17.865743804
1716265332254775140,0.002,,,,17.873437754
1716265332262469090,0.007,,,,17.881131704
1716265332270163040,0.017,,,,17.888825654
1716265332277856990,0.019,,,,17.896519604
1716265332285550940,0.019,,,,17.904213554
1716265332293244890,0.019,,,,17.911907504
1716265332300938840,0.021,,,,17.919601454
1716265332308632790,0.026,,,,17.927295404
1716265332316326740,0.031,,,,17.934989354
1716265332324020690,0.034,,,,17.942683304
1716265332331714640,0.036,,,,17.950377254
1716265332339408590,0.038,,,,17.958071204
1716265332347102540,0.034,,,,17.965765154
1716265332354796500,0.031,74.0,,,17.973459114
1716265332362490450,0.038,,,,17.981153064
1716265332370184400,0.051,,,,17.988847014
1716265332377878350,0.048,,,,17.996540964
1716265332385572300,0.043,,,,18.004234914
1716265332393266250,0.051,,,,18.011928864
1716265332400960200,0.055,,,,18.019622814
1716265332408654150,0.051,,,,18.027316764
1716265332416348100,0.053,,,,18.035010714
1716265332424042050,0.063,,,,18.042704664
1716265332431736000,0.065,,,,18.050398614
1716265332439429950,0.058,,,,18.058092564
1716265332447123900,0.055,,,,18.065786514
1716265332454817850,0.058,,,,18.073480464
1716265332462511800,0.058,,,,18.081174414
1716265332470205750,0.053,,,,18.088868364
1716265332477899700,0.051,,,,18.096562314
1716265332485593650,0.048,,,,18.104256264
1716265332493287600,0.038,,,,18.111950214
1716265332500981550,0.029,,,,18.119644164
1716265332508675500,0.031,,,,18.127338114
1716265332516369450,0.051,,,,18.135032064
1716265332524063400,0.072,,,,18.142726014
1716265332531757350,0.085,,,,18.150419964
1716265332539451300,0.092,,,,18.158113914
1716265332547145250,0.085,,,,18.165807864
1716265332554839200,0.07,,,,18.173501814
1716265332562533150,0.068,,,,18.181195764
1716265332570227100,0.058,,,,18.188889714
1716265332577921050,0.048,,,,18.196583664
1716265332585615000,0.055,,,,18.204277614
1716265332593308950,0.063,,,,18.211971564
1716265332601002900,0.06,,,,18.219665514
1716265332608696850,0.063,,,,18.227359464
1716265332616390800,0.063,,,,18.235053414
1716265332624084750,0.065,,,,18.242747364
1716265332631778700,0.07,,,,18.250441314
1716265332639472650,0.07,,,,18.258135264
1716265332647166600,0.109,,,,18.265829214
1716265332654860550,0.338,,,,18.273523164
1716265332662554500,0.744,,,,18.281217114
1716265332670248450,1.08,,,,18.288911064
1716265332677942400,1.024,,,,18.296605014
1716265332685636350,0.216,,,,18.304298964
1716265332693330300,-0.725,,,,18.311992914
1716265332701024250,-0.627,,,,18.319686864
1716265332708718200,-0.043,,,,18.327380814
1716265332716412150,0.024,,,,18.335074764
1716265332724106100,-0.024,,,,18.342768714
1716265332731800050,0.107,,,,18.350462664
1716265332739494000,0.124,,,,18.358156614
1716265332747187950,0.068,,,,18.365850564
1716265332754881900,0.104,,,,18.373544514
1716265332762575850,0.136,,,,18.381238464
1716265332770269800,0.124,,,,18.388932414
1716265332777963750,0.133,,,,18.396626364
1716265332785657700,0.158,,,,18.404320314
1716265332793351650,0.167,,,,18.412014264
1716265332801045600,0.182,,,,18.419708214
1716265332808739550,0.204,,,,18.427402164
1716265332816433500,0.221,,,,18.435096114
1716265332824127450,0.24,,,,18.442790064
1716265332831821400,0.27,,,,18.450484014
1716265332839515350,0.301,,,,18.458177964
1716265332847209300,0.34,,938.0,,18.465871914
1716265332854903250,0.384,,,,18.473565864
1716265332862597200,0.423,,,,18.481259814
1716265332870291150,0.457,,,,18.488953764
1716265332877985100,0.481,,,,18.496647714
1716265332885679050,0.491,,,,18.504341664
1716265332893373000,0.484,,,,18.512035614
1716265332901066950,0.455,,,,18.519729564
1716265332908760900,0.394,,,,18.527423514
1716265332916454858,0.296,,,,18.535117472
1716265332924149017,0.184,,,,18.542811631
1716265332931843176,0.09,,,,18.55050579
1716265332939537335,0.017,,,,18.558199949
1716265332947231494,-0.041,,,,18.565894108
1716265332954925653,-0.077,,,,18.573588267
1716265332962619812,-0.094,,,,18.581282426
1716265332970313971,-0.109,,,,18.588976585
1716265332978008130,-0.119,,,,18.596670744
1716265332985702289,-0.121,,,,18.604364903
1716265332993396448,-0.116,,,,18.612059062
1716265333001090607,-0.109,,,,18.619753221
1716265333008784766,-0.111,,,,18.62744738
1716265333016478925,-0.114,,,,18.635141539
1716265333024173084,-0.102,,,,18.642835698
1716265333031867243,-0.09,,,,18.650529857
1716265333039561402,-0.087,,,,18.658224016
1716265333047255561,-0.082,,,,18.665918175
1716265333054949720,-0.07,,,,18.673612334
1716265333062643879,-0.06,,,,18.681306493
1716265333070338038,-0.055,,,,18.689000652
1716265333078032197,-0.046,,,,18.696694811
1716265333085726356,-0.038,,,,18.70438897
1716265333093420515,-0.031,,,,18.712083129
1716265333101114674,-0.026,,,,18.719777288
1716265333108808833,-0.024,,,,18.727471447
1716265333116502992,-0.009,,,,18.735165606
1716265333124197151,0.0,,,,18.742859765
1716265333131891310,0.0,,,,18.750553924
1716265333139585469,0.007,,,,18.758248083
1716265333147279628,0.017,,,,18.765942242
1716265333154973787,0.014,,,,18.773636401
1716265333162667946,0.017,,,,18.78133056
1716265333170362105,0.024,,,,18.789024719
1716265333178056264,0.029,,,,18.796718878
1716265333185750423,0.029,,,,18.804413037
1716265333193444582,0.029,,,,18.812107196
1716265333201138741,0.031,,,,18.819801355
1716265333208832900,0.036,,,,18.827495514
1716265333216527059,0.036,,,,18.835189673
1716265333224221218,0.036,,,,18.842883832
1716265333231915377,0.038,,,,18.850577991
1716265333239609536,0.036,,,,18.85827215
1716265333247303695,0.034,,,,18.865966309
1716265333254997854,0.036,,,,18.873660468
1716265333262692013,0.041,,,,18.881354627
1716265333270386172,0.046,,,,18.889048786
1716265333278080331,0.048,,,,18.896742945
1716265333285774490,0.051,,,,18.904437104
1716265333293468649,0.051,,,,18.912131263
1716265333301162808,0.053,,,,18.919825422
1716265333308856967,0.058,,,,18.927519581
1716265333316551126,0.063,,,,18.93521374
1716265333324245285,0.065,,,,18.942907899
1716265333331939444,0.07,,,,18.950602058
1716265333339633603,0.07,,,,18.958296217
1716265333347327762,0.068,,,,18.965990376
1716265333355021921,0.058,,,,18.973684535
1716265333362716080,0.058,,,,18.981378694
1716265333370410239,0.068,,,,18.989072853
1716265333378104398,0.08,,,,18.996767012
1716265333385798557,0.092,,,,19.004461171
1716265333393492716,0.107,,,,19.01215533
1716265333401186875,0.114,,,,19.019849489
1716265333408881034,0.109,,,,19.027543648
1716265333416575193,0.107,,,,19.035237807
1716265333424269352,0.099,,,,19.042931966
1716265333431963511,0.08,,,,19.050626125
1716265333439657670,0.075,,,,19.058320284
1716265333447351829,0.085,,,,19.066014443
1716265333455045988,0.092,,,,19.073708602
1716265333462740147,0.092,,,,19.081402761
1716265333470434306,0.092,,,,19.08909692
1716265333478128476,0.087,73.0,,,19.09679109
1716265333485822635,0.08,,,,19.104485249
1716265333493516794,0.08,,,,19.112179408
1716265333501210953,0.077,,,,19.119873567
1716265333508905112,0.126,,,,19.127567726
1716265333516599271,0.367,,,,19.135261885
1716265333524293430,0.747,,,,19.142956044
1716265333531987589,1.034,,,,19.150650203
1716265333539681748,0.978,,,,19.158344362
1716265333547375907,0.189,,,,19.166038521
1716265333555070066,-0.681,,,,19.17373268
1716265333562764225,-0.479,,,,19.181426839
1716265333570458384,0.099,,,,19.189120998
1716265333578152543,0.082,,,,19.196815157
1716265333585846702,-0.004,,,,19.204509316
1716265333593540861,0.119,,,,19.212203475
1716265333601235020,0.128,,,,19.219897634
1716265333608929179,0.075,,,,19.227591793
1716265333616623338,0.111,,,,19.235285952
1716265333624317497,0.143,,,,19.242980111
1716265333632011656,0.133,,,,19.25067427
1716265333639705815,0.141,,,,19.258368429
1716265333647399974,0.16,,,,19.266062588
1716265333655094133,0.17,,,,19.273756747
1716265333662788292,0.182,,,,19.281450906
1716265333670482451,0.199,,,,19.289145065
1716265333678176610,0.218,,,,19.296839224
1716265333685870769,0.243,,,,19.304533383
1716265333693564928,0.274,,,,19.312227542
1716265333701259087,0.309,,,,19.319921701
1716265333708953246,0.345,,,,19.32761586
1716265333716647405,0.386,,,,19.335310019
1716265333724341564,0.425,,,,19.343004178
1716265333732035723,0.459,,,,19.350698337
1716265333739729882,0.484,,,,19.358392496
1716265333747424041,0.493,,,,19.366086655
1716265333755118200,0.486,,,,19.373780814
1716265333762812359,0.45,,,,19.381474973
1716265333770506518,0.389,,,,19.389169132
1716265333778200677,0.299,,,,19.396863291
1716265333785894836,0.194,,,,19.40455745
1716265333793588995,0.099,,,,19.412251609
1716265333801283154,0.026,,,,19.419945768
1716265333808977313,-0.026,,963.0,,19.427639927
1716265333816671472,-0.06,,,,19.435334086
1716265333824365631,-0.08,,,,19.443028245
1716265333832059790,-0.087,,,,19.450722404
1716265333839753949,-0.09,,,,19.458416563
1716265333847448108,-0.09,,,,19.466110722
1716265333855142267,-0.085,,,,19.473804881
1716265333862836426,-0.075,,,,19.48149904
1716265333870530585,-0.068,,,,19.489193199
1716265333878224744,-0.06,,,,19.496887358
1716265333885918903,-0.053,,,,19.504581517
1716265333893613062,-0.046,,,,19.512275676
1716265333901307221,-0.038,,,,19.519969835
1716265333909001380,-0.031,,,,19.527663994
1716265333916695539,-0.024,,,,19.535358153
1716265333924389698,-0.019,,,,19.543052312
1716265333932083857,-0.012,,,,19.550746471
1716265333939778016,-0.009,,,,19.55844063
1716265333947472175,-0.007,,,,19.566134789
1716265333955166334,0.002,,,,19.573828948
1716265333962860493,0.009,,,,19.581523107
1716265333970554652,0.009,,,,19.589217266
1716265333978248811,0.009,,,,19.596911425
1716265333985942970,0.004,,,,19.604605584
1716265333993637129,0.002,,,,19.612299743
1716265334001331288,0.002,,,,19.619993902
1716265334009025447,0.012,,,,19.627688061
1716265334016719606,0.017,,,,19.63538222
1716265334024413765,0.019,,,,19.643076379
1716265334032107924,0.021,,,,19.650770538
1716265334039802092,0.026,,,,19.658464706
1716265334047496460,0.026,,,,19.666159074
1716265334055190828,0.029,,,,19.673853442
1716265334062885196,0.034,,,,19.68154781
1716265334070579564,0.034,,,,19.689242178
1716265334078273932,0.031,,,,19.696936546
1716265334085968300,0.026,,,,19.704630914
1716265334093662668,0.019,,,,19.712325282
1716265334101357036,0.019,,,,19.72001965
1716265334109051404,0.026,,,,19.727714018
1716265334116745772,0.026,,,,19.735408386
1716265334124440140,0.021,,,,19.743102754
1716265334132134508,0.026,,,,19.750797122
1716265334139828876,0.036,,,,19.75849149
1716265334147523244,0.038,,,,19.766185858
1716265334155217612,0.041,,,,19.773880226
1716265334162911980,0.043,,,,19.781574594
1716265334170606348,0.048,,,,19.789268962
1716265334178300716,0.055,,,,19.79696333
1716265334185995084,0.055,,,,19.804657698
1716265334193689452,0.058,,,,19.812352066
1716265334201383820,0.063,,,,19.820046434
1716265334209078188,0.063,,,,19.827740802
1716265334216772556,0.06,,,,19.83543517
1716265334224466924,0.055,,,,19.843129538
1716265334232161292,0.048,,,,19.850823906
1716265334239855660,0.043,,,,19.858518274
1716265334247550028,0.048,,,,19.866212642
1716265334255244396,0.063,,,,19.87390701
1716265334262938764,0.08,,,,19.881601378
1716265334270633132,0.094,,,,19.889295746
1716265334278327500,0.104,,,,19.896990114
1716265334286021868,0.104,,,,19.904684482
1716265334293716236,0.099,,,,19.91237885
1716265334301410604,0.092,,,,19.920073218
1716265334309104972,0.075,,,,19.927767586
1716265334316799340,0.063,,,,19.935461954
1716265334324493708,0.072,,,,19.943156322
1716265334332188076,0.08,,,,19.95085069
1716265334339882444,0.08,,,,19.958545058
1716265334347576812,0.082,,,,19.966239426
1716265334355271180,0.085,,,,19.973933794
1716265334362965548,0.085,,,,19.981628162
1716265334370659916,0.092,,,,19.98932253
1716265334378354284,0.094,,,,19.997016898
1716265334386048652,0.092,,,,20.004711266
1716265334393743020,0.192,,,,20.012405634
1716265334401437388,0.489,,,,20.020100002
1716265334409131756,0.837,,,,20.02779437
1716265334416826124,1.026,,,,20.035488738
1716265334424520492,0.717,,,,20.043183106
1716265334432214860,-0.214,,,,20.050877474
1716265334439909228,-0.6980000000000001,,,,20.058571842
1716265334447603596,-0.199,,,,20.06626621
1716265334455297964,0.155,,,,20.073960578
1716265334462992332,0.034,,,,20.081654946
1716265334470686700,0.053,,,,20.089349314
1716265334478381068,0.148,,,,20.097043682
1716265334486075436,0.104,,,,20.10473805
1716265334493769804,0.087,,,,20.112432418
1716265334501464172,0.126,,,,20.120126786
1716265334509158540,0.133,,,,20.127821154
1716265334516852908,0.128,,,,20.135515522
1716265334524547276,0.148,,,,20.14320989
1716265334532241644,0.165,,,,20.150904258
1716265334539936012,0.17,,,,20.158598626
1716265334547630380,0.184,,,,20.166292994
1716265334555324748,0.204,,,,20.173987362
1716265334563019116,0.221,,,,20.18168173
1716265334570713484,0.245,,,,20.189376098
1716265334578407852,0.277,,,,20.197070466
1716265334586102220,0.309,,,,20.204764834
1716265334593796588,0.35,,,,20.212459202
1716265334601490968,0.391,72.0,,,20.220153582
1716265334609184918,0.425,,,,20.227847532
1716265334616878868,0.459,,,,20.235541482
1716265334624572818,0.474,,,,20.243235432
1716265334632266768,0.467,,,,20.250929382
1716265334639960718,0.455,,,,20.258623332
1716265334647654668,0.423,,,,20.266317282
1716265334655348618,0.355,,,,20.274011232
1716265334663042568,0.26,,,,20.281705182
1716265334670736518,0.165,,,,20.289399132
1716265334678430468,0.085,,,,20.297093082
1716265334686124418,0.019,,,,20.304787032
1716265334693818368,-0.026,,,,20.312480982
1716265334701512318,-0.055,,,,20.320174932
1716265334709206268,-0.072,,,,20.327868882
1716265334716900218,-0.087,,,,20.335562832
1716265334724594168,-0.097,,,,20.343256782
1716265334732288118,-0.094,,,,20.350950732
1716265334739982068,-0.09,,,,20.358644682
1716265334747676018,-0.085,,,,20.366338632
1716265334755369968,-0.077,,949.0,,20.374032582
1716265334763063918,-0.07,,,,20.381726532
1716265334770757868,-0.068,,,,20.389420482
1716265334778451818,-0.06,,,,20.397114432
1716265334786145768,-0.053,,,,20.404808382
1716265334793839718,-0.043,,,,20.412502332
1716265334801533668,-0.038,,,,20.420196282
1716265334809227618,-0.034,,,,20.427890232
1716265334816921568,-0.029,,,,20.435584182
1716265334824615518,-0.021,,,,20.443278132
1716265334832309468,-0.017,,,,20.450972082
1716265334840003418,-0.012,,,,20.458666032
1716265334847697368,-0.007,,,,20.466359982
1716265334855391318,0.0,,,,20.474053932
1716265334863085268,0.002,,,,20.481747882
1716265334870779218,0.007,,,,20.489441832
1716265334878473168,0.012,,,,20.497135782
1716265334886167118,0.019,,,,20.504829732
1716265334893861068,0.024,,,,20.512523682
1716265334901555018,0.026,,,,20.520217632
1716265334909248968,0.026,,,,20.527911582
1716265334916942918,0.026,,,,20.535605532
1716265334924636868,0.029,,,,20.543299482
1716265334932330818,0.024,,,,20.550993432
1716265334940024768,0.024,,,,20.558687382
1716265334947718718,0.041,,,,20.566381332
1716265334955412668,0.046,,,,20.574075282
1716265334963106618,0.036,,,,20.581769232
1716265334970800568,0.036,,,,20.589463182
1716265334978494518,0.046,,,,20.597157132
1716265334986188468,0.046,,,,20.604851082
1716265334993882418,0.036,,,,20.612545032
1716265335001576368,0.029,,,,20.620238982
1716265335009270318,0.036,,,,20.627932932
1716265335016964268,0.043,,,,20.635626882
1716265335024658218,0.038,,,,20.643320832
1716265335032352168,0.046,,,,20.651014782
1716265335040046118,0.058,,,,20.658708732
1716265335047740068,0.055,,,,20.666402682
1716265335055434018,0.048,,,,20.674096632
1716265335063127968,0.058,,,,20.681790582
1716265335070821918,0.068,,,,20.689484532
1716265335078515868,0.07,,,,20.697178482
1716265335086209818,0.065,,,,20.704872432
1716265335093903768,0.068,,,,20.712566382
1716265335101597718,0.072,,,,20.720260332
1716265335109291668,0.072,,,,20.727954282
1716265335116985618,0.07,,,,20.735648232
1716265335124679568,0.075,,,,20.743342182
1716265335132373518,0.08,,,,20.751036132
1716265335140067468,0.072,,,,20.758730082
1716265335147761418,0.06,,,,20.766424032
1716265335155455368,0.063,,,,20.774117982
1716265335163149326,0.072,71.0,,,20.78181194
1716265335170843624,0.082,,,,20.789506238
1716265335178537922,0.099,,,,20.797200536
1716265335186232220,0.114,,,,20.804894834
1716265335193926518,0.114,,,,20.812589132
1716265335201620816,0.102,,,,20.82028343
1716265335209315114,0.09,,,,20.827977728
1716265335217009412,0.082,,,,20.835672026
1716265335224703710,0.065,,,,20.843366324
1716265335232398008,0.048,,,,20.851060622
1716265335240092306,0.055,,,,20.85875492
1716265335247786604,0.068,,,,20.866449218
1716265335255480902,0.063,,,,20.874143516
1716265335263175200,0.063,,,,20.881837814
1716265335270869498,0.07,,,,20.889532112
1716265335278563796,0.07,,,,20.89722641
1716265335286258094,0.07,,,,20.904920708
1716265335293952392,0.07,,,,20.912615006
1716265335301646690,0.082,,,,20.920309304
1716265335309340988,0.218,,,,20.928003602
1716265335317035286,0.545,,,,20.9356979
1716265335324729584,0.883,,,,20.943392198
1716265335332423882,1.002,,,,20.951086496
1716265335340118180,0.532,,,,20.958780794
1716265335347812478,-0.413,,,,20.966475092
1716265335355506776,-0.678,,,,20.97416939
1716265335363201074,-0.124,,,,20.981863688
1716265335370895372,0.114,,,,20.989557986
1716265335378589670,0.002,,,,20.997252284
1716265335386283968,0.072,,,,21.004946582
1716265335393978266,0.145,,,,21.01264088
1716265335401672564,0.099,,,,21.020335178
1716265335409366862,0.104,,,,21.028029476
1716265335417061160,0.136,,,,21.035723774
1716265335424755458,0.138,,,,21.043418072
1716265335432449756,0.153,,,,21.05111237
1716265335440144054,0.167,,,,21.058806668
1716265335447838352,0.165,,,,21.066500966
1716265335455532650,0.165,,,,21.074195264
1716265335463226948,0.18,,,,21.081889562
1716265335470921246,0.206,,,,21.08958386
1716265335478615544,0.236,,,,21.097278158
1716265335486309842,0.265,,,,21.104972456
1716265335494004140,0.296,,,,21.112666754
1716265335501698438,0.326,,,,21.120361052
1716265335509392736,0.352,,,,21.12805535
1716265335517087034,0.396,,,,21.135749648
1716265335524781332,0.437,,,,21.143443946
1716265335532475630,0.462,,,,21.151138244
1716265335540169928,0.476,,,,21.158832542
1716265335547864226,0.481,,,,21.16652684
1716265335555558524,0.467,,,,21.174221138
1716265335563252822,0.428,,,,21.181915436
1716265335570947120,0.355,,,,21.189609734
1716265335578641418,0.253,,,,21.197304032
1716265335586335716,0.153,,,,21.20499833
1716265335594030014,0.072,,,,21.212692628
1716265335601724312,0.009,,,,21.220386926
1716265335609418610,-0.041,,,,21.228081224
1716265335617112908,-0.075,,,,21.235775522
1716265335624807206,-0.085,,864.0,,21.24346982
1716265335632501504,-0.082,,,,21.251164118
1716265335640195802,-0.087,,,,21.258858416
1716265335647890100,-0.094,,,,21.266552714
1716265335655584398,-0.087,,,,21.274247012
1716265335663278696,-0.077,,,,21.28194131
1716265335670972994,-0.08,,,,21.289635608
1716265335678667292,-0.077,,,,21.297329906
1716265335686361590,-0.07,,,,21.305024204
1716265335694055888,-0.072,,,,21.312718502
1716265335701750186,-0.077,,,,21.3204128
1716265335709444484,-0.072,,,,21.328107098
1716265335717138782,-0.07,,,,21.335801396
1716265335724833118,-0.065,,,,21.343495732
1716265335732527137,-0.063,,,,21.351189751
1716265335740221156,-0.063,,,,21.35888377
1716265335747915175,-0.051,,,,21.366577789
1716265335755609194,-0.031,,,,21.374271808
1716265335763303213,-0.034,,,,21.381965827
1716265335770997232,-0.031,,,,21.389659846
1716265335778691251,-0.017,,,,21.397353865
1716265335786385270,-0.012,,,,21.405047884
1716265335794079289,-0.021,,,,21.412741903
1716265335801773308,-0.029,,,,21.420435922
1716265335809467327,-0.024,,,,21.428129941
1716265335817161346,-0.012,,,,21.43582396
1716265335824855365,-0.004,,,,21.443517979
1716265335832549384,-0.012,,,,21.451211998
1716265335840243403,-0.019,,,,21.458906017
1716265335847937422,-0.007,,,,21.466600036
1716265335855631441,0.004,,,,21.474294055
1716265335863325460,0.0,,,,21.481988074
1716265335871019479,0.0,,,,21.489682093
1716265335878713498,0.007,,,,21.497376112
1716265335886407517,0.007,,,,21.505070131
1716265335894101536,0.004,,,,21.51276415
1716265335901795555,0.0,,,,21.520458169
1716265335909489574,0.007,,,,21.528152188
1716265335917183593,0.024,,,,21.535846207
1716265335924877612,0.021,,,,21.543540226
1716265335932571631,0.017,,,,21.551234245
1716265335940265650,0.026,,,,21.558928264
1716265335947959669,0.021,,,,21.566622283
1716265335955653688,0.014,,,,21.574316302
1716265335963347707,0.026,,,,21.582010321
1716265335971041726,0.036,,,,21.58970434
1716265335978735745,0.029,,,,21.597398359
1716265335986429764,0.029,,,,21.605092378
1716265335994123783,0.036,,,,21.612786397
1716265336001817802,0.031,,,,21.620480416
1716265336009511821,0.017,,,,21.628174435
1716265336017205840,0.007,,,,21.635868454
1716265336024899859,0.019,,,,21.643562473
1716265336032593878,0.038,,,,21.651256492
1716265336040287897,0.024,,,,21.658950511
1716265336047981916,0.002,,,,21.66664453
1716265336055675935,0.019,,,,21.674338549
1716265336063369954,0.038,,,,21.682032568
1716265336071063973,0.053,,,,21.689726587
1716265336078757992,0.075,,,,21.697420606
1716265336086452011,0.077,,,,21.705114625
1716265336094146030,0.058,,,,21.712808644
1716265336101840049,0.043,,,,21.720502663
1716265336109534068,0.038,,,,21.728196682
1716265336117228087,0.041,,,,21.735890701
1716265336124922106,0.043,,,,21.74358472
1716265336132616125,0.041,,,,21.751278739
1716265336140310144,0.046,,,,21.758972758
1716265336148004163,0.051,,,,21.766666777
1716265336155698182,0.038,,,,21.774360796
1716265336163392201,0.034,,,,21.782054815
1716265336171086220,0.06,,,,21.789748834
1716265336178780239,0.068,,,,21.797442853
1716265336186474258,0.048,,,,21.805136872
1716265336194168277,0.072,,,,21.812830891
1716265336201862296,0.296,,,,21.82052491
1716265336209556315,0.725,,,,21.828218929
1716265336217250334,1.104,,,,21.835912948
1716265336224944353,1.107,,,,21.843606967
1716265336232638372,0.364,,,,21.851300986
1716265336240332391,-0.642,,,,21.858995005
1716265336248026410,-0.7030000000000001,,,,21.866689024
1716265336255720429,-0.141,,,,21.874383043
1716265336263414448,-0.004,,,,21.882077062
1716265336271108467,-0.053,,,,21.889771081
1716265336278802486,0.068,,,,21.8974651
1716265336286496562,0.109,71.0,,,21.905159176
1716265336294190512,0.077,,,,21.912853126
1716265336301884462,0.109,,,,21.920547076
1716265336309578412,0.138,,,,21.928241026
1716265336317272362,0.126,,,,21.935934976
1716265336324966312,0.133,,,,21.943628926
1716265336332660262,0.158,,,,21.951322876
1716265336340354212,0.16,,,,21.959016826
1716265336348048162,0.167,,,,21.966710776
1716265336355742112,0.199,,,,21.974404726
1716265336363436062,0.223,,,,21.982098676
1716265336371130012,0.245,,,,21.989792626
1716265336378823962,0.279,,,,21.997486576
1716265336386517912,0.309,,,,22.005180526
1716265336394211862,0.347,,,,22.012874476
1716265336401905812,0.403,,,,22.020568426
1716265336409599762,0.44,,,,22.028262376
1716265336417293712,0.476,,,,22.035956326
1716265336424987662,0.51,,,,22.043650276
1716265336432681612,0.515,,,,22.051344226
1716265336440375562,0.513,,,,22.059038176
1716265336448069512,0.498,,,,22.066732126
1716265336455763462,0.428,,,,22.074426076
1716265336463457412,0.323,,,,22.082120026
1716265336471151362,0.218,,,,22.089813976
1716265336478845312,0.104,,,,22.097507926
1716265336486539262,0.007,,861.0,,22.105201876
1716265336494233212,-0.048,,,,22.112895826
1716265336501927162,-0.087,,,,22.120589776
1716265336509621112,-0.121,,,,22.128283726
