time,ecg,hr,rr,marker,norm_time
1716265489061537368,0.18,,,,0.0
1716265489069231318,0.077,,,,0.00769395
1716265489076925268,-0.014,,,,0.0153879
1716265489084619218,-0.087,,,,0.02308185
1716265489092313168,-0.136,,,,0.0307758
1716265489100007118,-0.165,,,,0.03846975
1716265489107701068,-0.192,,,,0.0461637
1716265489115395018,-0.206,,,,0.05385765
1716265489123088968,-0.209,,,,0.0615516
1716265489130782918,-0.211,,,,0.06924555
1716265489138476868,-0.211,,,,0.0769395
1716265489146170818,-0.201,,,,0.08463345
1716265489153864768,-0.189,,,,0.0923274
1716265489161558718,-0.177,,,,0.10002135
1716265489169252668,-0.17,,,,0.1077153
1716265489176946618,-0.158,,,,0.11540925
1716265489184640568,-0.15,,,,0.1231032
1716265489192334518,-0.145,,,,0.13079715
1716265489200028468,-0.141,,,,0.1384911
1716265489207722418,-0.124,,,,0.14618505
1716265489215416368,-0.114,,,,0.153879
1716265489223110318,-0.111,,,,0.16157295
1716265489230804268,-0.114,,,,0.1692669
1716265489238498218,-0.109,,,,0.17696085
1716265489246192168,-0.102,,,,0.1846548
1716265489253886118,-0.099,,,,0.19234875
1716265489261580068,-0.092,,,,0.2000427
1716265489269274018,-0.085,,,,0.20773665
1716265489276967968,-0.08,,,,0.2154306
1716265489284661918,-0.08,,,,0.22312455
1716265489292355868,-0.075,,,,0.2308185
1716265489300049818,-0.07,,,,0.23851245
1716265489307743768,-0.068,,,,0.2462064
1716265489315437718,-0.065,,,,0.25390035
1716265489323131668,-0.065,,,,0.2615943
1716265489330825618,-0.063,,,,0.26928825
1716265489338519568,-0.055,,,,0.2769822
1716265489346213518,-0.051,,,,0.28467615
1716265489353907468,-0.051,,,,0.2923701
1716265489361601418,-0.048,,,,0.30006405
1716265489369295368,-0.048,,,,0.307758
1716265489376989318,-0.048,,,,0.31545195
1716265489384683268,-0.046,,,,0.3231459
1716265489392377218,-0.041,,681.0,,0.33083985
1716265489400071168,-0.034,,,,0.3385338
1716265489407765118,-0.031,,,,0.34622775
1716265489415459068,-0.029,,,,0.3539217
1716265489423153018,-0.024,,,,0.36161565
1716265489430846968,-0.021,,,,0.3693096
1716265489438540918,-0.021,,,,0.37700355
1716265489446234868,-0.019,,,,0.3846975
1716265489453928818,-0.014,,,,0.39239145
1716265489461622768,-0.017,,,,0.4000854
1716265489469316718,-0.021,,,,0.40777935
1716265489477010668,-0.017,,,,0.4154733
1716265489484704618,-0.019,,,,0.42316725
1716265489492398568,-0.029,,,,0.4308612
1716265489500092518,-0.031,,,,0.43855515
1716265489507786468,-0.034,,,,0.4462491
1716265489515480418,-0.043,,,,0.45394305
1716265489523174368,-0.043,,,,0.461637
1716265489530868318,-0.021,,,,0.46933095
1716265489538562268,0.007,,,,0.4770249
1716265489546256218,0.031,,,,0.48471885
1716265489553950168,0.036,,,,0.4924128
1716265489561644118,0.024,,,,0.50010675
1716265489569338068,0.019,,,,0.5078007
1716265489577032018,0.019,,,,0.51549465
1716265489584725968,0.007,,,,0.5231886
1716265489592419918,-0.009,,,,0.53088255
1716265489600113868,-0.007,,,,0.5385765
1716265489607807818,0.0,,,,0.54627045
1716265489615501768,0.0,,,,0.5539644
1716265489623195726,0.0,79.0,,,0.561658358
1716265489630890094,0.002,,,,0.569352726
1716265489638584462,0.002,,,,0.577047094
1716265489646278830,-0.007,,,,0.584741462
1716265489653973198,-0.024,,,,0.59243583
1716265489661667566,0.007,,,,0.600130198
1716265489669361934,0.233,,,,0.607824566
1716265489677056302,0.649,,,,0.615518934
1716265489684750670,1.041,,,,0.623213302
1716265489692445038,1.07,,,,0.63090767
1716265489700139406,0.267,,,,0.638602038
1716265489707833774,-0.742,,,,0.646296406
1716265489715528142,-0.656,,,,0.653990774
1716265489723222510,-0.053,,,,0.661685142
1716265489730916878,-0.021,,,,0.66937951
1716265489738611246,-0.114,,,,0.677073878
1716265489746305614,0.017,,,,0.684768246
1716265489753999982,0.043,,,,0.692462614
1716265489761694350,-0.007,,,,0.700156982
1716265489769388718,0.031,,,,0.70785135
1716265489777083086,0.068,,,,0.715545718
1716265489784777454,0.06,,,,0.723240086
1716265489792471822,0.068,,,,0.730934454
1716265489800166190,0.087,,,,0.738628822
1716265489807860558,0.099,,,,0.74632319
1716265489815554926,0.116,,,,0.754017558
1716265489823249294,0.136,,,,0.761711926
1716265489830943662,0.155,,,,0.769406294
1716265489838638030,0.18,,,,0.777100662
1716265489846332398,0.211,,,,0.78479503
1716265489854026766,0.248,,,,0.792489398
1716265489861721134,0.282,,,,0.800183766
1716265489869415502,0.316,,,,0.807878134
1716265489877109870,0.35,,,,0.815572502
1716265489884804238,0.379,,,,0.82326687
1716265489892498606,0.406,,,,0.830961238
1716265489900192974,0.425,,,,0.838655606
1716265489907887342,0.428,,,,0.846349974
1716265489915581710,0.411,,,,0.854044342
1716265489923276078,0.364,,,,0.86173871
1716265489930970446,0.287,,,,0.869433078
1716265489938664814,0.192,,,,0.877127446
1716265489946359182,0.102,,,,0.884821814
1716265489954053550,0.026,,,,0.892516182
1716265489961747918,-0.029,,,,0.90021055
1716265489969442286,-0.07,,,,0.907904918
1716265489977136654,-0.099,,,,0.915599286
1716265489984831022,-0.114,,,,0.923293654
1716265489992525390,-0.119,,,,0.930988022
1716265490000219758,-0.121,,,,0.93868239
1716265490007914126,-0.116,,,,0.946376758
1716265490015608494,-0.111,,,,0.954071126
1716265490023302862,-0.104,,,,0.961765494
1716265490030997230,-0.094,,,,0.969459862
1716265490038691598,-0.087,,,,0.97715423
1716265490046385966,-0.077,,,,0.984848598
1716265490054080334,-0.07,,,,0.992542966
1716265490061774702,-0.063,,,,1.000237334
1716265490069469070,-0.058,,,,1.007931702
1716265490077163438,-0.051,,,,1.01562607
1716265490084857806,-0.043,,,,1.023320438
1716265490092552174,-0.041,,,,1.031014806
1716265490100246542,-0.036,,714.0,,1.038709174
1716265490107940910,-0.029,,,,1.046403542
1716265490115635278,-0.031,,,,1.05409791
1716265490123329646,-0.029,,,,1.061792278
1716265490131024014,-0.021,,,,1.069486646
1716265490138718382,-0.021,,,,1.077181014
1716265490146412750,-0.024,,,,1.084875382
1716265490154107118,-0.021,,,,1.09256975
1716265490161801486,-0.021,,,,1.100264118
1716265490169495854,-0.019,,,,1.107958486
1716265490177190222,-0.014,,,,1.115652854
1716265490184884602,-0.012,80.0,,,1.123347234
1716265490192578552,-0.009,,,,1.131041184
1716265490200272502,-0.007,,,,1.138735134
1716265490207966452,-0.012,,,,1.146429084
1716265490215660402,-0.017,,,,1.154123034
1716265490223354352,-0.017,,,,1.161816984
1716265490231048302,-0.009,,,,1.169510934
1716265490238742252,-0.007,,,,1.177204884
1716265490246436202,-0.009,,,,1.184898834
1716265490254130152,-0.007,,,,1.192592784
1716265490261824102,0.0,,,,1.200286734
1716265490269518052,0.007,,,,1.207980684
1716265490277212002,0.009,,,,1.215674634
1716265490284905952,0.012,,,,1.223368584
1716265490292599902,0.014,,,,1.231062534
1716265490300293852,0.012,,,,1.238756484
1716265490307987802,0.009,,,,1.246450434
1716265490315681752,0.014,,,,1.254144384
1716265490323375702,0.014,,,,1.261838334
1716265490331069652,0.014,,,,1.269532284
1716265490338763602,0.014,,,,1.277226234
1716265490346457552,0.014,,,,1.284920184
1716265490354151502,0.017,,,,1.292614134
1716265490361845452,0.017,,,,1.300308084
1716265490369539402,0.017,,,,1.308002034
1716265490377233352,0.021,,,,1.315695984
1716265490384927302,0.021,,,,1.323389934
1716265490392621252,0.009,,,,1.331083884
1716265490400315202,0.002,,,,1.338777834
1716265490408009152,0.017,,,,1.346471784
1716265490415703102,0.041,,,,1.354165734
1716265490423397052,0.065,,,,1.361859684
1716265490431091002,0.08,,,,1.369553634
1716265490438784952,0.077,,,,1.377247584
1716265490446478902,0.07,,,,1.384941534
1716265490454172852,0.063,,,,1.392635484
1716265490461866802,0.058,,,,1.400329434
1716265490469560752,0.048,,,,1.408023384
1716265490477254702,0.038,,,,1.415717334
1716265490484948652,0.041,,,,1.423411284
1716265490492642602,0.038,,,,1.431105234
1716265490500336552,0.034,,,,1.438799184
1716265490508030502,0.038,,,,1.446493134
1716265490515724452,0.043,,,,1.454187084
1716265490523418402,0.046,,,,1.461881034
1716265490531112352,0.046,,,,1.469574984
1716265490538806302,0.041,,,,1.477268934
1716265490546500252,0.153,,,,1.484962884
1716265490554194202,0.496,,,,1.492656834
1716265490561888152,0.924,,,,1.500350784
1716265490569582102,1.155,,,,1.508044734
1716265490577276052,0.759,,,,1.515738684
1716265490584970002,-0.284,,,,1.523432634
1716265490592663952,-0.754,,,,1.531126584
1716265490600357902,-0.226,,,,1.538820534
1716265490608051852,0.087,,,,1.546514484
1716265490615745802,-0.036,,,,1.554208434
1716265490623439752,0.021,,,,1.561902384
1716265490631133702,0.124,,,,1.569596334
1716265490638827652,0.075,,,,1.577290284
1716265490646521602,0.075,,,,1.584984234
1716265490654215552,0.126,,,,1.592678184
1716265490661909502,0.121,,,,1.600372134
1716265490669603452,0.114,,,,1.608066084
1716265490677297402,0.141,,,,1.615760034
1716265490684991352,0.155,,,,1.623453984
1716265490692685302,0.165,,,,1.631147934
1716265490700379252,0.187,,,,1.638841884
1716265490708073202,0.206,,,,1.646535834
1716265490715767152,0.223,,,,1.654229784
1716265490723461102,0.248,,,,1.661923734
1716265490731155052,0.284,,,,1.669617684
1716265490738849002,0.321,,,,1.677311634
1716265490746542962,0.352,,,,1.685005594
1716265490754237330,0.386,,,,1.692699962
1716265490761931698,0.425,,,,1.70039433
1716265490769626066,0.457,,,,1.708088698
1716265490777320434,0.474,,,,1.715783066
1716265490785014802,0.476,,,,1.723477434
1716265490792709170,0.469,,,,1.731171802
1716265490800403538,0.442,,,,1.73886617
1716265490808097906,0.379,,,,1.746560538
1716265490815792274,0.282,,,,1.754254906
1716265490823486642,0.177,,,,1.761949274
1716265490831181010,0.094,,,,1.769643642
1716265490838875378,0.036,,,,1.77733801
1716265490846569746,-0.019,,,,1.785032378
1716265490854264114,-0.07,,,,1.792726746
1716265490861958482,-0.09,,,,1.800421114
1716265490869652850,-0.08,,,,1.808115482
1716265490877347218,-0.08,,,,1.81580985
1716265490885041586,-0.092,,,,1.823504218
1716265490892735954,-0.077,,789.0,,1.831198586
1716265490900430322,-0.063,,,,1.838892954
1716265490908124690,-0.068,,,,1.846587322
1716265490915819058,-0.06,,,,1.85428169
1716265490923513426,-0.041,,,,1.861976058
1716265490931207794,-0.034,,,,1.869670426
1716265490938902162,-0.034,,,,1.877364794
1716265490946596530,-0.024,,,,1.885059162
1716265490954290898,-0.014,,,,1.89275353
1716265490961985266,-0.012,,,,1.900447898
1716265490969679634,-0.007,,,,1.908142266
1716265490977374002,0.002,,,,1.915836634
1716265490985068370,0.009,,,,1.923531002
1716265490992762738,0.017,,,,1.93122537
1716265491000457106,0.017,,,,1.938919738
1716265491008151474,0.014,,,,1.946614106
1716265491015845842,0.019,,,,1.954308474
1716265491023540210,0.021,,,,1.962002842
1716265491031234578,0.019,,,,1.96969721
1716265491038928946,0.012,,,,1.977391578
1716265491046623314,0.014,,,,1.985085946
1716265491054317682,0.021,,,,1.992780314
1716265491062012050,0.021,,,,2.000474682
1716265491069706418,0.024,,,,2.00816905
1716265491077400786,0.026,,,,2.015863418
1716265491085095154,0.024,,,,2.023557786
1716265491092789522,0.024,,,,2.031252154
1716265491100483890,0.026,,,,2.038946522
1716265491108178258,0.026,,,,2.04664089
1716265491115872626,0.024,,,,2.054335258
1716265491123566994,0.026,,,,2.062029626
1716265491131261362,0.029,,,,2.069723994
1716265491138955730,0.034,,,,2.077418362
1716265491146650098,0.034,,,,2.08511273
1716265491154344466,0.038,,,,2.092807098
1716265491162038834,0.046,,,,2.100501466
1716265491169733202,0.046,,,,2.108195834
1716265491177427570,0.046,,,,2.115890202
1716265491185121938,0.053,,,,2.12358457
1716265491192816306,0.058,,,,2.131278938
1716265491200510674,0.055,,,,2.138973306
1716265491208205042,0.055,,,,2.146667674
1716265491215899410,0.06,,,,2.154362042
1716265491223593778,0.065,,,,2.16205641
1716265491231288146,0.065,,,,2.169750778
1716265491238982514,0.065,,,,2.177445146
1716265491246676882,0.075,,,,2.185139514
1716265491254371250,0.087,,,,2.192833882
1716265491262065618,0.08,,,,2.20052825
1716265491269759986,0.063,,,,2.208222618
1716265491277454354,0.058,,,,2.215916986
1716265491285148722,0.063,,,,2.223611354
1716265491292843090,0.075,,,,2.231305722
1716265491300537458,0.099,,,,2.23900009
1716265491308231838,0.121,80.0,,,2.24669447
1716265491315925788,0.131,,,,2.25438842
1716265491323619738,0.128,,,,2.26208237
1716265491331313688,0.121,,,,2.26977632
1716265491339007638,0.116,,,,2.27747027
1716265491346701588,0.104,,,,2.28516422
1716265491354395538,0.08,,,,2.29285817
1716265491362089488,0.072,,,,2.30055212
1716265491369783438,0.087,,,,2.30824607
1716265491377477388,0.094,,,,2.31594002
1716265491385171338,0.085,,,,2.32363397
1716265491392865288,0.077,,,,2.33132792
1716265491400559238,0.087,,,,2.33902187
1716265491408253188,0.087,,,,2.34671582
1716265491415947138,0.068,,,,2.35440977
1716265491423641088,0.104,,,,2.36210372
1716265491431335038,0.338,,,,2.36979767
1716265491439028988,0.72,,,,2.37749162
1716265491446722938,1.029,,,,2.38518557
1716265491454416888,0.975,,,,2.39287952
1716265491462110838,0.218,,,,2.40057347
1716265491469804788,-0.588,,,,2.40826742
1716265491477498738,-0.428,,,,2.41596137
1716265491485192688,0.063,,,,2.42365532
1716265491492886638,0.055,,,,2.43134927
1716265491500580588,-0.004,,,,2.43904322
1716265491508274538,0.099,,,,2.44673717
1716265491515968488,0.107,,,,2.45443112
1716265491523662438,0.072,,,,2.46212507
1716265491531356388,0.109,,,,2.46981902
1716265491539050338,0.133,,,,2.47751297
1716265491546744288,0.121,,,,2.48520692
1716265491554438238,0.136,,,,2.49290087
1716265491562132188,0.155,,,,2.50059482
1716265491569826138,0.163,,,,2.50828877
1716265491577520088,0.18,,,,2.51598272
1716265491585214038,0.201,,,,2.52367667
1716265491592907988,0.211,,,,2.53137062
1716265491600601938,0.226,,,,2.53906457
1716265491608295888,0.257,,,,2.54675852
1716265491615989838,0.294,,,,2.55445247
1716265491623683788,0.328,,,,2.56214642
1716265491631377738,0.36,,,,2.56984037
1716265491639071688,0.394,,,,2.57753432
1716265491646765638,0.42,,,,2.58522827
1716265491654459588,0.44,,,,2.59292222
1716265491662153538,0.45,,,,2.60061617
1716265491669847488,0.455,,,,2.60831012
1716265491677541438,0.435,,,,2.61600407
1716265491685235388,0.389,,,,2.62369802
1716265491692929338,0.321,,,,2.63139197
1716265491700623288,0.238,,,,2.63908592
1716265491708317238,0.15,,,,2.64677987
1716265491716011188,0.072,,,,2.65447382
1716265491723705138,0.017,,,,2.66216777
1716265491731399088,-0.024,,,,2.66986172
1716265491739093038,-0.051,,,,2.67755567
1716265491746786988,-0.063,,,,2.68524962
1716265491754480938,-0.065,,865.0,,2.69294357
1716265491762174888,-0.063,,,,2.70063752
1716265491769868838,-0.06,,,,2.70833147
1716265491777562788,-0.06,,,,2.71602542
1716265491785256738,-0.053,,,,2.72371937
1716265491792950688,-0.043,,,,2.73141332
1716265491800644638,-0.038,,,,2.73910727
1716265491808338588,-0.034,,,,2.74680122
1716265491816032538,-0.029,,,,2.75449517
1716265491823726488,-0.031,,,,2.76218912
1716265491831420438,-0.029,,,,2.76988307
1716265491839114388,-0.024,,,,2.77757702
1716265491846808338,-0.021,,,,2.78527097
1716265491854502288,-0.017,,,,2.79296492
1716265491862196238,-0.012,,,,2.80065887
1716265491869890196,-0.012,,,,2.808352828
1716265491877584285,-0.009,,,,2.816046917
1716265491885278374,0.0,,,,2.823741006
1716265491892972463,0.002,,,,2.831435095
1716265491900666552,0.002,,,,2.839129184
1716265491908360641,0.004,,,,2.846823273
1716265491916054730,0.007,,,,2.854517362
1716265491923748819,0.004,,,,2.862211451
1716265491931442908,-0.002,,,,2.86990554
1716265491939136997,0.002,,,,2.877599629
1716265491946831086,0.009,,,,2.885293718
1716265491954525175,0.007,,,,2.892987807
1716265491962219264,0.002,,,,2.900681896
1716265491969913353,0.004,,,,2.908375985
1716265491977607442,0.014,,,,2.916070074
1716265491985301531,0.017,,,,2.923764163
1716265491992995620,0.019,,,,2.931458252
1716265492000689709,0.021,,,,2.939152341
1716265492008383798,0.014,,,,2.94684643
1716265492016077887,0.009,,,,2.954540519
1716265492023771976,0.019,,,,2.962234608
1716265492031466065,0.024,,,,2.969928697
1716265492039160154,0.021,,,,2.977622786
1716265492046854243,0.024,,,,2.985316875
1716265492054548332,0.026,,,,2.993010964
1716265492062242421,0.031,,,,3.000705053
1716265492069936510,0.036,,,,3.008399142
1716265492077630599,0.038,,,,3.016093231
1716265492085324688,0.034,,,,3.02378732
1716265492093018777,0.031,,,,3.031481409
1716265492100712866,0.034,,,,3.039175498
1716265492108406955,0.029,,,,3.046869587
1716265492116101044,0.017,,,,3.054563676
1716265492123795133,0.012,,,,3.062257765
1716265492131489222,0.024,,,,3.069951854
1716265492139183311,0.041,,,,3.077645943
1716265492146877400,0.06,,,,3.085340032
1716265492154571489,0.082,,,,3.093034121
1716265492162265578,0.09,,,,3.10072821
1716265492169959667,0.082,,,,3.108422299
1716265492177653756,0.077,,,,3.116116388
1716265492185347845,0.072,,,,3.123810477
1716265492193041934,0.053,,,,3.131504566
1716265492200736023,0.046,,,,3.139198655
1716265492208430112,0.058,,,,3.146892744
1716265492216124201,0.065,,,,3.154586833
1716265492223818290,0.065,,,,3.162280922
1716265492231512379,0.068,,,,3.169975011
1716265492239206468,0.07,,,,3.1776691
1716265492246900557,0.072,,,,3.185363189
1716265492254594646,0.063,,,,3.193057278
1716265492262288735,0.09,,,,3.200751367
1716265492269982824,0.296,,,,3.208445456
1716265492277676913,0.671,,,,3.216139545
1716265492285371002,0.995,,,,3.223833634
1716265492293065091,0.985,,,,3.231527723
1716265492300759180,0.287,,,,3.239221812
1716265492308453269,-0.586,,,,3.246915901
1716265492316147358,-0.523,,,,3.25460999
1716265492323841447,0.012,,,,3.262304079
1716265492331535536,0.072,,,,3.269998168
1716265492339229625,-0.002,,,,3.277692257
1716265492346923714,0.104,,,,3.285386346
1716265492354617803,0.131,,,,3.293080435
1716265492362311892,0.09,,,,3.300774524
1716265492370005981,0.121,,,,3.308468613
1716265492377700070,0.145,,,,3.316162702
1716265492385394159,0.136,,,,3.323856791
1716265492393088248,0.153,,,,3.33155088
1716265492400782337,0.175,,,,3.339244969
1716265492408476426,0.177,,,,3.346939058
1716265492416170515,0.187,,,,3.354633147
1716265492423864604,0.209,,,,3.362327236
1716265492431558728,0.226,78.0,,,3.37002136
1716265492439252956,0.245,,,,3.377715588
1716265492446947184,0.272,,,,3.385409816
1716265492454641412,0.304,,,,3.393104044
1716265492462335640,0.34,,,,3.400798272
1716265492470029868,0.377,,,,3.4084925
1716265492477724096,0.411,,,,3.416186728
1716265492485418324,0.442,,,,3.423880956
1716265492493112552,0.464,,,,3.431575184
1716265492500806780,0.476,,,,3.439269412
1716265492508501008,0.474,,,,3.44696364
1716265492516195236,0.447,,,,3.454657868
1716265492523889464,0.386,,,,3.462352096
1716265492531583692,0.309,,,,3.470046324
1716265492539277920,0.226,,,,3.477740552
1716265492546972148,0.138,,,,3.48543478
1716265492554666376,0.055,,,,3.493129008
1716265492562360604,-0.004,,,,3.500823236
1716265492570054832,-0.043,,,,3.508517464
1716265492577749060,-0.072,,,,3.516211692
1716265492585443288,-0.09,,,,3.52390592
1716265492593137516,-0.087,,,,3.531600148
1716265492600831744,-0.082,,,,3.539294376
1716265492608525972,-0.085,,,,3.546988604
1716265492616220200,-0.077,,,,3.554682832
1716265492623914428,-0.065,,,,3.56237706
1716265492631608656,-0.058,,872.0,,3.570071288
1716265492639302884,-0.053,,,,3.577765516
1716265492646997112,-0.046,,,,3.585459744
1716265492654691340,-0.038,,,,3.593153972
1716265492662385568,-0.031,,,,3.6008482
1716265492670079796,-0.031,,,,3.608542428
1716265492677774024,-0.031,,,,3.616236656
1716265492685468252,-0.026,,,,3.623930884
1716265492693162480,-0.024,,,,3.631625112
1716265492700856708,-0.024,,,,3.63931934
1716265492708550936,-0.019,,,,3.647013568
1716265492716245164,-0.014,,,,3.654707796
1716265492723939392,-0.009,,,,3.662402024
1716265492731633620,-0.007,,,,3.670096252
1716265492739327848,-0.009,,,,3.67779048
1716265492747022076,-0.007,,,,3.685484708
1716265492754716304,0.0,,,,3.693178936
1716265492762410532,-0.002,,,,3.700873164
1716265492770104760,-0.002,,,,3.708567392
1716265492777798988,0.004,,,,3.71626162
1716265492785493216,0.009,,,,3.723955848
1716265492793187444,0.004,,,,3.731650076
1716265492800881672,0.004,,,,3.739344304
1716265492808575900,0.009,,,,3.747038532
1716265492816270128,0.012,,,,3.75473276
1716265492823964356,0.009,,,,3.762426988
1716265492831658584,0.007,,,,3.770121216
1716265492839352812,0.012,,,,3.777815444
1716265492847047040,0.019,,,,3.785509672
1716265492854741268,0.021,,,,3.7932039
1716265492862435496,0.021,,,,3.800898128
1716265492870129724,0.024,,,,3.808592356
1716265492877823952,0.026,,,,3.816286584
1716265492885518180,0.024,,,,3.823980812
1716265492893212408,0.024,,,,3.83167504
1716265492900906636,0.031,,,,3.839369268
1716265492908600864,0.034,,,,3.847063496
1716265492916295092,0.034,,,,3.854757724
1716265492923989320,0.026,,,,3.862451952
1716265492931683548,0.012,,,,3.87014618
1716265492939377776,0.012,,,,3.877840408
1716265492947072004,0.024,,,,3.885534636
1716265492954766232,0.041,,,,3.893228864
1716265492962460460,0.06,,,,3.900923092
1716265492970154688,0.082,,,,3.90861732
1716265492977848916,0.087,,,,3.916311548
1716265492985543144,0.08,,,,3.924005776
1716265492993237430,0.075,,,,3.931700062
1716265493000931798,0.07,,,,3.93939443
1716265493008626166,0.053,,,,3.947088798
1716265493016320534,0.053,,,,3.954783166
1716265493024014902,0.055,,,,3.962477534
1716265493031709270,0.046,,,,3.970171902
1716265493039403638,0.038,,,,3.97786627
1716265493047098006,0.046,,,,3.985560638
1716265493054792374,0.053,,,,3.993255006
1716265493062486742,0.051,,,,4.000949374
1716265493070181110,0.038,,,,4.008643742
1716265493077875478,0.09,,,,4.01633811
1716265493085569846,0.352,,,,4.024032478
1716265493093264214,0.747,,,,4.031726846
1716265493100958582,1.026,,,,4.039421214
1716265493108652950,0.883,,,,4.047115582
1716265493116347318,0.034,,,,4.05480995
1716265493124041686,-0.708,,,,4.062504318
1716265493131736054,-0.408,,,,4.070198686
1716265493139430422,0.075,,,,4.077893054
1716265493147124790,0.029,,,,4.085587422
1716265493154819158,0.004,,,,4.09328179
1716265493162513526,0.121,,,,4.100976158
1716265493170207894,0.109,,,,4.108670526
1716265493177902262,0.08,,,,4.116364894
1716265493185596630,0.124,,,,4.124059262
1716265493193290998,0.136,,,,4.13175363
1716265493200985366,0.128,,,,4.139447998
1716265493208679734,0.148,,,,4.147142366
1716265493216374102,0.16,,,,4.154836734
1716265493224068470,0.165,,,,4.162531102
1716265493231762838,0.184,,,,4.17022547
1716265493239457206,0.204,,,,4.177919838
1716265493247151574,0.218,,,,4.185614206
1716265493254845942,0.243,,,,4.193308574
1716265493262540310,0.277,,,,4.201002942
1716265493270234678,0.311,,,,4.20869731
1716265493277929046,0.343,,,,4.216391678
1716265493285623414,0.379,,,,4.224086046
1716265493293317782,0.416,,,,4.231780414
1716265493301012150,0.442,,,,4.239474782
1716265493308706518,0.457,,,,4.24716915
1716265493316400886,0.467,,,,4.254863518
1716265493324095254,0.459,,,,4.262557886
1716265493331789622,0.437,,,,4.270252254
1716265493339483990,0.389,,,,4.277946622
1716265493347178358,0.309,,,,4.28564099
1716265493354872726,0.216,,,,4.293335358
1716265493362567094,0.131,,,,4.301029726
1716265493370261462,0.06,,,,4.308724094
1716265493377955830,0.004,,,,4.316418462
1716265493385650198,-0.036,,,,4.32411283
1716265493393344566,-0.063,,,,4.331807198
1716265493401038934,-0.075,,,,4.339501566
1716265493408733302,-0.07,,,,4.347195934
1716265493416427670,-0.068,,,,4.354890302
1716265493424122038,-0.07,,,,4.36258467
1716265493431816406,-0.068,,,,4.370279038
1716265493439510774,-0.06,,,,4.377973406
1716265493447205142,-0.053,,,,4.385667774
1716265493454899510,-0.046,,,,4.393362142
1716265493462593878,-0.038,,,,4.40105651
1716265493470288246,-0.029,,,,4.408750878
1716265493477982614,-0.024,,,,4.416445246
1716265493485676982,-0.024,,,,4.424139614
1716265493493371350,-0.019,,,,4.431833982
1716265493501065718,-0.009,,,,4.43952835
1716265493508760086,-0.004,,881.0,,4.447222718
1716265493516454454,-0.002,,,,4.454917086
1716265493524148822,-0.002,,,,4.462611454
1716265493531843190,-0.004,,,,4.470305822
1716265493539537558,-0.009,,,,4.47800019
1716265493547231926,-0.009,,,,4.485694558
1716265493554926306,-0.009,77.0,,,4.493388938
1716265493562620256,-0.014,,,,4.501082888
1716265493570314206,-0.021,,,,4.508776838
1716265493578008156,-0.031,,,,4.516470788
1716265493585702106,-0.029,,,,4.524164738
1716265493593396056,-0.021,,,,4.531858688
1716265493601090006,-0.014,,,,4.539552638
1716265493608783956,-0.019,,,,4.547246588
1716265493616477906,-0.019,,,,4.554940538
1716265493624171856,-0.017,,,,4.562634488
1716265493631865806,-0.014,,,,4.570328438
1716265493639559756,-0.012,,,,4.578022388
1716265493647253706,-0.009,,,,4.585716338
1716265493654947656,-0.007,,,,4.593410288
1716265493662641606,-0.007,,,,4.601104238
1716265493670335556,-0.007,,,,4.608798188
1716265493678029506,0.0,,,,4.616492138
1716265493685723456,0.004,,,,4.624186088
1716265493693417406,0.004,,,,4.631880038
1716265493701111356,0.009,,,,4.639573988
1716265493708805306,0.014,,,,4.647267938
1716265493716499256,0.009,,,,4.654961888
1716265493724193206,-0.004,,,,4.662655838
1716265493731887156,-0.009,,,,4.670349788
1716265493739581106,0.002,,,,4.678043738
1716265493747275056,0.017,,,,4.685737688
1716265493754969006,0.029,,,,4.693431638
1716265493762662956,0.046,,,,4.701125588
1716265493770356906,0.065,,,,4.708819538
1716265493778050856,0.068,,,,4.716513488
1716265493785744806,0.055,,,,4.724207438
1716265493793438756,0.051,,,,4.731901388
1716265493801132706,0.043,,,,4.739595338
1716265493808826656,0.029,,,,4.747289288
1716265493816520606,0.029,,,,4.754983238
1716265493824214556,0.041,,,,4.762677188
1716265493831908506,0.048,,,,4.770371138
1716265493839602456,0.051,,,,4.778065088
1716265493847296406,0.055,,,,4.785759038
1716265493854990356,0.06,,,,4.793452988
1716265493862684306,0.053,,,,4.801146938
1716265493870378256,0.053,,,,4.808840888
1716265493878072206,0.18,,,,4.816534838
1716265493885766156,0.51,,,,4.824228788
1716265493893460106,0.88,,,,4.831922738
1716265493901154056,1.034,,,,4.839616688
1716265493908848006,0.593,,,,4.847310638
1716265493916541956,-0.36,,,,4.855004588
1716265493924235906,-0.686,,,,4.862698538
1716265493931929856,-0.153,,,,4.870392488
1716265493939623806,0.111,,,,4.878086438
1716265493947317756,0.009,,,,4.885780388
1716265493955011706,0.08,,,,4.893474338
1716265493962705656,0.16,,,,4.901168288
1716265493970399606,0.116,,,,4.908862238
1716265493978093556,0.126,,,,4.916556188
1716265493985787506,0.167,,,,4.924250138
1716265493993481456,0.163,,,,4.931944088
1716265494001175406,0.165,,,,4.939638038
1716265494008869356,0.189,,,,4.947331988
1716265494016563306,0.201,,,,4.955025938
1716265494024257256,0.216,,,,4.962719888
1716265494031951206,0.231,,,,4.970413838
1716265494039645156,0.24,,,,4.978107788
1716265494047339106,0.26,,,,4.985801738
1716265494055033056,0.294,,,,4.993495688
1716265494062727006,0.321,,,,5.001189638
1716265494070420956,0.352,,,,5.008883588
1716265494078114906,0.394,,,,5.016577538
1716265494085808856,0.428,,,,5.024271488
1716265494093502806,0.459,,,,5.031965438
1716265494101196756,0.493,,,,5.039659388
1716265494108890706,0.51,,,,5.047353338
1716265494116584666,0.508,76.0,,,5.055047298
1716265494124278616,0.498,,,,5.062741248
1716265494131972566,0.467,,,,5.070435198
1716265494139666516,0.403,,,,5.078129148
1716265494147360466,0.318,,,,5.085823098
1716265494155054416,0.228,,,,5.093517048
1716265494162748366,0.153,,,,5.101210998
1716265494170442316,0.087,,,,5.108904948
1716265494178136266,0.031,,,,5.116598898
1716265494185830216,0.002,,,,5.124292848
1716265494193524166,0.0,,,,5.131986798
1716265494201218116,-0.004,,,,5.139680748
1716265494208912066,-0.007,,,,5.147374698
1716265494216606016,0.0,,,,5.155068648
1716265494224299966,0.007,,,,5.162762598
1716265494231993916,0.009,,,,5.170456548
1716265494239687866,0.017,,,,5.178150498
1716265494247381816,0.026,,,,5.185844448
1716265494255075766,0.036,,,,5.193538398
1716265494262769716,0.036,,,,5.201232348
1716265494270463666,0.036,,,,5.208926298
1716265494278157616,0.048,,,,5.216620248
1716265494285851566,0.058,,,,5.224314198
1716265494293545516,0.063,,,,5.232008148
1716265494301239466,0.063,,,,5.239702098
1716265494308933416,0.063,,,,5.247396048
1716265494316627366,0.065,,,,5.255089998
1716265494324321316,0.07,,,,5.262783948
1716265494332015266,0.077,,,,5.270477898
1716265494339709216,0.085,,,,5.278171848
1716265494347403166,0.09,,,,5.285865798
1716265494355097116,0.094,,,,5.293559748
1716265494362791066,0.092,,,,5.301253698
1716265494370485016,0.094,,,,5.308947648
1716265494378178966,0.097,,,,5.316641598
1716265494385872916,0.099,,,,5.324335548
1716265494393566866,0.099,,881.0,,5.332029498
1716265494401260816,0.104,,,,5.339723448
1716265494408954766,0.107,,,,5.347417398
1716265494416648716,0.104,,,,5.355111348
1716265494424342666,0.099,,,,5.362805298
1716265494432036616,0.102,,,,5.370499248
1716265494439730566,0.104,,,,5.378193198
1716265494447424516,0.097,,,,5.385887148
1716265494455118466,0.097,,,,5.393581098
1716265494462812416,0.102,,,,5.401275048
1716265494470506366,0.104,,,,5.408968998
1716265494478200316,0.102,,,,5.416662948
1716265494485894266,0.107,,,,5.424356898
1716265494493588216,0.111,,,,5.432050848
1716265494501282166,0.104,,,,5.439744798
1716265494508976116,0.085,,,,5.447438748
1716265494516670066,0.085,,,,5.455132698
1716265494524364016,0.104,,,,5.462826648
1716265494532057966,0.119,,,,5.470520598
1716265494539751916,0.126,,,,5.478214548
1716265494547445866,0.133,,,,5.485908498
1716265494555139816,0.138,,,,5.493602448
1716265494562833766,0.133,,,,5.501296398
1716265494570527716,0.126,,,,5.508990348
1716265494578221666,0.121,,,,5.516684298
1716265494585915616,0.109,,,,5.524378248
1716265494593609566,0.107,,,,5.532072198
1716265494601303516,0.116,,,,5.539766148
1716265494608997466,0.121,,,,5.547460098
1716265494616691416,0.124,,,,5.555154048
1716265494624385366,0.128,,,,5.562847998
1716265494632079316,0.136,,,,5.570541948
1716265494639773266,0.143,,,,5.578235898
1716265494647467216,0.136,,,,5.585929848
1716265494655161166,0.155,,,,5.593623798
1716265494662855116,0.35,,,,5.601317748
1716265494670549066,0.729,,,,5.609011698
1716265494678243024,1.065,,,,5.616705656
1716265494685937183,1.053,,,,5.624399815
1716265494693631342,0.35,,,,5.632093974
1716265494701325501,-0.528,,,,5.639788133
1716265494709019660,-0.479,,,,5.647482292
1716265494716713819,0.065,,,,5.655176451
1716265494724407978,0.148,,,,5.66287061
1716265494732102137,0.082,,,,5.670564769
1716265494739796296,0.182,,,,5.678258928
1716265494747490455,0.197,,,,5.685953087
1716265494755184614,0.153,,,,5.693647246
1716265494762878773,0.189,,,,5.701341405
1716265494770572932,0.214,,,,5.709035564
1716265494778267091,0.201,,,,5.716729723
1716265494785961250,0.211,,,,5.724423882
1716265494793655409,0.231,,,,5.732118041
1716265494801349568,0.236,,,,5.7398122
1716265494809043727,0.248,,,,5.747506359
1716265494816737886,0.272,,,,5.755200518
1716265494824432045,0.291,,,,5.762894677
1716265494832126204,0.316,,,,5.770588836
1716265494839820363,0.345,,,,5.778282995
1716265494847514522,0.379,,,,5.785977154
1716265494855208681,0.416,,,,5.793671313
1716265494862902840,0.455,,,,5.801365472
1716265494870596999,0.484,,,,5.809059631
1716265494878291158,0.515,,,,5.81675379
1716265494885985317,0.54,,,,5.824447949
1716265494893679476,0.549,,,,5.832142108
1716265494901373635,0.545,,,,5.839836267
1716265494909067794,0.525,,,,5.847530426
1716265494916761953,0.479,,,,5.855224585
1716265494924456112,0.403,,,,5.862918744
1716265494932150271,0.309,,,,5.870612903
1716265494939844430,0.218,,,,5.878307062
1716265494947538589,0.145,,,,5.886001221
1716265494955232748,0.087,,,,5.89369538
1716265494962926907,0.046,,,,5.901389539
1716265494970621066,0.029,,,,5.909083698
1716265494978315225,0.019,,,,5.916777857
1716265494986009384,0.009,,,,5.924472016
1716265494993703543,0.009,,,,5.932166175
1716265495001397702,0.017,,,,5.939860334
1716265495009091861,0.019,,,,5.947554493
1716265495016786020,0.019,,,,5.955248652
1716265495024480179,0.024,,,,5.962942811
1716265495032174338,0.034,,,,5.97063697
1716265495039868497,0.038,,,,5.978331129
1716265495047562656,0.031,,,,5.986025288
1716265495055256815,0.026,,,,5.993719447
1716265495062950974,0.031,,,,6.001413606
1716265495070645133,0.041,,,,6.009107765
1716265495078339292,0.046,,,,6.016801924
1716265495086033451,0.048,,,,6.024496083
1716265495093727610,0.058,,,,6.032190242
1716265495101421769,0.063,,,,6.039884401
1716265495109115928,0.063,,,,6.04757856
1716265495116810087,0.07,,,,6.055272719
1716265495124504246,0.075,,,,6.062966878
1716265495132198405,0.075,,,,6.070661037
1716265495139892564,0.075,,,,6.078355196
1716265495147586723,0.072,,,,6.086049355
1716265495155280882,0.072,,,,6.093743514
1716265495162975041,0.075,,,,6.101437673
1716265495170669200,0.075,,,,6.109131832
1716265495178363359,0.075,,,,6.116825991
1716265495186057518,0.077,,,,6.12452015
1716265495193751677,0.075,,,,6.132214309
1716265495201445836,0.072,,,,6.139908468
1716265495209139995,0.077,,,,6.147602627
1716265495216834154,0.08,,,,6.155296786
1716265495224528313,0.077,,,,6.162990945
1716265495232222472,0.075,,840.0,,6.170685104
1716265495239916642,0.077,76.0,,,6.178379274
1716265495247610801,0.077,,,,6.186073433
1716265495255304960,0.077,,,,6.193767592
1716265495262999119,0.08,,,,6.201461751
1716265495270693278,0.082,,,,6.20915591
1716265495278387437,0.082,,,,6.216850069
1716265495286081596,0.08,,,,6.224544228
1716265495293775755,0.075,,,,6.232238387
1716265495301469914,0.063,,,,6.239932546
1716265495309164073,0.048,,,,6.247626705
1716265495316858232,0.043,,,,6.255320864
1716265495324552391,0.051,,,,6.263015023
1716265495332246550,0.06,,,,6.270709182
1716265495339940709,0.077,,,,6.278403341
1716265495347634868,0.094,,,,6.2860975
1716265495355329027,0.094,,,,6.293791659
1716265495363023186,0.082,,,,6.301485818
1716265495370717345,0.075,,,,6.309179977
1716265495378411504,0.06,,,,6.316874136
1716265495386105663,0.051,,,,6.324568295
1716265495393799822,0.063,,,,6.332262454
1716265495401493981,0.07,,,,6.339956613
1716265495409188140,0.068,,,,6.347650772
1716265495416882299,0.065,,,,6.355344931
1716265495424576458,0.07,,,,6.36303909
1716265495432270617,0.072,,,,6.370733249
1716265495439964776,0.072,,,,6.378427408
1716265495447658935,0.06,,,,6.386121567
1716265495455353094,0.114,,,,6.393815726
1716265495463047253,0.374,,,,6.401509885
1716265495470741412,0.764,,,,6.409204044
1716265495478435571,1.041,,,,6.416898203
1716265495486129730,0.875,,,,6.424592362
1716265495493823889,0.0,,,,6.432286521
1716265495501518048,-0.712,,,,6.43998068
1716265495509212207,-0.386,,,,6.447674839
1716265495516906366,0.087,,,,6.455368998
1716265495524600525,0.038,,,,6.463063157
1716265495532294684,0.024,,,,6.470757316
1716265495539988843,0.136,,,,6.478451475
1716265495547683002,0.119,,,,6.486145634
1716265495555377161,0.09,,,,6.493839793
1716265495563071320,0.126,,,,6.501533952
1716265495570765479,0.136,,,,6.509228111
1716265495578459638,0.133,,,,6.51692227
1716265495586153797,0.15,,,,6.524616429
1716265495593847956,0.165,,,,6.532310588
1716265495601542115,0.175,,,,6.540004747
1716265495609236274,0.192,,,,6.547698906
1716265495616930433,0.211,,,,6.555393065
1716265495624624592,0.233,,,,6.563087224
1716265495632318751,0.26,,,,6.570781383
1716265495640012910,0.289,,,,6.578475542
1716265495647707069,0.321,,,,6.586169701
1716265495655401228,0.36,,,,6.59386386
1716265495663095387,0.401,,,,6.601558019
1716265495670789546,0.437,,,,6.609252178
1716265495678483705,0.462,,,,6.616946337
1716265495686177864,0.481,,,,6.624640496
1716265495693872023,0.491,,,,6.632334655
1716265495701566182,0.484,,,,6.640028814
1716265495709260341,0.452,,,,6.647722973
1716265495716954500,0.399,,,,6.655417132
1716265495724648659,0.321,,,,6.663111291
1716265495732342818,0.228,,,,6.67080545
1716265495740036977,0.141,,,,6.678499609
1716265495747731136,0.07,,,,6.686193768
1716265495755425295,0.021,,,,6.693887927
1716265495763119454,-0.014,,,,6.701582086
1716265495770813613,-0.036,,,,6.709276245
1716265495778507772,-0.046,,,,6.716970404
1716265495786201931,-0.053,,,,6.724664563
1716265495793896090,-0.055,,,,6.732358722
1716265495801590258,-0.048,,,,6.74005289
1716265495809284277,-0.038,,,,6.747746909
1716265495816978296,-0.036,,,,6.755440928
1716265495824672315,-0.026,,,,6.763134947
1716265495832366334,-0.017,,,,6.770828966
1716265495840060353,-0.012,,,,6.778522985
1716265495847754372,-0.007,,,,6.786217004
1716265495855448391,-0.004,,,,6.793911023
1716265495863142410,-0.007,,,,6.801605042
1716265495870836429,0.0,,,,6.809299061
1716265495878530448,0.007,,,,6.81699308
1716265495886224467,0.007,,,,6.824687099
1716265495893918486,0.009,,,,6.832381118
1716265495901612505,0.019,,,,6.840075137
1716265495909306524,0.026,,,,6.847769156
1716265495917000543,0.031,,,,6.855463175
1716265495924694562,0.029,,,,6.863157194
1716265495932388581,0.026,,,,6.870851213
1716265495940082600,0.029,,,,6.878545232
1716265495947776619,0.034,,,,6.886239251
1716265495955470638,0.038,,,,6.89393327
1716265495963164657,0.041,,,,6.901627289
1716265495970858676,0.038,,,,6.909321308
1716265495978552695,0.034,,,,6.917015327
1716265495986246714,0.029,,,,6.924709346
1716265495993940733,0.031,,,,6.932403365
1716265496001634752,0.036,,,,6.940097384
1716265496009328771,0.036,,,,6.947791403
1716265496017022790,0.036,,,,6.955485422
1716265496024716809,0.038,,,,6.963179441
1716265496032410828,0.034,,,,6.97087346
1716265496040104847,0.026,,813.0,,6.978567479
1716265496047798866,0.034,,,,6.986261498
1716265496055492885,0.043,,,,6.993955517
1716265496063186904,0.038,,,,7.001649536
1716265496070880923,0.029,,,,7.009343555
1716265496078574942,0.034,,,,7.017037574
1716265496086268961,0.043,,,,7.024731593
1716265496093962980,0.046,,,,7.032425612
1716265496101656999,0.041,,,,7.040119631
1716265496109351018,0.043,,,,7.04781365
1716265496117045037,0.038,,,,7.055507669
1716265496124739056,0.021,,,,7.063201688
1716265496132433075,0.021,,,,7.070895707
1716265496140127094,0.041,,,,7.078589726
1716265496147821113,0.053,,,,7.086283745
1716265496155515132,0.065,,,,7.093977764
1716265496163209151,0.08,,,,7.101671783
1716265496170903170,0.08,,,,7.109365802
1716265496178597189,0.07,,,,7.117059821
1716265496186291208,0.063,,,,7.12475384
1716265496193985227,0.053,,,,7.132447859
1716265496201679246,0.041,,,,7.140141878
1716265496209373265,0.038,,,,7.147835897
1716265496217067284,0.046,,,,7.155529916
1716265496224761303,0.051,,,,7.163223935
1716265496232455322,0.053,,,,7.170917954
1716265496240149341,0.058,,,,7.178611973
1716265496247843360,0.06,,,,7.186305992
1716265496255537379,0.058,,,,7.194000011
1716265496263231398,0.048,,,,7.20169403
1716265496270925417,0.06,,,,7.209388049
1716265496278619436,0.223,,,,7.217082068
1716265496286313455,0.586,,,,7.224776087
1716265496294007474,0.944,,,,7.232470106
1716265496301701493,1.007,,,,7.240164125
1716265496309395512,0.389,,,,7.247858144
1716265496317089531,-0.542,,,,7.255552163
1716265496324783550,-0.625,,,,7.263246182
1716265496332477569,-0.068,,,,7.270940201
1716265496340171588,0.07,,,,7.27863422
1716265496347865607,-0.017,,,,7.286328239
1716265496355559626,0.08,,,,7.294022258
1716265496363253704,0.128,75.0,,,7.301716336
1716265496370948002,0.08,,,,7.309410634
1716265496378642300,0.102,,,,7.317104932
1716265496386336598,0.136,,,,7.32479923
1716265496394030896,0.124,,,,7.332493528
1716265496401725194,0.124,,,,7.340187826
1716265496409419492,0.148,,,,7.347882124
1716265496417113790,0.163,,,,7.355576422
1716265496424808088,0.17,,,,7.36327072
1716265496432502386,0.189,,,,7.370965018
1716265496440196684,0.211,,,,7.378659316
1716265496447890982,0.231,,,,7.386353614
1716265496455585280,0.26,,,,7.394047912
1716265496463279578,0.299,,,,7.40174221
1716265496470973876,0.338,,,,7.409436508
1716265496478668174,0.377,,,,7.417130806
1716265496486362472,0.411,,,,7.424825104
1716265496494056770,0.44,,,,7.432519402
1716265496501751068,0.467,,,,7.4402137
1716265496509445366,0.481,,,,7.447907998
1716265496517139664,0.476,,,,7.455602296
1716265496524833962,0.455,,,,7.463296594
1716265496532528260,0.411,,,,7.470990892
1716265496540222558,0.338,,,,7.47868519
1716265496547916856,0.245,,,,7.486379488
1716265496555611154,0.158,,,,7.494073786
1716265496563305452,0.075,,,,7.501768084
1716265496570999750,0.002,,,,7.509462382
1716265496578694048,-0.041,,,,7.51715668
1716265496586388346,-0.06,,,,7.524850978
1716265496594082644,-0.07,,,,7.532545276
1716265496601776942,-0.08,,,,7.540239574
1716265496609471240,-0.08,,,,7.547933872
1716265496617165538,-0.072,,,,7.55562817
1716265496624859836,-0.065,,,,7.563322468
1716265496632554134,-0.06,,,,7.571016766
1716265496640248432,-0.055,,,,7.578711064
1716265496647942730,-0.048,,,,7.586405362
1716265496655637028,-0.036,,,,7.59409966
1716265496663331326,-0.034,,,,7.601793958
1716265496671025624,-0.029,,,,7.609488256
1716265496678719922,-0.017,,,,7.617182554
1716265496686414220,-0.009,,,,7.624876852
1716265496694108518,-0.007,,,,7.63257115
1716265496701802816,0.0,,,,7.640265448
1716265496709497114,0.007,,,,7.647959746
1716265496717191412,0.012,,,,7.655654044
1716265496724885710,0.012,,,,7.663348342
1716265496732580008,0.017,,,,7.67104264
1716265496740274306,0.024,,,,7.678736938
1716265496747968604,0.031,,,,7.686431236
1716265496755662902,0.031,,,,7.694125534
1716265496763357200,0.024,,,,7.701819832
1716265496771051498,0.024,,,,7.70951413
1716265496778745796,0.026,,,,7.717208428
1716265496786440094,0.029,,,,7.724902726
1716265496794134392,0.029,,,,7.732597024
1716265496801828690,0.024,,,,7.740291322
1716265496809522988,0.019,,,,7.74798562
1716265496817217286,0.019,,,,7.755679918
1716265496824911584,0.021,,,,7.763374216
1716265496832605882,0.026,,,,7.771068514
1716265496840300180,0.029,,797.0,,7.778762812
1716265496847994478,0.031,,,,7.78645711
1716265496855688776,0.029,,,,7.794151408
1716265496863383074,0.029,,,,7.801845706
1716265496871077372,0.029,,,,7.809540004
1716265496878771670,0.029,,,,7.817234302
1716265496886465968,0.031,,,,7.8249286
1716265496894160266,0.036,,,,7.832622898
1716265496901854564,0.031,,,,7.840317196
1716265496909548862,0.029,,,,7.848011494
1716265496917243160,0.036,,,,7.855705792
1716265496924937492,0.043,,,,7.863400124
1716265496932631442,0.043,,,,7.871094074
1716265496940325392,0.034,,,,7.878788024
1716265496948019342,0.021,,,,7.886481974
1716265496955713292,0.017,,,,7.894175924
1716265496963407242,0.019,,,,7.901869874
1716265496971101192,0.021,,,,7.909563824
1716265496978795142,0.034,,,,7.917257774
1716265496986489092,0.051,,,,7.924951724
1716265496994183042,0.06,,,,7.932645674
1716265497001876992,0.055,,,,7.940339624
1716265497009570942,0.043,,,,7.948033574
1716265497017264892,0.034,,,,7.955727524
1716265497024958842,0.019,,,,7.963421474
1716265497032652792,0.014,,,,7.971115424
1716265497040346742,0.021,,,,7.978809374
1716265497048040692,0.029,,,,7.986503324
1716265497055734642,0.029,,,,7.994197274
1716265497063428592,0.029,,,,8.001891224
1716265497071122542,0.026,,,,8.009585174
1716265497078816492,0.024,,,,8.017279124
1716265497086510442,0.021,,,,8.024973074
1716265497094204392,0.014,,,,8.032667024
1716265497101898342,0.085,,,,8.040360974
1716265497109592292,0.364,,,,8.048054924
1716265497117286242,0.756,,,,8.055748874
1716265497124980192,1.017,,,,8.063442824
1716265497132674142,0.798,,,,8.071136774
1716265497140368092,-0.111,,,,8.078830724
1716265497148062042,-0.759,,,,8.086524674
1716265497155755992,-0.374,,,,8.094218624
1716265497163449942,0.063,,,,8.101912574
1716265497171143892,-0.002,,,,8.109606524
1716265497178837842,0.0,,,,8.117300474
1716265497186531792,0.111,,,,8.124994424
1716265497194225742,0.092,,,,8.132688374
1716265497201919692,0.07,,,,8.140382324
1716265497209613642,0.111,,,,8.148076274
1716265497217307592,0.124,,,,8.155770224
1716265497225001542,0.121,,,,8.163464174
1716265497232695492,0.141,,,,8.171158124
1716265497240389442,0.163,,,,8.178852074
1716265497248083392,0.172,,,,8.186546024
1716265497255777342,0.184,,,,8.194239974
1716265497263471292,0.199,,,,8.201933924
1716265497271165242,0.218,,,,8.209627874
1716265497278859192,0.245,,,,8.217321824
1716265497286553142,0.277,,,,8.225015774
1716265497294247092,0.311,,,,8.232709724
1716265497301941042,0.352,,,,8.240403674
1716265497309634992,0.394,,,,8.248097624
1716265497317328942,0.43,,,,8.255791574
1716265497325022892,0.457,,,,8.263485524
1716265497332716842,0.476,,,,8.271179474
1716265497340410792,0.486,,,,8.278873424
1716265497348104742,0.479,,,,8.286567374
1716265497355798692,0.447,,,,8.294261324
1716265497363492642,0.386,,,,8.301955274
1716265497371186592,0.301,,,,8.309649224
1716265497378880542,0.209,,,,8.317343174
1716265497386574492,0.124,,,,8.325037124
1716265497394268442,0.051,,,,8.332731074
1716265497401962392,0.002,,,,8.340425024
1716265497409656342,-0.029,,,,8.348118974
1716265497417350292,-0.051,,,,8.355812924
1716265497425044242,-0.058,,,,8.363506874
1716265497432738192,-0.058,,,,8.371200824
1716265497440432142,-0.058,,,,8.378894774
1716265497448126092,-0.055,,,,8.386588724
1716265497455820042,-0.051,,,,8.394282674
1716265497463513992,-0.043,,,,8.401976624
1716265497471207942,-0.034,,,,8.409670574
1716265497478901892,-0.029,,,,8.417364524
1716265497486595852,-0.021,75.0,,,8.425058484
1716265497494290220,-0.017,,,,8.432752852
1716265497501984588,-0.019,,,,8.44044722
1716265497509678956,-0.017,,,,8.448141588
1716265497517373324,-0.002,,,,8.455835956
1716265497525067692,0.009,,,,8.463530324
1716265497532762060,0.012,,,,8.471224692
1716265497540456428,0.014,,,,8.47891906
1716265497548150796,0.017,,,,8.486613428
1716265497555845164,0.019,,,,8.494307796
1716265497563539532,0.024,,,,8.502002164
1716265497571233900,0.024,,,,8.509696532
1716265497578928268,0.021,,,,8.5173909
1716265497586622636,0.024,,,,8.525085268
1716265497594317004,0.019,,,,8.532779636
1716265497602011372,0.012,,,,8.540474004
1716265497609705740,0.014,,,,8.548168372
1716265497617400108,0.014,,,,8.55586274
1716265497625094476,0.014,,782.0,,8.563557108
1716265497632788844,0.017,,,,8.571251476
1716265497640483212,0.021,,,,8.578945844
1716265497648177580,0.021,,,,8.586640212
1716265497655871948,0.024,,,,8.59433458
1716265497663566316,0.026,,,,8.602028948
1716265497671260684,0.031,,,,8.609723316
1716265497678955052,0.034,,,,8.617417684
1716265497686649420,0.034,,,,8.625112052
1716265497694343788,0.031,,,,8.63280642
1716265497702038156,0.031,,,,8.640500788
1716265497709732524,0.036,,,,8.648195156
1716265497717426892,0.043,,,,8.655889524
1716265497725121260,0.043,,,,8.663583892
1716265497732815628,0.041,,,,8.67127826
1716265497740509996,0.043,,,,8.678972628
1716265497748204364,0.046,,,,8.686666996
1716265497755898732,0.041,,,,8.694361364
1716265497763593100,0.043,,,,8.702055732
1716265497771287468,0.043,,,,8.7097501
1716265497778981836,0.029,,,,8.717444468
1716265497786676204,0.014,,,,8.725138836
1716265497794370572,0.014,,,,8.732833204
1716265497802064940,0.024,,,,8.740527572
1716265497809759308,0.038,,,,8.74822194
1716265497817453676,0.051,,,,8.755916308
1716265497825148044,0.065,,,,8.763610676
1716265497832842412,0.077,,,,8.771305044
1716265497840536780,0.075,,,,8.778999412
1716265497848231148,0.063,,,,8.78669378
1716265497855925516,0.055,,,,8.794388148
1716265497863619884,0.043,,,,8.802082516
1716265497871314252,0.038,,,,8.809776884
1716265497879008620,0.048,,,,8.817471252
1716265497886702988,0.053,,,,8.82516562
1716265497894397356,0.053,,,,8.832859988
1716265497902091724,0.055,,,,8.840554356
1716265497909786092,0.06,,,,8.848248724
1716265497917480460,0.063,,,,8.855943092
1716265497925174828,0.058,,,,8.86363746
1716265497932869196,0.053,,,,8.871331828
1716265497940563564,0.155,,,,8.879026196
1716265497948257932,0.476,,,,8.886720564
1716265497955952300,0.88,,,,8.894414932
1716265497963646668,1.099,,,,8.9021093
1716265497971341036,0.756,,,,8.909803668
1716265497979035404,-0.216,,,,8.917498036
1716265497986729772,-0.756,,,,8.925192404
1716265497994424140,-0.318,,,,8.932886772
1716265498002118508,0.051,,,,8.94058114
1716265498009812876,-0.014,,,,8.948275508
1716265498017507244,0.031,,,,8.955969876
1716265498025201612,0.131,,,,8.963664244
1716265498032895980,0.099,,,,8.971358612
1716265498040590348,0.092,,,,8.97905298
1716265498048284728,0.131,,,,8.98674736
1716265498055978678,0.133,,,,8.99444131
1716265498063672628,0.133,,,,9.00213526
1716265498071366578,0.148,,,,9.00982921
1716265498079060528,0.15,,,,9.01752316
1716265498086754478,0.158,,,,9.02521711
1716265498094448428,0.184,,,,9.03291106
1716265498102142378,0.204,,,,9.04060501
1716265498109836328,0.218,,,,9.04829896
1716265498117530278,0.243,,,,9.05599291
1716265498125224228,0.282,,,,9.06368686
1716265498132918178,0.316,,,,9.07138081
1716265498140612128,0.352,,,,9.07907476
1716265498148306078,0.394,,,,9.08676871
1716265498156000028,0.437,,,,9.09446266
1716265498163693978,0.462,,,,9.10215661
1716265498171387928,0.474,,,,9.10985056
1716265498179081878,0.484,,,,9.11754451
1716265498186775828,0.476,,,,9.12523846
1716265498194469778,0.44,,,,9.13293241
1716265498202163728,0.377,,,,9.14062636
1716265498209857678,0.291,,,,9.14832031
1716265498217551628,0.194,,,,9.15601426
1716265498225245578,0.107,,,,9.16370821
1716265498232939528,0.034,,,,9.17140216
1716265498240633478,-0.021,,,,9.17909611
1716265498248327428,-0.055,,,,9.18679006
1716265498256021378,-0.075,,,,9.19448401
1716265498263715328,-0.082,,,,9.20217796
1716265498271409278,-0.082,,,,9.20987191
1716265498279103228,-0.077,,,,9.21756586
1716265498286797178,-0.075,,,,9.22525981
1716265498294491128,-0.068,,,,9.23295376
1716265498302185078,-0.06,,,,9.24064771
1716265498309879028,-0.055,,,,9.24834166
1716265498317572978,-0.051,,,,9.25603561
1716265498325266928,-0.046,,,,9.26372956
1716265498332960878,-0.038,,,,9.27142351
1716265498340654828,-0.031,,,,9.27911746
1716265498348348778,-0.021,,,,9.28681141
1716265498356042728,-0.012,,,,9.29450536
1716265498363736678,-0.004,,,,9.30219931
1716265498371430628,0.0,,,,9.30989326
1716265498379124578,0.0,,,,9.31758721
1716265498386818528,0.004,,,,9.32528116
1716265498394512478,0.012,,,,9.33297511
1716265498402206428,0.017,,,,9.34066906
1716265498409900378,0.019,,,,9.34836301
1716265498417594328,0.024,,798.0,,9.35605696
1716265498425288278,0.024,,,,9.36375091
1716265498432982228,0.021,,,,9.37144486
1716265498440676178,0.026,,,,9.37913881
1716265498448370128,0.036,,,,9.38683276
1716265498456064078,0.038,,,,9.39452671
1716265498463758028,0.029,,,,9.40222066
1716265498471451978,0.026,,,,9.40991461
1716265498479145928,0.036,,,,9.41760856
1716265498486839878,0.038,,,,9.42530251
1716265498494533828,0.029,,,,9.43299646
1716265498502227778,0.031,,,,9.44069041
1716265498509921728,0.041,,,,9.44838436
1716265498517615678,0.041,,,,9.45607831
1716265498525309628,0.038,,,,9.46377226
1716265498533003578,0.041,,,,9.47146621
1716265498540697528,0.041,,,,9.47916016
1716265498548391478,0.041,,,,9.48685411
1716265498556085428,0.038,,,,9.49454806
1716265498563779378,0.036,,,,9.50224201
1716265498571473328,0.034,,,,9.50993596
1716265498579167278,0.024,,,,9.51762991
1716265498586861228,0.017,,,,9.52532386
1716265498594555178,0.026,,,,9.53301781
1716265498602249128,0.034,,,,9.54071176
1716265498609943086,0.026,75.0,,,9.548405718
1716265498617637036,0.019,,,,9.556099668
1716265498625330986,0.019,,,,9.563793618
1716265498633024936,0.024,,,,9.571487568
1716265498640718886,0.034,,,,9.579181518
1716265498648412836,0.046,,,,9.586875468
1716265498656106786,0.063,,,,9.594569418
1716265498663800736,0.082,,,,9.602263368
1716265498671494686,0.082,,,,9.609957318
1716265498679188636,0.06,,,,9.617651268
1716265498686882586,0.048,,,,9.625345218
1716265498694576536,0.048,,,,9.633039168
1716265498702270486,0.036,,,,9.640733118
1716265498709964436,0.038,,,,9.648427068
1716265498717658386,0.051,,,,9.656121018
1716265498725352336,0.053,,,,9.663814968
1716265498733046286,0.053,,,,9.671508918
1716265498740740236,0.053,,,,9.679202868
1716265498748434186,0.055,,,,9.686896818
1716265498756128136,0.058,,,,9.694590768
1716265498763822086,0.048,,,,9.702284718
1716265498771516036,0.109,,,,9.709978668
1716265498779209986,0.394,,,,9.717672618
1716265498786903936,0.8290000000000001,,,,9.725366568
1716265498794597886,1.126,,,,9.733060518
1716265498802291836,0.924,,,,9.740754468
1716265498809985786,0.021,,,,9.748448418
1716265498817679736,-0.725,,,,9.756142368
1716265498825373686,-0.455,,,,9.763836318
1716265498833067636,0.014,,,,9.771530268
1716265498840761586,0.017,,,,9.779224218
1716265498848455536,0.021,,,,9.786918168
1716265498856149486,0.133,,,,9.794612118
1716265498863843436,0.119,,,,9.802306068
1716265498871537386,0.097,,,,9.810000018
1716265498879231336,0.143,,,,9.817693968
1716265498886925286,0.155,,,,9.825387918
1716265498894619236,0.15,,,,9.833081868
1716265498902313186,0.177,,,,9.840775818
1716265498910007136,0.199,,,,9.848469768
1716265498917701086,0.199,,,,9.856163718
1716265498925395036,0.214,,,,9.863857668
1716265498933088986,0.238,,,,9.871551618
1716265498940782936,0.262,,,,9.879245568
1716265498948476886,0.287,,,,9.886939518
1716265498956170836,0.321,,,,9.894633468
1716265498963864786,0.357,,,,9.902327418
1716265498971558736,0.396,,,,9.910021368
1716265498979252686,0.437,,,,9.917715318
1716265498986946636,0.467,,,,9.925409268
1716265498994640586,0.491,,,,9.933103218
1716265499002334536,0.515,,,,9.940797168
1716265499010028486,0.53,,,,9.948491118
1716265499017722436,0.518,,,,9.956185068
1716265499025416386,0.484,,,,9.963879018
1716265499033110336,0.425,,,,9.971572968
1716265499040804286,0.333,,,,9.979266918
1716265499048498236,0.233,,,,9.986960868
1716265499056192186,0.148,,,,9.994654818
1716265499063886136,0.07,,,,10.002348768
1716265499071580086,0.007,,,,10.010042718
1716265499079274036,-0.029,,,,10.017736668
1716265499086967986,-0.051,,,,10.025430618
1716265499094661936,-0.068,,,,10.033124568
1716265499102355886,-0.07,,,,10.040818518
1716265499110049836,-0.065,,,,10.048512468
1716265499117743786,-0.063,,,,10.056206418
1716265499125437736,-0.06,,,,10.063900368
1716265499133131686,-0.051,,,,10.071594318
1716265499140825636,-0.043,,,,10.079288268
1716265499148519586,-0.038,,,,10.086982218
1716265499156213536,-0.034,,,,10.094676168
1716265499163907486,-0.029,,,,10.102370118
1716265499171601444,-0.029,75.0,,,10.110064076
1716265499179295463,-0.026,,,,10.117758095
1716265499186989482,-0.024,,,,10.125452114
1716265499194683501,-0.014,,,,10.133146133
1716265499202377520,-0.007,,,,10.140840152
1716265499210071539,-0.004,,,,10.148534171
1716265499217765558,0.0,,,,10.15622819
1716265499225459577,0.007,,,,10.163922209
1716265499233153596,0.007,,,,10.171616228
1716265499240847615,0.012,,818.0,,10.179310247
1716265499248541634,0.014,,,,10.187004266
1716265499256235653,0.014,,,,10.194698285
1716265499263929672,0.019,,,,10.202392304
1716265499271623691,0.021,,,,10.210086323
1716265499279317710,0.017,,,,10.217780342
1716265499287011729,0.012,,,,10.225474361
1716265499294705748,0.017,,,,10.23316838
1716265499302399767,0.017,,,,10.240862399
1716265499310093786,0.014,,,,10.248556418
1716265499317787805,0.019,,,,10.256250437
1716265499325481824,0.024,,,,10.263944456
1716265499333175843,0.021,,,,10.271638475
1716265499340869862,0.017,,,,10.279332494
1716265499348563881,0.017,,,,10.287026513
1716265499356257900,0.019,,,,10.294720532
1716265499363951919,0.019,,,,10.302414551
1716265499371645938,0.019,,,,10.31010857
1716265499379339957,0.021,,,,10.317802589
1716265499387033976,0.026,,,,10.325496608
1716265499394727995,0.024,,,,10.333190627
1716265499402422014,0.026,,,,10.340884646
1716265499410116033,0.034,,,,10.348578665
1716265499417810052,0.038,,,,10.356272684
1716265499425504071,0.036,,,,10.363966703
1716265499433198090,0.038,,,,10.371660722
1716265499440892109,0.043,,,,10.379354741
1716265499448586128,0.046,,,,10.38704876
1716265499456280147,0.036,,,,10.394742779
1716265499463974166,0.026,,,,10.402436798
1716265499471668185,0.026,,,,10.410130817
1716265499479362204,0.029,,,,10.417824836
1716265499487056223,0.038,,,,10.425518855
1716265499494750242,0.063,,,,10.433212874
1716265499502444261,0.085,,,,10.440906893
1716265499510138280,0.09,,,,10.448600912
1716265499517832299,0.082,,,,10.456294931
1716265499525526318,0.077,,,,10.46398895
1716265499533220337,0.063,,,,10.471682969
1716265499540914356,0.046,,,,10.479376988
1716265499548608375,0.051,,,,10.487071007
1716265499556302394,0.07,,,,10.494765026
1716265499563996413,0.077,,,,10.502459045
1716265499571690432,0.077,,,,10.510153064
1716265499579384451,0.077,,,,10.517847083
1716265499587078470,0.072,,,,10.525541102
1716265499594772489,0.068,,,,10.533235121
1716265499602466508,0.063,,,,10.54092914
1716265499610160527,0.072,,,,10.548623159
1716265499617854546,0.226,,,,10.556317178
1716265499625548565,0.598,,,,10.564011197
1716265499633242584,1.002,,,,10.571705216
1716265499640936603,1.136,,,,10.579399235
1716265499648630622,0.588,,,,10.587093254
1716265499656324641,-0.425,,,,10.594787273
1716265499664018660,-0.6930000000000001,,,,10.602481292
1716265499671712679,-0.15,,,,10.610175311
1716265499679406698,0.072,,,,10.61786933
1716265499687100717,-0.009,,,,10.625563349
1716265499694794736,0.085,,,,10.633257368
1716265499702488755,0.153,,,,10.640951387
1716265499710182774,0.099,,,,10.648645406
1716265499717876793,0.107,,,,10.656339425
1716265499725570812,0.141,,,,10.664033444
1716265499733264890,0.138,,,,10.671727522
1716265499740959188,0.15,,,,10.67942182
1716265499748653486,0.175,,,,10.687116118
1716265499756347784,0.184,,,,10.694810416
1716265499764042082,0.192,,,,10.702504714
1716265499771736380,0.216,,,,10.710199012
1716265499779430678,0.243,,,,10.71789331
1716265499787124976,0.265,,,,10.725587608
1716265499794819274,0.294,,,,10.733281906
1716265499802513572,0.33,,,,10.740976204
1716265499810207870,0.36,,,,10.748670502
1716265499817902168,0.391,,,,10.7563648
1716265499825596466,0.435,,,,10.764059098
1716265499833290764,0.476,,,,10.771753396
1716265499840985062,0.501,,,,10.779447694
1716265499848679360,0.51,,,,10.787141992
1716265499856373658,0.506,,,,10.79483629
1716265499864067956,0.491,,,,10.802530588
1716265499871762254,0.455,,,,10.810224886
1716265499879456552,0.384,,,,10.817919184
1716265499887150850,0.282,,,,10.825613482
1716265499894845148,0.182,,,,10.83330778
1716265499902539446,0.099,,,,10.841002078
1716265499910233744,0.036,,,,10.848696376
1716265499917928042,-0.007,,,,10.856390674
1716265499925622340,-0.036,,,,10.864084972
1716265499933316638,-0.051,,,,10.87177927
1716265499941010936,-0.051,,,,10.879473568
1716265499948705234,-0.048,,,,10.887167866
1716265499956399532,-0.043,,,,10.894862164
1716265499964093830,-0.043,,,,10.902556462
1716265499971788128,-0.041,,,,10.91025076
1716265499979482426,-0.036,,,,10.917945058
1716265499987176724,-0.031,,,,10.925639356
1716265499994871022,-0.031,,,,10.933333654
1716265500002565320,-0.026,,,,10.941027952
1716265500010259618,-0.017,,,,10.94872225
1716265500017953916,-0.007,,,,10.956416548
1716265500025648214,-0.004,,,,10.964110846
1716265500033342512,0.0,,,,10.971805144
1716265500041036810,0.0,,,,10.979499442
1716265500048731108,0.004,,,,10.98719374
1716265500056425406,0.012,,,,10.994888038
1716265500064119704,0.021,,827.0,,11.002582336
1716265500071814002,0.029,,,,11.010276634
1716265500079508300,0.029,,,,11.017970932
1716265500087202598,0.031,,,,11.02566523
1716265500094896896,0.029,,,,11.033359528
1716265500102591194,0.021,,,,11.041053826
1716265500110285492,0.024,,,,11.048748124
1716265500117979790,0.034,,,,11.056442422
1716265500125674088,0.034,,,,11.06413672
1716265500133368386,0.034,,,,11.071831018
1716265500141062684,0.034,,,,11.079525316
1716265500148756982,0.034,,,,11.087219614
1716265500156451280,0.031,,,,11.094913912
1716265500164145578,0.031,,,,11.10260821
1716265500171839876,0.031,,,,11.110302508
1716265500179534174,0.031,,,,11.117996806
1716265500187228472,0.036,,,,11.125691104
1716265500194922770,0.038,,,,11.133385402
1716265500202617068,0.043,,,,11.1410797
1716265500210311366,0.041,,,,11.148773998
1716265500218005664,0.029,,,,11.156468296
1716265500225699962,0.031,,,,11.164162594
1716265500233394260,0.043,,,,11.171856892
1716265500241088558,0.043,,,,11.17955119
1716265500248782856,0.043,,,,11.187245488
1716265500256477154,0.053,,,,11.194939786
1716265500264171452,0.053,,,,11.202634084
1716265500271865750,0.046,,,,11.210328382
1716265500279560048,0.048,,,,11.21802268
1716265500287254346,0.058,,,,11.225716978
1716265500294948678,0.058,75.0,,,11.23341131
1716265500302642628,0.058,,,,11.24110526
1716265500310336578,0.06,,,,11.24879921
1716265500318030528,0.065,,,,11.25649316
1716265500325724478,0.053,,,,11.26418711
1716265500333418428,0.036,,,,11.27188106
1716265500341112378,0.034,,,,11.27957501
1716265500348806328,0.046,,,,11.28726896
1716265500356500278,0.055,,,,11.29496291
1716265500364194228,0.072,,,,11.30265686
1716265500371888178,0.097,,,,11.31035081
1716265500379582128,0.114,,,,11.31804476
1716265500387276078,0.104,,,,11.32573871
1716265500394970028,0.094,,,,11.33343266
1716265500402663978,0.094,,,,11.34112661
1716265500410357928,0.082,,,,11.34882056
1716265500418051878,0.072,,,,11.35651451
1716265500425745828,0.08,,,,11.36420846
1716265500433439778,0.085,,,,11.37190241
1716265500441133728,0.082,,,,11.37959636
1716265500448827678,0.09,,,,11.38729031
1716265500456521628,0.09,,,,11.39498426
1716265500464215578,0.085,,,,11.40267821
1716265500471909528,0.085,,,,11.41037216
1716265500479603478,0.075,,,,11.41806611
1716265500487297428,0.111,,,,11.42576006
1716265500494991378,0.352,,,,11.43345401
1716265500502685328,0.773,,,,11.44114796
1716265500510379278,1.126,,,,11.44884191
1716265500518073228,1.087,,,,11.45653586
1716265500525767178,0.291,,,,11.46422981
1716265500533461128,-0.622,,,,11.47192376
1716265500541155078,-0.515,,,,11.47961771
1716265500548849028,0.024,,,,11.48731166
1716265500556542978,0.063,,,,11.49500561
1716265500564236928,0.004,,,,11.50269956
1716265500571930878,0.124,,,,11.51039351
1716265500579624828,0.143,,,,11.51808746
1716265500587318778,0.104,,,,11.52578141
1716265500595012728,0.138,,,,11.53347536
1716265500602706678,0.15,,,,11.54116931
1716265500610400628,0.131,,,,11.54886326
1716265500618094578,0.15,,,,11.55655721
1716265500625788528,0.175,,,,11.56425116
1716265500633482478,0.177,,,,11.57194511
1716265500641176428,0.189,,,,11.57963906
1716265500648870378,0.211,,,,11.58733301
1716265500656564328,0.233,,,,11.59502696
1716265500664258278,0.255,,,,11.60272091
1716265500671952228,0.287,,,,11.61041486
1716265500679646178,0.326,,,,11.61810881
1716265500687340128,0.364,,,,11.62580276
1716265500695034078,0.403,,,,11.63349671
1716265500702728028,0.442,,,,11.64119066
1716265500710421978,0.472,,,,11.64888461
1716265500718115928,0.489,,,,11.65657856
1716265500725809878,0.498,,,,11.66427251
1716265500733503828,0.498,,,,11.67196646
1716265500741197778,0.476,,,,11.67966041
1716265500748891728,0.425,,,,11.68735436
1716265500756585678,0.343,,,,11.69504831
1716265500764279628,0.245,,,,11.70274226
1716265500771973578,0.15,,,,11.71043621
1716265500779667528,0.068,,,,11.71813016
1716265500787361478,0.009,,,,11.72582411
1716265500795055428,-0.024,,,,11.73351806
1716265500802749378,-0.048,,,,11.74121201
1716265500810443328,-0.063,,,,11.74890596
1716265500818137278,-0.068,,,,11.75659991
1716265500825831228,-0.072,,,,11.76429386
1716265500833525178,-0.07,,,,11.77198781
1716265500841219128,-0.06,,,,11.77968176
1716265500848913078,-0.051,,,,11.78737571
1716265500856607038,-0.046,,,,11.79506967
1716265500864301266,-0.041,,,,11.802763898
1716265500871995494,-0.038,,,,11.810458126
1716265500879689722,-0.029,,,,11.818152354
1716265500887383950,-0.019,,,,11.825846582
1716265500895078178,-0.009,,,,11.83354081
1716265500902772406,-0.004,,838.0,,11.841235038
1716265500910466634,0.0,,,,11.848929266
1716265500918160862,0.0,,,,11.856623494
1716265500925855090,-0.002,,,,11.864317722
1716265500933549318,-0.002,,,,11.87201195
1716265500941243546,0.007,,,,11.879706178
1716265500948937774,0.014,,,,11.887400406
1716265500956632002,0.012,,,,11.895094634
1716265500964326230,0.014,,,,11.902788862
1716265500972020458,0.021,,,,11.91048309
1716265500979714686,0.021,,,,11.918177318
1716265500987408914,0.012,,,,11.925871546
1716265500995103142,0.012,,,,11.933565774
1716265501002797370,0.014,,,,11.941260002
1716265501010491598,0.014,,,,11.94895423
1716265501018185826,0.014,,,,11.956648458
1716265501025880054,0.017,,,,11.964342686
1716265501033574282,0.019,,,,11.972036914
1716265501041268510,0.021,,,,11.979731142
1716265501048962738,0.019,,,,11.98742537
1716265501056656966,0.021,,,,11.995119598
1716265501064351194,0.029,,,,12.002813826
1716265501072045422,0.034,,,,12.010508054
1716265501079739650,0.031,,,,12.018202282
1716265501087433878,0.036,,,,12.02589651
1716265501095128106,0.043,,,,12.033590738
1716265501102822334,0.038,,,,12.041284966
1716265501110516562,0.034,,,,12.048979194
1716265501118210790,0.038,,,,12.056673422
1716265501125905018,0.046,,,,12.06436765
1716265501133599246,0.048,,,,12.072061878
1716265501141293474,0.051,,,,12.079756106
1716265501148987702,0.053,,,,12.087450334
1716265501156681930,0.055,,,,12.095144562
1716265501164376158,0.058,,,,12.10283879
1716265501172070386,0.063,,,,12.110533018
1716265501179764614,0.07,,,,12.118227246
1716265501187458842,0.072,,,,12.125921474
1716265501195153070,0.065,,,,12.133615702
1716265501202847298,0.065,,,,12.14130993
1716265501210541526,0.075,,,,12.149004158
1716265501218235754,0.08,,,,12.156698386
1716265501225929982,0.08,,,,12.164392614
1716265501233624210,0.082,,,,12.172086842
1716265501241318438,0.087,,,,12.17978107
1716265501249012666,0.085,,,,12.187475298
1716265501256706894,0.077,,,,12.195169526
1716265501264401122,0.072,,,,12.202863754
1716265501272095350,0.082,,,,12.210557982
1716265501279789578,0.092,,,,12.21825221
1716265501287483806,0.107,,,,12.225946438
1716265501295178034,0.131,,,,12.233640666
1716265501302872262,0.148,,,,12.241334894
1716265501310566490,0.145,,,,12.249029122
1716265501318260718,0.136,,,,12.25672335
1716265501325954946,0.133,,,,12.264417578
1716265501333649174,0.121,,,,12.272111806
1716265501341343402,0.109,,,,12.279806034
1716265501349037630,0.116,,,,12.287500262
1716265501356731858,0.124,,,,12.29519449
1716265501364426086,0.126,,,,12.302888718
1716265501372120314,0.128,,,,12.310582946
1716265501379814542,0.131,,,,12.318277174
1716265501387508770,0.133,,,,12.325971402
1716265501395202998,0.138,,,,12.33366563
1716265501402897226,0.124,,,,12.341359858
1716265501410591454,0.141,,,,12.349054086
1716265501418285742,0.343,75.0,,,12.356748374
1716265501425979831,0.747,,,,12.364442463
1716265501433673920,1.138,,,,12.372136552
1716265501441368009,1.243,,,,12.379830641
1716265501449062098,0.5760000000000001,,,,12.38752473
1716265501456756187,-0.481,,,,12.395218819
1716265501464450276,-0.5640000000000001,,,,12.402912908
1716265501472144365,0.06,,,,12.410606997
1716265501479838454,0.158,,,,12.418301086
1716265501487532543,0.024,,,,12.425995175
1716265501495226632,0.138,,,,12.433689264
1716265501502920721,0.177,,,,12.441383353
1716265501510614810,0.116,,,,12.449077442
1716265501518308899,0.148,,,,12.456771531
1716265501526002988,0.182,,,,12.46446562
1716265501533697077,0.167,,,,12.472159709
1716265501541391166,0.177,,,,12.479853798
1716265501549085255,0.204,,,,12.487547887
1716265501556779344,0.209,,,,12.495241976
1716265501564473433,0.214,,,,12.502936065
1716265501572167522,0.238,,,,12.510630154
1716265501579861611,0.262,,,,12.518324243
1716265501587555700,0.279,,,,12.526018332
1716265501595249789,0.306,,,,12.533712421
1716265501602943878,0.343,,,,12.54140651
1716265501610637967,0.372,,,,12.549100599
1716265501618332056,0.399,,,,12.556794688
1716265501626026145,0.445,,,,12.564488777
1716265501633720234,0.489,,,,12.572182866
1716265501641414323,0.515,,,,12.579876955
1716265501649108412,0.532,,,,12.587571044
1716265501656802501,0.537,,,,12.595265133
1716265501664496590,0.52,,,,12.602959222
1716265501672190679,0.476,,,,12.610653311
1716265501679884768,0.403,,,,12.6183474
1716265501687578857,0.304,,,,12.626041489
1716265501695272946,0.204,,,,12.633735578
1716265501702967035,0.116,,,,12.641429667
1716265501710661124,0.051,,,,12.649123756
1716265501718355213,0.009,,,,12.656817845
1716265501726049302,-0.014,,,,12.664511934
1716265501733743391,-0.031,,833.0,,12.672206023
1716265501741437480,-0.038,,,,12.679900112
1716265501749131569,-0.041,,,,12.687594201
1716265501756825658,-0.038,,,,12.69528829
1716265501764519747,-0.034,,,,12.702982379
1716265501772213836,-0.026,,,,12.710676468
1716265501779907925,-0.017,,,,12.718370557
1716265501787602014,-0.009,,,,12.726064646
1716265501795296103,-0.004,,,,12.733758735
1716265501802990192,-0.002,,,,12.741452824
1716265501810684281,0.002,,,,12.749146913
1716265501818378370,0.002,,,,12.756841002
1716265501826072459,0.0,,,,12.764535091
1716265501833766548,0.002,,,,12.77222918
1716265501841460637,0.004,,,,12.779923269
1716265501849154726,0.004,,,,12.787617358
1716265501856848815,0.004,,,,12.795311447
1716265501864542904,0.007,,,,12.803005536
1716265501872236993,0.014,,,,12.810699625
1716265501879931082,0.017,,,,12.818393714
1716265501887625171,0.014,,,,12.826087803
1716265501895319260,0.017,,,,12.833781892
1716265501903013349,0.024,,,,12.841475981
1716265501910707438,0.026,,,,12.84917007
1716265501918401527,0.026,,,,12.856864159
1716265501926095616,0.026,,,,12.864558248
1716265501933789705,0.026,,,,12.872252337
1716265501941483794,0.021,,,,12.879946426
1716265501949177883,0.019,,,,12.887640515
1716265501956871972,0.026,,,,12.895334604
1716265501964566061,0.034,,,,12.903028693
1716265501972260150,0.034,,,,12.910722782
1716265501979954272,0.031,,,,12.918416904
1716265501987648222,0.036,,,,12.926110854
1716265501995342172,0.041,,,,12.933804804
1716265502003036122,0.041,,,,12.941498754
1716265502010730072,0.041,,,,12.949192704
1716265502018424022,0.046,,,,12.956886654
1716265502026117972,0.053,,,,12.964580604
1716265502033811922,0.051,,,,12.972274554
1716265502041505872,0.043,,,,12.979968504
1716265502049199822,0.051,,,,12.987662454
1716265502056893772,0.058,,,,12.995356404
1716265502064587722,0.051,,,,13.003050354
1716265502072281672,0.043,,,,13.010744304
1716265502079975622,0.051,,,,13.018438254
1716265502087669572,0.058,,,,13.026132204
1716265502095363522,0.058,,,,13.033826154
1716265502103057472,0.063,,,,13.041520104
1716265502110751422,0.068,,,,13.049214054
1716265502118445372,0.058,,,,13.056908004
1716265502126139322,0.051,,,,13.064601954
1716265502133833272,0.06,,,,13.072295904
1716265502141527222,0.068,,,,13.079989854
1716265502149221172,0.07,,,,13.087683804
1716265502156915122,0.07,,,,13.095377754
1716265502164609072,0.072,,,,13.103071704
1716265502172303022,0.077,,,,13.110765654
1716265502179996972,0.08,,,,13.118459604
1716265502187690922,0.077,,,,13.126153554
1716265502195384872,0.08,,,,13.133847504
1716265502203078822,0.087,,,,13.141541454
1716265502210772772,0.085,,,,13.149235404
1716265502218466722,0.075,,,,13.156929354
1716265502226160672,0.065,,,,13.164623304
1716265502233854622,0.068,,,,13.172317254
1716265502241548572,0.077,,,,13.180011204
1716265502249242522,0.09,,,,13.187705154
1716265502256936472,0.109,,,,13.195399104
1716265502264630422,0.131,,,,13.203093054
1716265502272324372,0.138,,,,13.210787004
1716265502280018322,0.128,,,,13.218480954
1716265502287712272,0.126,,,,13.226174904
1716265502295406222,0.119,,,,13.233868854
1716265502303100172,0.099,,,,13.241562804
1716265502310794122,0.099,,,,13.249256754
1716265502318488072,0.111,,,,13.256950704
1716265502326182022,0.114,,,,13.264644654
1716265502333875972,0.114,,,,13.272338604
1716265502341569922,0.114,,,,13.280032554
1716265502349263872,0.116,,,,13.287726504
1716265502356957822,0.119,,,,13.295420454
1716265502364651772,0.116,,,,13.303114404
1716265502372345722,0.107,,,,13.310808354
1716265502380039672,0.175,,,,13.318502304
1716265502387733622,0.464,,,,13.326196254
1716265502395427572,0.88,,,,13.333890204
1716265502403121522,1.199,,,,13.341584154
1716265502410815472,1.068,,,,13.349278104
1716265502418509422,0.121,,,,13.356972054
1716265502426203372,-0.6910000000000001,,,,13.364666004
1716265502433897322,-0.33,,,,13.372359954
1716265502441591272,0.17,,,,13.380053904
1716265502449285222,0.063,,,,13.387747854
1716265502456979172,0.026,,,,13.395441804
1716265502464673122,0.163,,,,13.403135754
1716265502472367072,0.143,,,,13.410829704
1716265502480061022,0.107,,,,13.418523654
1716265502487754972,0.15,,,,13.426217604
1716265502495448922,0.155,,,,13.433911554
1716265502503142872,0.145,,,,13.441605504
1716265502510836822,0.167,,,,13.449299454
1716265502518530772,0.18,,,,13.456993404
1716265502526224722,0.18,,,,13.464687354
1716265502533918672,0.194,,,,13.472381304
1716265502541612630,0.216,74.0,,,13.480075262
1716265502549306998,0.233,,,,13.48776963
1716265502557001366,0.257,,,,13.495463998
1716265502564695734,0.291,,,,13.503158366
1716265502572390102,0.326,,,,13.510852734
1716265502580084470,0.355,,843.0,,13.518547102
1716265502587778838,0.396,,,,13.52624147
1716265502595473206,0.44,,,,13.533935838
1716265502603167574,0.469,,,,13.541630206
1716265502610861942,0.484,,,,13.549324574
1716265502618556310,0.496,,,,13.557018942
1716265502626250678,0.491,,,,13.56471331
1716265502633945046,0.462,,,,13.572407678
1716265502641639414,0.416,,,,13.580102046
1716265502649333782,0.34,,,,13.587796414
1716265502657028150,0.236,,,,13.595490782
1716265502664722518,0.138,,,,13.60318515
1716265502672416886,0.055,,,,13.610879518
1716265502680111254,-0.007,,,,13.618573886
1716265502687805622,-0.048,,,,13.626268254
1716265502695499990,-0.07,,,,13.633962622
1716265502703194358,-0.085,,,,13.64165699
1716265502710888726,-0.09,,,,13.649351358
1716265502718583094,-0.09,,,,13.657045726
1716265502726277462,-0.087,,,,13.664740094
1716265502733971830,-0.077,,,,13.672434462
1716265502741666198,-0.065,,,,13.68012883
1716265502749360566,-0.058,,,,13.687823198
1716265502757054934,-0.051,,,,13.695517566
1716265502764749302,-0.046,,,,13.703211934
1716265502772443670,-0.036,,,,13.710906302
1716265502780138038,-0.029,,,,13.71860067
1716265502787832406,-0.024,,,,13.726295038
1716265502795526774,-0.019,,,,13.733989406
1716265502803221142,-0.009,,,,13.741683774
1716265502810915510,-0.007,,,,13.749378142
1716265502818609878,-0.007,,,,13.75707251
1716265502826304246,-0.002,,,,13.764766878
1716265502833998614,0.004,,,,13.772461246
1716265502841692982,0.012,,,,13.780155614
1716265502849387350,0.014,,,,13.787849982
1716265502857081718,0.014,,,,13.79554435
1716265502864776086,0.019,,,,13.803238718
1716265502872470454,0.024,,,,13.810933086
1716265502880164822,0.026,,,,13.818627454
1716265502887859190,0.031,,,,13.826321822
1716265502895553558,0.034,,,,13.83401619
1716265502903247926,0.034,,,,13.841710558
1716265502910942294,0.034,,,,13.849404926
1716265502918636662,0.036,,,,13.857099294
1716265502926331030,0.034,,,,13.864793662
1716265502934025398,0.031,,,,13.87248803
1716265502941719766,0.034,,,,13.880182398
1716265502949414134,0.034,,,,13.887876766
1716265502957108502,0.038,,,,13.895571134
1716265502964802870,0.041,,,,13.903265502
1716265502972497238,0.043,,,,13.91095987
1716265502980191606,0.051,,,,13.918654238
1716265502987885974,0.053,,,,13.926348606
1716265502995580342,0.051,,,,13.934042974
1716265503003274710,0.053,,,,13.941737342
1716265503010969078,0.058,,,,13.94943171
1716265503018663446,0.06,,,,13.957126078
1716265503026357814,0.063,,,,13.964820446
1716265503034052182,0.065,,,,13.972514814
1716265503041746550,0.065,,,,13.980209182
1716265503049440918,0.068,,,,13.98790355
1716265503057135286,0.07,,,,13.995597918
1716265503064829654,0.072,,,,14.003292286
1716265503072524022,0.075,,,,14.010986654
1716265503080218390,0.077,,,,14.018681022
1716265503087912758,0.077,,,,14.02637539
1716265503095607126,0.08,,,,14.034069758
1716265503103301506,0.085,,,,14.041764138
1716265503110995456,0.087,,,,14.049458088
1716265503118689406,0.085,,,,14.057152038
1716265503126383356,0.08,,,,14.064845988
1716265503134077306,0.072,,,,14.072539938
1716265503141771256,0.07,,,,14.080233888
1716265503149465206,0.068,,,,14.087927838
1716265503157159156,0.065,,,,14.095621788
1716265503164853106,0.065,,,,14.103315738
1716265503172547056,0.065,,,,14.111009688
1716265503180241006,0.063,,,,14.118703638
1716265503187934956,0.068,,,,14.126397588
1716265503195628906,0.07,,,,14.134091538
1716265503203322856,0.058,,,,14.141785488
1716265503211016806,0.046,,,,14.149479438
1716265503218710756,0.051,,,,14.157173388
1716265503226404706,0.065,,,,14.164867338
1716265503234098656,0.082,,,,14.172561288
1716265503241792606,0.102,,,,14.180255238
1716265503249486556,0.116,,,,14.187949188
1716265503257180506,0.116,,,,14.195643138
1716265503264874456,0.107,,,,14.203337088
1716265503272568406,0.102,,,,14.211031038
1716265503280262356,0.092,,,,14.218724988
1716265503287956306,0.082,,,,14.226418938
1716265503295650256,0.085,,,,14.234112888
1716265503303344206,0.092,,,,14.241806838
1716265503311038156,0.094,,,,14.249500788
1716265503318732106,0.092,,,,14.257194738
1716265503326426056,0.092,,,,14.264888688
1716265503334120006,0.092,,,,14.272582638
1716265503341813956,0.094,,,,14.280276588
1716265503349507906,0.087,,,,14.287970538
1716265503357201856,0.09,,,,14.295664488
1716265503364895806,0.248,,,,14.303358438
1716265503372589756,0.62,,,,14.311052388
1716265503380283706,1.007,,,,14.318746338
1716265503387977656,1.155,,,,14.326440288
1716265503395671606,0.613,,,,14.334134238
1716265503403365556,-0.433,,,,14.341828188
1716265503411059506,-0.652,,,,14.349522138
1716265503418753456,-0.043,,,,14.357216088
1716265503426447406,0.133,,,,14.364910038
1716265503434141356,-0.009,,,,14.372603988
1716265503441835306,0.085,,,,14.380297938
1716265503449529256,0.15,,,,14.387991888
1716265503457223206,0.09,,,,14.395685838
1716265503464917156,0.107,,,,14.403379788
1716265503472611106,0.145,,,,14.411073738
1716265503480305056,0.136,,,,14.418767688
1716265503487999006,0.141,,,,14.426461638
1716265503495692956,0.16,,,,14.434155588
1716265503503386906,0.16,,,,14.441849538
1716265503511080856,0.167,,,,14.449543488
1716265503518774806,0.182,,,,14.457237438
1716265503526468756,0.197,,,,14.464931388
1716265503534162706,0.218,,,,14.472625338
1716265503541856656,0.243,,,,14.480319288
1716265503549550606,0.272,,,,14.488013238
1716265503557244556,0.311,,,,14.495707188
1716265503564938506,0.347,,,,14.503401138
1716265503572632456,0.386,,,,14.511095088
1716265503580326406,0.425,,,,14.518789038
1716265503588020356,0.457,,,,14.526482988
1716265503595714306,0.476,,,,14.534176938
1716265503603408256,0.481,,,,14.541870888
1716265503611102206,0.474,,,,14.549564838
1716265503618796156,0.445,,,,14.557258788
1716265503626490106,0.377,,,,14.564952738
1716265503634184056,0.277,,,,14.572646688
1716265503641878006,0.18,,,,14.580340638
1716265503649571956,0.102,,,,14.588034588
1716265503657265906,0.031,,,,14.595728538
1716265503664959864,-0.024,74.0,875.0,,14.603422496
1716265503672654162,-0.053,,,,14.611116794
1716265503680348460,-0.068,,,,14.618811092
1716265503688042758,-0.087,,,,14.62650539
1716265503695737056,-0.09,,,,14.634199688
1716265503703431354,-0.08,,,,14.641893986
1716265503711125652,-0.075,,,,14.649588284
1716265503718819950,-0.072,,,,14.657282582
1716265503726514248,-0.068,,,,14.66497688
1716265503734208546,-0.058,,,,14.672671178
1716265503741902844,-0.051,,,,14.680365476
1716265503749597142,-0.041,,,,14.688059774
1716265503757291440,-0.031,,,,14.695754072
1716265503764985738,-0.024,,,,14.70344837
1716265503772680036,-0.019,,,,14.711142668
1716265503780374334,-0.017,,,,14.718836966
1716265503788068632,-0.007,,,,14.726531264
1716265503795762930,0.002,,,,14.734225562
1716265503803457228,0.004,,,,14.74191986
1716265503811151526,0.007,,,,14.749614158
1716265503818845824,0.012,,,,14.757308456
1716265503826540122,0.012,,,,14.765002754
1716265503834234420,0.009,,,,14.772697052
1716265503841928718,0.012,,,,14.78039135
1716265503849623016,0.019,,,,14.788085648
1716265503857317314,0.024,,,,14.795779946
1716265503865011612,0.026,,,,14.803474244
1716265503872705910,0.026,,,,14.811168542
1716265503880400208,0.031,,,,14.81886284
1716265503888094506,0.036,,,,14.826557138
1716265503895788804,0.038,,,,14.834251436
1716265503903483102,0.036,,,,14.841945734
1716265503911177400,0.031,,,,14.849640032
1716265503918871698,0.029,,,,14.85733433
1716265503926565996,0.031,,,,14.865028628
1716265503934260294,0.034,,,,14.872722926
1716265503941954592,0.041,,,,14.880417224
1716265503949648890,0.043,,,,14.888111522
1716265503957343188,0.041,,,,14.89580582
1716265503965037486,0.043,,,,14.903500118
1716265503972731784,0.048,,,,14.911194416
1716265503980426082,0.053,,,,14.918888714
1716265503988120380,0.053,,,,14.926583012
1716265503995814678,0.055,,,,14.93427731
1716265504003508976,0.058,,,,14.941971608
1716265504011203274,0.058,,,,14.949665906
1716265504018897572,0.06,,,,14.957360204
1716265504026591870,0.063,,,,14.965054502
1716265504034286168,0.07,,,,14.9727488
1716265504041980466,0.075,,,,14.980443098
1716265504049674764,0.072,,,,14.988137396
1716265504057369062,0.075,,,,14.995831694
1716265504065063360,0.08,,,,15.003525992
1716265504072757658,0.08,,,,15.01122029
1716265504080451956,0.082,,,,15.018914588
1716265504088146254,0.085,,,,15.026608886
1716265504095840552,0.087,,,,15.034303184
1716265504103534850,0.087,,,,15.041997482
1716265504111229148,0.09,,,,15.04969178
1716265504118923446,0.094,,,,15.057386078
1716265504126617744,0.094,,,,15.065080376
1716265504134312042,0.087,,,,15.072774674
1716265504142006340,0.08,,,,15.080468972
1716265504149700638,0.08,,,,15.08816327
1716265504157394936,0.077,,,,15.095857568
1716265504165089234,0.07,,,,15.103551866
1716265504172783532,0.06,,,,15.111246164
1716265504180477830,0.058,,,,15.118940462
1716265504188172128,0.065,,,,15.12663476
1716265504195866426,0.08,,,,15.134329058
1716265504203560724,0.094,,,,15.142023356
1716265504211255022,0.109,,,,15.149717654
1716265504218949320,0.116,,,,15.157411952
1716265504226643656,0.109,73.0,,,15.165106288
1716265504234337675,0.099,,,,15.172800307
1716265504242031694,0.09,,,,15.180494326
1716265504249725713,0.075,,,,15.188188345
1716265504257419732,0.063,,,,15.195882364
1716265504265113751,0.072,,,,15.203576383
1716265504272807770,0.085,,,,15.211270402
1716265504280501789,0.077,,,,15.218964421
1716265504288195808,0.065,,,,15.22665844
1716265504295889827,0.068,,,,15.234352459
1716265504303583846,0.08,,,,15.242046478
1716265504311277865,0.077,,,,15.249740497
1716265504318971884,0.063,,,,15.257434516
1716265504326665903,0.114,,,,15.265128535
1716265504334359922,0.367,,,,15.272822554
1716265504342053941,0.761,,,,15.280516573
1716265504349747960,1.075,,,,15.288210592
1716265504357441979,0.995,,,,15.295904611
1716265504365135998,0.155,,,,15.30359863
1716265504372830017,-0.6930000000000001,,,,15.311292649
1716265504380524036,-0.455,,925.0,,15.318986668
1716265504388218055,0.085,,,,15.326680687
1716265504395912074,0.043,,,,15.334374706
1716265504403606093,-0.024,,,,15.342068725
1716265504411300112,0.102,,,,15.349762744
1716265504418994131,0.102,,,,15.357456763
1716265504426688150,0.06,,,,15.365150782
1716265504434382169,0.099,,,,15.372844801
1716265504442076188,0.121,,,,15.38053882
1716265504449770207,0.114,,,,15.388232839
1716265504457464226,0.131,,,,15.395926858
1716265504465158245,0.148,,,,15.403620877
1716265504472852264,0.148,,,,15.411314896
1716265504480546283,0.163,,,,15.419008915
1716265504488240302,0.184,,,,15.426702934
1716265504495934321,0.204,,,,15.434396953
1716265504503628340,0.226,,,,15.442090972
1716265504511322359,0.257,,,,15.449784991
1716265504519016378,0.294,,,,15.45747901
1716265504526710397,0.33,,,,15.465173029
1716265504534404416,0.367,,,,15.472867048
1716265504542098435,0.406,,,,15.480561067
1716265504549792454,0.44,,,,15.488255086
1716265504557486473,0.462,,,,15.495949105
1716265504565180492,0.474,,,,15.503643124
1716265504572874511,0.481,,,,15.511337143
1716265504580568530,0.469,,,,15.519031162
1716265504588262549,0.425,,,,15.526725181
1716265504595956568,0.355,,,,15.5344192
1716265504603650587,0.265,,,,15.542113219
1716265504611344606,0.17,,,,15.549807238
1716265504619038625,0.094,,,,15.557501257
1716265504626732644,0.034,,,,15.565195276
1716265504634426663,-0.014,,,,15.572889295
1716265504642120682,-0.053,,,,15.580583314
1716265504649814701,-0.075,,,,15.588277333
1716265504657508720,-0.08,,,,15.595971352
1716265504665202739,-0.075,,,,15.603665371
1716265504672896758,-0.065,,,,15.61135939
1716265504680590777,-0.058,,,,15.619053409
1716265504688284796,-0.053,,,,15.626747428
1716265504695978815,-0.046,,,,15.634441447
1716265504703672834,-0.043,,,,15.642135466
1716265504711366853,-0.041,,,,15.649829485
1716265504719060872,-0.031,,,,15.657523504
1716265504726754891,-0.024,,,,15.665217523
1716265504734448910,-0.017,,,,15.672911542
1716265504742142929,-0.012,,,,15.680605561
1716265504749836948,-0.009,,,,15.68829958
1716265504757530967,-0.004,,,,15.695993599
1716265504765224986,-0.002,,,,15.703687618
1716265504772919005,0.0,,,,15.711381637
1716265504780613024,0.009,,,,15.719075656
1716265504788307100,0.017,,,,15.726769732
1716265504796001050,0.017,,,,15.734463682
1716265504803695000,0.021,,,,15.742157632
1716265504811388950,0.031,,,,15.749851582
1716265504819082900,0.034,,,,15.757545532
1716265504826776850,0.031,,,,15.765239482
1716265504834470800,0.031,,,,15.772933432
1716265504842164750,0.036,,,,15.780627382
1716265504849858700,0.036,,,,15.788321332
1716265504857552650,0.029,,,,15.796015282
1716265504865246600,0.024,,,,15.803709232
1716265504872940550,0.031,,,,15.811403182
1716265504880634500,0.036,,,,15.819097132
1716265504888328450,0.034,,,,15.826791082
1716265504896022400,0.029,,,,15.834485032
1716265504903716350,0.031,,,,15.842178982
1716265504911410300,0.036,,,,15.849872932
1716265504919104250,0.038,,,,15.857566882
1716265504926798200,0.038,,,,15.865260832
1716265504934492150,0.041,,,,15.872954782
1716265504942186100,0.048,,,,15.880648732
1716265504949880050,0.048,,,,15.888342682
1716265504957574000,0.046,,,,15.896036632
1716265504965267950,0.048,,,,15.903730582
1716265504972961900,0.055,,,,15.911424532
1716265504980655850,0.055,,,,15.919118482
1716265504988349800,0.055,,,,15.926812432
1716265504996043750,0.058,,,,15.934506382
1716265505003737700,0.063,,,,15.942200332
1716265505011431650,0.072,,,,15.949894282
1716265505019125600,0.077,,,,15.957588232
1716265505026819550,0.077,,,,15.965282182
1716265505034513500,0.075,,,,15.972976132
1716265505042207450,0.075,,,,15.980670082
1716265505049901400,0.08,,,,15.988364032
1716265505057595350,0.082,,,,15.996057982
1716265505065289300,0.085,,,,16.003751932
1716265505072983250,0.085,,,,16.011445882
1716265505080677200,0.087,,,,16.019139832
1716265505088371150,0.087,,,,16.026833782
1716265505096065100,0.082,,,,16.034527732
1716265505103759050,0.072,,,,16.042221682
1716265505111453000,0.068,,,,16.049915632
1716265505119146950,0.07,,,,16.057609582
1716265505126840900,0.077,,,,16.065303532
1716265505134534850,0.087,,,,16.072997482
1716265505142228800,0.09,,,,16.080691432
1716265505149922750,0.09,,,,16.088385382
1716265505157616700,0.087,,,,16.096079332
1716265505165310650,0.082,,,,16.103773282
1716265505173004600,0.072,,,,16.111467232
1716265505180698550,0.053,,,,16.119161182
1716265505188392500,0.046,,,,16.126855132
1716265505196086450,0.058,,,,16.134549082
1716265505203780400,0.063,,,,16.142243032
1716265505211474350,0.063,,,,16.149936982
1716265505219168300,0.068,,,,16.157630932
1716265505226862250,0.07,,,,16.165324882
1716265505234556200,0.07,,,,16.173018832
1716265505242250150,0.068,,,,16.180712782
1716265505249944100,0.063,,,,16.188406732
1716265505257638050,0.143,,,,16.196100682
1716265505265332000,0.452,,,,16.203794632
1716265505273025950,0.885,,,,16.211488582
1716265505280719900,1.158,,,,16.219182532
1716265505288413850,0.888,,,,16.226876482
1716265505296107800,-0.082,,,,16.234570432
1716265505303801750,-0.768,,,,16.242264382
1716265505311495700,-0.403,,,,16.249958332
1716265505319189650,0.031,,,,16.257652282
1716265505326883600,-0.012,,,,16.265346232
1716265505334577550,0.009,,,,16.273040182
1716265505342271500,0.121,,,,16.280734132
1716265505349965458,0.092,72.0,967.0,,16.28842809
1716265505357659547,0.07,,,,16.296122179
1716265505365353636,0.116,,,,16.303816268
1716265505373047725,0.126,,,,16.311510357
1716265505380741814,0.121,,,,16.319204446
1716265505388435903,0.136,,,,16.326898535
1716265505396129992,0.141,,,,16.334592624
1716265505403824081,0.141,,,,16.342286713
1716265505411518170,0.165,,,,16.349980802
1716265505419212259,0.187,,,,16.357674891
1716265505426906348,0.206,,,,16.36536898
1716265505434600437,0.238,,,,16.373063069
1716265505442294526,0.274,,,,16.380757158
1716265505449988615,0.306,,,,16.388451247
1716265505457682704,0.343,,,,16.396145336
1716265505465376793,0.389,,,,16.403839425
1716265505473070882,0.433,,,,16.411533514
1716265505480764971,0.464,,,,16.419227603
1716265505488459060,0.481,,,,16.426921692
1716265505496153149,0.491,,,,16.434615781
1716265505503847238,0.493,,,,16.44230987
1716265505511541327,0.474,,,,16.450003959
1716265505519235416,0.418,,,,16.457698048
1716265505526929505,0.333,,,,16.465392137
1716265505534623594,0.238,,,,16.473086226
1716265505542317683,0.143,,,,16.480780315
1716265505550011772,0.06,,,,16.488474404
1716265505557705861,0.002,,,,16.496168493
1716265505565399950,-0.038,,,,16.503862582
1716265505573094039,-0.065,,,,16.511556671
1716265505580788128,-0.082,,,,16.51925076
1716265505588482217,-0.085,,,,16.526944849
1716265505596176306,-0.075,,,,16.534638938
1716265505603870395,-0.07,,,,16.542333027
1716265505611564484,-0.07,,,,16.550027116
1716265505619258573,-0.065,,,,16.557721205
1716265505626952662,-0.06,,,,16.565415294
1716265505634646751,-0.063,,,,16.573109383
1716265505642340840,-0.063,,,,16.580803472
1716265505650034929,-0.058,,,,16.588497561
1716265505657729018,-0.051,,,,16.59619165
1716265505665423107,-0.043,,,,16.603885739
1716265505673117196,-0.041,,,,16.611579828
1716265505680811285,-0.031,,,,16.619273917
1716265505688505374,-0.019,,,,16.626968006
1716265505696199463,-0.014,,,,16.634662095
1716265505703893552,-0.009,,,,16.642356184
1716265505711587641,-0.002,,,,16.650050273
1716265505719281730,0.002,,,,16.657744362
1716265505726975819,0.004,,,,16.665438451
1716265505734669908,0.012,,,,16.67313254
1716265505742363997,0.021,,,,16.680826629
1716265505750058086,0.029,,,,16.688520718
1716265505757752175,0.029,,,,16.696214807
1716265505765446264,0.026,,,,16.703908896
1716265505773140353,0.029,,,,16.711602985
1716265505780834442,0.031,,,,16.719297074
1716265505788528531,0.034,,,,16.726991163
1716265505796222620,0.038,,,,16.734685252
1716265505803916709,0.041,,,,16.742379341
1716265505811610798,0.041,,,,16.75007343
1716265505819304887,0.041,,,,16.757767519
1716265505826998976,0.041,,,,16.765461608
1716265505834693065,0.046,,,,16.773155697
1716265505842387154,0.051,,,,16.780849786
1716265505850081243,0.051,,,,16.788543875
1716265505857775332,0.051,,,,16.796237964
1716265505865469421,0.053,,,,16.803932053
1716265505873163510,0.058,,,,16.811626142
1716265505880857599,0.055,,,,16.819320231
1716265505888551688,0.055,,,,16.82701432
1716265505896245777,0.063,,,,16.834708409
1716265505903939866,0.063,,,,16.842402498
1716265505911633990,0.058,,,,16.850096622
1716265505919328218,0.063,,,,16.85779085
1716265505927022446,0.068,,,,16.865485078
1716265505934716674,0.068,,,,16.873179306
1716265505942410902,0.068,,,,16.880873534
1716265505950105130,0.07,,,,16.888567762
1716265505957799358,0.068,,,,16.89626199
1716265505965493586,0.053,,,,16.903956218
1716265505973187814,0.041,,,,16.911650446
1716265505980882042,0.051,,,,16.919344674
1716265505988576270,0.063,,,,16.927038902
1716265505996270498,0.075,,,,16.93473313
1716265506003964726,0.092,,,,16.942427358
1716265506011658954,0.111,,,,16.950121586
1716265506019353182,0.111,,,,16.957815814
1716265506027047410,0.094,,,,16.965510042
1716265506034741638,0.085,,,,16.97320427
1716265506042435866,0.075,,,,16.980898498
1716265506050130094,0.068,,,,16.988592726
1716265506057824322,0.075,,,,16.996286954
1716265506065518550,0.085,,,,17.003981182
1716265506073212778,0.087,,,,17.01167541
1716265506080907006,0.085,,,,17.019369638
1716265506088601234,0.087,,,,17.027063866
1716265506096295462,0.087,,,,17.034758094
1716265506103989690,0.08,,,,17.042452322
1716265506111683918,0.077,,,,17.05014655
1716265506119378146,0.199,,,,17.057840778
1716265506127072374,0.547,,,,17.065535006
1716265506134766602,0.961,,,,17.073229234
1716265506142460830,1.16,,,,17.080923462
1716265506150155058,0.744,,,,17.08861769
1716265506157849286,-0.306,,,,17.096311918
1716265506165543514,-0.798,,,,17.104006146
1716265506173237742,-0.267,,,,17.111700374
1716265506180931970,0.082,,,,17.119394602
1716265506188626198,-0.019,,,,17.12708883
1716265506196320426,0.038,,,,17.134783058
1716265506204014654,0.138,,,,17.142477286
1716265506211708882,0.094,,,,17.150171514
1716265506219403110,0.094,,,,17.157865742
1716265506227097338,0.138,,,,17.16555997
1716265506234791566,0.136,,,,17.173254198
1716265506242485794,0.136,,,,17.180948426
1716265506250180022,0.163,,,,17.188642654
1716265506257874250,0.172,,,,17.196336882
1716265506265568478,0.167,,,,17.20403111
1716265506273262706,0.182,,,,17.211725338
1716265506280956934,0.201,,,,17.219419566
1716265506288651162,0.218,,,,17.227113794
1716265506296345390,0.243,,,,17.234808022
1716265506304039618,0.272,,,,17.24250225
1716265506311733846,0.309,,,,17.250196478
1716265506319428074,0.347,,,,17.257890706
1716265506327122302,0.386,,980.0,,17.265584934
1716265506334816530,0.425,,,,17.273279162
1716265506342510758,0.457,,,,17.28097339
1716265506350204986,0.476,,,,17.288667618
1716265506357899214,0.481,,,,17.296361846
1716265506365593442,0.469,,,,17.304056074
1716265506373287670,0.435,,,,17.311750302
1716265506380981898,0.374,,,,17.31944453
1716265506388676126,0.287,,,,17.327138758
1716265506396370354,0.184,,,,17.334832986
1716265506404064582,0.097,,,,17.342527214
1716265506411758810,0.026,,,,17.350221442
1716265506419453038,-0.026,,,,17.35791567
1716265506427147266,-0.058,,,,17.365609898
1716265506434841494,-0.068,,,,17.373304126
1716265506442535722,-0.072,,,,17.380998354
1716265506450229950,-0.077,,,,17.388692582
1716265506457924178,-0.075,,,,17.39638681
1716265506465618406,-0.063,,,,17.404081038
1716265506473312692,-0.055,71.0,,,17.411775324
1716265506481006642,-0.055,,,,17.419469274
1716265506488700592,-0.051,,,,17.427163224
1716265506496394542,-0.043,,,,17.434857174
1716265506504088492,-0.046,,,,17.442551124
1716265506511782442,-0.046,,,,17.450245074
1716265506519476392,-0.034,,,,17.457939024
1716265506527170342,-0.021,,,,17.465632974
1716265506534864292,-0.019,,,,17.473326924
1716265506542558242,-0.017,,,,17.481020874
1716265506550252192,-0.012,,,,17.488714824
1716265506557946142,-0.007,,,,17.496408774
1716265506565640092,0.002,,,,17.504102724
1716265506573334042,0.012,,,,17.511796674
1716265506581027992,0.017,,,,17.519490624
1716265506588721942,0.021,,,,17.527184574
1716265506596415892,0.026,,,,17.534878524
1716265506604109842,0.029,,,,17.542572474
1716265506611803792,0.031,,,,17.550266424
1716265506619497742,0.031,,,,17.557960374
1716265506627191692,0.026,,,,17.565654324
1716265506634885642,0.029,,,,17.573348274
1716265506642579592,0.031,,,,17.581042224
1716265506650273542,0.026,,,,17.588736174
1716265506657967492,0.024,,,,17.596430124
1716265506665661442,0.024,,,,17.604124074
1716265506673355392,0.031,,,,17.611818024
1716265506681049342,0.031,,,,17.619511974
1716265506688743292,0.029,,,,17.627205924
1716265506696437242,0.034,,,,17.634899874
1716265506704131192,0.041,,,,17.642593824
1716265506711825142,0.036,,,,17.650287774
1716265506719519092,0.034,,,,17.657981724
1716265506727213042,0.041,,,,17.665675674
1716265506734906992,0.043,,,,17.673369624
1716265506742600942,0.043,,,,17.681063574
1716265506750294892,0.048,,,,17.688757524
1716265506757988842,0.055,,,,17.696451474
1716265506765682792,0.06,,,,17.704145424
1716265506773376742,0.06,,,,17.711839374
1716265506781070692,0.06,,,,17.719533324
1716265506788764642,0.07,,,,17.727227274
1716265506796458592,0.07,,,,17.734921224
1716265506804152542,0.065,,,,17.742615174
1716265506811846492,0.053,,,,17.750309124
1716265506819540442,0.046,,,,17.758003074
1716265506827234392,0.053,,,,17.765697024
1716265506834928342,0.07,,,,17.773390974
1716265506842622292,0.087,,,,17.781084924
1716265506850316242,0.107,,,,17.788778874
1716265506858010192,0.124,,,,17.796472824
1716265506865704142,0.119,,,,17.804166774
1716265506873398092,0.104,,,,17.811860724
1716265506881092042,0.099,,,,17.819554674
1716265506888785992,0.092,,,,17.827248624
1716265506896479942,0.077,,,,17.834942574
1716265506904173892,0.082,,,,17.842636524
1716265506911867842,0.097,,,,17.850330474
1716265506919561792,0.097,,,,17.858024424
1716265506927255742,0.097,,,,17.865718374
1716265506934949692,0.104,,,,17.873412324
1716265506942643642,0.109,,,,17.881106274
1716265506950337592,0.104,,,,17.888800224
1716265506958031542,0.099,,,,17.896494174
1716265506965725492,0.136,,,,17.904188124
1716265506973419442,0.36,,,,17.911882074
1716265506981113392,0.756,,,,17.919576024
1716265506988807342,1.087,,,,17.927269974
1716265506996501292,1.082,,,,17.934963924
1716265507004195242,0.34,,,,17.942657874
1716265507011889192,-0.615,,,,17.950351824
1716265507019583142,-0.54,,,,17.958045774
1716265507027277092,0.072,,,,17.965739724
1716265507034971050,0.124,,,,17.973433682
1716265507042665348,0.019,,,,17.98112798
1716265507050359646,0.133,,,,17.988822278
1716265507058053944,0.16,,,,17.996516576
1716265507065748242,0.107,,,,18.004210874
1716265507073442540,0.133,,,,18.011905172
1716265507081136838,0.155,,,,18.01959947
1716265507088831136,0.138,,,,18.027293768
1716265507096525434,0.148,,,,18.034988066
1716265507104219732,0.17,,,,18.042682364
1716265507111914030,0.172,,,,18.050376662
1716265507119608328,0.18,,,,18.05807096
1716265507127302626,0.201,,,,18.065765258
1716265507134996924,0.218,,,,18.073459556
1716265507142691222,0.238,,,,18.081153854
1716265507150385520,0.26,,,,18.088848152
1716265507158079818,0.287,,,,18.09654245
1716265507165774116,0.318,,,,18.104236748
1716265507173468414,0.36,,,,18.111931046
1716265507181162712,0.406,,,,18.119625344
1716265507188857010,0.437,,,,18.127319642
1716265507196551308,0.459,,,,18.13501394
1716265507204245606,0.476,,,,18.142708238
1716265507211939904,0.481,,,,18.150402536
1716265507219634202,0.467,,,,18.158096834
1716265507227328500,0.425,,,,18.165791132
1716265507235022798,0.352,,,,18.17348543
1716265507242717096,0.253,,,,18.181179728
1716265507250411394,0.153,,,,18.188874026
1716265507258105692,0.072,,,,18.196568324
1716265507265799990,0.014,,,,18.204262622
1716265507273494288,-0.026,,,,18.21195692
1716265507281188586,-0.053,,,,18.219651218
1716265507288882884,-0.072,,,,18.227345516
1716265507296577182,-0.075,,966.0,,18.235039814
1716265507304271480,-0.068,,,,18.242734112
1716265507311965778,-0.07,,,,18.25042841
1716265507319660076,-0.07,,,,18.258122708
1716265507327354374,-0.058,,,,18.265817006
1716265507335048672,-0.046,,,,18.273511304
1716265507342742970,-0.043,,,,18.281205602
1716265507350437268,-0.046,,,,18.2888999
1716265507358131566,-0.038,,,,18.296594198
1716265507365825864,-0.031,,,,18.304288496
1716265507373520162,-0.031,,,,18.311982794
1716265507381214460,-0.034,,,,18.319677092
1716265507388908758,-0.021,,,,18.32737139
1716265507396603056,-0.009,,,,18.335065688
1716265507404297354,-0.009,,,,18.342759986
1716265507411991652,-0.007,,,,18.350454284
1716265507419685950,0.002,,,,18.358148582
1716265507427380248,0.009,,,,18.36584288
1716265507435074546,0.009,,,,18.373537178
1716265507442768844,0.014,,,,18.381231476
1716265507450463142,0.021,,,,18.388925774
1716265507458157440,0.026,,,,18.396620072
1716265507465851738,0.024,,,,18.40431437
1716265507473546036,0.024,,,,18.412008668
1716265507481240334,0.029,,,,18.419702966
1716265507488934632,0.034,,,,18.427397264
1716265507496628930,0.034,,,,18.435091562
1716265507504323228,0.029,,,,18.44278586
1716265507512017526,0.031,,,,18.450480158
1716265507519711824,0.036,,,,18.458174456
1716265507527406122,0.036,,,,18.465868754
1716265507535100420,0.041,,,,18.473563052
1716265507542794718,0.046,,,,18.48125735
1716265507550489016,0.046,,,,18.488951648
1716265507558183314,0.041,,,,18.496645946
1716265507565877612,0.046,,,,18.504340244
1716265507573571910,0.053,,,,18.512034542
1716265507581266208,0.053,,,,18.51972884
1716265507588960506,0.051,,,,18.527423138
1716265507596654842,0.055,70.0,,,18.535117474
1716265507604348861,0.053,,,,18.542811493
1716265507612042880,0.048,,,,18.550505512
1716265507619736899,0.048,,,,18.558199531
1716265507627430918,0.055,,,,18.56589355
1716265507635124937,0.063,,,,18.573587569
1716265507642818956,0.063,,,,18.581281588
1716265507650512975,0.055,,,,18.588975607
1716265507658206994,0.046,,,,18.596669626
1716265507665901013,0.029,,,,18.604363645
1716265507673595032,0.021,,,,18.612057664
1716265507681289051,0.029,,,,18.619751683
1716265507688983070,0.051,,,,18.627445702
1716265507696677089,0.072,,,,18.635139721
1716265507704371108,0.085,,,,18.64283374
1716265507712065127,0.085,,,,18.650527759
1716265507719759146,0.08,,,,18.658221778
1716265507727453165,0.077,,,,18.665915797
1716265507735147184,0.068,,,,18.673609816
1716265507742841203,0.053,,,,18.681303835
1716265507750535222,0.058,,,,18.688997854
1716265507758229241,0.075,,,,18.696691873
1716265507765923260,0.075,,,,18.704385892
1716265507773617279,0.065,,,,18.712079911
1716265507781311298,0.072,,,,18.71977393
1716265507789005317,0.082,,,,18.727467949
1716265507796699336,0.08,,,,18.735161968
1716265507804393355,0.075,,,,18.742855987
1716265507812087374,0.085,,,,18.750550006
1716265507819781393,0.216,,,,18.758244025
1716265507827475412,0.559,,,,18.765938044
1716265507835169431,0.931,,,,18.773632063
1716265507842863450,1.085,,,,18.781326082
1716265507850557469,0.647,,,,18.789020101
1716265507858251488,-0.347,,,,18.79671412
1716265507865945507,-0.712,,,,18.804408139
1716265507873639526,-0.143,,,,18.812102158
1716265507881333545,0.143,,,,18.819796177
1716265507889027564,0.004,,,,18.827490196
1716265507896721583,0.063,,,,18.835184215
1716265507904415602,0.155,,,,18.842878234
1716265507912109621,0.107,,,,18.850572253
1716265507919803640,0.109,,,,18.858266272
1716265507927497659,0.153,,,,18.865960291
1716265507935191678,0.148,,,,18.87365431
1716265507942885697,0.143,,,,18.881348329
1716265507950579716,0.167,,,,18.889042348
1716265507958273735,0.18,,,,18.896736367
1716265507965967754,0.192,,,,18.904430386
1716265507973661773,0.206,,,,18.912124405
1716265507981355792,0.221,,,,18.919818424
1716265507989049811,0.24,,,,18.927512443
1716265507996743830,0.27,,,,18.935206462
1716265508004437849,0.299,,,,18.942900481
1716265508012131868,0.333,,,,18.9505945
1716265508019825887,0.374,,,,18.958288519
1716265508027519906,0.411,,,,18.965982538
1716265508035213925,0.442,,,,18.973676557
1716265508042907944,0.467,,,,18.981370576
1716265508050601963,0.486,,,,18.989064595
1716265508058295982,0.493,,,,18.996758614
1716265508065990001,0.479,,,,19.004452633
1716265508073684020,0.442,,,,19.012146652
1716265508081378039,0.382,,,,19.019840671
1716265508089072058,0.296,,,,19.02753469
1716265508096766077,0.199,,,,19.035228709
1716265508104460096,0.116,,,,19.042922728
1716265508112154115,0.051,,,,19.050616747
1716265508119848134,0.002,,,,19.058310766
1716265508127542153,-0.029,,,,19.066004785
1716265508135236172,-0.046,,,,19.073698804
1716265508142930191,-0.051,,,,19.081392823
1716265508150624210,-0.051,,,,19.089086842
1716265508158318286,-0.053,69.0,,,19.096780918
1716265508166012445,-0.058,,,,19.104475077
1716265508173706604,-0.058,,,,19.112169236
1716265508181400763,-0.051,,,,19.119863395
1716265508189094922,-0.043,,,,19.127557554
1716265508196789081,-0.038,,,,19.135251713
1716265508204483240,-0.034,,,,19.142945872
1716265508212177399,-0.036,,,,19.150640031
1716265508219871558,-0.041,,930.0,,19.15833419
1716265508227565717,-0.038,,,,19.166028349
1716265508235259876,-0.034,,,,19.173722508
1716265508242954035,-0.031,,,,19.181416667
1716265508250648194,-0.026,,,,19.189110826
1716265508258342353,-0.021,,,,19.196804985
1716265508266036512,-0.017,,,,19.204499144
1716265508273730671,-0.017,,,,19.212193303
1716265508281424830,-0.012,,,,19.219887462
1716265508289118989,-0.004,,,,19.227581621
1716265508296813148,0.002,,,,19.23527578
1716265508304507307,0.004,,,,19.242969939
1716265508312201466,0.007,,,,19.250664098
1716265508319895625,0.012,,,,19.258358257
1716265508327589784,0.014,,,,19.266052416
1716265508335283943,0.014,,,,19.273746575
1716265508342978102,0.012,,,,19.281440734
1716265508350672261,0.014,,,,19.289134893
1716265508358366420,0.021,,,,19.296829052
1716265508366060579,0.021,,,,19.304523211
1716265508373754738,0.017,,,,19.31221737
1716265508381448897,0.026,,,,19.319911529
1716265508389143056,0.034,,,,19.327605688
1716265508396837215,0.031,,,,19.335299847
1716265508404531374,0.031,,,,19.342994006
1716265508412225533,0.036,,,,19.350688165
1716265508419919692,0.041,,,,19.358382324
1716265508427613851,0.041,,,,19.366076483
1716265508435308010,0.043,,,,19.373770642
1716265508443002169,0.048,,,,19.381464801
1716265508450696328,0.051,,,,19.38915896
1716265508458390487,0.051,,,,19.396853119
1716265508466084646,0.055,,,,19.404547278
1716265508473778805,0.06,,,,19.412241437
1716265508481472964,0.06,,,,19.419935596
1716265508489167123,0.058,,,,19.427629755
1716265508496861282,0.065,,,,19.435323914
1716265508504555441,0.07,,,,19.443018073
1716265508512249600,0.065,,,,19.450712232
1716265508519943759,0.058,,,,19.458406391
1716265508527637918,0.048,,,,19.46610055
1716265508535332077,0.051,,,,19.473794709
1716265508543026236,0.065,,,,19.481488868
1716265508550720395,0.08,,,,19.489183027
1716265508558414554,0.094,,,,19.496877186
1716265508566108713,0.114,,,,19.504571345
1716265508573802872,0.121,,,,19.512265504
1716265508581497031,0.104,,,,19.519959663
1716265508589191190,0.09,,,,19.527653822
1716265508596885349,0.08,,,,19.535347981
1716265508604579508,0.068,,,,19.54304214
1716265508612273667,0.072,,,,19.550736299
1716265508619967826,0.082,,,,19.558430458
1716265508627661985,0.082,,,,19.566124617
1716265508635356144,0.077,,,,19.573818776
1716265508643050303,0.085,,,,19.581512935
1716265508650744462,0.092,,,,19.589207094
1716265508658438621,0.094,,,,19.596901253
1716265508666132780,0.085,,,,19.604595412
1716265508673826939,0.072,,,,19.612289571
1716265508681521098,0.172,,,,19.61998373
1716265508689215257,0.486,,,,19.627677889
1716265508696909416,0.858,,,,19.635372048
1716265508704603575,1.043,,,,19.643066207
1716265508712297734,0.6880000000000001,,,,19.650760366
1716265508719991904,-0.248,,,,19.658454536
1716265508727686063,-0.6980000000000001,,,,19.666148695
1716265508735380222,-0.214,,,,19.673842854
1716265508743074381,0.121,,,,19.681537013
1716265508750768540,0.021,,,,19.689231172
1716265508758462699,0.055,,,,19.696925331
1716265508766156858,0.145,,,,19.70461949
1716265508773851017,0.111,,,,19.712313649
1716265508781545176,0.102,,,,19.720007808
1716265508789239335,0.136,,,,19.727701967
1716265508796933494,0.133,,,,19.735396126
1716265508804627653,0.133,,,,19.743090285
1716265508812321812,0.155,,,,19.750784444
1716265508820015971,0.167,,,,19.758478603
1716265508827710130,0.175,,,,19.766172762
1716265508835404289,0.187,,,,19.773866921
1716265508843098448,0.201,,,,19.78156108
1716265508850792607,0.223,,,,19.789255239
1716265508858486766,0.245,,,,19.796949398
1716265508866180925,0.277,,,,19.804643557
1716265508873875084,0.316,,,,19.812337716
1716265508881569243,0.355,,,,19.820031875
1716265508889263402,0.391,,,,19.827726034
1716265508896957561,0.428,,,,19.835420193
1716265508904651720,0.457,,,,19.843114352
1716265508912345879,0.469,,,,19.850808511
1716265508920040038,0.474,,,,19.85850267
1716265508927734197,0.474,,,,19.866196829
1716265508935428356,0.45,,,,19.873890988
1716265508943122515,0.391,,,,19.881585147
1716265508950816674,0.311,,,,19.889279306
1716265508958510833,0.221,,,,19.896973465
1716265508966204992,0.136,,,,19.904667624
1716265508973899151,0.065,,,,19.912361783
1716265508981593310,0.012,,,,19.920055942
1716265508989287469,-0.021,,,,19.927750101
1716265508996981628,-0.043,,,,19.93544426
1716265509004675787,-0.053,,,,19.943138419
1716265509012369946,-0.053,,,,19.950832578
1716265509020064105,-0.051,,,,19.958526737
1716265509027758264,-0.048,,,,19.966220896
1716265509035452423,-0.043,,,,19.973915055
1716265509043146582,-0.036,,,,19.981609214
1716265509050840741,-0.034,,,,19.989303373
1716265509058534900,-0.034,,,,19.996997532
1716265509066229059,-0.029,,,,20.004691691
1716265509073923218,-0.021,,,,20.01238585
1716265509081617377,-0.021,,860.0,,20.020080009
1716265509089311536,-0.021,,,,20.027774168
1716265509097005695,-0.012,,,,20.035468327
1716265509104699854,-0.004,,,,20.043162486
1716265509112394013,0.0,,,,20.050856645
1716265509120088172,0.0,,,,20.058550804
1716265509127782331,-0.002,,,,20.066244963
1716265509135476490,0.002,,,,20.073939122
1716265509143170649,0.007,,,,20.081633281
1716265509150864808,0.004,,,,20.08932744
1716265509158558967,0.004,,,,20.097021599
1716265509166253126,0.007,,,,20.104715758
1716265509173947285,0.004,,,,20.112409917
1716265509181641444,-0.007,,,,20.120104076
1716265509189335603,-0.007,,,,20.127798235
1716265509197029762,0.002,,,,20.135492394
1716265509204723921,0.002,,,,20.143186553
1716265509212418080,0.002,,,,20.150880712
1716265509220112239,0.004,,,,20.158574871
1716265509227806398,0.004,,,,20.16626903
1716265509235500557,0.004,,,,20.173963189
1716265509243194716,0.007,,,,20.181657348
1716265509250888875,0.012,,,,20.189351507
1716265509258583034,0.017,,,,20.197045666
1716265509266277193,0.017,,,,20.204739825
1716265509273971352,0.014,,,,20.212433984
1716265509281665520,0.019,69.0,,,20.220128152
1716265509289359539,0.024,,,,20.227822171
1716265509297053558,0.026,,,,20.23551619
1716265509304747577,0.034,,,,20.243210209
1716265509312441596,0.036,,,,20.250904228
1716265509320135615,0.029,,,,20.258598247
1716265509327829634,0.026,,,,20.266292266
1716265509335523653,0.034,,,,20.273986285
1716265509343217672,0.041,,,,20.281680304
1716265509350911691,0.038,,,,20.289374323
1716265509358605710,0.034,,,,20.297068342
1716265509366299729,0.034,,,,20.304762361
1716265509373993748,0.041,,,,20.31245638
1716265509381687767,0.041,,,,20.320150399
1716265509389381786,0.031,,,,20.327844418
1716265509397075805,0.024,,,,20.335538437
1716265509404769824,0.024,,,,20.343232456
1716265509412463843,0.031,,,,20.350926475
1716265509420157862,0.046,,,,20.358620494
1716265509427851881,0.072,,,,20.366314513
1716265509435545900,0.094,,,,20.374008532
1716265509443239919,0.094,,,,20.381702551
1716265509450933938,0.08,,,,20.38939657
1716265509458627957,0.075,,,,20.397090589
1716265509466321976,0.07,,,,20.404784608
1716265509474015995,0.053,,,,20.412478627
1716265509481710014,0.051,,,,20.420172646
1716265509489404033,0.063,,,,20.427866665
1716265509497098052,0.065,,,,20.435560684
1716265509504792071,0.063,,,,20.443254703
1716265509512486090,0.068,,,,20.450948722
1716265509520180109,0.072,,,,20.458642741
1716265509527874128,0.075,,,,20.46633676
1716265509535568147,0.07,,,,20.474030779
1716265509543262166,0.065,,,,20.481724798
1716265509550956185,0.158,,,,20.489418817
1716265509558650204,0.472,,,,20.497112836
1716265509566344223,0.871,,,,20.504806855
1716265509574038242,1.077,,,,20.512500874
1716265509581732261,0.742,,,,20.520194893
1716265509589426280,-0.199,,,,20.527888912
1716265509597120299,-0.732,,,,20.535582931
1716265509604814318,-0.316,,,,20.54327695
1716265509612508337,0.058,,,,20.550970969
1716265509620202356,0.004,,,,20.558664988
1716265509627896375,0.046,,,,20.566359007
1716265509635590394,0.145,,,,20.574053026
1716265509643284413,0.119,,,,20.581747045
1716265509650978432,0.104,,,,20.589441064
1716265509658672451,0.143,,,,20.597135083
1716265509666366470,0.148,,,,20.604829102
1716265509674060489,0.141,,,,20.612523121
1716265509681754508,0.155,,,,20.62021714
1716265509689448527,0.167,,,,20.627911159
1716265509697142546,0.172,,,,20.635605178
1716265509704836565,0.189,,,,20.643299197
1716265509712530584,0.209,,,,20.650993216
1716265509720224603,0.231,,,,20.658687235
1716265509727918622,0.262,,,,20.666381254
1716265509735612641,0.291,,,,20.674075273
1716265509743306660,0.323,,,,20.681769292
1716265509751000679,0.362,,,,20.689463311
1716265509758694698,0.403,,,,20.69715733
1716265509766388717,0.44,,,,20.704851349
1716265509774082736,0.467,,,,20.712545368
1716265509781776755,0.484,,,,20.720239387
1716265509789470774,0.484,,,,20.727933406
1716265509797164793,0.474,,,,20.735627425
1716265509804858812,0.45,,,,20.743321444
1716265509812552831,0.396,,,,20.751015463
1716265509820246850,0.309,,,,20.758709482
1716265509827940869,0.204,,,,20.766403501
1716265509835634888,0.109,,,,20.77409752
1716265509843328966,0.031,,,,20.781791598
1716265509851023264,-0.024,,,,20.789485896
1716265509858717562,-0.063,,,,20.797180194
1716265509866411860,-0.094,,,,20.804874492
1716265509874106158,-0.104,,,,20.81256879
1716265509881800456,-0.094,,,,20.820263088
1716265509889494754,-0.099,,,,20.827957386
1716265509897189052,-0.119,,,,20.835651684
1716265509904883350,-0.116,,,,20.843345982
1716265509912577648,-0.102,,,,20.85104028
1716265509920271946,-0.097,,,,20.858734578
1716265509927966244,-0.094,,,,20.866428876
1716265509935660542,-0.087,,851.0,,20.874123174
1716265509943354840,-0.075,,,,20.881817472
1716265509951049138,-0.07,,,,20.88951177
1716265509958743436,-0.068,,,,20.897206068
1716265509966437734,-0.063,,,,20.904900366
1716265509974132032,-0.053,,,,20.912594664
1716265509981826330,-0.043,,,,20.920288962
1716265509989520628,-0.043,,,,20.92798326
1716265509997214926,-0.041,,,,20.935677558
1716265510004909224,-0.031,,,,20.943371856
1716265510012603522,-0.029,,,,20.951066154
1716265510020297820,-0.031,,,,20.958760452
1716265510027992118,-0.026,,,,20.96645475
1716265510035686416,-0.019,,,,20.974149048
1716265510043380714,-0.026,,,,20.981843346
1716265510051075012,-0.031,,,,20.989537644
1716265510058769310,-0.029,,,,20.997231942
1716265510066463608,-0.029,,,,21.00492624
1716265510074157906,-0.029,,,,21.012620538
1716265510081852204,-0.026,,,,21.020314836
1716265510089546502,-0.029,,,,21.028009134
1716265510097240800,-0.029,,,,21.035703432
1716265510104935098,-0.024,,,,21.04339773
1716265510112629396,-0.021,,,,21.051092028
1716265510120323694,-0.017,,,,21.058786326
1716265510128017992,-0.014,,,,21.066480624
1716265510135712290,-0.017,,,,21.074174922
1716265510143406588,-0.021,,,,21.08186922
1716265510151100886,-0.021,,,,21.089563518
1716265510158795184,-0.014,,,,21.097257816
1716265510166489482,-0.009,,,,21.104952114
1716265510174183780,-0.007,,,,21.112646412
1716265510181878078,-0.004,,,,21.12034071
1716265510189572376,-0.012,,,,21.128035008
1716265510197266674,-0.017,,,,21.135729306
1716265510204960972,-0.019,,,,21.143423604
1716265510212655270,-0.026,,,,21.151117902
1716265510220349568,-0.026,,,,21.1588122
1716265510228043866,-0.017,,,,21.166506498
1716265510235738164,0.0,,,,21.174200796
1716265510243432462,0.026,,,,21.181895094
1716265510251126760,0.048,,,,21.189589392
1716265510258821058,0.051,,,,21.19728369
1716265510266515356,0.034,,,,21.204977988
1716265510274209654,0.026,,,,21.212672286
1716265510281903952,0.021,,,,21.220366584
1716265510289598250,0.009,,,,21.228060882
1716265510297292548,0.012,,,,21.23575518
1716265510304986846,0.017,,,,21.243449478
1716265510312681144,0.012,,,,21.251143776
1716265510320375442,0.014,,,,21.258838074
1716265510328069740,0.024,,,,21.266532372
1716265510335764038,0.029,,,,21.27422667
1716265510343458336,0.026,,,,21.281920968
1716265510351152634,0.019,,,,21.289615266
1716265510358846932,0.029,,,,21.297309564
1716265510366541230,0.194,,,,21.305003862
1716265510374235528,0.588,,,,21.31269816
1716265510381929826,1.004,,,,21.320392458
1716265510389624124,1.107,,,,21.328086756
1716265510397318422,0.498,,,,21.335781054
1716265510405012754,-0.535,69.0,,,21.343475386
1716265510412706704,-0.778,,,,21.351169336
1716265510420400654,-0.218,,,,21.358863286
1716265510428094604,0.004,,,,21.366557236
1716265510435788554,-0.065,,,,21.374251186
1716265510443482504,0.036,,,,21.381945136
1716265510451176454,0.104,,,,21.389639086
1716265510458870404,0.06,,,,21.397333036
1716265510466564354,0.07,,,,21.405026986
1716265510474258304,0.097,,,,21.412720936
1716265510481952254,0.092,,,,21.420414886
1716265510489646204,0.107,,,,21.428108836
1716265510497340154,0.131,,,,21.435802786
1716265510505034104,0.145,,,,21.443496736
1716265510512728054,0.155,,,,21.451190686
1716265510520422004,0.17,,,,21.458884636
1716265510528115954,0.192,,,,21.466578586
1716265510535809904,0.218,,,,21.474272536
1716265510543503854,0.25,,,,21.481966486
1716265510551197804,0.287,,,,21.489660436
1716265510558891754,0.318,,,,21.497354386
1716265510566585704,0.357,,,,21.505048336
1716265510574279654,0.401,,,,21.512742286
1716265510581973604,0.437,,,,21.520436236
1716265510589667554,0.459,,,,21.528130186
1716265510597361504,0.472,,,,21.535824136
1716265510605055454,0.472,,,,21.543518086
1716265510612749404,0.455,,,,21.551212036
1716265510620443354,0.408,,,,21.558905986
1716265510628137304,0.335,,,,21.566599936
1716265510635831254,0.238,,,,21.574293886
1716265510643525204,0.138,,,,21.581987836
1716265510651219154,0.053,,,,21.589681786
1716265510658913104,-0.012,,,,21.597375736
1716265510666607054,-0.053,,,,21.605069686
1716265510674301004,-0.077,,,,21.612763636
1716265510681994954,-0.097,,,,21.620457586
1716265510689688904,-0.114,,,,21.628151536
1716265510697382854,-0.121,,,,21.635845486
1716265510705076804,-0.116,,,,21.643539436
1716265510712770754,-0.109,,,,21.651233386
1716265510720464704,-0.104,,,,21.658927336
1716265510728158654,-0.097,,,,21.666621286
1716265510735852604,-0.09,,,,21.674315236
1716265510743546554,-0.085,,,,21.682009186
1716265510751240504,-0.072,,,,21.689703136
1716265510758934454,-0.058,,,,21.697397086
1716265510766628404,-0.055,,,,21.705091036
1716265510774322354,-0.053,,,,21.712784986
1716265510782016304,-0.038,,850.0,,21.720478936
1716265510789710254,-0.026,,,,21.728172886
1716265510797404204,-0.029,,,,21.735866836
1716265510805098154,-0.029,,,,21.743560786
1716265510812792104,-0.021,,,,21.751254736
1716265510820486054,-0.014,,,,21.758948686
1716265510828180004,-0.007,,,,21.766642636
1716265510835873954,-0.004,,,,21.774336586
1716265510843567904,-0.004,,,,21.782030536
1716265510851261854,-0.007,,,,21.789724486
1716265510858955804,-0.007,,,,21.797418436
1716265510866649754,-0.007,,,,21.805112386
1716265510874343704,-0.007,,,,21.812806336
1716265510882037654,-0.009,,,,21.820500286
1716265510889731604,-0.012,,,,21.828194236
1716265510897425554,-0.007,,,,21.835888186
1716265510905119504,0.0,,,,21.843582136
1716265510912813454,0.0,,,,21.851276086
1716265510920507404,0.0,,,,21.858970036
1716265510928201354,0.002,,,,21.866663986
1716265510935895304,0.002,,,,21.874357936
1716265510943589254,0.004,,,,21.882051886
1716265510951283204,0.007,,,,21.889745836
1716265510958977154,0.007,,,,21.897439786
1716265510966671114,0.009,,,,21.905133746
1716265510974365482,0.014,,,,21.912828114
1716265510982059850,0.014,,,,21.920522482
1716265510989754218,0.017,,,,21.92821685
1716265510997448586,0.024,,,,21.935911218
1716265511005142954,0.029,,,,21.943605586
1716265511012837322,0.021,,,,21.951299954
1716265511020531690,0.009,,,,21.958994322
1716265511028226058,0.002,,,,21.96668869
1716265511035920426,0.007,,,,21.974383058
1716265511043614794,0.017,,,,21.982077426
1716265511051309162,0.031,,,,21.989771794
1716265511059003530,0.048,,,,21.997466162
1716265511066697898,0.06,,,,22.00516053
1716265511074392266,0.055,,,,22.012854898
1716265511082086634,0.048,,,,22.020549266
1716265511089781002,0.043,,,,22.028243634
1716265511097475370,0.031,,,,22.035938002
1716265511105169738,0.031,,,,22.04363237
1716265511112864106,0.043,,,,22.051326738
1716265511120558474,0.048,,,,22.059021106
1716265511128252842,0.043,,,,22.066715474
1716265511135947210,0.048,,,,22.074409842
1716265511143641578,0.055,,,,22.08210421
1716265511151335946,0.06,,,,22.089798578
1716265511159030314,0.06,,,,22.097492946
1716265511166724682,0.048,,,,22.105187314
1716265511174419050,0.094,,,,22.112881682
1716265511182113418,0.35,,,,22.12057605
1716265511189807786,0.756,,,,22.128270418
1716265511197502154,1.075,,,,22.135964786
1716265511205196522,1.007,,,,22.143659154
1716265511212890890,0.175,,,,22.151353522
1716265511220585258,-0.722,,,,22.15904789
1716265511228279626,-0.51,,,,22.166742258
1716265511235973994,0.07,,,,22.174436626
1716265511243668362,0.048,,,,22.182130994
1716265511251362730,-0.034,,,,22.189825362
1716265511259057098,0.094,,,,22.19751973
