time,ecg,hr,rr,marker,norm_time
1716264939745319458,-0.029,,,,0.0
1716264939753013477,-0.019,,,,0.007694019
1716264939760707496,-0.014,,,,0.015388038
1716264939768401515,-0.009,,,,0.023082057
1716264939776095534,-0.007,,,,0.030776076
1716264939783789553,-0.004,,,,0.038470095
1716264939791483572,-0.007,,,,0.046164114
1716264939799177591,-0.009,,,,0.053858133
1716264939806871610,-0.004,,,,0.061552152
1716264939814565629,0.004,,,,0.069246171
1716264939822259648,0.017,,,,0.07694019
1716264939829953667,0.019,,,,0.084634209
1716264939837647686,0.017,,,,0.092328228
1716264939845341705,0.019,,,,0.100022247
1716264939853035724,0.024,,,,0.107716266
1716264939860729743,0.031,,,,0.115410285
1716264939868423762,0.036,,,,0.123104304
1716264939876117781,0.034,,,,0.130798323
1716264939883811800,0.034,,,,0.138492342
1716264939891505819,0.036,,,,0.146186361
1716264939899199838,0.041,,,,0.15388038
1716264939906893857,0.046,,,,0.161574399
1716264939914587876,0.048,,,,0.169268418
1716264939922281895,0.048,,,,0.176962437
1716264939929975914,0.038,,,,0.184656456
1716264939937669933,0.038,,,,0.192350475
1716264939945363952,0.046,,,,0.200044494
1716264939953057971,0.046,,,,0.207738513
1716264939960751990,0.041,,,,0.215432532
1716264939968446009,0.043,,,,0.223126551
1716264939976140028,0.048,,,,0.23082057
1716264939983834047,0.053,,,,0.238514589
1716264939991528066,0.051,,,,0.246208608
1716264939999222085,0.048,,,,0.253902627
1716264940006916104,0.046,,,,0.261596646
1716264940014610123,0.048,,,,0.269290665
1716264940022304142,0.06,,,,0.276984684
1716264940029998161,0.068,,,,0.284678703
1716264940037692180,0.065,,,,0.292372722
1716264940045386199,0.065,,,,0.300066741
1716264940053080218,0.065,,,,0.30776076
1716264940060774237,0.063,,,,0.315454779
1716264940068468256,0.068,,,,0.323148798
1716264940076162275,0.072,,,,0.330842817
1716264940083856294,0.072,,,,0.338536836
1716264940091550313,0.07,,,,0.346230855
1716264940099244332,0.072,,,,0.353924874
1716264940106938351,0.075,,,,0.361618893
1716264940114632370,0.07,,,,0.369312912
1716264940122326389,0.072,,,,0.377006931
1716264940130020408,0.065,,,,0.38470095
1716264940137714427,0.055,,,,0.392394969
1716264940145408446,0.06,,,,0.400088988
1716264940153102465,0.063,,,,0.407783007
1716264940160796484,0.06,,,,0.415477026
1716264940168490503,0.06,,,,0.423171045
1716264940176184522,0.058,,,,0.430865064
1716264940183878541,0.055,,,,0.438559083
1716264940191572560,0.051,,,,0.446253102
1716264940199266579,0.048,,,,0.453947121
1716264940206960598,0.053,,,,0.46164114
1716264940214654617,0.07,,,,0.469335159
1716264940222348636,0.097,,,,0.477029178
1716264940230042655,0.104,,,,0.484723197
1716264940237736674,0.09,,,,0.492417216
1716264940245430693,0.077,,,,0.500111235
1716264940253124712,0.07,,,,0.507805254
1716264940260818731,0.068,,,,0.515499273
1716264940268512750,0.058,,,,0.523193292
1716264940276206769,0.043,,,,0.530887311
1716264940283900788,0.051,,,,0.53858133
1716264940291594807,0.06,,,,0.546275349
1716264940299288826,0.063,,,,0.553969368
1716264940306982904,0.058,66.0,,,0.561663446
1716264940314676784,0.055,,,,0.569357326
1716264940322370664,0.063,,,,0.577051206
1716264940330064544,0.065,,,,0.584745086
1716264940337758424,0.053,,,,0.592438966
1716264940345452304,0.036,,,,0.600132846
1716264940353146184,0.099,,,,0.607826726
1716264940360840064,0.391,,,,0.615520606
1716264940368533944,0.8290000000000001,,,,0.623214486
1716264940376227824,1.141,,,,0.630908366
1716264940383921704,0.895,,,,0.638602246
1716264940391615584,-0.072,,,,0.646296126
1716264940399309464,-0.72,,,,0.653990006
1716264940407003344,-0.35,,,,0.661683886
1716264940414697224,0.024,,,,0.669377766
1716264940422391104,-0.055,,907.0,,0.677071646
1716264940430084984,-0.041,,,,0.684765526
1716264940437778864,0.058,,,,0.692459406
1716264940445472744,0.034,,,,0.700153286
1716264940453166624,0.014,,,,0.707847166
1716264940460860504,0.055,,,,0.715541046
1716264940468554384,0.068,,,,0.723234926
1716264940476248264,0.063,,,,0.730928806
1716264940483942144,0.077,,,,0.738622686
1716264940491636024,0.094,,,,0.746316566
1716264940499329904,0.109,,,,0.754010446
1716264940507023784,0.126,,,,0.761704326
1716264940514717664,0.138,,,,0.769398206
1716264940522411544,0.158,,,,0.777092086
1716264940530105424,0.182,,,,0.784785966
1716264940537799304,0.211,,,,0.792479846
1716264940545493184,0.245,,,,0.800173726
1716264940553187064,0.277,,,,0.807867606
1716264940560880944,0.313,,,,0.815561486
1716264940568574824,0.36,,,,0.823255366
1716264940576268704,0.399,,,,0.830949246
1716264940583962584,0.425,,,,0.838643126
1716264940591656464,0.445,,,,0.846337006
1716264940599350344,0.457,,,,0.854030886
1716264940607044224,0.452,,,,0.861724766
1716264940614738104,0.406,,,,0.869418646
1716264940622431984,0.326,,,,0.877112526
1716264940630125864,0.226,,,,0.884806406
1716264940637819744,0.119,,,,0.892500286
1716264940645513624,0.026,,,,0.900194166
1716264940653207504,-0.024,,,,0.907888046
1716264940660901384,-0.058,,,,0.915581926
1716264940668595264,-0.092,,,,0.923275806
1716264940676289144,-0.109,,,,0.930969686
1716264940683983024,-0.104,,,,0.938663566
1716264940691676904,-0.099,,,,0.946357446
1716264940699370784,-0.094,,,,0.954051326
1716264940707064664,-0.085,,,,0.961745206
1716264940714758544,-0.08,,,,0.969439086
1716264940722452424,-0.072,,,,0.977132966
1716264940730146304,-0.058,,,,0.984826846
1716264940737840184,-0.053,,,,0.992520726
1716264940745534064,-0.058,,,,1.000214606
1716264940753227944,-0.058,,,,1.007908486
1716264940760921824,-0.048,,,,1.015602366
1716264940768615704,-0.038,,,,1.023296246
1716264940776309584,-0.036,,,,1.030990126
1716264940784003464,-0.036,,,,1.038684006
1716264940791697344,-0.036,,,,1.046377886
1716264940799391224,-0.024,,,,1.054071766
1716264940807085104,-0.014,,,,1.061765646
1716264940814778984,-0.017,,,,1.069459526
1716264940822472864,-0.002,,,,1.077153406
1716264940830166744,0.019,,,,1.084847286
1716264940837860624,0.017,,,,1.092541166
1716264940845554504,0.004,,,,1.100235046
1716264940853248384,0.014,,,,1.107928926
1716264940860942264,0.0291716265088588,0.08,70.0,,1.115622806
1716265088596354152,0.082,,,,148.851034694
1716265088604048102,0.08,,,,148.858728644
1716265088611742052,0.085,,,,148.866422594
1716265088619436002,0.082,,,,148.874116544
1716265088627129952,0.06,,,,148.881810494
1716265088634823902,0.124,,,,148.889504444
1716265088642517852,0.423,,,,148.897198394
1716265088650211802,0.858,,,,148.904892344
1716265088657905752,1.148,,,,148.912586294
1716265088665599702,0.912,,,,148.920280244
1716265088673293652,-0.041,,,,148.927974194
1716265088680987602,-0.751,,,,148.935668144
1716265088688681552,-0.408,,,,148.943362094
1716265088696375502,0.038,,,,148.951056044
1716265088704069452,-0.002,,,,148.958749994
1716265088711763402,0.009,,,,148.966443944
1716265088719457352,0.128,,,,148.974137894
1716265088727151302,0.111,,,,148.981831844
1716265088734845252,0.092,,,,148.989525794
1716265088742539202,0.136,,,,148.997219744
1716265088750233152,0.145,,,,149.004913694
1716265088757927102,0.138,,,,149.012607644
1716265088765621052,0.158,,,,149.020301594
1716265088773315002,0.177,,,,149.027995544
1716265088781008952,0.187,,,,149.035689494
1716265088788702902,0.201,,,,149.043383444
1716265088796396852,0.218,,,,149.051077394
1716265088804090802,0.233,,,,149.058771344
1716265088811784752,0.26,,,,149.066465294
1716265088819478702,0.296,,,,149.074159244
1716265088827172652,0.33,,,,149.081853194
1716265088834866602,0.369,,,,149.089547144
1716265088842560552,0.416,,,,149.097241094
1716265088850254502,0.457,,,,149.104935044
1716265088857948452,0.486,,,,149.112628994
1716265088865642402,0.506,,,,149.120322944
1716265088873336352,0.515,,,,149.128016894
1716265088881030302,0.515,,,,149.135710844
1716265088888724252,0.484,,,,149.143404794
1716265088896418202,0.413,,,,149.151098744
1716265088904112152,0.323,,,,149.158792694
1716265088911806102,0.231,,,,149.166486644
1716265088919500052,0.136,,,,149.174180594
1716265088927194002,0.055,,,,149.181874544
1716265088934887952,0.004,,,,149.189568494
1716265088942581902,-0.026,,,,149.197262444
1716265088950275852,-0.046,,,,149.204956394
1716265088957969802,-0.053,,,,149.212650344
1716265088965663752,-0.053,,,,149.220344294
1716265088973357702,-0.055,,,,149.228038244
1716265088981051652,-0.058,,,,149.235732194
1716265088988745602,-0.048,,,,149.243426144
1716265088996439552,-0.038,,,,149.251120094
1716265089004133502,-0.036,,,,149.258814044
1716265089011827452,-0.031,,,,149.266507994
1716265089019521402,-0.029,,,,149.274201944
1716265089027215352,-0.024,,,,149.281895894
1716265089034909302,-0.014,,854.0,,149.289589844
1716265089042603252,-0.009,,,,149.297283794
1716265089050297202,-0.014,,,,149.304977744
1716265089057991152,-0.012,,,,149.312671694
1716265089065685102,-0.004,,,,149.320365644
1716265089073379052,-0.004,,,,149.328059594
1716265089081073002,-0.002,,,,149.335753544
1716265089088766952,0.002,,,,149.343447494
1716265089096460902,0.004,,,,149.351141444
1716265089104154852,0.0,,,,149.358835394
1716265089111848802,0.004,,,,149.366529344
1716265089119542752,0.012,,,,149.374223294
1716265089127236702,0.009,,,,149.381917244
1716265089134930652,0.004,,,,149.389611194
1716265089142624602,0.007,,,,149.397305144
1716265089150318562,0.009,71.0,,,149.404999104
1716265089158012930,0.012,,,,149.412693472
1716265089165707298,0.009,,,,149.42038784
1716265089173401666,0.002,,,,149.428082208
1716265089181096034,0.004,,,,149.435776576
1716265089188790402,0.009,,,,149.443470944
1716265089196484770,0.004,,,,149.451165312
1716265089204179138,0.002,,,,149.45885968
1716265089211873506,0.007,,,,149.466554048
1716265089219567874,0.007,,,,149.474248416
1716265089227262242,0.004,,,,149.481942784
1716265089234956610,0.009,,,,149.489637152
1716265089242650978,0.014,,,,149.49733152
1716265089250345346,0.017,,,,149.505025888
1716265089258039714,0.019,,,,149.512720256
1716265089265734082,0.019,,,,149.520414624
1716265089273428450,0.021,,,,149.528108992
1716265089281122818,0.029,,,,149.53580336
1716265089288817186,0.031,,,,149.543497728
1716265089296511554,0.031,,,,149.551192096
1716265089304205922,0.024,,,,149.558886464
1716265089311900290,0.014,,,,149.566580832
1716265089319594658,0.012,,,,149.5742752
1716265089327289026,0.024,,,,149.581969568
1716265089334983394,0.041,,,,149.589663936
1716265089342677762,0.055,,,,149.597358304
1716265089350372130,0.07,,,,149.605052672
1716265089358066498,0.08,,,,149.61274704
1716265089365760866,0.077,,,,149.620441408
1716265089373455234,0.07,,,,149.628135776
1716265089381149602,0.068,,,,149.635830144
1716265089388843970,0.06,,,,149.643524512
1716265089396538338,0.051,,,,149.65121888
1716265089404232706,0.055,,,,149.658913248
1716265089411927074,0.06,,,,149.666607616
1716265089419621442,0.053,,,,149.674301984
1716265089427315810,0.048,,,,149.681996352
1716265089435010178,0.055,,,,149.68969072
1716265089442704546,0.058,,,,149.697385088
1716265089450398914,0.058,,,,149.705079456
1716265089458093282,0.046,,,,149.712773824
1716265089465787650,0.048,,,,149.720468192
1716265089473482018,0.204,,,,149.72816256
1716265089481176386,0.5690000000000001,,,,149.735856928
1716265089488870754,0.936,,,,149.743551296
1716265089496565122,1.056,,,,149.751245664
1716265089504259490,0.54,,,,149.758940032
1716265089511953858,-0.425,,,,149.7666344
1716265089519648226,-0.639,,,,149.774328768
1716265089527342594,-0.082,,,,149.782023136
1716265089535036962,0.097,,,,149.789717504
1716265089542731330,-0.029,,,,149.797411872
1716265089550425698,0.048,,,,149.80510624
1716265089558120066,0.102,,,,149.812800608
1716265089565814434,0.043,,,,149.820494976
1716265089573508802,0.065,,,,149.828189344
1716265089581203170,0.104,,,,149.835883712
1716265089588897538,0.09,,,,149.84357808
1716265089596591906,0.102,,,,149.851272448
1716265089604286274,0.131,,,,149.858966816
1716265089611980642,0.133,,,,149.866661184
1716265089619675010,0.138,,,,149.874355552
1716265089627369378,0.163,,,,149.88204992
1716265089635063746,0.182,,,,149.889744288
1716265089642758114,0.199,,,,149.897438656
1716265089650452482,0.226,,,,149.905133024
1716265089658146850,0.257,,,,149.912827392
1716265089665841218,0.289,,,,149.92052176
1716265089673535586,0.321,,,,149.928216128
1716265089681229954,0.355,,,,149.935910496
1716265089688924322,0.389,,,,149.943604864
1716265089696618690,0.42,,,,149.951299232
1716265089704313058,0.437,,,,149.9589936
1716265089712007438,0.44,,,,149.96668798
1716265089719701666,0.43,,,,149.974382208
1716265089727395894,0.396,,,,149.982076436
1716265089735090122,0.328,,,,149.989770664
1716265089742784350,0.24,,,,149.997464892
1716265089750478578,0.153,,,,150.00515912
1716265089758172806,0.077,,,,150.012853348
1716265089765867034,0.012,,,,150.020547576
1716265089773561262,-0.036,,,,150.028241804
1716265089781255490,-0.068,,,,150.035936032
1716265089788949718,-0.085,,,,150.04363026
1716265089796643946,-0.094,,,,150.051324488
1716265089804338174,-0.097,,,,150.059018716
1716265089812032402,-0.092,,,,150.066712944
1716265089819726630,-0.09,,,,150.074407172
1716265089827420858,-0.085,,,,150.0821014
1716265089835115086,-0.075,,,,150.089795628
1716265089842809314,-0.07,,,,150.097489856
1716265089850503542,-0.065,,,,150.105184084
1716265089858197770,-0.06,,,,150.112878312
1716265089865891998,-0.053,,,,150.12057254
1716265089873586226,-0.046,,,,150.128266768
1716265089881280454,-0.041,,,,150.135960996
1716265089888974682,-0.038,,,,150.143655224
1716265089896668910,-0.031,,,,150.151349452
1716265089904363138,-0.029,,,,150.15904368
1716265089912057366,-0.031,,,,150.166737908
1716265089919751594,-0.029,,880.0,,150.174432136
1716265089927445822,-0.026,,,,150.182126364
1716265089935140050,-0.026,,,,150.189820592
1716265089942834278,-0.026,,,,150.19751482
1716265089950528506,-0.029,,,,150.205209048
1716265089958222734,-0.024,,,,150.212903276
1716265089965916962,-0.019,,,,150.220597504
1716265089973611190,-0.019,,,,150.228291732
1716265089981305418,-0.017,,,,150.23598596
1716265089988999646,-0.012,,,,150.243680188
1716265089996693874,-0.012,,,,150.251374416
1716265090004388102,-0.017,,,,150.259068644
1716265090012082330,-0.014,,,,150.266762872
1716265090019776558,-0.009,,,,150.2744571
1716265090027470786,-0.007,,,,150.282151328
1716265090035165014,-0.004,,,,150.289845556
1716265090042859242,-0.007,,,,150.297539784
1716265090050553470,-0.004,,,,150.305234012
1716265090058247698,-0.002,,,,150.31292824
1716265090065941926,-0.007,,,,150.320622468
1716265090073636154,-0.012,,,,150.328316696
1716265090081330382,-0.004,,,,150.336010924
1716265090089024610,-0.002,,,,150.343705152
1716265090096718838,-0.007,,,,150.35139938
1716265090104413066,-0.004,,,,150.359093608
1716265090112107294,0.004,,,,150.366787836
1716265090119801522,0.007,,,,150.374482064
1716265090127495750,0.004,,,,150.382176292
1716265090135189978,0.007,,,,150.38987052
1716265090142884206,0.012,,,,150.397564748
1716265090150578434,0.014,,,,150.405258976
1716265090158272662,0.009,,,,150.412953204
1716265090165966890,0.007,,,,150.420647432
1716265090173661118,0.007,,,,150.42834166
1716265090181355346,-0.012,,,,150.436035888
1716265090189049574,-0.029,,,,150.443730116
1716265090196743802,-0.014,,,,150.451424344
1716265090204438030,0.009,,,,150.459118572
1716265090212132258,0.029,,,,150.4668128
1716265090219826486,0.043,,,,150.474507028
1716265090227520714,0.051,,,,150.482201256
1716265090235214942,0.041,,,,150.489895484
1716265090242909170,0.034,,,,150.497589712
1716265090250603398,0.029,,,,150.50528394
1716265090258297626,0.014,,,,150.512978168
1716265090265991854,0.004,,,,150.520672396
1716265090273686142,0.014,70.0,,,150.528366684
1716265090281380231,0.021,,,,150.536060773
1716265090289074320,0.021,,,,150.543754862
1716265090296768409,0.024,,,,150.551448951
1716265090304462498,0.024,,,,150.55914304
1716265090312156587,0.029,,,,150.566837129
1716265090319850676,0.031,,,,150.574531218
1716265090327544765,0.019,,,,150.582225307
1716265090335238854,0.002,,,,150.589919396
1716265090342932943,0.102,,,,150.597613485
1716265090350627032,0.408,,,,150.605307574
1716265090358321121,0.773,,,,150.613001663
1716265090366015210,0.968,,,,150.620695752
1716265090373709299,0.635,,,,150.628389841
1716265090381403388,-0.289,,,,150.63608393
1716265090389097477,-0.729,,,,150.643778019
1716265090396791566,-0.245,,,,150.651472108
1716265090404485655,0.058,,,,150.659166197
1716265090412179744,-0.065,,,,150.666860286
1716265090419873833,-0.029,,,,150.674554375
1716265090427567922,0.063,,,,150.682248464
1716265090435262011,0.026,,,,150.689942553
1716265090442956100,0.029,,,,150.697636642
1716265090450650189,0.072,,,,150.705330731
1716265090458344278,0.072,,,,150.71302482
1716265090466038367,0.065,,,,150.720718909
1716265090473732456,0.087,,,,150.728412998
1716265090481426545,0.102,,,,150.736107087
1716265090489120634,0.109,,,,150.743801176
1716265090496814723,0.128,,,,150.751495265
1716265090504508812,0.15,,,,150.759189354
1716265090512202901,0.17,,,,150.766883443
1716265090519896990,0.194,,,,150.774577532
1716265090527591079,0.226,,,,150.782271621
1716265090535285168,0.257,,,,150.78996571
1716265090542979257,0.291,,,,150.797659799
1716265090550673346,0.328,,,,150.805353888
1716265090558367435,0.367,,,,150.813047977
1716265090566061524,0.396,,,,150.820742066
1716265090573755613,0.413,,,,150.828436155
1716265090581449702,0.416,,,,150.836130244
1716265090589143791,0.411,,,,150.843824333
1716265090596837880,0.389,,,,150.851518422
1716265090604531969,0.328,,,,150.859212511
1716265090612226058,0.245,,,,150.8669066
1716265090619920147,0.163,,,,150.874600689
1716265090627614236,0.085,,,,150.882294778
1716265090635308325,0.021,,,,150.889988867
1716265090643002414,-0.026,,,,150.897682956
1716265090650696503,-0.063,,,,150.905377045
1716265090658390592,-0.087,,,,150.913071134
1716265090666084681,-0.094,,,,150.920765223
1716265090673778770,-0.094,,,,150.928459312
1716265090681472859,-0.09,,,,150.936153401
1716265090689166948,-0.085,,,,150.94384749
1716265090696861037,-0.087,,,,150.951541579
1716265090704555126,-0.08,,,,150.959235668
1716265090712249215,-0.068,,,,150.966929757
1716265090719943304,-0.06,,,,150.974623846
1716265090727637393,-0.058,,,,150.982317935
1716265090735331482,-0.051,,,,150.990012024
1716265090743025571,-0.043,,,,150.997706113
1716265090750719660,-0.043,,,,151.005400202
1716265090758413749,-0.041,,,,151.013094291
1716265090766107838,-0.034,,,,151.02078838
1716265090773801927,-0.026,,,,151.028482469
1716265090781496016,-0.021,,,,151.036176558
1716265090789190105,-0.024,,,,151.043870647
1716265090796884194,-0.021,,,,151.051564736
1716265090804578283,-0.014,,884.0,,151.059258825
1716265090812272372,-0.012,,,,151.066952914
1716265090819966461,-0.014,,,,151.074647003
1716265090827660550,-0.014,,,,151.082341092
1716265090835354672,-0.014,,,,151.090035214
1716265090843048761,-0.019,,,,151.097729303
1716265090850742850,-0.017,,,,151.105423392
1716265090858436939,-0.009,,,,151.113117481
1716265090866131028,-0.009,,,,151.12081157
1716265090873825117,-0.012,,,,151.128505659
1716265090881519206,-0.009,,,,151.136199748
1716265090889213295,-0.007,,,,151.143893837
1716265090896907384,-0.019,,,,151.151587926
1716265090904601473,-0.029,,,,151.159282015
1716265090912295562,-0.026,,,,151.166976104
1716265090919989651,-0.019,,,,151.174670193
1716265090927683740,-0.021,,,,151.182364282
1716265090935377829,-0.029,,,,151.190058371
1716265090943071918,-0.026,,,,151.19775246
1716265090950766007,-0.017,,,,151.205446549
1716265090958460096,-0.014,,,,151.213140638
1716265090966154185,-0.017,,,,151.220834727
1716265090973848274,-0.012,,,,151.228528816
1716265090981542363,-0.002,,,,151.236222905
1716265090989236452,0.002,,,,151.243916994
1716265090996930541,0.0,,,,151.251611083
1716265091004624630,0.0,,,,151.259305172
1716265091012318719,0.007,,,,151.266999261
1716265091020012808,0.012,,,,151.27469335
1716265091027706897,0.009,,,,151.282387439
1716265091035400986,0.017,,,,151.290081528
1716265091043095075,0.024,,,,151.297775617
1716265091050789164,0.026,,,,151.305469706
1716265091058483253,0.029,,,,151.313163795
1716265091066177342,0.029,,,,151.320857884
1716265091073871431,0.031,,,,151.328551973
1716265091081565520,0.031,,,,151.336246062
1716265091089259609,0.021,,,,151.343940151
1716265091096953698,0.009,,,,151.35163424
1716265091104647787,0.002,,,,151.359328329
1716265091112341876,0.009,,,,151.367022418
1716265091120035965,0.029,,,,151.374716507
1716265091127730054,0.053,,,,151.382410596
1716265091135424143,0.065,,,,151.390104685
1716265091143118232,0.068,,,,151.397798774
1716265091150812321,0.063,,,,151.405492863
1716265091158506410,0.06,,,,151.413186952
1716265091166200499,0.058,,,,151.420881041
1716265091173894588,0.046,,,,151.42857513
1716265091181588677,0.034,,,,151.436269219
1716265091189282766,0.038,,,,151.443963308
1716265091196976855,0.046,,,,151.451657397
1716265091204670944,0.043,,,,151.459351486
1716265091212365033,0.046,,,,151.467045575
1716265091220059122,0.055,,,,151.474739664
1716265091227753211,0.06,,,,151.482433753
1716265091235447300,0.063,,,,151.490127842
1716265091243141389,0.06,,,,151.497821931
1716265091250835478,0.043,,,,151.50551602
1716265091258529567,0.072,,,,151.513210109
1716265091266223656,0.284,,,,151.520904198
1716265091273917745,0.652,,,,151.528598287
1716265091281611834,0.961,,,,151.536292376
1716265091289305923,0.912,,,,151.543986465
1716265091297000012,0.18,,,,151.551680554
1716265091304694101,-0.608,,,,151.559374643
1716265091312388190,-0.455,,,,151.567068732
1716265091320082279,0.036,,,,151.574762821
1716265091327776368,0.041,,,,151.58245691
1716265091335470457,-0.017,,,,151.590150999
1716265091343164546,0.092,,,,151.597845088
1716265091350858635,0.099,,,,151.605539177
1716265091358552724,0.058,,,,151.613233266
1716265091366246813,0.097,,,,151.620927355
1716265091373940902,0.124,,,,151.628621444
1716265091381634991,0.111,,,,151.636315533
1716265091389329080,0.116,,,,151.644009622
1716265091397023204,0.131,70.0,,,151.651703746
1716265091404717432,0.141,,,,151.659397974
1716265091412411660,0.155,,,,151.667092202
1716265091420105888,0.17,,,,151.67478643
1716265091427800116,0.187,,,,151.682480658
1716265091435494344,0.209,,,,151.690174886
1716265091443188572,0.231,,,,151.697869114
1716265091450882800,0.255,,,,151.705563342
1716265091458577028,0.289,,,,151.71325757
1716265091466271256,0.326,,,,151.720951798
1716265091473965484,0.355,,,,151.728646026
1716265091481659712,0.379,,,,151.736340254
1716265091489353940,0.406,,,,151.744034482
1716265091497048168,0.43,,,,151.75172871
1716265091504742396,0.433,,,,151.759422938
1716265091512436624,0.416,,,,151.767117166
1716265091520130852,0.379,,,,151.774811394
1716265091527825080,0.311,,,,151.782505622
1716265091535519308,0.221,,,,151.79019985
1716265091543213536,0.133,,,,151.797894078
1716265091550907764,0.063,,,,151.805588306
1716265091558601992,0.009,,,,151.813282534
1716265091566296220,-0.036,,,,151.820976762
1716265091573990448,-0.055,,,,151.82867099
1716265091581684676,-0.06,,,,151.836365218
1716265091589378904,-0.072,,,,151.844059446
1716265091597073132,-0.08,,,,151.851753674
1716265091604767360,-0.075,,,,151.859447902
1716265091612461588,-0.068,,,,151.86714213
1716265091620155816,-0.068,,819.0,,151.874836358
1716265091627850044,-0.06,,,,151.882530586
1716265091635544272,-0.053,,,,151.890224814
1716265091643238500,-0.051,,,,151.897919042
1716265091650932728,-0.046,,,,151.90561327
1716265091658626956,-0.041,,,,151.913307498
1716265091666321184,-0.041,,,,151.921001726
1716265091674015412,-0.036,,,,151.928695954
1716265091681709640,-0.034,,,,151.936390182
1716265091689403868,-0.029,,,,151.94408441
1716265091697098096,-0.024,,,,151.951778638
1716265091704792324,-0.029,,,,151.959472866
1716265091712486552,-0.034,,,,151.967167094
1716265091720180780,-0.031,,,,151.974861322
1716265091727875008,-0.026,,,,151.98255555
1716265091735569236,-0.024,,,,151.990249778
1716265091743263464,-0.024,,,,151.997944006
1716265091750957692,-0.024,,,,152.005638234
1716265091758651920,-0.019,,,,152.013332462
1716265091766346148,-0.014,,,,152.02102669
1716265091774040376,-0.012,,,,152.028720918
1716265091781734604,-0.012,,,,152.036415146
1716265091789428832,-0.012,,,,152.044109374
1716265091797123060,-0.009,,,,152.051803602
1716265091804817288,-0.012,,,,152.05949783
1716265091812511516,-0.014,,,,152.067192058
1716265091820205744,-0.012,,,,152.074886286
1716265091827899972,-0.004,,,,152.082580514
1716265091835594200,0.0,,,,152.090274742
1716265091843288428,0.0,,,,152.09796897
1716265091850982656,0.0,,,,152.105663198
1716265091858676884,0.002,,,,152.113357426
1716265091866371112,0.0,,,,152.121051654
1716265091874065340,0.002,,,,152.128745882
1716265091881759568,0.002,,,,152.13644011
1716265091889453796,-0.002,,,,152.144134338
1716265091897148024,0.0,,,,152.151828566
1716265091904842252,0.004,,,,152.159522794
1716265091912536480,0.007,,,,152.167217022
1716265091920230708,0.009,,,,152.17491125
1716265091927924936,0.014,,,,152.182605478
1716265091935619164,0.019,,,,152.190299706
1716265091943313392,0.019,,,,152.197993934
1716265091951007620,0.019,,,,152.205688162
1716265091958701906,0.021,,,,152.213382448
1716265091966396274,0.029,,,,152.221076816
1716265091974090642,0.031,,,,152.228771184
1716265091981785010,0.029,,,,152.236465552
1716265091989479378,0.026,,,,152.24415992
1716265091997173746,0.031,,,,152.251854288
1716265092004868114,0.034,,,,152.259548656
1716265092012562482,0.026,,,,152.267243024
1716265092020256850,0.021,,,,152.274937392
1716265092027951218,0.031,,,,152.28263176
1716265092035645586,0.031,,,,152.290326128
1716265092043339954,0.014,,,,152.298020496
1716265092051034322,0.0,,,,152.305714864
1716265092058728690,0.007,,,,152.313409232
1716265092066423058,0.026,,,,152.3211036
1716265092074117426,0.048,,,,152.328797968
1716265092081811794,0.068,,,,152.336492336
1716265092089506162,0.072,,,,152.344186704
1716265092097200530,0.055,,,,152.351881072
1716265092104894898,0.036,,,,152.35957544
1716265092112589266,0.036,,,,152.367269808
1716265092120283634,0.036,,,,152.374964176
1716265092127978002,0.012,,,,152.382658544
1716265092135672370,0.004,,,,152.390352912
1716265092143366738,0.026,,,,152.39804728
1716265092151061106,0.034,,,,152.405741648
1716265092158755474,0.026,,,,152.413436016
1716265092166449842,0.029,,,,152.421130384
1716265092174144210,0.036,,,,152.428824752
1716265092181838578,0.041,,,,152.43651912
1716265092189532946,0.041,,,,152.444213488
1716265092197227314,0.029,,,,152.451907856
1716265092204921682,0.06,,,,152.459602224
1716265092212616050,0.279,,,,152.467296592
1716265092220310418,0.649,,,,152.47499096
1716265092228004786,0.958,,,,152.482685328
1716265092235699154,0.893,,,,152.490379696
1716265092243393522,0.141,,,,152.498074064
1716265092251087890,-0.637,,,,152.505768432
1716265092258782258,-0.472,,,,152.5134628
1716265092266476626,0.012,,,,152.521157168
1716265092274170994,0.024,,,,152.528851536
1716265092281865362,-0.024,,,,152.536545904
1716265092289559730,0.077,,,,152.544240272
1716265092297254098,0.085,,,,152.55193464
1716265092304948466,0.048,,,,152.559629008
1716265092312642834,0.077,,,,152.567323376
1716265092320337202,0.097,,,,152.575017744
1716265092328031570,0.092,,,,152.582712112
1716265092335725938,0.104,,,,152.59040648
1716265092343420306,0.116,,,,152.598100848
1716265092351114674,0.124,,,,152.605795216
1716265092358809042,0.138,,,,152.613489584
1716265092366503410,0.155,,,,152.621183952
1716265092374197778,0.17,,,,152.62887832
1716265092381892146,0.189,,,,152.636572688
1716265092389586514,0.214,,,,152.644267056
1716265092397280882,0.243,,,,152.651961424
1716265092404975250,0.272,,,,152.659655792
1716265092412669618,0.313,,,,152.66735016
1716265092420363986,0.357,,,,152.675044528
1716265092428058354,0.386,,,,152.682738896
1716265092435752722,0.411,,,,152.690433264
1716265092443447090,0.433,,,,152.698127632
1716265092451141458,0.437,,835.0,,152.705822
1716265092458835826,0.418,,,,152.713516368
1716265092466530194,0.372,,,,152.721210736
1716265092474224562,0.301,,,,152.728905104
1716265092481918930,0.216,,,,152.736599472
1716265092489613298,0.131,,,,152.74429384
1716265092497307666,0.055,,,,152.751988208
1716265092505002034,-0.002,,,,152.759682576
1716265092512696402,-0.046,,,,152.767376944
1716265092520390782,-0.08,70.0,,,152.775071324
1716265092528084732,-0.094,,,,152.782765274
1716265092535778682,-0.097,,,,152.790459224
1716265092543472632,-0.102,,,,152.798153174
1716265092551166582,-0.107,,,,152.805847124
1716265092558860532,-0.109,,,,152.813541074
1716265092566554482,-0.107,,,,152.821235024
1716265092574248432,-0.107,,,,152.828928974
1716265092581942382,-0.104,,,,152.836622924
1716265092589636332,-0.097,,,,152.844316874
1716265092597330282,-0.087,,,,152.852010824
1716265092605024232,-0.09,,,,152.859704774
1716265092612718182,-0.092,,,,152.867398724
1716265092620412132,-0.087,,,,152.875092674
1716265092628106082,-0.08,,,,152.882786624
1716265092635800032,-0.075,,,,152.890480574
1716265092643493982,-0.07,,,,152.898174524
1716265092651187932,-0.068,,,,152.905868474
1716265092658881882,-0.058,,,,152.913562424
1716265092666575832,-0.046,,,,152.921256374
1716265092674269782,-0.041,,,,152.928950324
1716265092681963732,-0.043,,,,152.936644274
1716265092689657682,-0.038,,,,152.944338224
1716265092697351632,-0.026,,,,152.952032174
1716265092705045582,-0.024,,,,152.959726124
1716265092712739532,-0.026,,,,152.967420074
1716265092720433482,-0.017,,,,152.975114024
1716265092728127432,-0.014,,,,152.982807974
1716265092735821382,-0.019,,,,152.990501924
1716265092743515332,-0.017,,,,152.998195874
1716265092751209282,-0.009,,,,153.005889824
1716265092758903232,-0.004,,,,153.013583774
1716265092766597182,-0.012,,,,153.021277724
1716265092774291132,-0.009,,,,153.028971674
1716265092781985082,0.002,,,,153.036665624
1716265092789679032,0.007,,,,153.044359574
1716265092797372982,0.0,,,,153.052053524
1716265092805066932,0.0,,,,153.059747474
1716265092812760882,0.007,,,,153.067441424
1716265092820454832,0.007,,,,153.075135374
1716265092828148782,0.004,,,,153.082829324
1716265092835842732,0.014,,,,153.090523274
1716265092843536682,0.026,,,,153.098217224
1716265092851230632,0.031,,,,153.105911174
1716265092858924582,0.024,,,,153.113605124
1716265092866618532,0.017,,,,153.121299074
1716265092874312482,0.024,,,,153.128993024
1716265092882006432,0.034,,,,153.136686974
1716265092889700382,0.029,,,,153.144380924
1716265092897394332,0.024,,,,153.152074874
1716265092905088282,0.031,,,,153.159768824
1716265092912782232,0.034,,,,153.167462774
1716265092920476182,0.036,,,,153.175156724
1716265092928170132,0.036,,,,153.182850674
1716265092935864082,0.031,,,,153.190544624
1716265092943558032,0.036,,,,153.198238574
1716265092951251982,0.041,,,,153.205932524
1716265092958945932,0.038,,,,153.213626474
1716265092966639882,0.026,,,,153.221320424
1716265092974333832,0.024,,,,153.229014374
1716265092982027782,0.034,,,,153.236708324
1716265092989721732,0.063,,,,153.244402274
1716265092997415682,0.087,,,,153.252096224
1716265093005109632,0.082,,,,153.259790174
1716265093012803582,0.07,,,,153.267484124
1716265093020497532,0.065,,,,153.275178074
1716265093028191482,0.058,,,,153.282872024
1716265093035885432,0.043,,,,153.290565974
1716265093043579382,0.031,,,,153.298259924
1716265093051273332,0.031,,,,153.305953874
1716265093058967282,0.038,,,,153.313647824
1716265093066661232,0.038,,,,153.321341774
1716265093074355182,0.043,,,,153.329035724
1716265093082049142,0.048,,,,153.336729684
1716265093089743649,0.046,,,,153.344424191
1716265093097438156,0.043,,,,153.352118698
1716265093105132663,0.034,,,,153.359813205
1716265093112827170,0.012,,,,153.367507712
1716265093120521677,0.063,,,,153.375202219
1716265093128216184,0.333,,,,153.382896726
1716265093135910691,0.754,,,,153.390591233
1716265093143605198,1.056,,,,153.39828574
1716265093151299705,0.866,,,,153.405980247
1716265093158994212,-0.026,,,,153.413674754
1716265093166688719,-0.756,,,,153.421369261
1716265093174383226,-0.493,,,,153.429063768
1716265093182077733,-0.058,,,,153.436758275
1716265093189772240,-0.063,,,,153.444452782
1716265093197466747,-0.048,,,,153.452147289
1716265093205161254,0.065,,,,153.459841796
1716265093212855761,0.053,,,,153.467536303
1716265093220550268,0.029,,,,153.47523081
1716265093228244775,0.07,,,,153.482925317
1716265093235939282,0.085,,,,153.490619824
1716265093243633789,0.082,,,,153.498314331
1716265093251328296,0.099,,,,153.506008838
1716265093259022803,0.121,,,,153.513703345
1716265093266717310,0.136,,,,153.521397852
1716265093274411817,0.148,,,,153.529092359
1716265093282106324,0.158,,,,153.536786866
1716265093289800831,0.182,,,,153.544481373
1716265093297495338,0.211,,,,153.55217588
1716265093305189845,0.236,,,,153.559870387
1716265093312884352,0.27,,,,153.567564894
1716265093320578859,0.311,,,,153.575259401
1716265093328273366,0.345,,871.0,,153.582953908
1716265093335967873,0.379,,,,153.590648415
1716265093343662380,0.411,,,,153.598342922
1716265093351356887,0.433,,,,153.606037429
1716265093359051394,0.435,,,,153.613731936
1716265093366745901,0.42,,,,153.621426443
1716265093374440408,0.396,,,,153.62912095
1716265093382134915,0.35,,,,153.636815457
1716265093389829422,0.272,,,,153.644509964
1716265093397523929,0.17,,,,153.652204471
1716265093405218436,0.082,,,,153.659898978
1716265093412912943,0.014,,,,153.667593485
1716265093420607450,-0.046,,,,153.675287992
1716265093428301957,-0.087,,,,153.682982499
1716265093435996464,-0.102,,,,153.690677006
1716265093443690971,-0.107,,,,153.698371513
1716265093451385478,-0.109,,,,153.70606602
1716265093459079985,-0.107,,,,153.713760527
1716265093466774492,-0.099,,,,153.721455034
1716265093474468999,-0.094,,,,153.729149541
1716265093482163506,-0.092,,,,153.736844048
1716265093489858013,-0.085,,,,153.744538555
1716265093497552520,-0.077,,,,153.752233062
1716265093505247027,-0.072,,,,153.759927569
1716265093512941534,-0.063,,,,153.767622076
1716265093520636041,-0.053,,,,153.775316583
1716265093528330548,-0.046,,,,153.78301109
1716265093536025055,-0.041,,,,153.790705597
1716265093543719562,-0.036,,,,153.798400104
1716265093551414069,-0.031,,,,153.806094611
1716265093559108576,-0.026,,,,153.813789118
1716265093566803083,-0.019,,,,153.821483625
1716265093574497590,-0.009,,,,153.829178132
1716265093582192097,-0.007,,,,153.836872639
1716265093589886604,-0.002,,,,153.844567146
1716265093597581111,0.0,,,,153.852261653
1716265093605275618,-0.002,,,,153.85995616
1716265093612970125,-0.012,,,,153.867650667
1716265093620664632,-0.017,,,,153.875345174
1716265093628359139,-0.012,,,,153.883039681
1716265093636053646,-0.004,,,,153.890734188
1716265093643748190,-0.002,70.0,,,153.898428732
1716265093651442209,-0.004,,,,153.906122751
1716265093659136228,-0.004,,,,153.91381677
1716265093666830247,-0.004,,,,153.921510789
1716265093674524266,0.0,,,,153.929204808
1716265093682218285,0.004,,,,153.936898827
1716265093689912304,0.002,,,,153.944592846
1716265093697606323,-0.002,,,,153.952286865
1716265093705300342,-0.002,,,,153.959980884
1716265093712994361,0.004,,,,153.967674903
1716265093720688380,0.007,,,,153.975368922
1716265093728382399,0.002,,,,153.983062941
1716265093736076418,0.002,,,,153.99075696
1716265093743770437,0.009,,,,153.998450979
1716265093751464456,0.007,,,,154.006144998
1716265093759158475,0.009,,,,154.013839017
1716265093766852494,0.012,,,,154.021533036
1716265093774546513,0.009,,,,154.029227055
1716265093782240532,0.009,,,,154.036921074
1716265093789934551,0.017,,,,154.044615093
1716265093797628570,0.017,,,,154.052309112
1716265093805322589,0.014,,,,154.060003131
1716265093813016608,0.017,,,,154.06769715
1716265093820710627,0.024,,,,154.075391169
1716265093828404646,0.029,,,,154.083085188
1716265093836098665,0.029,,,,154.090779207
1716265093843792684,0.029,,,,154.098473226
1716265093851486703,0.029,,,,154.106167245
1716265093859180722,0.026,,,,154.113861264
1716265093866874741,0.024,,,,154.121555283
1716265093874568760,0.014,,,,154.129249302
1716265093882262779,0.009,,,,154.136943321
1716265093889956798,0.024,,,,154.14463734
1716265093897650817,0.048,,,,154.152331359
1716265093905344836,0.063,,,,154.160025378
1716265093913038855,0.072,,,,154.167719397
1716265093920732874,0.072,,,,154.175413416
1716265093928426893,0.063,,,,154.183107435
1716265093936120912,0.06,,,,154.190801454
1716265093943814931,0.055,,,,154.198495473
1716265093951508950,0.041,,,,154.206189492
1716265093959202969,0.036,,,,154.213883511
1716265093966896988,0.046,,,,154.22157753
1716265093974591007,0.051,,,,154.229271549
1716265093982285026,0.048,,,,154.236965568
1716265093989979045,0.048,,,,154.244659587
1716265093997673064,0.051,,,,154.252353606
1716265094005367083,0.058,,,,154.260047625
1716265094013061102,0.058,,,,154.267741644
1716265094020755121,0.043,,,,154.275435663
1716265094028449140,0.06,,,,154.283129682
1716265094036143159,0.248,,,,154.290823701
1716265094043837178,0.615,,,,154.29851772
1716265094051531197,0.958,,,,154.306211739
1716265094059225216,1.017,,,,154.313905758
1716265094066919235,0.391,,,,154.321599777
1716265094074613254,-0.525,,,,154.329293796
1716265094082307273,-0.562,,,,154.336987815
1716265094090001292,-0.017,,,,154.344681834
1716265094097695311,0.063,,,,154.352375853
1716265094105389330,-0.046,,,,154.360069872
1716265094113083349,0.055,,,,154.367763891
1716265094120777368,0.094,,,,154.37545791
1716265094128471387,0.036,,,,154.383151929
1716265094136165406,0.06,,,,154.390845948
1716265094143859425,0.09,,,,154.398539967
1716265094151553444,0.077,,,,154.406233986
1716265094159247463,0.085,,,,154.413928005
1716265094166941482,0.109,,,,154.421622024
1716265094174635501,0.116,,,,154.429316043
1716265094182329520,0.128,,,,154.437010062
1716265094190023539,0.145,,,,154.444704081
1716265094197717558,0.167,,,,154.4523981
1716265094205411636,0.189,70.0,,,154.460092178
1716265094213105795,0.216,,,,154.467786337
1716265094220799954,0.243,,,,154.475480496
1716265094228494113,0.27,,,,154.483174655
1716265094236188272,0.306,,,,154.490868814
1716265094243882431,0.343,,919.0,,154.498562973
1716265094251576590,0.369,,,,154.506257132
1716265094259270749,0.394,,,,154.513951291
1716265094266964908,0.403,,,,154.52164545
1716265094274659067,0.408,,,,154.529339609
1716265094282353226,0.403,,,,154.537033768
1716265094290047385,0.369,,,,154.544727927
1716265094297741544,0.294,,,,154.552422086
1716265094305435703,0.204,,,,154.560116245
1716265094313129862,0.124,,,,154.567810404
1716265094320824021,0.051,,,,154.575504563
1716265094328518180,-0.012,,,,154.583198722
1716265094336212339,-0.053,,,,154.590892881
1716265094343906498,-0.08,,,,154.59858704
1716265094351600657,-0.094,,,,154.606281199
1716265094359294816,-0.097,,,,154.613975358
1716265094366988975,-0.094,,,,154.621669517
1716265094374683134,-0.09,,,,154.629363676
1716265094382377293,-0.087,,,,154.637057835
1716265094390071452,-0.082,,,,154.644751994
1716265094397765611,-0.07,,,,154.652446153
1716265094405459770,-0.063,,,,154.660140312
1716265094413153929,-0.06,,,,154.667834471
1716265094420848088,-0.055,,,,154.67552863
1716265094428542247,-0.046,,,,154.683222789
1716265094436236406,-0.041,,,,154.690916948
1716265094443930565,-0.041,,,,154.698611107
1716265094451624724,-0.036,,,,154.706305266
1716265094459318883,-0.024,,,,154.713999425
1716265094467013042,-0.019,,,,154.721693584
1716265094474707201,-0.019,,,,154.729387743
1716265094482401360,-0.014,,,,154.737081902
1716265094490095519,-0.004,,,,154.744776061
1716265094497789678,-0.002,,,,154.75247022
1716265094505483837,0.0,,,,154.760164379
1716265094513177996,0.009,,,,154.767858538
1716265094520872155,0.012,,,,154.775552697
1716265094528566314,0.014,,,,154.783246856
1716265094536260473,0.019,,,,154.790941015
1716265094543954632,0.021,,,,154.798635174
1716265094551648791,0.024,,,,154.806329333
1716265094559342950,0.024,,,,154.814023492
1716265094567037109,0.024,,,,154.821717651
1716265094574731268,0.021,,,,154.82941181
1716265094582425427,0.026,,,,154.837105969
1716265094590119586,0.026,,,,154.844800128
1716265094597813745,0.021,,,,154.852494287
1716265094605507904,0.024,,,,154.860188446
1716265094613202063,0.031,,,,154.867882605
1716265094620896222,0.024,,,,154.875576764
1716265094628590381,0.012,,,,154.883270923
1716265094636284540,0.019,,,,154.890965082
1716265094643978699,0.029,,,,154.898659241
1716265094651672858,0.026,,,,154.9063534
1716265094659367017,0.024,,,,154.914047559
1716265094667061176,0.026,,,,154.921741718
1716265094674755335,0.029,,,,154.929435877
1716265094682449494,0.029,,,,154.937130036
1716265094690143653,0.029,,,,154.944824195
1716265094697837812,0.031,,,,154.952518354
1716265094705531971,0.034,,,,154.960212513
1716265094713226130,0.034,,,,154.967906672
1716265094720920289,0.034,,,,154.975600831
1716265094728614448,0.036,,,,154.98329499
1716265094736308607,0.036,,,,154.990989149
1716265094744002766,0.038,,,,154.998683308
1716265094751696925,0.041,,,,155.006377467
1716265094759391084,0.041,,,,155.014071626
1716265094767085252,0.043,,,,155.021765794
1716265094774779620,0.043,,,,155.029460162
1716265094782473988,0.043,,,,155.03715453
1716265094790168356,0.036,,,,155.044848898
1716265094797862724,0.021,,,,155.052543266
1716265094805557092,0.012,,,,155.060237634
1716265094813251460,0.026,,,,155.067932002
1716265094820945828,0.058,,,,155.07562637
1716265094828640196,0.075,,,,155.083320738
1716265094836334564,0.072,,,,155.091015106
1716265094844028932,0.06,,,,155.098709474
1716265094851723300,0.055,,,,155.106403842
1716265094859417668,0.055,,,,155.11409821
1716265094867112036,0.043,,,,155.121792578
1716265094874806404,0.026,,,,155.129486946
1716265094882500772,0.031,,,,155.137181314
1716265094890195140,0.038,,,,155.144875682
1716265094897889508,0.036,,,,155.15257005
1716265094905583876,0.038,,,,155.160264418
1716265094913278244,0.043,,,,155.167958786
1716265094920972612,0.043,,,,155.175653154
1716265094928666980,0.046,,,,155.183347522
1716265094936361348,0.051,,,,155.19104189
1716265094944055716,0.038,,,,155.198736258
1716265094951750084,0.08,,,,155.206430626
1716265094959444452,0.318,,,,155.214124994
1716265094967138820,0.6880000000000001,,,,155.221819362
1716265094974833188,0.968,,,,155.22951373
1716265094982527556,0.849,,,,155.237208098
1716265094990221924,0.055,,,,155.244902466
1716265094997916292,-0.659,,,,155.252596834
1716265095005610660,-0.408,,,,155.260291202
1716265095013305028,0.043,,,,155.26798557
1716265095020999396,0.007,,,,155.275679938
1716265095028693764,-0.026,,,,155.283374306
1716265095036388132,0.08,,,,155.291068674
1716265095044082500,0.068,,,,155.298763042
1716265095051776868,0.041,,,,155.30645741
1716265095059471236,0.085,,,,155.314151778
1716265095067165604,0.097,,,,155.321846146
1716265095074859972,0.085,,,,155.329540514
1716265095082554340,0.092,,,,155.337234882
1716265095090248708,0.107,,,,155.34492925
1716265095097943076,0.116,,,,155.352623618
1716265095105637444,0.131,,,,155.360317986
1716265095113331812,0.148,,,,155.368012354
1716265095121026180,0.16,,,,155.375706722
1716265095128720548,0.167,,,,155.38340109
1716265095136414916,0.184,,,,155.391095458
1716265095144109284,0.216,,,,155.398789826
1716265095151803652,0.25,,,,155.406484194
1716265095159498020,0.284,,,,155.414178562
1716265095167192388,0.313,,,,155.42187293
1716265095174886756,0.343,,,,155.429567298
1716265095182581124,0.369,,,,155.437261666
1716265095190275492,0.389,,946.0,,155.444956034
1716265095197969860,0.391,,,,155.452650402
1716265095205664228,0.377,,,,155.46034477
1716265095213358596,0.335,,,,155.468039138
1716265095221052964,0.26,,,,155.475733506
1716265095228747332,0.172,,,,155.483427874
1716265095236441700,0.092,,,,155.491122242
1716265095244136068,0.024,,,,155.49881661
1716265095251830436,-0.029,,,,155.506510978
1716265095259524804,-0.065,,,,155.514205346
1716265095267219172,-0.087,,,,155.521899714
1716265095274913540,-0.097,,,,155.529594082
1716265095282607908,-0.102,,,,155.53728845
1716265095290302276,-0.102,,,,155.544982818
1716265095297996644,-0.094,,,,155.552677186
1716265095305691012,-0.092,,,,155.560371554
1716265095313385380,-0.087,,,,155.568065922
1716265095321079748,-0.08,,,,155.57576029
1716265095328774128,-0.08,70.0,,,155.58345467
1716265095336468078,-0.08,,,,155.59114862
1716265095344162028,-0.072,,,,155.59884257
1716265095351855978,-0.065,,,,155.60653652
1716265095359549928,-0.063,,,,155.61423047
1716265095367243878,-0.06,,,,155.62192442
1716265095374937828,-0.063,,,,155.62961837
1716265095382631778,-0.063,,,,155.63731232
1716265095390325728,-0.051,,,,155.64500627
1716265095398019678,-0.046,,,,155.65270022
1716265095405713628,-0.046,,,,155.66039417
1716265095413407578,-0.038,,,,155.66808812
1716265095421101528,-0.031,,,,155.67578207
1716265095428795478,-0.026,,,,155.68347602
1716265095436489428,-0.024,,,,155.69116997
1716265095444183378,-0.021,,,,155.69886392
1716265095451877328,-0.019,,,,155.70655787
1716265095459571278,-0.014,,,,155.71425182
1716265095467265228,-0.012,,,,155.72194577
1716265095474959178,-0.004,,,,155.72963972
1716265095482653128,0.002,,,,155.73733367
1716265095490347078,0.0,,,,155.74502762
1716265095498041028,-0.004,,,,155.75272157
1716265095505734978,0.002,,,,155.76041552
1716265095513428928,0.012,,,,155.76810947
1716265095521122878,0.014,,,,155.77580342
1716265095528816828,0.009,,,,155.78349737
1716265095536510778,0.012,,,,155.79119132
1716265095544204728,0.012,,,,155.79888527
1716265095551898678,0.012,,,,155.80657922
1716265095559592628,0.017,,,,155.81427317
1716265095567286578,0.021,,,,155.82196712
1716265095574980528,0.017,,,,155.82966107
1716265095582674478,0.014,,,,155.83735502
1716265095590368428,0.014,,,,155.84504897
1716265095598062378,0.021,,,,155.85274292
1716265095605756328,0.024,,,,155.86043687
1716265095613450278,0.024,,,,155.86813082
1716265095621144228,0.026,,,,155.87582477
1716265095628838178,0.026,,,,155.88351872
1716265095636532128,0.017,,,,155.89121267
1716265095644226078,0.017,,,,155.89890662
1716265095651920028,0.029,,,,155.90660057
1716265095659613978,0.031,,,,155.91429452
1716265095667307928,0.029,,,,155.92198847
1716265095675001878,0.034,,,,155.92968242
1716265095682695828,0.041,,,,155.93737637
1716265095690389778,0.041,,,,155.94507032
1716265095698083728,0.038,,,,155.95276427
1716265095705777678,0.041,,,,155.96045822
1716265095713471628,0.046,,,,155.96815217
1716265095721165578,0.048,,,,155.97584612
1716265095728859528,0.048,,,,155.98354007
1716265095736553478,0.043,,,,155.99123402
1716265095744247428,0.034,,,,155.99892797
1716265095751941378,0.031,,,,156.00662192
1716265095759635328,0.041,,,,156.01431587
1716265095767329278,0.063,,,,156.02200982
1716265095775023228,0.09,,,,156.02970377
1716265095782717178,0.099,,,,156.03739772
1716265095790411128,0.092,,,,156.04509167
1716265095798105078,0.082,,,,156.05278562
1716265095805799028,0.08,,,,156.06047957
1716265095813492978,0.075,,,,156.06817352
1716265095821186928,0.051,,,,156.07586747
1716265095828880878,0.041,,,,156.08356142
1716265095836574828,0.06,,,,156.09125537
1716265095844268778,0.065,,,,156.09894932
1716265095851962728,0.055,,,,156.10664327
1716265095859656678,0.058,,,,156.11433722
1716265095867350628,0.068,,,,156.12203117
1716265095875044578,0.07,,,,156.12972512
1716265095882738528,0.068,,,,156.13741907
1716265095890432486,0.055,,,,156.145113028
1716265095898126784,0.068,,,,156.152807326
1716265095905821082,0.214,,,,156.160501624
1716265095913515380,0.54,,,,156.168195922
1716265095921209678,0.873,,,,156.17589022
1716265095928903976,0.961,,,,156.183584518
1716265095936598274,0.428,,,,156.191278816
1716265095944292572,-0.455,,,,156.198973114
1716265095951986870,-0.586,,,,156.206667412
1716265095959681168,-0.072,,,,156.21436171
1716265095967375466,0.068,,,,156.222056008
1716265095975069764,-0.034,,,,156.229750306
1716265095982764062,0.048,,,,156.237444604
1716265095990458360,0.102,,,,156.245138902
1716265095998152658,0.058,,,,156.2528332
1716265096005846956,0.07,,,,156.260527498
1716265096013541254,0.104,,,,156.268221796
1716265096021235552,0.104,,,,156.275916094
1716265096028929850,0.109,,,,156.283610392
1716265096036624148,0.124,,,,156.29130469
1716265096044318446,0.131,,,,156.298998988
1716265096052012744,0.145,,,,156.306693286
1716265096059707042,0.163,,,,156.314387584
1716265096067401340,0.172,,,,156.322081882
1716265096075095638,0.189,,,,156.32977618
1716265096082789936,0.214,,,,156.337470478
1716265096090484234,0.236,,,,156.345164776
1716265096098178532,0.26,,,,156.352859074
1716265096105872830,0.296,,914.0,,156.360553372
1716265096113567128,0.333,,,,156.36824767
1716265096121261426,0.362,,,,156.375941968
1716265096128955724,0.384,,,,156.383636266
1716265096136650022,0.394,,,,156.391330564
1716265096144344320,0.391,,,,156.399024862
1716265096152038618,0.389,,,,156.40671916
1716265096159732916,0.367,,,,156.414413458
1716265096167427214,0.313,,,,156.422107756
1716265096175121512,0.233,,,,156.429802054
1716265096182815810,0.145,,,,156.437496352
1716265096190510108,0.07,,,,156.44519065
1716265096198204406,0.012,,,,156.452884948
1716265096205898704,-0.029,,,,156.460579246
1716265096213593002,-0.06,,,,156.468273544
1716265096221287300,-0.075,,,,156.475967842
1716265096228981598,-0.077,,,,156.48366214
1716265096236675896,-0.077,,,,156.491356438
1716265096244370194,-0.082,,,,156.499050736
1716265096252064492,-0.077,,,,156.506745034
1716265096259758790,-0.063,,,,156.514439332
1716265096267453088,-0.058,,,,156.52213363
1716265096275147386,-0.058,,,,156.529827928
1716265096282841684,-0.051,,,,156.537522226
1716265096290535982,-0.041,,,,156.545216524
1716265096298230280,-0.036,,,,156.552910822
1716265096305924578,-0.036,,,,156.56060512
1716265096313618876,-0.031,,,,156.568299418
1716265096321313174,-0.034,,,,156.575993716
1716265096329007472,-0.034,,,,156.583688014
1716265096336701770,-0.024,,,,156.591382312
1716265096344396068,-0.019,,,,156.59907661
1716265096352090366,-0.017,,,,156.606770908
1716265096359784664,-0.009,,,,156.614465206
1716265096367478962,-0.004,,,,156.622159504
1716265096375173260,-0.002,,,,156.629853802
1716265096382867558,0.002,,,,156.6375481
1716265096390561856,0.004,,,,156.645242398
1716265096398256154,0.007,,,,156.652936696
1716265096405950452,0.017,,,,156.660630994
1716265096413644750,0.021,,,,156.668325292
1716265096421339048,0.017,,,,156.67601959
1716265096429033346,0.017,,,,156.683713888
1716265096436727644,0.019,,,,156.691408186
1716265096444421942,0.021,,,,156.699102484
1716265096452116278,0.021,69.0,,,156.70679682
1716265096459810297,0.019,,,,156.714490839
1716265096467504316,0.014,,,,156.722184858
1716265096475198335,0.019,,,,156.729878877
1716265096482892354,0.024,,,,156.737572896
1716265096490586373,0.024,,,,156.745266915
1716265096498280392,0.029,,,,156.752960934
1716265096505974411,0.029,,,,156.760654953
1716265096513668430,0.017,,,,156.768348972
1716265096521362449,0.014,,,,156.776042991
1716265096529056468,0.021,,,,156.78373701
1716265096536750487,0.024,,,,156.791431029
1716265096544444506,0.017,,,,156.799125048
1716265096552138525,0.019,,,,156.806819067
1716265096559832544,0.021,,,,156.814513086
1716265096567526563,0.017,,,,156.822207105
1716265096575220582,0.014,,,,156.829901124
1716265096582914601,0.019,,,,156.837595143
1716265096590608620,0.021,,,,156.845289162
1716265096598302639,0.024,,,,156.852983181
1716265096605996658,0.024,,,,156.8606772
1716265096613690677,0.029,,,,156.868371219
1716265096621384696,0.034,,,,156.876065238
1716265096629078715,0.031,,,,156.883759257
1716265096636772734,0.026,,,,156.891453276
1716265096644466753,0.021,,,,156.899147295
1716265096652160772,0.021,,,,156.906841314
1716265096659854791,0.024,,,,156.914535333
1716265096667548810,0.026,,,,156.922229352
1716265096675242829,0.029,,,,156.929923371
1716265096682936848,0.029,,,,156.93761739
1716265096690630867,0.021,,,,156.945311409
1716265096698324886,0.014,,,,156.953005428
1716265096706018905,0.012,,,,156.960699447
1716265096713712924,0.019,,,,156.968393466
1716265096721406943,0.038,,,,156.976087485
1716265096729100962,0.063,,,,156.983781504
1716265096736794981,0.08,,,,156.991475523
1716265096744489000,0.077,,,,156.999169542
1716265096752183019,0.065,,,,157.006863561
1716265096759877038,0.06,,,,157.01455758
1716265096767571057,0.058,,,,157.022251599
1716265096775265076,0.046,,,,157.029945618
1716265096782959095,0.034,,,,157.037639637
1716265096790653114,0.036,,,,157.045333656
1716265096798347133,0.046,,,,157.053027675
1716265096806041152,0.043,,,,157.060721694
1716265096813735171,0.036,,,,157.068415713
1716265096821429190,0.041,,,,157.076109732
1716265096829123209,0.046,,,,157.083803751
1716265096836817228,0.043,,,,157.09149777
1716265096844511247,0.036,,,,157.099191789
1716265096852205266,0.029,,,,157.106885808
1716265096859899285,0.119,,,,157.114579827
1716265096867593304,0.411,,,,157.122273846
1716265096875287323,0.785,,,,157.129967865
1716265096882981342,0.992,,,,157.137661884
1716265096890675361,0.664,,,,157.145355903
1716265096898369380,-0.226,,,,157.153049922
1716265096906063399,-0.678,,,,157.160743941
1716265096913757418,-0.262,,,,157.16843796
1716265096921451437,0.051,,,,157.176131979
1716265096929145456,-0.021,,,,157.183825998
1716265096936839475,0.014,,,,157.191520017
1716265096944533494,0.097,,,,157.199214036
1716265096952227513,0.063,,,,157.206908055
1716265096959921532,0.051,,,,157.214602074
1716265096967615551,0.09,,,,157.222296093
1716265096975309570,0.094,,,,157.229990112
1716265096983003589,0.092,,,,157.237684131
1716265096990697608,0.107,,,,157.24537815
1716265096998391627,0.121,,,,157.253072169
1716265097006085646,0.131,,,,157.260766188
1716265097013779722,0.141,,911.0,,157.268460264
1716265097021473881,0.15,,,,157.276154423
1716265097029168040,0.167,,,,157.283848582
1716265097036862199,0.192,,,,157.291542741
1716265097044556358,0.221,,,,157.2992369
1716265097052250517,0.253,,,,157.306931059
1716265097059944676,0.279,,,,157.314625218
1716265097067638835,0.309,,,,157.322319377
1716265097075332994,0.35,,,,157.330013536
1716265097083027153,0.379,,,,157.337707695
1716265097090721312,0.389,,,,157.345401854
1716265097098415471,0.394,,,,157.353096013
1716265097106109630,0.396,,,,157.360790172
1716265097113803789,0.374,,,,157.368484331
1716265097121497948,0.326,,,,157.37617849
1716265097129192107,0.253,,,,157.383872649
1716265097136886266,0.163,,,,157.391566808
1716265097144580425,0.08,,,,157.399260967
1716265097152274584,0.007,,,,157.406955126
1716265097159968743,-0.055,,,,157.414649285
1716265097167662902,-0.094,,,,157.422343444
1716265097175357061,-0.111,,,,157.430037603
1716265097183051220,-0.116,,,,157.437731762
1716265097190745379,-0.114,,,,157.445425921
1716265097198439538,-0.109,,,,157.45312008
1716265097206133697,-0.107,,,,157.460814239
1716265097213827856,-0.102,,,,157.468508398
1716265097221522015,-0.094,,,,157.476202557
1716265097229216174,-0.087,,,,157.483896716
1716265097236910333,-0.082,,,,157.491590875
1716265097244604492,-0.08,,,,157.499285034
1716265097252298651,-0.075,,,,157.506979193
1716265097259992810,-0.068,,,,157.514673352
1716265097267686969,-0.06,,,,157.522367511
1716265097275381128,-0.055,,,,157.53006167
1716265097283075287,-0.048,,,,157.537755829
1716265097290769446,-0.036,,,,157.545449988
1716265097298463605,-0.036,,,,157.553144147
1716265097306157764,-0.036,,,,157.560838306
1716265097313851923,-0.024,,,,157.568532465
1716265097321546082,-0.019,,,,157.576226624
1716265097329240241,-0.021,,,,157.583920783
1716265097336934400,-0.019,,,,157.591614942
1716265097344628559,-0.012,,,,157.599309101
1716265097352322718,-0.004,,,,157.60700326
1716265097360016877,0.0,,,,157.614697419
1716265097367711036,0.0,,,,157.622391578
1716265097375405195,0.0,,,,157.630085737
1716265097383099354,0.004,,,,157.637779896
1716265097390793513,0.002,,,,157.645474055
1716265097398487672,0.002,,,,157.653168214
1716265097406181831,0.004,,,,157.660862373
1716265097413875990,0.007,,,,157.668556532
1716265097421570149,0.007,,,,157.676250691
1716265097429264308,0.014,,,,157.68394485
1716265097436958467,0.017,,,,157.691639009
1716265097444652626,0.014,,,,157.699333168
1716265097452346785,0.019,,,,157.707027327
1716265097460040944,0.024,,,,157.714721486
1716265097467735103,0.021,,,,157.722415645
1716265097475429262,0.021,,,,157.730109804
1716265097483123421,0.026,,,,157.737803963
1716265097490817580,0.026,,,,157.745498122
1716265097498511739,0.024,,,,157.753192281
1716265097506205898,0.026,,,,157.76088644
1716265097513900057,0.031,,,,157.768580599
1716265097521594216,0.038,,,,157.776274758
1716265097529288375,0.038,,,,157.783968917
1716265097536982534,0.034,,,,157.791663076
1716265097544676693,0.034,,,,157.799357235
1716265097552370852,0.026,,,,157.807051394
1716265097560065011,0.024,,,,157.814745553
1716265097567759170,0.031,,,,157.822439712
1716265097575453340,0.031,69.0,,,157.830133882
1716265097583147499,0.034,,,,157.837828041
1716265097590841658,0.046,,,,157.8455222
1716265097598535817,0.048,,,,157.853216359
1716265097606229976,0.046,,,,157.860910518
1716265097613924135,0.043,,,,157.868604677
1716265097621618294,0.031,,,,157.876298836
1716265097629312453,0.017,,,,157.883992995
1716265097637006612,0.019,,,,157.891687154
1716265097644700771,0.036,,,,157.899381313
1716265097652394930,0.055,,,,157.907075472
1716265097660089089,0.065,,,,157.914769631
1716265097667783248,0.07,,,,157.92246379
1716265097675477407,0.065,,,,157.930157949
1716265097683171566,0.055,,,,157.937852108
1716265097690865725,0.051,,,,157.945546267
1716265097698559884,0.043,,,,157.953240426
1716265097706254043,0.029,,,,157.960934585
1716265097713948202,0.024,,,,157.968628744
1716265097721642361,0.034,,,,157.976322903
1716265097729336520,0.041,,,,157.984017062
1716265097737030679,0.046,,,,157.991711221
1716265097744724838,0.046,,,,157.99940538
1716265097752418997,0.046,,,,158.007099539
1716265097760113156,0.041,,,,158.014793698
1716265097767807315,0.041,,,,158.022487857
1716265097775501474,0.036,,,,158.030182016
1716265097783195633,0.116,,,,158.037876175
1716265097790889792,0.418,,,,158.045570334
1716265097798583951,0.837,,,,158.053264493
1716265097806278110,1.073,,,,158.060958652
1716265097813972269,0.751,,,,158.068652811
1716265097821666428,-0.184,,,,158.07634697
1716265097829360587,-0.742,,,,158.084041129
1716265097837054746,-0.372,,,,158.091735288
1716265097844748905,-0.019,,,,158.099429447
1716265097852443064,-0.055,,,,158.107123606
1716265097860137223,-0.007,,,,158.114817765
1716265097867831382,0.085,,,,158.122511924
1716265097875525541,0.06,,,,158.130206083
1716265097883219700,0.055,,,,158.137900242
1716265097890913859,0.092,,,,158.145594401
1716265097898608018,0.094,,,,158.15328856
1716265097906302177,0.097,,,,158.160982719
1716265097913996336,0.116,,,,158.168676878
1716265097921690495,0.121,,,,158.176371037
1716265097929384654,0.128,,,,158.184065196
1716265097937078813,0.148,,921.0,,158.191759355
1716265097944772972,0.16,,,,158.199453514
1716265097952467131,0.175,,,,158.207147673
1716265097960161290,0.204,,,,158.214841832
1716265097967855449,0.236,,,,158.222535991
1716265097975549608,0.27,,,,158.23023015
1716265097983243767,0.306,,,,158.237924309
1716265097990937926,0.34,,,,158.245618468
1716265097998632085,0.379,,,,158.253312627
1716265098006326244,0.413,,,,158.261006786
1716265098014020403,0.433,,,,158.268700945
1716265098021714562,0.44,,,,158.276395104
1716265098029408721,0.435,,,,158.284089263
1716265098037102880,0.408,,,,158.291783422
1716265098044797039,0.35,,,,158.299477581
1716265098052491198,0.272,,,,158.30717174
1716265098060185357,0.182,,,,158.314865899
1716265098067879516,0.094,,,,158.322560058
1716265098075573675,0.021,,,,158.330254217
1716265098083267834,-0.029,,,,158.337948376
1716265098090961993,-0.058,,,,158.345642535
1716265098098656152,-0.077,,,,158.353336694
1716265098106350311,-0.09,,,,158.361030853
1716265098114044470,-0.09,,,,158.368725012
1716265098121738629,-0.09,,,,158.376419171
1716265098129432788,-0.085,,,,158.38411333
1716265098137126956,-0.072,68.0,,,158.391807498
1716265098144820906,-0.065,,,,158.399501448
1716265098152514856,-0.063,,,,158.407195398
1716265098160208806,-0.068,,,,158.414889348
1716265098167902756,-0.068,,,,158.422583298
1716265098175596706,-0.055,,,,158.430277248
1716265098183290656,-0.048,,,,158.437971198
1716265098190984606,-0.051,,,,158.445665148
1716265098198678556,-0.051,,,,158.453359098
1716265098206372506,-0.036,,,,158.461053048
1716265098214066456,-0.021,,,,158.468746998
1716265098221760406,-0.024,,,,158.476440948
1716265098229454356,-0.026,,,,158.484134898
1716265098237148306,-0.019,,,,158.491828848
1716265098244842256,-0.014,,,,158.499522798
1716265098252536206,-0.009,,,,158.507216748
1716265098260230156,-0.004,,,,158.514910698
1716265098267924106,0.0,,,,158.522604648
1716265098275618056,0.007,,,,158.530298598
1716265098283312006,0.009,,,,158.537992548
1716265098291005956,0.007,,,,158.545686498
1716265098298699906,0.009,,,,158.553380448
1716265098306393856,0.014,,,,158.561074398
1716265098314087806,0.019,,,,158.568768348
1716265098321781756,0.017,,,,158.576462298
1716265098329475706,0.019,,,,158.584156248
1716265098337169656,0.021,,,,158.591850198
1716265098344863606,0.021,,,,158.599544148
1716265098352557556,0.026,,,,158.607238098
1716265098360251506,0.031,,,,158.614932048
1716265098367945456,0.031,,,,158.622625998
1716265098375639406,0.031,,,,158.630319948
1716265098383333356,0.034,,,,158.638013898
1716265098391027306,0.038,,,,158.645707848
1716265098398721256,0.043,,,,158.653401798
1716265098406415206,0.041,,,,158.661095748
1716265098414109156,0.043,,,,158.668789698
1716265098421803106,0.048,,,,158.676483648
1716265098429497056,0.051,,,,158.684177598
1716265098437191006,0.053,,,,158.691871548
1716265098444884956,0.055,,,,158.699565498
1716265098452578906,0.058,,,,158.707259448
1716265098460272856,0.058,,,,158.714953398
1716265098467966806,0.058,,,,158.722647348
1716265098475660756,0.06,,,,158.730341298
1716265098483354706,0.063,,,,158.738035248
1716265098491048656,0.063,,,,158.745729198
1716265098498742606,0.063,,,,158.753423148
1716265098506436556,0.065,,,,158.761117098
1716265098514130506,0.068,,,,158.768811048
1716265098521824456,0.068,,,,158.776504998
1716265098529518406,0.068,,,,158.784198948
1716265098537212356,0.06,,,,158.791892898
1716265098544906306,0.043,,,,158.799586848
1716265098552600256,0.034,,,,158.807280798
1716265098560294206,0.038,,,,158.814974748
1716265098567988156,0.06,,,,158.822668698
1716265098575682106,0.087,,,,158.830362648
1716265098583376056,0.102,,,,158.838056598
1716265098591070006,0.097,,,,158.845750548
1716265098598763956,0.094,,,,158.853444498
1716265098606457906,0.099,,,,158.861138448
1716265098614151856,0.092,,,,158.868832398
1716265098621845806,0.072,,,,158.876526348
1716265098629539756,0.065,,,,158.884220298
1716265098637233706,0.07,,,,158.891914248
1716265098644927656,0.072,,,,158.899608198
1716265098652621606,0.075,,,,158.907302148
1716265098660315556,0.077,,,,158.914996098
1716265098668009506,0.07,,,,158.922690048
1716265098675703456,0.063,,,,158.930383998
1716265098683397406,0.058,,,,158.938077948
1716265098691091356,0.048,,,,158.945771898
1716265098698785314,0.053,,,,158.953465856
1716265098706479264,0.209,,,,158.961159806
1716265098714173214,0.5660000000000001,,,,158.968853756
1716265098721867164,0.924,,,,158.976547706
1716265098729561114,1.021,,,,158.984241656
1716265098737255064,0.474,,,,158.991935606
1716265098744949014,-0.464,,,,158.999629556
1716265098752642964,-0.63,,,,159.007323506
1716265098760336914,-0.097,,,,159.015017456
1716265098768030864,0.055,,,,159.022711406
1716265098775724814,-0.053,,,,159.030405356
1716265098783418764,0.031,,,,159.038099306
1716265098791112714,0.085,,,,159.045793256
1716265098798806664,0.036,,,,159.053487206
1716265098806500614,0.055,,,,159.061181156
1716265098814194564,0.094,,,,159.068875106
1716265098821888514,0.08,,,,159.076569056
1716265098829582464,0.08,,,,159.084263006
1716265098837276414,0.097,,,,159.091956956
1716265098844970364,0.102,,,,159.099650906
1716265098852664314,0.109,,,,159.107344856
1716265098860358264,0.124,,,,159.115038806
1716265098868052214,0.141,,,,159.122732756
1716265098875746164,0.16,,,,159.130426706
1716265098883440114,0.184,,949.0,,159.138120656
1716265098891134064,0.216,,,,159.145814606
1716265098898828014,0.255,,,,159.153508556
1716265098906521964,0.294,,,,159.161202506
1716265098914215914,0.326,,,,159.168896456
1716265098921909864,0.357,,,,159.176590406
1716265098929603814,0.389,,,,159.184284356
1716265098937297764,0.408,,,,159.191978306
1716265098944991714,0.413,,,,159.199672256
1716265098952685664,0.408,,,,159.207366206
1716265098960379614,0.384,,,,159.215060156
1716265098968073564,0.326,,,,159.222754106
1716265098975767514,0.238,,,,159.230448056
1716265098983461464,0.155,,,,159.238142006
1716265098991155414,0.087,,,,159.245835956
1716265098998849364,0.024,,,,159.253529906
1716265099006543314,-0.029,,,,159.261223856
1716265099014237264,-0.058,,,,159.268917806
1716265099021931214,-0.072,,,,159.276611756
1716265099029625164,-0.082,,,,159.284305706
1716265099037319114,-0.08,,,,159.291999656
1716265099045013064,-0.075,,,,159.299693606
1716265099052707014,-0.075,,,,159.307387556
1716265099060400964,-0.07,,,,159.315081506
1716265099068094914,-0.058,,,,159.322775456
1716265099075788864,-0.048,,,,159.330469406
1716265099083482814,-0.043,,,,159.338163356
1716265099091176764,-0.041,,,,159.345857306
1716265099098870714,-0.036,,,,159.353551256
1716265099106564664,-0.024,,,,159.361245206
1716265099114258614,-0.017,,,,159.368939156
1716265099121952564,-0.012,,,,159.376633106
1716265099129646514,-0.004,,,,159.384327056
1716265099137340464,-0.002,,,,159.392021006
1716265099145034414,0.0,,,,159.399714956
1716265099152728364,0.002,,,,159.407408906
1716265099160422314,0.007,,,,159.415102856
1716265099168116264,0.009,,,,159.422796806
1716265099175810214,0.007,,,,159.430490756
1716265099183504164,0.002,,,,159.438184706
1716265099191198114,0.004,,,,159.445878656
1716265099198892064,0.009,,,,159.453572606
1716265099206586014,0.012,,,,159.461266556
1716265099214279964,0.012,,,,159.468960506
1716265099221973914,0.017,,,,159.476654456
1716265099229667864,0.019,,,,159.484348406
1716265099237361814,0.021,,,,159.492042356
1716265099245055764,0.021,,,,159.499736306
1716265099252749714,0.024,,,,159.507430256
1716265099260443674,0.026,68.0,,,159.515124216
1716265099268138042,0.024,,,,159.522818584
1716265099275832410,0.017,,,,159.530512952
1716265099283526778,0.017,,,,159.53820732
1716265099291221146,0.024,,,,159.545901688
1716265099298915514,0.019,,,,159.553596056
1716265099306609882,0.014,,,,159.561290424
1716265099314304250,0.019,,,,159.568984792
1716265099321998618,0.024,,,,159.57667916
1716265099329692986,0.021,,,,159.584373528
1716265099337387354,0.021,,,,159.592067896
1716265099345081722,0.029,,,,159.599762264
1716265099352776090,0.031,,,,159.607456632
1716265099360470458,0.029,,,,159.615151
1716265099368164826,0.029,,,,159.622845368
1716265099375859194,0.034,,,,159.630539736
1716265099383553562,0.038,,,,159.638234104
1716265099391247930,0.038,,,,159.645928472
1716265099398942298,0.041,,,,159.65362284
1716265099406636666,0.046,,,,159.661317208
1716265099414331034,0.048,,,,159.669011576
1716265099422025402,0.043,,,,159.676705944
1716265099429719770,0.046,,,,159.684400312
1716265099437414138,0.053,,,,159.69209468
1716265099445108506,0.055,,,,159.699789048
1716265099452802874,0.048,,,,159.707483416
1716265099460497242,0.034,,,,159.715177784
1716265099468191610,0.026,,,,159.722872152
1716265099475885978,0.036,,,,159.73056652
1716265099483580346,0.055,,,,159.738260888
1716265099491274714,0.08,,,,159.745955256
1716265099498969082,0.097,,,,159.753649624
1716265099506663450,0.094,,,,159.761343992
1716265099514357818,0.077,,,,159.76903836
1716265099522052186,0.068,,,,159.776732728
1716265099529746554,0.07,,,,159.784427096
1716265099537440922,0.055,,,,159.792121464
1716265099545135290,0.034,,,,159.799815832
1716265099552829658,0.043,,,,159.8075102
1716265099560524026,0.055,,,,159.815204568
1716265099568218394,0.051,,,,159.822898936
1716265099575912762,0.048,,,,159.830593304
1716265099583607130,0.06,,,,159.838287672
1716265099591301498,0.063,,,,159.84598204
1716265099598995866,0.055,,,,159.853676408
1716265099606690234,0.051,,,,159.861370776
1716265099614384602,0.043,,,,159.869065144
1716265099622078970,0.114,,,,159.876759512
1716265099629773338,0.377,,,,159.88445388
1716265099637467706,0.732,,,,159.892148248
1716265099645162074,0.973,,,,159.899842616
1716265099652856442,0.761,,,,159.907536984
1716265099660550810,-0.097,,,,159.915231352
1716265099668245178,-0.686,,,,159.92292572
1716265099675939546,-0.328,,,,159.930620088
1716265099683633914,0.043,,,,159.938314456
1716265099691328282,-0.041,,,,159.946008824
1716265099699022650,-0.038,,,,159.953703192
1716265099706717018,0.06,,,,159.96139756
1716265099714411386,0.034,,,,159.969091928
1716265099722105754,0.014,,,,159.976786296
1716265099729800122,0.055,,,,159.984480664
1716265099737494490,0.065,,,,159.992175032
1716265099745188858,0.063,,,,159.9998694
1716265099752883226,0.08,,,,160.007563768
1716265099760577594,0.09,,,,160.015258136
1716265099768271962,0.094,,,,160.022952504
1716265099775966330,0.107,,,,160.030646872
1716265099783660698,0.119,,,,160.03834124
1716265099791355066,0.128,,,,160.046035608
1716265099799049434,0.148,,,,160.053729976
1716265099806743802,0.177,,,,160.061424344
1716265099814438170,0.204,,,,160.069118712
1716265099822132550,0.236,,,,160.076813092
1716265099829826778,0.274,,,,160.08450732
1716265099837521006,0.309,,,,160.092201548
1716265099845215234,0.338,,956.0,,160.099895776
1716265099852909462,0.364,,,,160.107590004
1716265099860603690,0.377,,,,160.115284232
1716265099868297918,0.374,,,,160.12297846
1716265099875992146,0.355,,,,160.130672688
1716265099883686374,0.311,,,,160.138366916
1716265099891380602,0.24,,,,160.146061144
1716265099899074830,0.15,,,,160.153755372
1716265099906769058,0.058,,,,160.1614496
1716265099914463286,-0.009,,,,160.169143828
1716265099922157514,-0.06,,,,160.176838056
1716265099929851742,-0.102,,,,160.184532284
1716265099937545970,-0.116,,,,160.192226512
1716265099945240198,-0.119,,,,160.19992074
1716265099952934426,-0.124,,,,160.207614968
1716265099960628654,-0.124,,,,160.215309196
1716265099968322882,-0.114,,,,160.223003424
1716265099976017110,-0.111,,,,160.230697652
1716265099983711338,-0.104,,,,160.23839188
1716265099991405566,-0.097,,,,160.246086108
1716265099999099794,-0.092,,,,160.253780336
1716265100006794022,-0.09,,,,160.261474564
1716265100014488250,-0.087,,,,160.269168792
1716265100022182478,-0.085,,,,160.27686302
1716265100029876706,-0.075,,,,160.284557248
1716265100037570934,-0.063,,,,160.292251476
1716265100045265162,-0.055,,,,160.299945704
1716265100052959390,-0.055,,,,160.307639932
1716265100060653618,-0.051,,,,160.31533416
1716265100068347846,-0.048,,,,160.323028388
1716265100076042074,-0.048,,,,160.330722616
1716265100083736302,-0.043,,,,160.338416844
1716265100091430530,-0.034,,,,160.346111072
1716265100099124758,-0.026,,,,160.3538053
1716265100106818986,-0.024,,,,160.361499528
1716265100114513214,-0.021,,,,160.369193756
1716265100122207442,-0.017,,,,160.376887984
1716265100129901670,-0.007,,,,160.384582212
1716265100137595898,0.0,,,,160.39227644
1716265100145290126,-0.002,,,,160.399970668
1716265100152984354,0.0,,,,160.407664896
1716265100160678582,0.007,,,,160.415359124
1716265100168372810,0.014,,,,160.423053352
1716265100176067038,0.014,,,,160.43074758
1716265100183761266,0.014,,,,160.438441808
1716265100191455494,0.012,,,,160.446136036
1716265100199149722,0.007,,,,160.453830264
1716265100206843950,0.007,,,,160.461524492
1716265100214538178,0.009,,,,160.46921872
1716265100222232406,0.014,,,,160.476912948
1716265100229926634,0.019,,,,160.484607176
1716265100237620862,0.019,,,,160.492301404
1716265100245315090,0.021,,,,160.499995632
1716265100253009318,0.021,,,,160.50768986
1716265100260703546,0.021,,,,160.515384088
1716265100268397774,0.029,,,,160.523078316
1716265100276092002,0.036,,,,160.530772544
1716265100283786230,0.038,,,,160.538466772
1716265100291480458,0.038,,,,160.546161
1716265100299174686,0.038,,,,160.553855228
1716265100306868914,0.046,,,,160.561549456
1716265100314563142,0.055,,,,160.569243684
1716265100322257370,0.058,,,,160.576937912
1716265100329951598,0.058,,,,160.58463214
1716265100337645826,0.065,,,,160.592326368
1716265100345340054,0.068,,,,160.600020596
1716265100353034282,0.068,,,,160.607714824
1716265100360728510,0.072,,,,160.615409052
1716265100368422738,0.077,,,,160.62310328
1716265100376116966,0.075,,,,160.630797508
1716265100383811254,0.063,67.0,,,160.638491796
1716265100391505343,0.063,,,,160.646185885
1716265100399199432,0.077,,,,160.653879974
1716265100406893521,0.099,,,,160.661574063
1716265100414587610,0.126,,,,160.669268152
1716265100422281699,0.141,,,,160.676962241
1716265100429975788,0.138,,,,160.68465633
1716265100437669877,0.124,,,,160.692350419
1716265100445363966,0.116,,,,160.700044508
1716265100453058055,0.114,,,,160.707738597
1716265100460752144,0.102,,,,160.715432686
1716265100468446233,0.094,,,,160.723126775
1716265100476140322,0.099,,,,160.730820864
1716265100483834411,0.109,,,,160.738514953
1716265100491528500,0.114,,,,160.746209042
1716265100499222589,0.119,,,,160.753903131
1716265100506916678,0.124,,,,160.76159722
1716265100514610767,0.131,,,,160.769291309
1716265100522304856,0.133,,,,160.776985398
1716265100529998945,0.124,,,,160.784679487
1716265100537693034,0.121,,,,160.792373576
1716265100545387123,0.243,,,,160.800067665
1716265100553081212,0.557,,,,160.807761754
1716265100560775301,0.907,,,,160.815455843
1716265100568469390,1.065,,,,160.823149932
1716265100576163479,0.669,,,,160.830844021
1716265100583857568,-0.218,,,,160.83853811
1716265100591551657,-0.542,,,,160.846232199
1716265100599245746,-0.063,,,,160.853926288
1716265100606939835,0.18,,,,160.861620377
1716265100614633924,0.072,,,,160.869314466
1716265100622328013,0.121,,,,160.877008555
1716265100630022102,0.194,,,,160.884702644
1716265100637716191,0.155,,,,160.892396733
1716265100645410280,0.163,,,,160.900090822
1716265100653104369,0.199,,,,160.907784911
1716265100660798458,0.194,,,,160.915479
1716265100668492547,0.199,,,,160.923173089
1716265100676186636,0.223,,,,160.930867178
1716265100683880725,0.233,,,,160.938561267
1716265100691574814,0.236,,,,160.946255356
1716265100699268903,0.248,,,,160.953949445
1716265100706962992,0.265,,,,160.961643534
1716265100714657081,0.282,,,,160.969337623
1716265100722351170,0.306,,,,160.977031712
1716265100730045259,0.338,,,,160.984725801
1716265100737739348,0.369,,,,160.99241989
1716265100745433437,0.396,,,,161.000113979
1716265100753127526,0.428,,,,161.007808068
1716265100760821615,0.462,,,,161.015502157
1716265100768515704,0.493,,924.0,,161.023196246
1716265100776209793,0.513,,,,161.030890335
1716265100783903882,0.52,,,,161.038584424
1716265100791597971,0.523,,,,161.046278513
1716265100799292060,0.506,,,,161.053972602
1716265100806986149,0.447,,,,161.061666691
1716265100814680238,0.367,,,,161.06936078
1716265100822374327,0.287,,,,161.077054869
1716265100830068416,0.209,,,,161.084748958
1716265100837762505,0.143,,,,161.092443047
1716265100845456594,0.094,,,,161.100137136
1716265100853150683,0.065,,,,161.107831225
1716265100860844772,0.048,,,,161.115525314
1716265100868538861,0.041,,,,161.123219403
1716265100876232950,0.043,,,,161.130913492
1716265100883927039,0.051,,,,161.138607581
1716265100891621128,0.051,,,,161.14630167
1716265100899315217,0.048,,,,161.153995759
1716265100907009306,0.058,,,,161.161689848
1716265100914703395,0.072,,,,161.169383937
1716265100922397484,0.077,,,,161.177078026
1716265100930091573,0.08,,,,161.184772115
1716265100937785662,0.085,,,,161.192466204
1716265100945479784,0.085,,,,161.200160326
1716265100953173873,0.085,,,,161.207854415
1716265100960867962,0.085,,,,161.215548504
1716265100968562051,0.092,,,,161.223242593
1716265100976256140,0.097,,,,161.230936682
1716265100983950229,0.099,,,,161.238630771
1716265100991644318,0.097,,,,161.24632486
1716265100999338407,0.097,,,,161.254018949
1716265101007032496,0.099,,,,161.261713038
1716265101014726585,0.099,,,,161.269407127
1716265101022420674,0.099,,,,161.277101216
1716265101030114763,0.107,,,,161.284795305
1716265101037808852,0.109,,,,161.292489394
1716265101045502941,0.109,,,,161.300183483
1716265101053197030,0.109,,,,161.307877572
1716265101060891119,0.111,,,,161.315571661
1716265101068585208,0.119,,,,161.32326575
1716265101076279297,0.119,,,,161.330959839
1716265101083973386,0.116,,,,161.338653928
1716265101091667475,0.119,,,,161.346348017
1716265101099361564,0.121,,,,161.354042106
1716265101107055653,0.119,,,,161.361736195
1716265101114749742,0.121,,,,161.369430284
1716265101122443831,0.126,,,,161.377124373
1716265101130137920,0.126,,,,161.384818462
1716265101137832009,0.126,,,,161.392512551
1716265101145526098,0.131,,,,161.40020664
1716265101153220187,0.133,,,,161.407900729
1716265101160914276,0.133,,,,161.415594818
1716265101168608365,0.131,,,,161.423288907
1716265101176302454,0.133,,,,161.430982996
1716265101183996543,0.138,,,,161.438677085
1716265101191690632,0.138,,,,161.446371174
1716265101199384721,0.133,,,,161.454065263
1716265101207078810,0.131,,,,161.461759352
1716265101214772899,0.136,,,,161.469453441
1716265101222466988,0.136,,,,161.47714753
1716265101230161077,0.133,,,,161.484841619
1716265101237855166,0.133,,,,161.492535708
1716265101245549255,0.128,,,,161.500229797
1716265101253243344,0.124,,,,161.507923886
1716265101260937433,0.128,,,,161.515617975
1716265101268631522,0.131,,,,161.523312064
1716265101276325611,0.128,,,,161.531006153
1716265101284019700,0.128,,,,161.538700242
1716265101291713789,0.133,,,,161.546394331
1716265101299407878,0.141,,,,161.55408842
1716265101307101967,0.141,,,,161.561782509
1716265101314796056,0.131,,,,161.569476598
1716265101322490145,0.114,,,,161.577170687
1716265101330184234,0.116,,,,161.584864776
1716265101337878323,0.131,,,,161.592558865
1716265101345572412,0.15,,,,161.600252954
1716265101353266501,0.172,,,,161.607947043
1716265101360960590,0.177,,,,161.615641132
1716265101368654679,0.165,,,,161.623335221
1716265101376348768,0.153,,,,161.63102931
1716265101384042857,0.158,,,,161.638723399
1716265101391736946,0.155,,,,161.646417488
1716265101399431035,0.133,,,,161.654111577
1716265101407125124,0.126,,,,161.661805666
1716265101414819213,0.138,,,,161.669499755
1716265101422513302,0.143,,,,161.677193844
1716265101430207391,0.136,,,,161.684887933
1716265101437901480,0.136,,,,161.692582022
1716265101445595569,0.136,,,,161.700276111
1716265101453289658,0.138,,,,161.7079702
1716265101460983747,0.136,,,,161.715664289
1716265101468677836,0.126,,,,161.723358378
1716265101476371925,0.136,,,,161.731052467
1716265101484066014,0.279,,,,161.738746556
1716265101491760103,0.61,,,,161.746440645
1716265101499454192,0.948,,,,161.754134734
1716265101507148316,1.036,67.0,,,161.761828858
1716265101514842544,0.525,,,,161.769523086
1716265101522536772,-0.35,,,,161.777217314
1716265101530231000,-0.542,,,,161.784911542
1716265101537925228,-0.055,,,,161.79260577
1716265101545619456,0.121,,,,161.800299998
1716265101553313684,0.026,,,,161.807994226
1716265101561007912,0.099,,,,161.815688454
1716265101568702140,0.158,,,,161.823382682
1716265101576396368,0.116,,,,161.83107691
1716265101584090596,0.121,,,,161.838771138
1716265101591784824,0.153,,,,161.846465366
1716265101599479052,0.148,,,,161.854159594
1716265101607173280,0.155,,,,161.861853822
1716265101614867508,0.175,,,,161.86954805
1716265101622561736,0.182,,,,161.877242278
1716265101630255964,0.192,,,,161.884936506
1716265101637950192,0.209,,,,161.892630734
1716265101645644420,0.226,,,,161.900324962
1716265101653338648,0.248,,,,161.90801919
1716265101661032876,0.274,,,,161.915713418
1716265101668727104,0.294,,,,161.923407646
1716265101676421332,0.316,,,,161.931101874
1716265101684115560,0.345,,921.0,,161.938796102
1716265101691809788,0.379,,,,161.94649033
1716265101699504016,0.416,,,,161.954184558
1716265101707198244,0.437,,,,161.961878786
1716265101714892472,0.447,,,,161.969573014
1716265101722586700,0.457,,,,161.977267242
1716265101730280928,0.45,,,,161.98496147
1716265101737975156,0.416,,,,161.992655698
1716265101745669384,0.36,,,,162.000349926
1716265101753363612,0.282,,,,162.008044154
1716265101761057840,0.187,,,,162.015738382
1716265101768752068,0.102,,,,162.02343261
1716265101776446296,0.036,,,,162.031126838
1716265101784140524,-0.012,,,,162.038821066
1716265101791834752,-0.043,,,,162.046515294
1716265101799528980,-0.063,,,,162.054209522
1716265101807223208,-0.068,,,,162.06190375
1716265101814917436,-0.068,,,,162.069597978
1716265101822611664,-0.07,,,,162.077292206
1716265101830305892,-0.07,,,,162.084986434
1716265101838000120,-0.06,,,,162.092680662
1716265101845694348,-0.051,,,,162.10037489
1716265101853388576,-0.048,,,,162.108069118
1716265101861082804,-0.053,,,,162.115763346
1716265101868777032,-0.043,,,,162.123457574
1716265101876471260,-0.024,,,,162.131151802
1716265101884165488,-0.017,,,,162.13884603
1716265101891859716,-0.021,,,,162.146540258
1716265101899553944,-0.024,,,,162.154234486
1716265101907248172,-0.017,,,,162.161928714
1716265101914942400,-0.014,,,,162.169622942
1716265101922636628,-0.009,,,,162.17731717
1716265101930330856,0.002,,,,162.185011398
1716265101938025084,0.009,,,,162.192705626
1716265101945719312,0.007,,,,162.200399854
1716265101953413540,0.004,,,,162.208094082
1716265101961107768,0.009,,,,162.21578831
1716265101968801996,0.014,,,,162.223482538
1716265101976496224,0.017,,,,162.231176766
1716265101984190452,0.019,,,,162.238870994
1716265101991884680,0.026,,,,162.246565222
1716265101999578908,0.026,,,,162.25425945
1716265102007273136,0.021,,,,162.261953678
1716265102014967364,0.026,,,,162.269647906
1716265102022661592,0.029,,,,162.277342134
1716265102030355820,0.031,,,,162.285036362
1716265102038050048,0.031,,,,162.29273059
1716265102045744276,0.031,,,,162.300424818
1716265102053438504,0.034,,,,162.308119046
1716265102061132732,0.034,,,,162.315813274
1716265102068827018,0.026,,,,162.32350756
1716265102076520968,0.031,,,,162.33120151
1716265102084214918,0.041,,,,162.33889546
1716265102091908868,0.038,,,,162.34658941
1716265102099602818,0.034,,,,162.35428336
1716265102107296768,0.036,,,,162.36197731
1716265102114990718,0.043,,,,162.36967126
1716265102122684668,0.036,,,,162.37736521
1716265102130378618,0.029,,,,162.38505916
1716265102138072568,0.031,,,,162.39275311
1716265102145766518,0.031,,,,162.40044706
1716265102153460468,0.034,,,,162.40814101
1716265102161154418,0.034,,,,162.41583496
1716265102168848368,0.029,,,,162.42352891
1716265102176542318,0.026,,,,162.43122286
1716265102184236268,0.031,,,,162.43891681
1716265102191930218,0.031,,,,162.44661076
1716265102199624168,0.036,,,,162.45430471
1716265102207318118,0.041,,,,162.46199866
1716265102215012068,0.034,,,,162.46969261
1716265102222706018,0.012,,,,162.47738656
1716265102230399968,0.0,,,,162.48508051
1716265102238093918,0.004,,,,162.49277446
1716265102245787868,0.024,,,,162.50046841
1716265102253481818,0.046,,,,162.50816236
1716265102261175768,0.055,,,,162.51585631
1716265102268869718,0.053,,,,162.52355026
1716265102276563668,0.048,,,,162.53124421
1716265102284257618,0.048,,,,162.53893816
1716265102291951568,0.046,,,,162.54663211
1716265102299645518,0.036,,,,162.55432606
1716265102307339468,0.026,,,,162.56202001
1716265102315033418,0.029,,,,162.56971396
1716265102322727368,0.041,,,,162.57740791
1716265102330421318,0.038,,,,162.58510186
1716265102338115268,0.034,,,,162.59279581
1716265102345809218,0.041,,,,162.60048976
1716265102353503168,0.046,,,,162.60818371
1716265102361197118,0.043,,,,162.61587766
1716265102368891068,0.048,,,,162.62357161
1716265102376585018,0.048,,,,162.63126556
1716265102384278968,0.121,,,,162.63895951
1716265102391972918,0.418,,,,162.64665346
1716265102399666868,0.851,,,,162.65434741
1716265102407360818,1.119,,,,162.66204136
1716265102415054768,0.837,,,,162.66973531
1716265102422748718,-0.094,,,,162.67742926
1716265102430442668,-0.72,,,,162.68512321
1716265102438136618,-0.396,,,,162.69281716
1716265102445830568,-0.019,,,,162.70051111
1716265102453524518,-0.034,,,,162.70820506
1716265102461218468,0.009,,,,162.71589901
1716265102468912418,0.102,,,,162.72359296
1716265102476606368,0.068,,,,162.73128691
1716265102484300318,0.055,,,,162.73898086
1716265102491994268,0.097,,,,162.74667481
1716265102499688218,0.104,,,,162.75436876
1716265102507382168,0.099,,,,162.76206271
1716265102515076118,0.116,,,,162.76975666
1716265102522770068,0.128,,,,162.77745061
1716265102530464018,0.143,,,,162.78514456
1716265102538157968,0.16,,,,162.79283851
1716265102545851918,0.182,,,,162.80053246
1716265102553545868,0.209,,,,162.80822641
1716265102561239818,0.228,,,,162.81592036
1716265102568933768,0.253,,,,162.82361431
1716265102576627718,0.291,,,,162.83130826
1716265102584321668,0.328,,,,162.83900221
1716265102592015618,0.362,,,,162.84669616
1716265102599709568,0.394,,,,162.85439011
1716265102607403518,0.42,,,,162.86208406
1716265102615097468,0.44,,,,162.86977801
1716265102622791418,0.452,,,,162.87747196
1716265102630485378,0.447,67.0,919.0,,162.88516592
1716265102638179746,0.418,,,,162.892860288
1716265102645874114,0.364,,,,162.900554656
1716265102653568482,0.282,,,,162.908249024
1716265102661262850,0.18,,,,162.915943392
1716265102668957218,0.077,,,,162.92363776
1716265102676651586,0.002,,,,162.931332128
1716265102684345954,-0.048,,,,162.939026496
1716265102692040322,-0.085,,,,162.946720864
1716265102699734690,-0.111,,,,162.954415232
1716265102707429058,-0.121,,,,162.9621096
1716265102715123426,-0.124,,,,162.969803968
1716265102722817794,-0.136,,,,162.977498336
1716265102730512162,-0.138,,,,162.985192704
1716265102738206530,-0.119,,,,162.992887072
1716265102745900898,-0.107,,,,163.00058144
1716265102753595266,-0.111,,,,163.008275808
1716265102761289634,-0.107,,,,163.015970176
1716265102768984002,-0.094,,,,163.023664544
1716265102776678370,-0.087,,,,163.031358912
1716265102784372738,-0.085,,,,163.03905328
1716265102792067106,-0.08,,,,163.046747648
1716265102799761474,-0.072,,,,163.054442016
1716265102807455842,-0.06,,,,163.062136384
1716265102815150210,-0.055,,,,163.069830752
1716265102822844578,-0.051,,,,163.07752512
1716265102830538946,-0.034,,,,163.085219488
1716265102838233314,-0.029,,,,163.092913856
1716265102845927682,-0.031,,,,163.100608224
1716265102853622050,-0.021,,,,163.108302592
1716265102861316418,-0.012,,,,163.11599696
1716265102869010786,-0.012,,,,163.123691328
1716265102876705154,-0.012,,,,163.131385696
1716265102884399522,-0.004,,,,163.139080064
1716265102892093890,0.0,,,,163.146774432
1716265102899788258,0.002,,,,163.1544688
1716265102907482626,0.007,,,,163.162163168
1716265102915176994,0.012,,,,163.169857536
1716265102922871362,0.014,,,,163.177551904
1716265102930565730,0.019,,,,163.185246272
1716265102938260098,0.019,,,,163.19294064
1716265102945954466,0.019,,,,163.200635008
1716265102953648834,0.021,,,,163.208329376
1716265102961343202,0.019,,,,163.216023744
1716265102969037570,0.014,,,,163.223718112
1716265102976731938,0.019,,,,163.23141248
1716265102984426306,0.024,,,,163.239106848
1716265102992120674,0.024,,,,163.246801216
1716265102999815042,0.024,,,,163.254495584
1716265103007509410,0.034,,,,163.262189952
1716265103015203778,0.038,,,,163.26988432
1716265103022898146,0.034,,,,163.277578688
1716265103030592514,0.031,,,,163.285273056
1716265103038286882,0.038,,,,163.292967424
1716265103045981250,0.046,,,,163.300661792
1716265103053675618,0.043,,,,163.30835616
1716265103061369986,0.043,,,,163.316050528
1716265103069064354,0.051,,,,163.323744896
1716265103076758722,0.053,,,,163.331439264
1716265103084453090,0.051,,,,163.339133632
1716265103092147458,0.055,,,,163.346828
1716265103099841826,0.063,,,,163.354522368
1716265103107536194,0.058,,,,163.362216736
1716265103115230562,0.041,,,,163.369911104
1716265103122924930,0.034,,,,163.377605472
1716265103130619298,0.041,,,,163.38529984
1716265103138313666,0.063,,,,163.392994208
1716265103146008034,0.087,,,,163.400688576
1716265103153702402,0.094,,,,163.408382944
1716265103161396770,0.094,,,,163.416077312
1716265103169091138,0.09,,,,163.42377168
1716265103176785506,0.082,,,,163.431466048
1716265103184479874,0.075,,,,163.439160416
1716265103192174254,0.065,67.0,,,163.446854796
1716265103199868622,0.06,,,,163.454549164
1716265103207562990,0.06,,,,163.462243532
1716265103215257358,0.06,,,,163.4699379
1716265103222951726,0.058,,,,163.477632268
1716265103230646094,0.055,,,,163.485326636
1716265103238340462,0.055,,,,163.493021004
1716265103246034830,0.058,,,,163.500715372
1716265103253729198,0.055,,,,163.50840974
1716265103261423566,0.043,,,,163.516104108
1716265103269117934,0.038,,,,163.523798476
1716265103276812302,0.17,,,,163.531492844
1716265103284506670,0.51,,,,163.539187212
1716265103292201038,0.878,,,,163.54688158
1716265103299895406,1.026,,,,163.554575948
1716265103307589774,0.598,,,,163.562270316
1716265103315284142,-0.35,,,,163.569964684
1716265103322978510,-0.686,,,,163.577659052
1716265103330672878,-0.167,,,,163.58535342
1716265103338367246,0.075,,,,163.593047788
1716265103346061614,-0.053,,,,163.600742156
1716265103353755982,0.007,,,,163.608436524
1716265103361450350,0.094,,,,163.616130892
1716265103369144718,0.048,,,,163.62382526
1716265103376839086,0.053,,,,163.631519628
1716265103384533454,0.097,,,,163.639213996
1716265103392227822,0.09,,,,163.646908364
1716265103399922190,0.092,,,,163.654602732
1716265103407616558,0.116,,,,163.6622971
1716265103415310926,0.126,,,,163.669991468
1716265103423005294,0.136,,,,163.677685836
1716265103430699662,0.153,,,,163.685380204
1716265103438394030,0.17,,,,163.693074572
1716265103446088398,0.184,,,,163.70076894
1716265103453782766,0.211,,,,163.708463308
1716265103461477134,0.238,,,,163.716157676
1716265103469171502,0.27,,,,163.723852044
1716265103476865870,0.306,,,,163.731546412
1716265103484560238,0.343,,,,163.73924078
1716265103492254606,0.379,,,,163.746935148
1716265103499948974,0.411,,,,163.754629516
1716265103507643342,0.425,,,,163.762323884
1716265103515337710,0.433,,,,163.770018252
1716265103523032078,0.43,,,,163.77771262
1716265103530726446,0.396,,921.0,,163.785406988
1716265103538420814,0.333,,,,163.793101356
1716265103546115182,0.253,,,,163.800795724
1716265103553809550,0.167,,,,163.808490092
1716265103561503918,0.087,,,,163.81618446
1716265103569198286,0.021,,,,163.823878828
1716265103576892654,-0.034,,,,163.831573196
1716265103584587022,-0.065,,,,163.839267564
1716265103592281390,-0.08,,,,163.846961932
1716265103599975758,-0.087,,,,163.8546563
1716265103607670126,-0.082,,,,163.862350668
1716265103615364494,-0.077,,,,163.870045036
1716265103623058862,-0.08,,,,163.877739404
1716265103630753230,-0.075,,,,163.885433772
1716265103638447598,-0.065,,,,163.89312814
1716265103646141966,-0.055,,,,163.900822508
1716265103653836334,-0.051,,,,163.908516876
1716265103661530702,-0.043,,,,163.916211244
1716265103669225070,-0.036,,,,163.923905612
1716265103676919438,-0.034,,,,163.93159998
1716265103684613806,-0.029,,,,163.939294348
1716265103692308174,-0.021,,,,163.946988716
1716265103700002542,-0.021,,,,163.954683084
1716265103707696910,-0.024,,,,163.962377452
1716265103715391278,-0.021,,,,163.97007182
1716265103723085646,-0.019,,,,163.977766188
1716265103730780014,-0.019,,,,163.985460556
1716265103738474382,-0.019,,,,163.993154924
1716265103746168750,-0.019,,,,164.000849292
1716265103753863130,-0.017,,,,164.008543672
1716265103761557080,-0.009,,,,164.016237622
1716265103769251030,-0.009,,,,164.023931572
1716265103776944980,-0.009,,,,164.031625522
1716265103784638930,-0.002,,,,164.039319472
1716265103792332880,0.002,,,,164.047013422
1716265103800026830,0.0,,,,164.054707372
1716265103807720780,0.0,,,,164.062401322
1716265103815414730,0.004,,,,164.070095272
1716265103823108680,0.009,,,,164.077789222
1716265103830802630,0.007,,,,164.085483172
1716265103838496580,0.004,,,,164.093177122
1716265103846190530,0.004,,,,164.100871072
1716265103853884480,0.007,,,,164.108565022
1716265103861578430,0.009,,,,164.116258972
1716265103869272380,0.014,,,,164.123952922
1716265103876966330,0.017,,,,164.131646872
1716265103884660280,0.021,,,,164.139340822
1716265103892354230,0.029,,,,164.147034772
1716265103900048180,0.029,,,,164.154728722
1716265103907742130,0.031,,,,164.162422672
1716265103915436080,0.034,,,,164.170116622
1716265103923130030,0.034,,,,164.177810572
1716265103930823980,0.036,,,,164.185504522
1716265103938517930,0.038,,,,164.193198472
1716265103946211880,0.031,,,,164.200892422
1716265103953905830,0.029,,,,164.208586372
1716265103961599780,0.038,,,,164.216280322
1716265103969293730,0.048,,,,164.223974272
1716265103976987680,0.046,,,,164.231668222
1716265103984681630,0.038,,,,164.239362172
1716265103992375580,0.041,,,,164.247056122
1716265104000069530,0.051,,,,164.254750072
1716265104007763480,0.053,,,,164.262444022
1716265104015457430,0.048,,,,164.270137972
1716265104023151380,0.038,,,,164.277831922
1716265104030845330,0.029,,,,164.285525872
1716265104038539280,0.031,,,,164.293219822
1716265104046233230,0.053,,,,164.300913772
1716265104053927180,0.082,,,,164.308607722
1716265104061621130,0.094,,,,164.316301672
1716265104069315080,0.09,,,,164.323995622
1716265104077009030,0.082,,,,164.331689572
1716265104084702980,0.077,,,,164.339383522
1716265104092396930,0.075,,,,164.347077472
1716265104100090880,0.063,,,,164.354771422
1716265104107784830,0.053,,,,164.362465372
1716265104115478780,0.058,,,,164.370159322
1716265104123172730,0.065,,,,164.377853272
1716265104130866680,0.063,,,,164.385547222
1716265104138560630,0.063,,,,164.393241172
1716265104146254580,0.068,,,,164.400935122
1716265104153948530,0.075,,,,164.408629072
1716265104161642480,0.072,,,,164.416323022
1716265104169336430,0.07,,,,164.424016972
1716265104177030380,0.063,,,,164.431710922
1716265104184724330,0.119,,,,164.439404872
1716265104192418280,0.364,,,,164.447098822
1716265104200112230,0.727,,,,164.454792772
1716265104207806180,0.995,,,,164.462486722
1716265104215500130,0.856,,,,164.470180672
1716265104223194080,0.051,,,,164.477874622
1716265104230888030,-0.63,,,,164.485568572
1716265104238581980,-0.35,,,,164.493262522
1716265104246275930,0.072,,,,164.500956472
1716265104253969880,0.009,,,,164.508650422
1716265104261663830,-0.017,,,,164.516344372
1716265104269357780,0.092,,,,164.524038322
1716265104277051730,0.075,,,,164.531732272
1716265104284745680,0.046,,,,164.539426222
1716265104292439630,0.087,,,,164.547120172
1716265104300133580,0.104,,,,164.554814122
1716265104307827530,0.094,,,,164.562508072
1716265104315521488,0.107,66.0,,,164.57020203
1716265104323215856,0.121,,,,164.577896398
1716265104330910224,0.131,,,,164.585590766
1716265104338604592,0.145,,,,164.593285134
1716265104346298960,0.163,,,,164.600979502
1716265104353993328,0.18,,,,164.60867387
1716265104361687696,0.201,,,,164.616368238
1716265104369382064,0.221,,,,164.624062606
1716265104377076432,0.248,,,,164.631756974
1716265104384770800,0.284,,,,164.639451342
1716265104392465168,0.323,,,,164.64714571
1716265104400159536,0.352,,,,164.654840078
1716265104407853904,0.377,,,,164.662534446
1716265104415548272,0.401,,,,164.670228814
1716265104423242640,0.416,,,,164.677923182
1716265104430937008,0.416,,,,164.68561755
1716265104438631376,0.399,,,,164.693311918
1716265104446325744,0.35,,,,164.701006286
1716265104454020112,0.274,,,,164.708700654
1716265104461714480,0.187,,938.0,,164.716395022
1716265104469408848,0.104,,,,164.72408939
1716265104477103216,0.038,,,,164.731783758
1716265104484797584,-0.014,,,,164.739478126
1716265104492491952,-0.055,,,,164.747172494
1716265104500186320,-0.075,,,,164.754866862
1716265104507880688,-0.082,,,,164.76256123
1716265104515575056,-0.087,,,,164.770255598
1716265104523269424,-0.09,,,,164.777949966
1716265104530963792,-0.082,,,,164.785644334
1716265104538658160,-0.075,,,,164.793338702
1716265104546352528,-0.077,,,,164.80103307
1716265104554046896,-0.07,,,,164.808727438
1716265104561741264,-0.06,,,,164.816421806
1716265104569435632,-0.051,,,,164.824116174
1716265104577130000,-0.046,,,,164.831810542
1716265104584824368,-0.041,,,,164.83950491
1716265104592518736,-0.036,,,,164.847199278
1716265104600213104,-0.029,,,,164.854893646
1716265104607907472,-0.024,,,,164.862588014
1716265104615601840,-0.024,,,,164.870282382
1716265104623296208,-0.017,,,,164.87797675
1716265104630990576,-0.012,,,,164.885671118
1716265104638684944,-0.012,,,,164.893365486
1716265104646379312,-0.009,,,,164.901059854
1716265104654073680,-0.002,,,,164.908754222
1716265104661768048,0.004,,,,164.91644859
1716265104669462416,0.007,,,,164.924142958
1716265104677156784,0.007,,,,164.931837326
1716265104684851152,0.007,,,,164.939531694
1716265104692545520,0.002,,,,164.947226062
1716265104700239888,0.002,,,,164.95492043
1716265104707934256,0.007,,,,164.962614798
1716265104715628624,0.007,,,,164.970309166
1716265104723322992,0.009,,,,164.978003534
1716265104731017360,0.009,,,,164.985697902
1716265104738711728,0.009,,,,164.99339227
1716265104746406096,0.007,,,,165.001086638
1716265104754100464,0.002,,,,165.008781006
1716265104761794832,0.0,,,,165.016475374
1716265104769489200,0.004,,,,165.024169742
1716265104777183568,0.004,,,,165.03186411
1716265104784877936,0.007,,,,165.039558478
1716265104792572304,0.012,,,,165.047252846
1716265104800266672,0.017,,,,165.054947214
1716265104807961040,0.019,,,,165.062641582
1716265104815655408,0.019,,,,165.07033595
1716265104823349776,0.019,,,,165.078030318
1716265104831044144,0.026,,,,165.085724686
1716265104838738512,0.031,,,,165.093419054
1716265104846432880,0.031,,,,165.101113422
1716265104854127248,0.031,,,,165.10880779
1716265104861821616,0.034,,,,165.116502158
1716265104869515984,0.038,,,,165.124196526
1716265104877210364,0.041,,,,165.131890906
1716265104884904383,0.041,,,,165.139584925
1716265104892598402,0.043,,,,165.147278944
1716265104900292421,0.046,,,,165.154972963
1716265104907986440,0.046,,,,165.162666982
1716265104915680459,0.038,,,,165.170361001
1716265104923374478,0.036,,,,165.17805502
1716265104931068497,0.031,,,,165.185749039
1716265104938762516,0.014,,,,165.193443058
1716265104946456535,0.007,,,,165.201137077
1716265104954150554,0.029,,,,165.208831096
1716265104961844573,0.053,,,,165.216525115
1716265104969538592,0.07,,,,165.224219134
1716265104977232611,0.075,,,,165.231913153
1716265104984926630,0.072,,,,165.239607172
1716265104992620649,0.065,,,,165.247301191
1716265105000314668,0.063,,,,165.25499521
1716265105008008687,0.055,,,,165.262689229
1716265105015702706,0.041,,,,165.270383248
1716265105023396725,0.036,,,,165.278077267
1716265105031090744,0.048,,,,165.285771286
1716265105038784763,0.058,,,,165.293465305
1716265105046478782,0.048,,,,165.301159324
1716265105054172801,0.043,,,,165.308853343
1716265105061866820,0.053,,,,165.316547362
1716265105069560839,0.06,,,,165.324241381
1716265105077254858,0.06,,,,165.3319354
1716265105084948877,0.053,,,,165.339629419
1716265105092642896,0.058,,,,165.347323438
1716265105100336915,0.201,,,,165.355017457
1716265105108030934,0.532,,,,165.362711476
1716265105115724953,0.866,,,,165.370405495
1716265105123418972,0.951,,,,165.378099514
1716265105131112991,0.433,,,,165.385793533
1716265105138807010,-0.433,,,,165.393487552
1716265105146501029,-0.5740000000000001,,,,165.401181571
1716265105154195048,-0.072,,,,165.40887559
1716265105161889067,0.082,,,,165.416569609
1716265105169583086,-0.007,,,,165.424263628
1716265105177277105,0.065,,,,165.431957647
1716265105184971124,0.104,,,,165.439651666
1716265105192665143,0.063,,,,165.447345685
1716265105200359162,0.085,,,,165.455039704
1716265105208053181,0.111,,,,165.462733723
1716265105215747200,0.099,,,,165.470427742
1716265105223441219,0.109,,,,165.478121761
1716265105231135238,0.128,,,,165.48581578
1716265105238829257,0.131,,,,165.493509799
1716265105246523276,0.136,,,,165.501203818
1716265105254217295,0.148,,,,165.508897837
1716265105261911314,0.16,,,,165.516591856
1716265105269605333,0.182,,,,165.524285875
1716265105277299352,0.209,,,,165.531979894
1716265105284993371,0.233,,,,165.539673913
1716265105292687390,0.265,,,,165.547367932
1716265105300381409,0.304,,,,165.555061951
1716265105308075428,0.347,,,,165.56275597
1716265105315769447,0.386,,,,165.570449989
1716265105323463466,0.411,,,,165.578144008
1716265105331157485,0.423,,,,165.585838027
1716265105338851504,0.433,,,,165.593532046
1716265105346545523,0.433,,,,165.601226065
1716265105354239542,0.406,,,,165.608920084
1716265105361933561,0.34,,,,165.616614103
1716265105369627580,0.257,,903.0,,165.624308122
1716265105377321599,0.167,,,,165.632002141
1716265105385015618,0.087,,,,165.63969616
1716265105392709637,0.021,,,,165.647390179
1716265105400403656,-0.026,,,,165.655084198
1716265105408097675,-0.053,,,,165.662778217
1716265105415791694,-0.068,,,,165.670472236
1716265105423485713,-0.08,,,,165.678166255
1716265105431179732,-0.09,,,,165.685860274
1716265105438873810,-0.087,66.0,,,165.693554352
1716265105446568108,-0.082,,,,165.70124865
1716265105454262406,-0.075,,,,165.708942948
1716265105461956704,-0.07,,,,165.716637246
1716265105469651002,-0.065,,,,165.724331544
1716265105477345300,-0.065,,,,165.732025842
1716265105485039598,-0.065,,,,165.73972014
1716265105492733896,-0.06,,,,165.747414438
1716265105500428194,-0.051,,,,165.755108736
1716265105508122492,-0.048,,,,165.762803034
1716265105515816790,-0.055,,,,165.770497332
1716265105523511088,-0.055,,,,165.77819163
1716265105531205386,-0.041,,,,165.785885928
1716265105538899684,-0.034,,,,165.793580226
1716265105546593982,-0.036,,,,165.801274524
1716265105554288280,-0.031,,,,165.808968822
1716265105561982578,-0.024,,,,165.81666312
1716265105569676876,-0.026,,,,165.824357418
1716265105577371174,-0.026,,,,165.832051716
1716265105585065472,-0.019,,,,165.839746014
1716265105592759770,-0.012,,,,165.847440312
1716265105600454068,-0.012,,,,165.85513461
1716265105608148366,-0.009,,,,165.862828908
1716265105615842664,-0.002,,,,165.870523206
1716265105623536962,0.0,,,,165.878217504
1716265105631231260,0.0,,,,165.885911802
1716265105638925558,0.0,,,,165.8936061
1716265105646619856,0.0,,,,165.901300398
1716265105654314154,0.004,,,,165.908994696
1716265105662008452,0.004,,,,165.916688994
1716265105669702750,0.002,,,,165.924383292
1716265105677397048,0.0,,,,165.93207759
1716265105685091346,0.0,,,,165.939771888
1716265105692785644,-0.002,,,,165.947466186
1716265105700479942,-0.004,,,,165.955160484
1716265105708174240,0.002,,,,165.962854782
1716265105715868538,0.007,,,,165.97054908
1716265105723562836,0.004,,,,165.978243378
1716265105731257134,0.007,,,,165.985937676
1716265105738951432,0.014,,,,165.993631974
1716265105746645730,0.014,,,,166.001326272
1716265105754340028,0.012,,,,166.00902057
1716265105762034326,0.004,,,,166.016714868
1716265105769728624,0.009,,,,166.024409166
1716265105777422922,0.014,,,,166.032103464
1716265105785117220,0.014,,,,166.039797762
1716265105792811518,0.014,,,,166.04749206
1716265105800505816,0.017,,,,166.055186358
1716265105808200114,0.019,,,,166.062880656
1716265105815894412,0.026,,,,166.070574954
1716265105823588710,0.034,,,,166.078269252
1716265105831283008,0.031,,,,166.08596355
1716265105838977306,0.017,,,,166.093657848
1716265105846671604,0.012,,,,166.101352146
1716265105854365902,0.017,,,,166.109046444
1716265105862060200,0.026,,,,166.116740742
1716265105869754498,0.043,,,,166.12443504
1716265105877448796,0.07,,,,166.132129338
1716265105885143094,0.08,,,,166.139823636
1716265105892837392,0.072,,,,166.147517934
1716265105900531690,0.065,,,,166.155212232
1716265105908225988,0.065,,,,166.16290653
1716265105915920286,0.058,,,,166.170600828
1716265105923614584,0.034,,,,166.178295126
1716265105931308882,0.019,,,,166.185989424
1716265105939003180,0.031,,,,166.193683722
1716265105946697478,0.046,,,,166.20137802
1716265105954391776,0.048,,,,166.209072318
1716265105962086074,0.048,,,,166.216766616
1716265105969780372,0.048,,,,166.224460914
1716265105977474670,0.051,,,,166.232155212
1716265105985168968,0.058,,,,166.23984951
1716265105992863266,0.055,,,,166.247543808
1716265106000557598,0.055,,,,166.25523814
1716265106008251896,0.18,,,,166.262932438
1716265106015946194,0.503,,,,166.270626736
1716265106023640492,0.863,,,,166.278321034
1716265106031334790,1.009,,,,166.286015332
1716265106039029088,0.588,,,,166.29370963
1716265106046723386,-0.323,,,,166.301403928
1716265106054417684,-0.6880000000000001,,,,166.309098226
1716265106062111982,-0.238,,,,166.316792524
1716265106069806280,0.034,,,,166.324486822
1716265106077500578,-0.026,,,,166.33218112
1716265106085194876,0.041,,,,166.339875418
1716265106092889174,0.116,,,,166.347569716
1716265106100583472,0.07,,,,166.355264014
1716265106108277770,0.063,,,,166.362958312
1716265106115972068,0.099,,,,166.37065261
1716265106123666366,0.107,,,,166.378346908
1716265106131360664,0.107,,,,166.386041206
1716265106139054962,0.126,,,,166.393735504
1716265106146749260,0.143,,,,166.401429802
1716265106154443558,0.148,,,,166.4091241
1716265106162137856,0.158,,,,166.416818398
1716265106169832154,0.167,,,,166.424512696
1716265106177526452,0.184,,,,166.432206994
1716265106185220750,0.218,,,,166.439901292
1716265106192915048,0.255,,,,166.44759559
1716265106200609346,0.284,,,,166.455289888
1716265106208303644,0.318,,,,166.462984186
1716265106215997942,0.36,,,,166.470678484
1716265106223692240,0.401,,,,166.478372782
1716265106231386538,0.435,,,,166.48606708
1716265106239080836,0.455,,,,166.493761378
1716265106246775134,0.464,,,,166.501455676
1716265106254469432,0.457,,,,166.509149974
1716265106262163730,0.411,,891.0,,166.516844272
1716265106269858028,0.34,,,,166.52453857
1716265106277552326,0.26,,,,166.532232868
1716265106285246624,0.17,,,,166.539927166
1716265106292940922,0.075,,,,166.547621464
1716265106300635220,0.002,,,,166.555315762
1716265106308329518,-0.043,,,,166.56301006
1716265106316023816,-0.082,,,,166.570704358
1716265106323718114,-0.107,,,,166.578398656
1716265106331412412,-0.114,,,,166.586092954
1716265106339106710,-0.114,,,,166.593787252
1716265106346801008,-0.114,,,,166.60148155
1716265106354495306,-0.104,,,,166.609175848
1716265106362189604,-0.092,,,,166.616870146
1716265106369883902,-0.09,,,,166.624564444
1716265106377578200,-0.087,,,,166.632258742
1716265106385272498,-0.087,,,,166.63995304
1716265106392966796,-0.082,,,,166.647647338
1716265106400661094,-0.075,,,,166.655341636
1716265106408355392,-0.065,,,,166.663035934
1716265106416049690,-0.063,,,,166.670730232
1716265106423743988,-0.063,,,,166.67842453
1716265106431438286,-0.06,,,,166.686118828
1716265106439132584,-0.055,,,,166.693813126
1716265106446826882,-0.043,,,,166.701507424
1716265106454521180,-0.034,,,,166.709201722
1716265106462215478,-0.024,,,,166.71689602
1716265106469909776,-0.021,,,,166.724590318
1716265106477604074,-0.024,,,,166.732284616
1716265106485298372,-0.021,,,,166.739978914
1716265106492992670,-0.007,,,,166.747673212
1716265106500686968,0.002,,,,166.75536751
1716265106508381266,0.007,,,,166.763061808
1716265106516075564,0.012,,,,166.770756106
1716265106523769862,0.009,,,,166.778450404
1716265106531464160,0.002,,,,166.786144702
1716265106539158458,0.002,,,,166.793839
1716265106546852756,0.017,,,,166.801533298
1716265106554547054,0.024,,,,166.809227596
1716265106562241390,0.014,66.0,,,166.816921932
1716265106569935409,0.012,,,,166.824615951
1716265106577629428,0.024,,,,166.83230997
1716265106585323447,0.029,,,,166.840003989
1716265106593017466,0.021,,,,166.847698008
1716265106600711485,0.019,,,,166.855392027
1716265106608405504,0.024,,,,166.863086046
1716265106616099523,0.026,,,,166.870780065
1716265106623793542,0.017,,,,166.878474084
1716265106631487561,0.009,,,,166.886168103
1716265106639181580,0.017,,,,166.893862122
1716265106646875599,0.024,,,,166.901556141
1716265106654569618,0.019,,,,166.90925016
1716265106662263637,0.017,,,,166.916944179
1716265106669957656,0.019,,,,166.924638198
1716265106677651675,0.026,,,,166.932332217
1716265106685345694,0.029,,,,166.940026236
1716265106693039713,0.029,,,,166.947720255
1716265106700733732,0.026,,,,166.955414274
1716265106708427751,0.019,,,,166.963108293
1716265106716121770,0.019,,,,166.970802312
1716265106723815789,0.031,,,,166.978496331
1716265106731509808,0.053,,,,166.98619035
1716265106739203827,0.075,,,,166.993884369
1716265106746897846,0.077,,,,167.001578388
1716265106754591865,0.068,,,,167.009272407
1716265106762285884,0.053,,,,167.016966426
1716265106769979903,0.041,,,,167.024660445
1716265106777673922,0.029,,,,167.032354464
1716265106785367941,0.026,,,,167.040048483
1716265106793061960,0.031,,,,167.047742502
1716265106800755979,0.034,,,,167.055436521
1716265106808449998,0.031,,,,167.06313054
1716265106816144017,0.038,,,,167.070824559
1716265106823838036,0.046,,,,167.078518578
1716265106831532055,0.043,,,,167.086212597
1716265106839226074,0.046,,,,167.093906616
1716265106846920093,0.048,,,,167.101600635
1716265106854614112,0.043,,,,167.109294654
1716265106862308131,0.124,,,,167.116988673
1716265106870002150,0.43,,,,167.124682692
1716265106877696169,0.856,,,,167.132376711
1716265106885390188,1.099,,,,167.14007073
1716265106893084207,0.781,,,,167.147764749
1716265106900778226,-0.175,,,,167.155458768
1716265106908472245,-0.761,,,,167.163152787
1716265106916166264,-0.374,,,,167.170846806
1716265106923860283,0.007,,,,167.178540825
1716265106931554302,-0.036,,,,167.186234844
1716265106939248321,0.004,,,,167.193928863
1716265106946942340,0.109,,,,167.201622882
1716265106954636359,0.08,,,,167.209316901
1716265106962330378,0.07,,,,167.21701092
1716265106970024397,0.116,,,,167.224704939
1716265106977718416,0.121,,,,167.232398958
1716265106985412435,0.114,,,,167.240092977
1716265106993106454,0.131,,,,167.247786996
1716265107000800473,0.141,,,,167.255481015
1716265107008494492,0.148,,,,167.263175034
1716265107016188511,0.163,,,,167.270869053
1716265107023882530,0.182,,,,167.278563072
1716265107031576549,0.201,,,,167.286257091
1716265107039270568,0.221,,,,167.29395111
1716265107046964587,0.253,,,,167.301645129
1716265107054658606,0.289,,,,167.309339148
1716265107062352625,0.326,,,,167.317033167
1716265107070046644,0.364,,,,167.324727186
1716265107077740663,0.401,,,,167.332421205
1716265107085434682,0.43,,,,167.340115224
1716265107093128701,0.455,,,,167.347809243
1716265107100822720,0.464,,,,167.355503262
1716265107108516739,0.455,,,,167.363197281
1716265107116210758,0.43,,,,167.3708913
1716265107123904834,0.379,66.0,,,167.378585376
1716265107131598993,0.289,,,,167.386279535
1716265107139293152,0.192,,,,167.393973694
1716265107146987311,0.107,,,,167.401667853
1716265107154681470,0.026,,,,167.409362012
1716265107162375629,-0.036,,,,167.417056171
1716265107170069788,-0.07,,911.0,,167.42475033
1716265107177763947,-0.094,,,,167.432444489
1716265107185458106,-0.109,,,,167.440138648
1716265107193152265,-0.116,,,,167.447832807
1716265107200846424,-0.119,,,,167.455526966
1716265107208540583,-0.111,,,,167.463221125
1716265107216234742,-0.102,,,,167.470915284
1716265107223928901,-0.099,,,,167.478609443
1716265107231623060,-0.094,,,,167.486303602
1716265107239317219,-0.085,,,,167.493997761
1716265107247011378,-0.077,,,,167.50169192
1716265107254705537,-0.072,,,,167.509386079
1716265107262399696,-0.072,,,,167.517080238
1716265107270093855,-0.075,,,,167.524774397
1716265107277788014,-0.075,,,,167.532468556
1716265107285482173,-0.06,,,,167.540162715
1716265107293176332,-0.053,,,,167.547856874
1716265107300870491,-0.048,,,,167.555551033
1716265107308564650,-0.041,,,,167.563245192
1716265107316258809,-0.036,,,,167.570939351
1716265107323952968,-0.029,,,,167.57863351
1716265107331647127,-0.019,,,,167.586327669
1716265107339341286,-0.014,,,,167.594021828
1716265107347035445,-0.012,,,,167.601715987
1716265107354729604,-0.004,,,,167.609410146
1716265107362423763,0.0,,,,167.617104305
1716265107370117922,0.002,,,,167.624798464
1716265107377812081,0.004,,,,167.632492623
1716265107385506240,0.009,,,,167.640186782
1716265107393200399,0.009,,,,167.647880941
1716265107400894558,0.007,,,,167.6555751
1716265107408588717,0.002,,,,167.663269259
1716265107416282876,0.004,,,,167.670963418
1716265107423977035,0.012,,,,167.678657577
1716265107431671194,0.017,,,,167.686351736
1716265107439365353,0.019,,,,167.694045895
1716265107447059512,0.019,,,,167.701740054
1716265107454753671,0.019,,,,167.709434213
1716265107462447830,0.021,,,,167.717128372
1716265107470141989,0.024,,,,167.724822531
1716265107477836148,0.029,,,,167.73251669
1716265107485530307,0.031,,,,167.740210849
1716265107493224466,0.031,,,,167.747905008
1716265107500918625,0.031,,,,167.755599167
1716265107508612784,0.036,,,,167.763293326
1716265107516306943,0.043,,,,167.770987485
1716265107524001102,0.051,,,,167.778681644
1716265107531695261,0.048,,,,167.786375803
1716265107539389420,0.051,,,,167.794069962
1716265107547083579,0.053,,,,167.801764121
1716265107554777738,0.053,,,,167.80945828
1716265107562471897,0.055,,,,167.817152439
1716265107570166056,0.06,,,,167.824846598
1716265107577860215,0.053,,,,167.832540757
1716265107585554374,0.041,,,,167.840234916
1716265107593248533,0.036,,,,167.847929075
1716265107600942692,0.053,,,,167.855623234
1716265107608636851,0.072,,,,167.863317393
1716265107616331010,0.085,,,,167.871011552
1716265107624025169,0.102,,,,167.878705711
1716265107631719328,0.109,,,,167.88639987
1716265107639413487,0.09,,,,167.894094029
1716265107647107646,0.08,,,,167.901788188
1716265107654801805,0.08,,,,167.909482347
1716265107662495964,0.068,,,,167.917176506
1716265107670190123,0.06,,,,167.924870665
1716265107677884282,0.065,,,,167.932564824
1716265107685578452,0.07,,,,167.940258994
1716265107693272611,0.07,,,,167.947953153
1716265107700966770,0.072,,,,167.955647312
1716265107708660929,0.077,,,,167.963341471
1716265107716355088,0.082,,,,167.97103563
1716265107724049247,0.08,,,,167.978729789
1716265107731743406,0.055,,,,167.986423948
1716265107739437565,0.06,,,,167.994118107
1716265107747131724,0.231,,,,168.001812266
1716265107754825883,0.591,,,,168.009506425
1716265107762520042,0.936,,,,168.017200584
1716265107770214201,1.026,,,,168.024894743
1716265107777908360,0.467,,,,168.032588902
1716265107785602519,-0.486,,,,168.040283061
1716265107793296678,-0.627,,,,168.04797722
1716265107800990837,-0.065,,,,168.055671379
1716265107808684996,0.077,,,,168.063365538
1716265107816379155,-0.038,,,,168.071059697
1716265107824073314,0.051,,,,168.078753856
1716265107831767473,0.102,,,,168.086448015
1716265107839461632,0.055,,,,168.094142174
1716265107847155791,0.075,,,,168.101836333
1716265107854849950,0.109,,,,168.109530492
1716265107862544109,0.099,,,,168.117224651
1716265107870238268,0.107,,,,168.12491881
1716265107877932427,0.128,,,,168.132612969
1716265107885626586,0.138,,,,168.140307128
1716265107893320745,0.143,,,,168.148001287
1716265107901014904,0.16,,,,168.155695446
1716265107908709063,0.18,,,,168.163389605
1716265107916403222,0.194,,,,168.171083764
1716265107924097381,0.216,,,,168.178777923
1716265107931791540,0.25,,,,168.186472082
1716265107939485699,0.284,,,,168.194166241
1716265107947179858,0.318,,,,168.2018604
1716265107954874017,0.355,,,,168.209554559
1716265107962568176,0.391,,,,168.217248718
1716265107970262335,0.423,,,,168.224942877
1716265107977956494,0.442,,,,168.232637036
1716265107985650653,0.452,,,,168.240331195
1716265107993344812,0.447,,,,168.248025354
1716265108001038971,0.418,,,,168.255719513
1716265108008733130,0.355,,,,168.263413672
1716265108016427289,0.267,,,,168.271107831
1716265108024121448,0.18,,,,168.27880199
1716265108031815607,0.102,,,,168.286496149
1716265108039509766,0.036,,,,168.294190308
1716265108047203925,-0.007,,,,168.301884467
1716265108054898084,-0.036,,,,168.309578626
1716265108062592243,-0.051,,,,168.317272785
1716265108070286402,-0.06,,,,168.324966944
1716265108077980561,-0.063,,911.0,,168.332661103
1716265108085674720,-0.063,,,,168.340355262
1716265108093368879,-0.068,,,,168.348049421
1716265108101063038,-0.063,,,,168.35574358
1716265108108757197,-0.055,,,,168.363437739
1716265108116451356,-0.048,,,,168.371131898
1716265108124145515,-0.043,,,,168.378826057
1716265108131839674,-0.041,,,,168.386520216
1716265108139533833,-0.043,,,,168.394214375
1716265108147227992,-0.041,,,,168.401908534
1716265108154922151,-0.034,,,,168.409602693
1716265108162616310,-0.029,,,,168.417296852
1716265108170310469,-0.024,,,,168.424991011
1716265108178004628,-0.021,,,,168.43268517
1716265108185698787,-0.019,,,,168.440379329
1716265108193392946,-0.014,,,,168.448073488
1716265108201087105,-0.012,,,,168.455767647
1716265108208781264,-0.007,,,,168.463461806
1716265108216475423,-0.007,,,,168.471155965
1716265108224169582,-0.002,,,,168.478850124
1716265108231863741,0.007,,,,168.486544283
1716265108239557900,0.004,,,,168.494238442
1716265108247252068,0.004,66.0,,,168.50193261
1716265108254946087,0.012,,,,168.509626629
1716265108262640106,0.017,,,,168.517320648
1716265108270334125,0.017,,,,168.525014667
1716265108278028144,0.014,,,,168.532708686
1716265108285722163,0.009,,,,168.540402705
1716265108293416182,0.007,,,,168.548096724
1716265108301110201,0.009,,,,168.555790743
1716265108308804220,0.007,,,,168.563484762
1716265108316498239,0.009,,,,168.571178781
1716265108324192258,0.014,,,,168.5788728
1716265108331886277,0.017,,,,168.586566819
1716265108339580296,0.017,,,,168.594260838
1716265108347274315,0.021,,,,168.601954857
1716265108354968334,0.024,,,,168.609648876
1716265108362662353,0.024,,,,168.617342895
1716265108370356372,0.024,,,,168.625036914
1716265108378050391,0.024,,,,168.632730933
1716265108385744410,0.024,,,,168.640424952
1716265108393438429,0.026,,,,168.648118971
1716265108401132448,0.031,,,,168.65581299
1716265108408826467,0.036,,,,168.663507009
1716265108416520486,0.038,,,,168.671201028
1716265108424214505,0.038,,,,168.678895047
1716265108431908524,0.043,,,,168.686589066
1716265108439602543,0.048,,,,168.694283085
1716265108447296562,0.051,,,,168.701977104
1716265108454990581,0.048,,,,168.709671123
1716265108462684600,0.048,,,,168.717365142
1716265108470378619,0.053,,,,168.725059161
1716265108478072638,0.051,,,,168.73275318
1716265108485766657,0.041,,,,168.740447199
1716265108493460676,0.041,,,,168.748141218
1716265108501154695,0.058,,,,168.755835237
1716265108508848714,0.077,,,,168.763529256
1716265108516542733,0.094,,,,168.771223275
1716265108524236752,0.102,,,,168.778917294
1716265108531930771,0.097,,,,168.786611313
1716265108539624790,0.087,,,,168.794305332
1716265108547318809,0.085,,,,168.801999351
1716265108555012828,0.08,,,,168.80969337
1716265108562706847,0.063,,,,168.817387389
1716265108570400866,0.058,,,,168.825081408
1716265108578094885,0.072,,,,168.832775427
1716265108585788904,0.077,,,,168.840469446
1716265108593482923,0.075,,,,168.848163465
1716265108601176942,0.077,,,,168.855857484
1716265108608870961,0.077,,,,168.863551503
1716265108616564980,0.077,,,,168.871245522
1716265108624258999,0.08,,,,168.878939541
1716265108631953018,0.068,,,,168.88663356
1716265108639647037,0.072,,,,168.894327579
1716265108647341056,0.223,,,,168.902021598
1716265108655035075,0.562,,,,168.909715617
1716265108662729094,0.905,,,,168.917409636
1716265108670423113,1.002,,,,168.925103655
1716265108678117132,0.491,,,,168.932797674
1716265108685811151,-0.416,,,,168.940491693
1716265108693505170,-0.593,,,,168.948185712
1716265108701199189,-0.06,,,,168.955879731
1716265108708893208,0.107,,,,168.96357375
1716265108716587227,-0.004,,,,168.971267769
1716265108724281246,0.07,,,,168.978961788
1716265108731975265,0.126,,,,168.986655807
1716265108739669284,0.08,,,,168.994349826
1716265108747363303,0.094,,,,169.002043845
1716265108755057322,0.128,,,,169.009737864
1716265108762751341,0.124,,,,169.017431883
1716265108770445360,0.128,,,,169.025125902
1716265108778139379,0.148,,,,169.032819921
1716265108785833398,0.155,,,,169.04051394
1716265108793527417,0.158,,,,169.048207959
1716265108801221436,0.167,,,,169.055901978
1716265108808915514,0.187,,,,169.063596056
1716265108816609812,0.204,,,,169.071290354
1716265108824304110,0.226,,,,169.078984652
1716265108831998408,0.253,,,,169.08667895
1716265108839692706,0.277,,,,169.094373248
1716265108847387004,0.306,,,,169.102067546
1716265108855081302,0.347,,,,169.109761844
1716265108862775600,0.389,,,,169.117456142
1716265108870469898,0.418,,,,169.12515044
1716265108878164196,0.433,,,,169.132844738
1716265108885858494,0.437,,,,169.140539036
1716265108893552792,0.433,,,,169.148233334
1716265108901247090,0.403,,,,169.155927632
1716265108908941388,0.343,,,,169.16362193
1716265108916635686,0.26,,,,169.171316228
1716265108924329984,0.172,,,,169.179010526
1716265108932024282,0.09,,,,169.186704824
1716265108939718580,0.026,,,,169.194399122
