HRV_ULF,HRV_VLF,HRV_LF,HRV_HF,HRV_VHF,HRV_TP,HRV_LFHF,HRV_LFn,HRV_HFn,HRV_LnHF,time
,,0.060100606330213184,0.0678956672994028,0.003973614407706652,0.13196988803732265,0.8851905978799006,0.4554115126112407,0.5144784792133876,-2.6897830564769554,0.0
,,0.060100606330213184,0.0678956672994028,0.003973614407706652,0.13196988803732265,0.8851905978799006,0.4554115126112407,0.5144784792133876,-2.6897830564769554,0.1
,,0.050577722815749036,0.04186338979798748,0.006238995764665548,0.09868010837840208,0.9928474617605154,0.5125422301098616,0.42423331800018615,-3.1733435858356884,0.2
,,0.050577722815749036,0.04186338979798748,0.006238995764665548,0.09868010837840208,1.0466758937008227,0.5125422301098616,0.42423331800018615,-3.1733435858356884,0.3
,,0.050577722815749036,0.04186338979798748,0.006238995764665548,0.09868010837840208,1.0789729528650072,0.5125422301098616,0.42423331800018615,-3.1733435858356884,0.4
,,0.050577722815749036,0.04186338979798748,0.006238995764665548,0.09868010837840208,1.10050432564113,0.5125422301098616,0.42423331800018615,-3.1733435858356884,0.5
,,0.06372348449272738,0.06852545833738916,0.0040187967137820324,0.13626773954389856,1.0761357414103956,0.4676344137359004,0.5028736703694547,-2.680549948199981,0.6
,,0.06372348449272738,0.06852545833738916,0.0040187967137820324,0.13626773954389856,1.057859303237345,0.4676344137359004,0.5028736703694547,-2.680549948199981,0.7
,,0.06455165696929127,0.06944433706146053,0.004978598790430799,0.1389745928211826,1.04360219151404,0.4644853110118432,0.49969088343229723,-2.667229752898119,0.8
,,0.06455165696929127,0.06944433706146053,0.004978598790430799,0.1389745928211826,1.0321965021353963,0.4644853110118432,0.49969088343229723,-2.667229752898119,0.9
,,0.06455165696929127,0.06944433706146053,0.004978598790430799,0.1389745928211826,1.0228645744619604,0.4644853110118432,0.49969088343229723,-2.667229752898119,1.0
,,0.06455165696929127,0.06944433706146053,0.004978598790430799,0.1389745928211826,1.0150879680674307,0.4644853110118432,0.49969088343229723,-2.667229752898119,1.1
,,0.06455165696929127,0.06944433706146053,0.004978598790430799,0.1389745928211826,1.0085077626566745,0.4644853110118432,0.49969088343229723,-2.667229752898119,1.2
,,0.06483411105976225,0.06547533446971658,0.003828949454999192,0.13413839498447802,1.0072005397315469,0.48333745954888313,0.48811777177811866,-2.7260817802437676,1.3
,,0.06483411105976225,0.06547533446971658,0.003828949454999192,0.13413839498447802,1.0060676131964361,0.48333745954888313,0.48811777177811866,-2.7260817802437676,1.4
,,0.06296112496322617,0.06336185037952187,0.0045461783469962404,0.1308691536897443,1.0052931126382276,0.4810998099100582,0.48416184099223136,-2.7588933276801497,1.5
,,0.06296112496322617,0.06336185037952187,0.0045461783469962404,0.1308691536897443,1.0046097297927492,0.4810998099100582,0.48416184099223136,-2.7588933276801497,1.6
,,0.06296112496322617,0.06336185037952187,0.0045461783469962404,0.1308691536897443,1.0040022783745466,0.4810998099100582,0.48416184099223136,-2.7588933276801497,1.7
,,0.06296112496322617,0.06336185037952187,0.0045461783469962404,0.1308691536897443,1.0034587692108914,0.4810998099100582,0.48416184099223136,-2.7588933276801497,1.8
,,0.06296112496322617,0.06336185037952187,0.0045461783469962404,0.1308691536897443,1.002969610963602,0.4810998099100582,0.48416184099223136,-2.7588933276801497,1.9
,,0.06280532519729404,0.059481927543741,0.003439776138521416,0.12572702887955645,1.0054887910777306,0.49953717794015534,0.4731037396956489,-2.8220827513291686,2.0
,,0.06280532519729404,0.059481927543741,0.003439776138521416,0.12572702887955645,1.0077789548178475,0.49953717794015534,0.4731037396956489,-2.8220827513291686,2.1
,,0.039251503338148475,0.02939235332888184,0.003971068754991043,0.07261492542202136,1.0220247603184227,0.5405431887456704,0.4047701372418989,-3.5270207293213525,2.2
,,0.039251503338148475,0.02939235332888184,0.003971068754991043,0.07261492542202136,1.0350834153606168,0.5405431887456704,0.4047701372418989,-3.5270207293213525,2.3
,,0.039251503338148475,0.02939235332888184,0.003971068754991043,0.07261492542202136,1.0470973779994353,0.5405431887456704,0.4047701372418989,-3.5270207293213525,2.4
,,0.039251503338148475,0.02939235332888184,0.003971068754991043,0.07261492542202136,1.0581871896660369,0.5405431887456704,0.4047701372418989,-3.5270207293213525,2.5
,,0.039251503338148475,0.02939235332888184,0.003971068754991043,0.07261492542202136,1.0684555338017792,0.5405431887456704,0.4047701372418989,-3.5270207293213525,2.6
,,0.039251503338148475,0.02939235332888184,0.003971068754991043,0.07261492542202136,1.0779904247849685,0.5405431887456704,0.4047701372418989,-3.5270207293213525,2.7
,,0.05796263943482949,0.05181734227885185,0.003659270016676292,0.11343925173035763,1.0793905954932943,0.5109575261709702,0.45678494426268273,-2.9600303927193523,2.8
,,0.05796263943482949,0.05181734227885185,0.003659270016676292,0.11343925173035763,1.0806974214877314,0.5109575261709702,0.45678494426268273,-2.9600303927193523,2.9
,,0.05796263943482949,0.05181734227885185,0.003659270016676292,0.11343925173035763,1.081919936127689,0.5109575261709702,0.45678494426268273,-2.9600303927193523,3.0
,,0.05796263943482949,0.05181734227885185,0.003659270016676292,0.11343925173035763,1.0830660436026491,0.5109575261709702,0.45678494426268273,-2.9600303927193523,3.1
,,0.05796263943482949,0.05181734227885185,0.003659270016676292,0.11343925173035763,1.0841426900185207,0.5109575261709702,0.45678494426268273,-2.9600303927193523,3.2
,,0.05796263943482949,0.05181734227885185,0.003659270016676292,0.11343925173035763,1.0851560042922823,0.5109575261709702,0.45678494426268273,-2.9600303927193523,3.3
,,0.05796263943482949,0.05181734227885185,0.003659270016676292,0.11343925173035763,1.0861114148932574,0.5109575261709702,0.45678494426268273,-2.9600303927193523,3.4
,,0.05482054139150283,0.04932517224713626,0.003520242775832936,0.10766595641447202,1.0868141824860507,0.5091724739848601,0.4581315569914556,-3.0093207349936706,3.5
,,0.04622559797715399,0.026194788071480655,0.002944529957641794,0.07536491600627644,1.1051350653184484,0.6133569892561718,0.3475727096849565,-3.642194816573439,3.6
,,0.04622559797715399,0.026194788071480655,0.002944529957641794,0.07536491600627644,1.1224916911596674,0.6133569892561718,0.3475727096849565,-3.642194816573439,3.7
,,0.04622559797715399,0.026194788071480655,0.002944529957641794,0.07536491600627644,1.138958233624414,0.6133569892561718,0.3475727096849565,-3.642194816573439,3.8
,,0.04622559797715399,0.026194788071480655,0.002944529957641794,0.07536491600627644,1.1546014489659229,0.6133569892561718,0.3475727096849565,-3.642194816573439,3.9
,,0.044701090991688355,0.027048857662549705,0.0028043447126921755,0.07455429336693023,1.1667478892799894,0.5995776899351077,0.36280751169385594,-3.6101105051710425,4.0
,,0.044701515316361795,0.027048795103985793,0.002804346565481489,0.07455465698582908,1.1783163921869757,0.599580457125011,0.3628049031078913,-3.610112817972457,4.1
,,0.05283533480416992,0.043950643571081985,0.002955221034068706,0.09974119940932061,1.1788706984533837,0.5297242776011031,0.4406468323156628,-3.1246880117025997,4.2
,,0.05283533480416992,0.043950643571081985,0.002955221034068706,0.09974119940932061,1.1793998089804096,0.5297242776011031,0.4406468323156628,-3.1246880117025997,4.3
,,0.05283533480416992,0.043950643571081985,0.002955221034068706,0.09974119940932061,1.179905403484012,0.5297242776011031,0.4406468323156628,-3.1246880117025997,4.4
,,0.05283533480416992,0.043950643571081985,0.002955221034068706,0.09974119940932061,1.1803890156178924,0.5297242776011031,0.4406468323156628,-3.1246880117025997,4.5
,,0.050433225537374254,0.04289875705799233,0.0029305508925770644,0.09626253348794364,1.1802878392115583,0.5239133410475919,0.4456433412212776,-3.1489124264750634,4.6
,,0.050433225537374254,0.04289875705799233,0.0029305508925770644,0.09626253348794364,1.1801908784888215,0.5239133410475919,0.4456433412212776,-3.1489124264750634,4.7
,,0.050433225537374254,0.04289875705799233,0.0029305508925770644,0.09626253348794364,1.1800978753466045,0.5239133410475919,0.4456433412212776,-3.1489124264750634,4.8
,,0.05118265946916381,0.04200963254104313,0.0027150915254107273,0.09590738353561767,1.1808630243213387,0.5336675611649422,0.43802292370369766,-3.169856340779279,4.9
,,0.05118265946916381,0.04200963254104313,0.0027150915254107273,0.09590738353561767,1.1815981674539267,0.5336675611649422,0.43802292370369766,-3.169856340779279,5.0
,,0.05118265946916381,0.04200963254104313,0.0027150915254107273,0.09590738353561767,1.182305035850646,0.5336675611649422,0.43802292370369766,-3.169856340779279,5.1
,,0.044059562057052845,0.028210692235198197,0.0022676559885556656,0.0745379102808067,1.1894653870309766,0.5911027273379041,0.3784744183049947,-3.5680542156234933,5.2
,,0.044059562057052845,0.028210692235198197,0.0022676559885556656,0.0745379102808067,1.1963605400194435,0.5911027273379041,0.3784744183049947,-3.5680542156234933,5.3
,,0.044059562057052845,0.028210692235198197,0.0022676559885556656,0.0745379102808067,1.2030049601719657,0.5911027273379041,0.3784744183049947,-3.5680542156234933,5.4
,,0.044059562057052845,0.028210692235198197,0.0022676559885556656,0.0745379102808067,1.2094120796047554,0.5911027273379041,0.3784744183049947,-3.5680542156234933,5.5
,,0.049809118834106034,0.041272892554897495,0.002051709479897403,0.09313372086890093,1.2093666753580266,0.5348129374560211,0.44315734590906136,-3.1875493491130977,5.6
,,0.049809118834106034,0.041272892554897495,0.002051709479897403,0.09313372086890093,1.209322836774978,0.5348129374560211,0.44315734590906136,-3.1875493491130977,5.7
,,0.04783716616228639,0.041462571574560826,0.0026250320493923507,0.09192476978623956,1.2083808115485197,0.5203947344499877,0.45104895743527285,-3.1829641484623807,5.8
,,0.04783716616228639,0.041462571574560826,0.0026250320493923507,0.09192476978623956,1.2074701871629434,0.5203947344499877,0.45104895743527285,-3.1829641484623807,5.9
,,0.04783716616228639,0.041462571574560826,0.0026250320493923507,0.09192476978623956,1.2065894193145992,0.5203947344499877,0.45104895743527285,-3.1829641484623807,6.0
,,0.04783716616228639,0.041462571574560826,0.0026250320493923507,0.09192476978623956,1.2057370633323303,0.5203947344499877,0.45104895743527285,-3.1829641484623807,6.1
,,0.04551231663099759,0.030509060617525847,0.0015412071828806927,0.07756258443140414,1.2102771725682477,0.5867818480345817,0.3933476539130522,-3.4897315700580793,6.2
,,0.04551231663099759,0.030509060617525847,0.0015412071828806927,0.07756258443140414,1.2146754033905427,0.5867818480345817,0.3933476539130522,-3.4897315700580793,6.3
,,0.044496752012014265,0.03292559743775901,0.0019698570774337814,0.07939220652720706,1.2167793725316163,0.5604675063007046,0.4147207752246523,-3.4135048861033255,6.4
,,0.044496752012014265,0.03292559743775901,0.0019698570774337814,0.07939220652720706,1.2188195850320513,0.5604675063007046,0.4147207752246523,-3.4135048861033255,6.5
,,0.044496752012014265,0.03292559743775901,0.0019698570774337814,0.07939220652720706,1.2207988956668017,0.5604675063007046,0.4147207752246523,-3.4135048861033255,6.6
,,0.044496752012014265,0.03292559743775901,0.0019698570774337814,0.07939220652720706,1.222719991282883,0.5604675063007046,0.4147207752246523,-3.4135048861033255,6.7
,,0.044496752012014265,0.03292559743775901,0.0019698570774337814,0.07939220652720706,1.2245854029680634,0.5604675063007046,0.4147207752246523,-3.4135048861033255,6.8
,,0.04846193536571392,0.043184290493650364,0.0019363137555511402,0.09358253961491543,1.2231229278874904,0.5178523212249941,0.46145670625471613,-3.1422784958476213,6.9
,,0.04846193536571392,0.043184290493650364,0.0019363137555511402,0.09358253961491543,1.2217016492880604,0.5178523212249941,0.46145670625471613,-3.1422784958476213,7.0
,,0.0452104446416199,0.036515790585763735,0.0018828408337049013,0.08360907606108854,1.2219294970858996,0.5407360871753578,0.4367443381276413,-3.310010493158171,7.1
,,0.0452104446416199,0.036515790585763735,0.0018828408337049013,0.08360907606108854,1.2221511024783183,0.5407360871753578,0.4367443381276413,-3.310010493158171,7.2
,,0.0452104446416199,0.036515790585763735,0.0018828408337049013,0.08360907606108854,1.222366718535807,0.5407360871753578,0.4367443381276413,-3.310010493158171,7.3
,,0.0452104446416199,0.036515790585763735,0.0018828408337049013,0.08360907606108854,1.2225765848317622,0.5407360871753578,0.4367443381276413,-3.310010493158171,7.4
,,0.048548880333443914,0.04590824359297336,0.0019392765831009165,0.0963964005095182,1.2204047861063294,0.503637895988141,0.47624437583061385,-3.081110579066148,7.5
,,0.048548880333443914,0.04590824359297336,0.0019392765831009165,0.0963964005095182,1.2182893977374014,0.503637895988141,0.47624437583061385,-3.081110579066148,7.6
,,0.0463151187996578,0.04094718131784252,0.001827297862903408,0.08908959798040374,1.2171715104318435,0.5198712290726167,0.4596179828631544,-3.195472303339227,7.7
,,0.0463151187996578,0.04094718131784252,0.001827297862903408,0.08908959798040374,1.21608192407073,0.5198712290726167,0.4596179828631544,-3.195472303339227,7.8
,,0.0463151187996578,0.04094718131784252,0.001827297862903408,0.08908959798040374,1.2150195773686443,0.5198712290726167,0.4596179828631544,-3.195472303339227,7.9
,,0.0463151187996578,0.04094718131784252,0.001827297862903408,0.08908959798040374,1.218093372243944,0.5198712290726167,0.4596179828631544,-3.195472303339227,8.0
,,0.04919084712264066,0.049672598641416474,0.0019729210195679834,0.10083636678362512,1.219407258062232,0.487828436224745,0.4926059935102981,-3.0023018331034494,8.1
,,0.04919084712264066,0.049672598641416474,0.0019729210195679834,0.10083636678362512,1.2166840114849964,0.487828436224745,0.4926059935102981,-3.0023018331034494,8.2
,,0.048453792400024426,0.052414401097154784,0.002667968074718278,0.10353616157189749,1.2131374545115565,0.4679890741977834,0.5062424596526811,-2.9485738953156404,8.3
,,0.048453792400024426,0.052414401097154784,0.002667968074718278,0.10353616157189749,1.2095908975381164,0.4679890741977834,0.5062424596526811,-2.9485738953156404,8.4
,,0.048453792400024426,0.052414401097154784,0.002667968074718278,0.10353616157189749,1.2060443405646764,0.4679890741977834,0.5062424596526811,-2.9485738953156404,8.5
,,0.048453792400024426,0.052414401097154784,0.002667968074718278,0.10353616157189749,1.2059757455099331,0.4679890741977834,0.5062424596526811,-2.9485738953156404,8.6
,,0.048453792400024426,0.052414401097154784,0.002667968074718278,0.10353616157189749,1.20590715045519,0.4679890741977834,0.5062424596526811,-2.9485738953156404,8.7
,,0.04948385012102226,0.048142700300182806,0.0013123376202342656,0.09893888804143933,1.2071360567607063,0.5001456060461945,0.48659027055184645,-3.0335857555501,8.8
,,0.04963920967085787,0.0574157489911212,0.0027618198400236223,0.1098167785020027,1.2063237078222808,0.4520184469803275,0.522832209925682,-2.8574366406222964,8.9
,,0.04963920967085787,0.0574157489911212,0.0027618198400236223,0.1098167785020027,1.2055113588838555,0.4520184469803275,0.522832209925682,-2.8574366406222964,9.0
,,0.04963920967085787,0.0574157489911212,0.0027618198400236223,0.1098167785020027,1.20469900994543,0.4520184469803275,0.522832209925682,-2.8574366406222964,9.1
,,0.04963920967085787,0.0574157489911212,0.0027618198400236223,0.1098167785020027,1.2038866610070045,0.4520184469803275,0.522832209925682,-2.8574366406222964,9.2
,,0.04963920967085787,0.0574157489911212,0.0027618198400236223,0.1098167785020027,1.202316045268863,0.4520184469803275,0.522832209925682,-2.8574366406222964,9.3
,,0.05126185308614145,0.05947826121941898,0.002127244361404032,0.11286735866696447,1.2007116951975354,0.45417783929363326,0.5269748660896755,-2.8221443908467467,9.4
,,0.051039786440570986,0.06320846765372135,0.0028888578900857897,0.11713711198437812,1.1983842922626973,0.4357268638087804,0.5396109446692785,-2.761317004941414,9.5
,,0.051039786440570986,0.06320846765372135,0.0028888578900857897,0.11713711198437812,1.1960568893278591,0.4357268638087804,0.5396109446692785,-2.761317004941414,9.6
,,0.051039786440570986,0.06320846765372135,0.0028888578900857897,0.11713711198437812,1.1937294863930208,0.4357268638087804,0.5396109446692785,-2.761317004941414,9.7
,,0.051039786440570986,0.06320846765372135,0.0028888578900857897,0.11713711198437812,1.1914020834581829,0.4357268638087804,0.5396109446692785,-2.761317004941414,9.8
,,0.051039786440570986,0.06320846765372135,0.0028888578900857897,0.11713711198437812,1.1890746805233445,0.4357268638087804,0.5396109446692785,-2.761317004941414,9.9
,,0.051039786440570986,0.06320846765372135,0.0028888578900857897,0.11713711198437812,1.1859698177248164,0.4357268638087804,0.5396109446692785,-2.761317004941414,10.0
,,0.052748044148530224,0.065488427666224,0.0022234952148920007,0.12045996702964622,1.1828396122646256,0.43788858198465624,0.5436530432563271,-2.725881828801666,10.1
,,0.052776273878462295,0.06988459320967402,0.003035172911360392,0.1256960399994967,1.1755866041307934,0.41987220821494153,0.555980866302183,-2.66091006591541,10.2
,,0.052776273878462295,0.06988459320967402,0.003035172911360392,0.1256960399994967,1.1683335959969614,0.41987220821494153,0.555980866302183,-2.66091006591541,10.3
,,0.052776273878462295,0.06988459320967402,0.003035172911360392,0.1256960399994967,1.1610805878631292,0.41987220821494153,0.555980866302183,-2.66091006591541,10.4
,,0.052776273878462295,0.06988459320967402,0.003035172911360392,0.1256960399994967,1.1538275797292967,0.41987220821494153,0.555980866302183,-2.66091006591541,10.5
,,0.052776273878462295,0.06988459320967402,0.003035172911360392,0.1256960399994967,1.1465745715954645,0.41987220821494153,0.555980866302183,-2.66091006591541,10.6
,,0.05421270778611537,0.0714652333533964,0.002308087194554036,0.1279860283340658,1.139364022461024,0.42358301520702535,0.5583830851197266,-2.638544194344134,10.7
,,0.05421270778611537,0.0714652333533964,0.002308087194554036,0.1279860283340658,1.1348639371516414,0.42358301520702535,0.5583830851197266,-2.638544194344134,10.8
,,0.05313739721902176,0.07464730844839874,0.0030860492869473326,0.13087075495436784,1.1297795715155865,0.40602957656620664,0.5703895302997743,-2.5949808112611734,10.9
,,0.05313739721902176,0.07464730844839874,0.0030860492869473326,0.13087075495436784,1.1246952058795319,0.40602957656620664,0.5703895302997743,-2.5949808112611734,11.0
,,0.05313739721902176,0.07464730844839874,0.0030860492869473326,0.13087075495436784,1.1196108402434772,0.40602957656620664,0.5703895302997743,-2.5949808112611734,11.1
,,0.05313739721902176,0.07464730844839874,0.0030860492869473326,0.13087075495436784,1.1145264746074226,0.40602957656620664,0.5703895302997743,-2.5949808112611734,11.2
,,0.05313739721902176,0.07464730844839874,0.0030860492869473326,0.13087075495436784,1.1094421089713677,0.40602957656620664,0.5703895302997743,-2.5949808112611734,11.3
,,0.05066910834487149,0.06795745975811492,0.0011683550713358568,0.11979492317432228,1.1047796716264264,0.42296540623127404,0.5672816339572678,-2.688873361362653,11.4
,,0.05066910834487149,0.06795745975811492,0.0011683550713358568,0.11979492317432228,1.1002070383701426,0.42296540623127404,0.5672816339572678,-2.688873361362653,11.5
,,0.045661856025243246,0.07920983709688333,0.0031422807623489833,0.12801397388447555,1.0853542900997355,0.35669430953256837,0.6187593017647054,-2.535654782105926,11.6
,,0.045661856025243246,0.07920983709688333,0.0031422807623489833,0.12801397388447555,1.0705015418293287,0.35669430953256837,0.6187593017647054,-2.535654782105926,11.7
,,0.045661856025243246,0.07920983709688333,0.0031422807623489833,0.12801397388447555,1.0556487935589218,0.35669430953256837,0.6187593017647054,-2.535654782105926,11.8
,,0.045661856025243246,0.07920983709688333,0.0031422807623489833,0.12801397388447555,1.0407960452885145,0.35669430953256837,0.6187593017647054,-2.535654782105926,11.9
,,0.045661856025243246,0.07920983709688333,0.0031422807623489833,0.12801397388447555,1.0273443138361342,0.35669430953256837,0.6187593017647054,-2.535654782105926,12.0
,,0.04972724765959162,0.07414193275800601,0.0015491456015489632,0.1254183260191466,1.0150702939091323,0.3964910809924234,0.5911570909237568,-2.601774012567699,12.1
,,0.05550650020037173,0.08033812345221732,0.002426506231639719,0.13827112988422877,1.0086797879758613,0.40143231813355434,0.5810187818634488,-2.5215110079013723,12.2
,,0.049565973523523224,0.0746671519787016,0.0015372233936791053,0.12577034889590394,1.0019507145536994,0.39409903811706354,0.5936784992184541,-2.5947150161015764,12.3
,,0.049565973523523224,0.0746671519787016,0.0015372233936791053,0.12577034889590394,0.9952216411315374,0.39409903811706354,0.5936784992184541,-2.5947150161015764,12.4
,,0.049565973523523224,0.0746671519787016,0.0015372233936791053,0.12577034889590394,0.9884925677093758,0.39409903811706354,0.5936784992184541,-2.5947150161015764,12.5
,,0.049565973523523224,0.0746671519787016,0.0015372233936791053,0.12577034889590394,0.9820949672512429,0.39409903811706354,0.5936784992184541,-2.5947150161015764,12.6
,,0.054583838422335586,0.08054539157111364,0.002349925520641387,0.13747915551409062,0.9758705204702098,0.39703355914738026,0.5858734822011495,-2.5189343830242086,12.7
,,0.054583838422335586,0.08054539157111364,0.002349925520641387,0.13747915551409062,0.9696460736891765,0.39703355914738026,0.5858734822011495,-2.5189343830242086,12.8
,,0.054583838422335586,0.08054539157111364,0.002349925520641387,0.13747915551409062,0.9628876069136043,0.39703355914738026,0.5858734822011495,-2.5189343830242086,12.9
,,0.054637555942352194,0.0835414314335199,0.0030612210008796573,0.14124020837675175,0.9558333837848482,0.386841371662445,0.591484764810577,-2.4824125853517427,13.0
,,0.054637555942352194,0.0835414314335199,0.0030612210008796573,0.14124020837675175,0.948779160656092,0.386841371662445,0.591484764810577,-2.4824125853517427,13.1
,,0.054637555942352194,0.0835414314335199,0.0030612210008796573,0.14124020837675175,0.9374318334732752,0.386841371662445,0.591484764810577,-2.4824125853517427,13.2
,,0.054637555942352194,0.0835414314335199,0.0030612210008796573,0.14124020837675175,0.9260845062904585,0.386841371662445,0.591484764810577,-2.4824125853517427,13.3
,,0.05188832205446173,0.07742983537534069,0.0009975588254147031,0.1303157162552171,0.9149386287040426,0.39817393899628295,0.5941711222589459,-2.5583831026952746,13.4
,,0.05188832205446173,0.07742983537534069,0.0009975588254147031,0.1303157162552171,0.9037927511176267,0.39817393899628295,0.5941711222589459,-2.5583831026952746,13.5
,,0.05188832205446173,0.07742983537534069,0.0009975588254147031,0.1303157162552171,0.897084118667048,0.39817393899628295,0.5941711222589459,-2.5583831026952746,13.6
,,0.05482180173891754,0.08341284658482928,0.002989358240802576,0.1412240065645494,0.8902142496306326,0.3881903868366749,0.5906421196647165,-2.48395294569041,13.7
,,0.05482180173891754,0.08341284658482928,0.002989358240802576,0.1412240065645494,0.884007889208308,0.3881903868366749,0.5906421196647165,-2.48395294569041,13.8
,,0.05482180173891754,0.08341284658482928,0.002989358240802576,0.1412240065645494,0.8778015287859832,0.3881903868366749,0.5906421196647165,-2.48395294569041,13.9
,,0.05482180173891754,0.08341284658482928,0.002989358240802576,0.1412240065645494,0.8715951683636586,0.3881903868366749,0.5906421196647165,-2.48395294569041,14.0
,,0.05598693629972558,0.08174687260348812,0.002804692123437167,0.14053850102665086,0.8657343976394225,0.39837436638881296,0.5816688808142769,-2.5041277255513634,14.1
,,0.05598693629972558,0.08174687260348812,0.002804692123437167,0.14053850102665086,0.8556483694554217,0.39837436638881296,0.5816688808142769,-2.5041277255513634,14.2
,,0.05549979388480688,0.08240563270829633,0.002904807492670109,0.1408102340857733,0.8454200095038159,0.3941460238678367,0.5852247405405183,-2.496101486292628,14.3
,,0.05549979388480688,0.08240563270829633,0.002904807492670109,0.1408102340857733,0.8369457813976451,0.3941460238678367,0.5852247405405183,-2.496101486292628,14.4
,,0.05549979388480688,0.08240563270829633,0.002904807492670109,0.1408102340857733,0.8284715532914741,0.3941460238678367,0.5852247405405183,-2.496101486292628,14.5
,,0.05549979388480688,0.08240563270829633,0.002904807492670109,0.1408102340857733,0.8199973251853034,0.3941460238678367,0.5852247405405183,-2.496101486292628,14.6
,,0.056325498530746296,0.0791971473824489,0.002688836566961786,0.13821148248015697,0.8119944846302408,0.4075312522520186,0.5730142384792034,-2.5358149987087892,14.7
,,0.056325498530746296,0.0791971473824489,0.002688836566961786,0.13821148248015697,0.8039916440751783,0.4075312522520186,0.5730142384792034,-2.5358149987087892,14.8
,,0.056325498530746296,0.0791971473824489,0.002688836566961786,0.13821148248015697,0.7988540691480203,0.4075312522520186,0.5730142384792034,-2.5358149987087892,14.9
,,0.05509914990601318,0.07820115884959869,0.00272281459523176,0.13602312335084366,0.7936336956633795,0.40507193592295526,0.5749107719567275,-2.5484708124920963,15.0
,,0.05509914990601318,0.07820115884959869,0.00272281459523176,0.13602312335084366,0.7869646403861823,0.40507193592295526,0.5749107719567275,-2.5484708124920963,15.1
,,0.05509914990601318,0.07820115884959869,0.00272281459523176,0.13602312335084366,0.7802955851089852,0.40507193592295526,0.5749107719567275,-2.5484708124920963,15.2
,,0.05638254421514857,0.07533808887399242,0.0025535328865535487,0.13427416597569455,0.7741741715852684,0.4199061212218185,0.5610765728951139,-2.5857694437244465,15.3
,,0.05638254421514857,0.07533808887399242,0.0025535328865535487,0.13427416597569455,0.7680527580615515,0.4199061212218185,0.5610765728951139,-2.5857694437244465,15.4
,,0.054743590011338716,0.07349962676406875,0.002558145382883657,0.1308013621582911,0.7641439411734592,0.4185246170838037,0.5619179001753983,-2.6104749508161205,15.5
,,0.054743590011338716,0.07349962676406875,0.002558145382883657,0.1308013621582911,0.7602351242853669,0.4185246170838037,0.5619179001753983,-2.6104749508161205,15.6
,,0.054743590011338716,0.07349962676406875,0.002558145382883657,0.1308013621582911,0.7554066285697119,0.4185246170838037,0.5619179001753983,-2.6104749508161205,15.7
,,0.054743590011338716,0.07349962676406875,0.002558145382883657,0.1308013621582911,0.750578132854057,0.4185246170838037,0.5619179001753983,-2.6104749508161205,15.8
,,0.054743590011338716,0.07349962676406875,0.002558145382883657,0.1308013621582911,0.745749637138402,0.4185246170838037,0.5619179001753983,-2.6104749508161205,15.9
,,0.05647834979839191,0.0709074005847367,0.002418877622746244,0.12980462800587486,0.7415673164837998,0.43510274376223124,0.5462624998357337,-2.646380470288557,16.0
,,0.05647834979839191,0.0709074005847367,0.002418877622746244,0.12980462800587486,0.7391449048862095,0.43510274376223124,0.5462624998357337,-2.646380470288557,16.1
,,0.054983215986844934,0.069152313482763,0.0024314934337369564,0.1265670229033449,0.7367049248318819,0.43441976215900896,0.5463691244090679,-2.67144376542576,16.2
,,0.054983215986844934,0.069152313482763,0.0024314934337369564,0.1265670229033449,0.7350882551737592,0.43441976215900896,0.5463691244090679,-2.67144376542576,16.3
,,0.054983215986844934,0.069152313482763,0.0024314934337369564,0.1265670229033449,0.7334715855156364,0.43441976215900896,0.5463691244090679,-2.67144376542576,16.4
,,0.054983215986844934,0.069152313482763,0.0024314934337369564,0.1265670229033449,0.7318549158575136,0.43441976215900896,0.5463691244090679,-2.67144376542576,16.5
,,0.056965658088054885,0.06669195929796293,0.002315734962911455,0.12597335234892926,0.7309764681082276,0.45220403383620106,0.5294132294998006,-2.7076708835827534,16.6
,,0.056965658088054885,0.06669195929796293,0.002315734962911455,0.12597335234892926,0.7300980203589414,0.45220403383620106,0.5294132294998006,-2.7076708835827534,16.7
,,0.056965658088054885,0.06669195929796293,0.002315734962911455,0.12597335234892926,0.7279268079781257,0.45220403383620106,0.5294132294998006,-2.7076708835827534,16.8
,,0.05583477188091121,0.0653418873318753,0.002363560231640693,0.12354021944442721,0.7278011154026569,0.4519562303839656,0.5289118606533512,-2.728121988441012,16.9
,,0.05583477188091121,0.0653418873318753,0.002363560231640693,0.12354021944442721,0.727675422827188,0.4519562303839656,0.5289118606533512,-2.728121988441012,17.0
,,0.05583477188091121,0.0653418873318753,0.002363560231640693,0.12354021944442721,0.7275497302517191,0.4519562303839656,0.5289118606533512,-2.728121988441012,17.1
,,0.0578146370077056,0.0628422462982161,0.002250893588641668,0.12290777689456336,0.7282427173012902,0.470390389188326,0.5112959316815682,-2.767127719922078,17.2
,,0.0578146370077056,0.0628422462982161,0.002250893588641668,0.12290777689456336,0.7289357043508612,0.470390389188326,0.5112959316815682,-2.767127719922078,17.3
,,0.0578146370077056,0.0628422462982161,0.002250893588641668,0.12290777689456336,0.7296624257336182,0.470390389188326,0.5112959316815682,-2.767127719922078,17.4
,,0.0578146370077056,0.0628422462982161,0.002250893588641668,0.12290777689456336,0.7310688379478834,0.470390389188326,0.5112959316815682,-2.767127719922078,17.5
,,0.056689594817274196,0.06157779963423162,0.0023198455220790177,0.12058723997358484,0.7324830135365211,0.47011271532288407,0.5106493825360006,-2.787453868948934,17.6
,,0.056689594817274196,0.06157779963423162,0.0023198455220790177,0.12058723997358484,0.7338971891251589,0.47011271532288407,0.5106493825360006,-2.787453868948934,17.7
,,0.05816197071400642,0.05887925424977866,0.0022005904411161823,0.11924181540490127,0.7361513685121372,0.4877648878164912,0.4937802569496817,-2.8322664702365175,17.8
,,0.05816197071400642,0.05887925424977866,0.0022005904411161823,0.11924181540490127,0.7384055478991156,0.4877648878164912,0.4937802569496817,-2.8322664702365175,17.9
,,0.05816197071400642,0.05887925424977866,0.0022005904411161823,0.11924181540490127,0.7406597272860939,0.4877648878164912,0.4937802569496817,-2.8322664702365175,18.0
,,0.05816197071400642,0.05887925424977866,0.0022005904411161823,0.11924181540490127,0.7429392493347347,0.4877648878164912,0.4937802569496817,-2.8322664702365175,18.1
,,0.05816197071400642,0.05887925424977866,0.0022005904411161823,0.11924181540490127,0.7458470729573822,0.4877648878164912,0.4937802569496817,-2.8322664702365175,18.2
,,0.05816197071400642,0.05887925424977866,0.0022005904411161823,0.11924181540490127,0.7487548965800299,0.4877648878164912,0.4937802569496817,-2.8322664702365175,18.3
,,0.05702203149288279,0.05410195662571323,0.002130414120608873,0.1132544022392049,0.7524896681198499,0.5034862253958695,0.47770290210392313,-2.9168849269498196,18.4
,,0.05702203149288279,0.05410195662571323,0.002130414120608873,0.1132544022392049,0.7562244396596698,0.5034862253958695,0.47770290210392313,-2.9168849269498196,18.5
,,0.05702203149288279,0.05410195662571323,0.002130414120608873,0.1132544022392049,0.7599592111994898,0.5034862253958695,0.47770290210392313,-2.9168849269498196,18.6
,,0.05702203149288279,0.05410195662571323,0.002130414120608873,0.1132544022392049,0.7636515237399183,0.5034862253958695,0.47770290210392313,-2.9168849269498196,18.7
,,0.05702203149288279,0.05410195662571323,0.002130414120608873,0.1132544022392049,0.7673438362803469,0.5034862253958695,0.47770290210392313,-2.9168849269498196,18.8
,,0.057826398958725836,0.05111992452099476,0.0016673128878449879,0.11061363636756558,0.772585647327496,0.5227782112376322,0.4621484854826116,-2.97358094542031,18.9
,,0.057826398958725836,0.05111992452099476,0.0016673128878449879,0.11061363636756558,0.7778274583746452,0.5227782112376322,0.4621484854826116,-2.97358094542031,19.0
,,0.05506464936351444,0.04929385278362802,0.002051954303594541,0.106410456450737,0.7828927480032404,0.5174740453162774,0.46324256494895066,-3.0099558956951964,19.1
,,0.05506464936351444,0.04929385278362802,0.002051954303594541,0.106410456450737,0.7879580376318355,0.5174740453162774,0.46324256494895066,-3.0099558956951964,19.2
,,0.05506464936351444,0.04929385278362802,0.002051954303594541,0.106410456450737,0.7930233272604307,0.5174740453162774,0.46324256494895066,-3.0099558956951964,19.3
,,0.05506464936351444,0.04929385278362802,0.002051954303594541,0.106410456450737,0.7976666885979125,0.5174740453162774,0.46324256494895066,-3.0099558956951964,19.4
,,0.055865829853794825,0.0468174330534374,0.001937442033892775,0.104620704941125,0.8032625564855896,0.5339844525539487,0.4474968227348857,-3.061499644278037,19.5
,,0.055865829853794825,0.0468174330534374,0.001937442033892775,0.104620704941125,0.8109725918992531,0.5339844525539487,0.4474968227348857,-3.061499644278037,19.6
,,0.055865829853794825,0.0468174330534374,0.001937442033892775,0.104620704941125,0.8186826273129165,0.5339844525539487,0.4474968227348857,-3.061499644278037,19.7
,,0.053090162069544325,0.045522348750015415,0.0020059789957267205,0.10061848981528645,0.8260548388867439,0.5276382319691565,0.4524252832017703,-3.0895518922962704,19.8
,,0.053090162069544325,0.045522348750015415,0.0020059789957267205,0.10061848981528645,0.8334270504605715,0.5276382319691565,0.4524252832017703,-3.0895518922962704,19.9
,,0.053090162069544325,0.045522348750015415,0.0020059789957267205,0.10061848981528645,0.8407992620343991,0.5276382319691565,0.4524252832017703,-3.0895518922962704,20.0
,,0.045610046974694424,0.03579244117143722,0.0015013898200179608,0.0829038779661496,0.8483441282350336,0.5501557718846085,0.4317342209981009,-3.3300185483314153,20.1
,,0.045610046974694424,0.03579244117143722,0.0015013898200179608,0.0829038779661496,0.8556363985635738,0.5501557718846085,0.4317342209981009,-3.3300185483314153,20.2
,,0.045610046974694424,0.03579244117143722,0.0015013898200179608,0.0829038779661496,0.8632672363810047,0.5501557718846085,0.4317342209981009,-3.3300185483314153,20.3
,,0.045610046974694424,0.03579244117143722,0.0015013898200179608,0.0829038779661496,0.8708980741984357,0.5501557718846085,0.4317342209981009,-3.3300185483314153,20.4
,,0.043242446428416195,0.03557132998330237,0.0016159407951556834,0.08042971720687425,0.8777959340208789,0.537642651623302,0.44226600836863467,-3.336215303130332,20.5
,,0.043242446428416195,0.03557132998330237,0.0016159407951556834,0.08042971720687425,0.8846937938433219,0.537642651623302,0.44226600836863467,-3.336215303130332,20.6
,,0.053807657077046184,0.042825935749816614,0.001924547828443839,0.09855814065530663,0.8919281551378523,0.5459483784828183,0.43452459091729784,-3.150611384460373,20.7
,,0.053807657077046184,0.042825935749816614,0.001924547828443839,0.09855814065530663,0.8991625164323827,0.5459483784828183,0.43452459091729784,-3.150611384460373,20.8
,,0.053807657077046184,0.042825935749816614,0.001924547828443839,0.09855814065530663,0.906396877726913,0.5459483784828183,0.43452459091729784,-3.150611384460373,20.9
,,0.053807657077046184,0.042825935749816614,0.001924547828443839,0.09855814065530663,0.9139269953746272,0.5459483784828183,0.43452459091729784,-3.150611384460373,21.0
,,0.053807657077046184,0.042825935749816614,0.001924547828443839,0.09855814065530663,0.9214571130223413,0.5459483784828183,0.43452459091729784,-3.150611384460373,21.1
,,0.04378088606247312,0.035445122350651705,0.001786590820030006,0.08101259923315483,0.9287215669579888,0.5404207058765196,0.4375260476292137,-3.3397696278359534,21.2
,,0.04378088606247312,0.035445122350651705,0.001786590820030006,0.08101259923315483,0.9359860208936366,0.5404207058765196,0.4375260476292137,-3.3397696278359534,21.3
,,0.054475667456744384,0.04349460541547119,0.0019838445008075745,0.09995411737302315,0.9432652218431761,0.545006737976028,0.4351457104378379,-3.1351183620152447,21.4
,,0.054475667456744384,0.04349460541547119,0.0019838445008075745,0.09995411737302315,0.9505444227927156,0.545006737976028,0.4351457104378379,-3.1351183620152447,21.5
,,0.054475667456744384,0.04349460541547119,0.0019838445008075745,0.09995411737302315,0.9578236237422552,0.545006737976028,0.4351457104378379,-3.1351183620152447,21.6
,,0.054475667456744384,0.04349460541547119,0.0019838445008075745,0.09995411737302315,0.9652640612776313,0.545006737976028,0.4351457104378379,-3.1351183620152447,21.7
,,0.052768892865203074,0.044123321054446996,0.0021197126725380094,0.09901192659218808,0.9719978935233042,0.5329549144372117,0.4456364255609614,-3.1207668142101617,21.8
,,0.052768892865203074,0.044123321054446996,0.0021197126725380094,0.09901192659218808,0.9787317257689775,0.5329549144372117,0.4456364255609614,-3.1207668142101617,21.9
,,0.05376626499426316,0.04398774916771068,0.002004623343340896,0.09975863750531473,0.9857950554717767,0.5389635057054454,0.44094175970844823,-3.123844111838725,22.0
,,0.05376626499426316,0.04398774916771068,0.002004623343340896,0.09975863750531473,0.9925127954764873,0.5389635057054454,0.44094175970844823,-3.123844111838725,22.1
,,0.05376626499426316,0.04398774916771068,0.002004623343340896,0.09975863750531473,0.9992305354811981,0.5389635057054454,0.44094175970844823,-3.123844111838725,22.2
,,0.05376626499426316,0.04398774916771068,0.002004623343340896,0.09975863750531473,1.0060906072535136,0.5389635057054454,0.44094175970844823,-3.123844111838725,22.3
,,0.05376626499426316,0.04398774916771068,0.002004623343340896,0.09975863750531473,1.0129506790258291,0.5389635057054454,0.44094175970844823,-3.123844111838725,22.4
,,0.05167037323432348,0.044831212337351364,0.002159677759517588,0.09866126333119243,1.0189389091222878,0.5237148956918691,0.45439527960288817,-3.1048506781879976,22.5
,,0.05167037323432348,0.044831212337351364,0.002159677759517588,0.09866126333119243,1.0249271392187462,0.5237148956918691,0.45439527960288817,-3.1048506781879976,22.6
,,0.052977291365180076,0.04554615303776627,0.002061946791732417,0.10058539119467876,1.0305765150988284,0.5266897184169098,0.45281081573380394,-3.0890291146546995,22.7
,,0.052977291365180076,0.04554615303776627,0.002061946791732417,0.10058539119467876,1.0362258909789104,0.5266897184169098,0.45281081573380394,-3.0890291146546995,22.8
,,0.052977291365180076,0.04554615303776627,0.002061946791732417,0.10058539119467876,1.0418752668589923,0.5266897184169098,0.45281081573380394,-3.0890291146546995,22.9
,,0.052977291365180076,0.04554615303776627,0.002061946791732417,0.10058539119467876,1.0476074412965575,0.5266897184169098,0.45281081573380394,-3.0890291146546995,23.0
,,0.052977291365180076,0.04554615303776627,0.002061946791732417,0.10058539119467876,1.0533396157341222,0.5266897184169098,0.45281081573380394,-3.0890291146546995,23.1
,,0.052977291365180076,0.04554615303776627,0.002061946791732417,0.10058539119467876,1.059071790171687,0.5266897184169098,0.45281081573380394,-3.0890291146546995,23.2
,,0.050738845234058055,0.046548124824827945,0.0022199662973935797,0.0995069363562796,1.0633422431093034,0.5099025966631127,0.4677877395216422,-3.0672685591031414,23.3
,,0.05232798621089717,0.04800969281224579,0.002136094036751043,0.102473773059894,1.0676116515317344,0.5106475993648877,0.4685071250785801,-3.0363523548716347,23.4
,,0.05232798621089717,0.04800969281224579,0.002136094036751043,0.102473773059894,1.0719257984314612,0.5106475993648877,0.4685071250785801,-3.0363523548716347,23.5
,,0.05232798621089717,0.04800969281224579,0.002136094036751043,0.102473773059894,1.0762399453311882,0.5106475993648877,0.4685071250785801,-3.0363523548716347,23.6
,,0.05232798621089717,0.04800969281224579,0.002136094036751043,0.102473773059894,1.080554092230915,0.5106475993648877,0.4685071250785801,-3.0363523548716347,23.7
,,0.05232798621089717,0.04800969281224579,0.002136094036751043,0.102473773059894,1.0848682391306415,0.5106475993648877,0.4685071250785801,-3.0363523548716347,23.8
,,0.05232798621089717,0.04800969281224579,0.002136094036751043,0.102473773059894,1.0891823860303682,0.5106475993648877,0.4685071250785801,-3.0363523548716347,23.9
,,0.0500607514490048,0.04922271725743031,0.0022959155176997276,0.10157938422413484,1.0919388462625497,0.49282393106996775,0.48457388901689363,-3.0114000291750966,24.0
,,0.05178882158623906,0.05121486385123045,0.002226104248108876,0.10522978968557839,1.0946225753002699,0.49214981557011184,0.4866954880766941,-2.9717254794740064,24.1
,,0.05178882158623906,0.05121486385123045,0.002226104248108876,0.10522978968557839,1.0973238727947277,0.49214981557011184,0.4866954880766941,-2.9717254794740064,24.2
,,0.05178882158623906,0.05121486385123045,0.002226104248108876,0.10522978968557839,1.1000251702891852,0.49214981557011184,0.4866954880766941,-2.9717254794740064,24.3
,,0.05178882158623906,0.05121486385123045,0.002226104248108876,0.10522978968557839,1.1027264677836428,0.49214981557011184,0.4866954880766941,-2.9717254794740064,24.4
,,0.05178882158623906,0.05121486385123045,0.002226104248108876,0.10522978968557839,1.1054277652781002,0.49214981557011184,0.4866954880766941,-2.9717254794740064,24.5
,,0.05178882158623906,0.05121486385123045,0.002226104248108876,0.10522978968557839,1.1073908408637212,0.49214981557011184,0.4866954880766941,-2.9717254794740064,24.6
,,0.054092764316483646,0.054122089120405455,0.0018463989583502828,0.1100612523952394,1.1092070578811404,0.49147872788355973,0.4917451686452594,-2.916512874791066,24.7
,,0.051822664762581114,0.055442539942882944,0.0023210489282092855,0.10958625363367333,1.110213915577112,0.47289384429378106,0.5059260455076523,-2.8924081108843653,24.8
,,0.051822664762581114,0.055442539942882944,0.0023210489282092855,0.10958625363367333,1.1112165087116783,0.47289384429378106,0.5059260455076523,-2.8924081108843653,24.9
,,0.051822664762581114,0.055442539942882944,0.0023210489282092855,0.10958625363367333,1.1122191018462448,0.47289384429378106,0.5059260455076523,-2.8924081108843653,25.0
,,0.051822664762581114,0.055442539942882944,0.0023210489282092855,0.10958625363367333,1.1132216949808114,0.47289384429378106,0.5059260455076523,-2.8924081108843653,25.1
,,0.051822664762581114,0.055442539942882944,0.0023210489282092855,0.10958625363367333,1.1134056084903379,0.47289384429378106,0.5059260455076523,-2.8924081108843653,25.2
,,0.045874782367122405,0.05909807984987685,0.001936597624529294,0.10690945984152854,1.1116087575586842,0.42909937469633097,0.5527862542517537,-2.8285568449476908,25.3
,,0.045874782367122405,0.05909807984987685,0.001936597624529294,0.10690945984152854,1.1098119066270302,0.42909937469633097,0.5527862542517537,-2.8285568449476908,25.4
,,0.0517911342105313,0.05610540271481908,0.0030141499189028247,0.1109106868442532,1.1098507550887777,0.46696252348756273,0.5058611060050987,-2.8805231660135338,25.5
,,0.0517911342105313,0.05610540271481908,0.0030141499189028247,0.1109106868442532,1.1098818401761528,0.46696252348756273,0.5058611060050987,-2.8805231660135338,25.6
,,0.0517911342105313,0.05610540271481908,0.0030141499189028247,0.1109106868442532,1.1099129252635274,0.46696252348756273,0.5058611060050987,-2.8805231660135338,25.7
,,0.0517911342105313,0.05610540271481908,0.0030141499189028247,0.1109106868442532,1.109104006552562,0.46696252348756273,0.5058611060050987,-2.8805231660135338,25.8
,,0.0517911342105313,0.05610540271481908,0.0030141499189028247,0.1109106868442532,1.108295087841596,0.46696252348756273,0.5058611060050987,-2.8805231660135338,25.9
,,0.055125336790971126,0.0651952495102263,0.0020242678199354253,0.12234485412113286,1.1065166442369663,0.4505733991590025,0.5328810106363517,-2.7303686729765713,26.0
,,0.055125336790971126,0.0651952495102263,0.0020242678199354253,0.12234485412113286,1.104738200632336,0.4505733991590025,0.5328810106363517,-2.7303686729765713,26.1
,,0.055125336790971126,0.0651952495102263,0.0020242678199354253,0.12234485412113286,1.102959757027706,0.4505733991590025,0.5328810106363517,-2.7303686729765713,26.2
,,0.051655530957130026,0.06512895605316292,0.0024484143013858003,0.11923290131167875,1.1005261225289142,0.4332321900152438,0.5462330894969474,-2.7313860352155315,26.3
,,0.051655530957130026,0.06512895605316292,0.0024484143013858003,0.11923290131167875,1.09726554011295,0.4332321900152438,0.5462330894969474,-2.7313860352155315,26.4
,,0.051655530957130026,0.06512895605316292,0.0024484143013858003,0.11923290131167875,1.0940049576969861,0.4332321900152438,0.5462330894969474,-2.7313860352155315,26.5
,,0.05266801079583688,0.06296551811657841,0.00250033095596479,0.11813385986838008,1.0912860131637994,0.4458333186989524,0.5330014458744683,-2.76516803391404,26.6
,,0.05266801079583688,0.06296551811657841,0.00250033095596479,0.11813385986838008,1.0885670686306124,0.4458333186989524,0.5330014458744683,-2.76516803391404,26.7
,,0.052306523669299304,0.07065842312318704,0.002462481942552582,0.12542742873503893,1.0846458118510385,0.4170261975137433,0.5633410796648833,-2.649897953699996,26.8
,,0.05266801079583688,0.06296551811657841,0.00250033095596479,0.11813385986838008,1.0809616491378036,0.4458333186989524,0.5330014458744683,-2.76516803391404,26.9
,,0.050514245070332815,0.06896941166891293,0.0024140199444237626,0.1218976766836695,1.0759769514678825,0.4143987518434808,0.5657975897923958,-2.6740921818216163,27.0
,,0.050514245070332815,0.06896941166891293,0.0024140199444237626,0.1218976766836695,1.071168775216515,0.4143987518434808,0.5657975897923958,-2.6740921818216163,27.1
,,0.050514245070332815,0.06896941166891293,0.0024140199444237626,0.1218976766836695,1.0663605989651481,0.4143987518434808,0.5657975897923958,-2.6740921818216163,27.2
,,0.051921683782840795,0.07214769100400796,0.001962841322973812,0.12603221610982257,1.061392961379597,0.411971521135493,0.5724543551716932,-2.6290399969908074,27.3
,,0.051921683782840795,0.07214769100400796,0.001962841322973812,0.12603221610982257,1.056425323794046,0.411971521135493,0.5724543551716932,-2.6290399969908074,27.4
,,0.051921683782840795,0.07214769100400796,0.001962841322973812,0.12603221610982257,1.0505051796582994,0.411971521135493,0.5724543551716932,-2.6290399969908074,27.5
,,0.048380540336734404,0.07107713036470147,0.0023201895787867913,0.12177786028022267,1.0440977645826721,0.39728518981534156,0.5836621714418868,-2.64398964841975,27.6
,,0.048380540336734404,0.07107713036470147,0.0023201895787867913,0.12177786028022267,1.037690349507045,0.39728518981534156,0.5836621714418868,-2.64398964841975,27.7
,,0.048380540336734404,0.07107713036470147,0.0023201895787867913,0.12177786028022267,1.031620758271254,0.39728518981534156,0.5836621714418868,-2.64398964841975,27.8
,,0.048380540336734404,0.07107713036470147,0.0023201895787867913,0.12177786028022267,1.0255511670354627,0.39728518981534156,0.5836621714418868,-2.64398964841975,27.9
,,0.048380540336734404,0.07107713036470147,0.0023201895787867913,0.12177786028022267,1.0194815757996714,0.39728518981534156,0.5836621714418868,-2.64398964841975,28.0
,,0.047589801851019256,0.0710651587908959,0.0018159789013186289,0.12047093954323378,1.011923720991804,0.3950313829331476,0.5898946174101392,-2.6441580933477864,28.1
,,0.0443318477424565,0.06992971870963802,0.002139878810011428,0.11640144526210594,1.0039194196596746,0.3808530696730839,0.6007633200101115,-2.6602645597306505,28.2
,,0.0443318477424565,0.06992971870963802,0.002139878810011428,0.11640144526210594,0.995915118327545,0.3808530696730839,0.6007633200101115,-2.6602645597306505,28.3
,,0.0443318477424565,0.06992971870963802,0.002139878810011428,0.11640144526210594,0.9879108169954156,0.3808530696730839,0.6007633200101115,-2.6602645597306505,28.4
,,0.0443318477424565,0.06992971870963802,0.002139878810011428,0.11640144526210594,0.980639493658274,0.3808530696730839,0.6007633200101115,-2.6602645597306505,28.5
,,0.0443318477424565,0.06992971870963802,0.002139878810011428,0.11640144526210594,0.9733681703211323,0.3808530696730839,0.6007633200101115,-2.6602645597306505,28.6
,,0.0443318477424565,0.06992971870963802,0.002139878810011428,0.11640144526210594,0.9655871918348039,0.3808530696730839,0.6007633200101115,-2.6602645597306505,28.7
,,0.03453178505456508,0.06863612232842892,0.001651393064407111,0.1048193004474011,0.9561707791267127,0.3294410944088805,0.6548042396340061,-2.6789363182824073,28.8
,,0.03958341351787189,0.06657636524804347,0.0019114398491723184,0.10807121861508769,0.9478973998349174,0.366271557081764,0.6160415890669787,-2.709405640574741,28.9
,,0.03958341351787189,0.06657636524804347,0.0019114398491723184,0.10807121861508769,0.9396240205431221,0.366271557081764,0.6160415890669787,-2.709405640574741,29.0
,,0.03958341351787189,0.06657636524804347,0.0019114398491723184,0.10807121861508769,0.9313506412513268,0.366271557081764,0.6160415890669787,-2.709405640574741,29.1
,,0.03958341351787189,0.06657636524804347,0.0019114398491723184,0.10807121861508769,0.9233429256715981,0.366271557081764,0.6160415890669787,-2.709405640574741,29.2
,,0.03958341351787189,0.06657636524804347,0.0019114398491723184,0.10807121861508769,0.9153352100918692,0.366271557081764,0.6160415890669787,-2.709405640574741,29.3
,,0.03776344904638558,0.06426025179996507,0.0014609348969251074,0.10348463574327575,0.9070251435420534,0.3649184130103041,0.6209641782900182,-2.744814006846374,29.4
,,0.03776344904638558,0.06426025179996507,0.0014609348969251074,0.10348463574327575,0.8987150769922374,0.3649184130103041,0.6209641782900182,-2.744814006846374,29.5
,,0.026319024100006777,0.06048642743486627,0.001652032832264133,0.08845748436713717,0.8884982431134016,0.2975330384794953,0.6837909518636229,-2.805336279032871,29.6
,,0.026319024100006777,0.06048642743486627,0.001652032832264133,0.08845748436713717,0.8782814092345659,0.2975330384794953,0.6837909518636229,-2.805336279032871,29.7
,,0.026319024100006777,0.06048642743486627,0.001652032832264133,0.08845748436713717,0.8687711806454332,0.2975330384794953,0.6837909518636229,-2.805336279032871,29.8
,,0.026319024100006777,0.06048642743486627,0.001652032832264133,0.08845748436713717,0.8592609520563007,0.2975330384794953,0.6837909518636229,-2.805336279032871,29.9
,,0.026319024100006777,0.06048642743486627,0.001652032832264133,0.08845748436713717,0.8494212260100419,0.2975330384794953,0.6837909518636229,-2.805336279032871,30.0
,,0.036011452421866916,0.05287755003301206,0.0018227483674958902,0.09071175082237487,0.8426554000423861,0.39698773417329264,0.5829184152398625,-2.939776415203911,30.1
,,0.036011452421866916,0.05287755003301206,0.0018227483674958902,0.09071175082237487,0.8358895740747302,0.39698773417329264,0.5829184152398625,-2.939776415203911,30.2
,,0.036011452421866916,0.05287755003301206,0.0018227483674958902,0.09071175082237487,0.8291237481070743,0.39698773417329264,0.5829184152398625,-2.939776415203911,30.3
,,0.02640802407276576,0.05106956760175789,0.0013429462475037968,0.07882053792202744,0.8203087248962048,0.3350398864175436,0.6479220891930227,-2.974566505134267,30.4
,,0.02640802407276576,0.05106956760175789,0.0013429462475037968,0.07882053792202744,0.8123655433611925,0.3350398864175436,0.6479220891930227,-2.974566505134267,30.5
,,0.02640802407276576,0.05106956760175789,0.0013429462475037968,0.07882053792202744,0.8044223618261801,0.3350398864175436,0.6479220891930227,-2.974566505134267,30.6
,,0.024592701498187094,0.04784853569829164,0.0011496379865455649,0.07359087518302429,0.7963075313161441,0.33418139731350904,0.6501965845533141,-3.039714763468002,30.7
,,0.024592701498187094,0.04784853569829164,0.0011496379865455649,0.07359087518302429,0.788192700806108,0.33418139731350904,0.6501965845533141,-3.039714763468002,30.8
,,0.024592701498187094,0.04784853569829164,0.0011496379865455649,0.07359087518302429,0.7800778702960718,0.33418139731350904,0.6501965845533141,-3.039714763468002,30.9
,,0.024592701498187094,0.04784853569829164,0.0011496379865455649,0.07359087518302429,0.7719630397860356,0.33418139731350904,0.6501965845533141,-3.039714763468002,31.0
,,0.023955247665323802,0.03490122257304988,0.0014926546594864801,0.060349124897860165,0.7660032462051629,0.3969444081561686,0.578321933120316,-3.355233419640903,31.1
,,0.022638626659003833,0.03286545119819689,0.0014269970193212834,0.056931074876522006,0.7600741371886999,0.39764973185742275,0.5772849233828604,-3.4153332885247836,31.2
,,0.022638626659003833,0.03286545119819689,0.0014269970193212834,0.056931074876522006,0.7550591079187051,0.39764973185742275,0.5772849233828604,-3.4153332885247836,31.3
,,0.019345959821460586,0.039936217840376056,0.0009186403306921332,0.06020081799252878,0.7474900472816287,0.32135709225515036,0.6633833089333162,-3.220471651513071,31.4
,,0.019345959821460586,0.039936217840376056,0.0009186403306921332,0.06020081799252878,0.7399209866445523,0.32135709225515036,0.6633833089333162,-3.220471651513071,31.5
,,0.019345959821460586,0.039936217840376056,0.0009186403306921332,0.06020081799252878,0.7323519260074759,0.32135709225515036,0.6633833089333162,-3.220471651513071,31.6
,,0.019345959821460586,0.039936217840376056,0.0009186403306921332,0.06020081799252878,0.7247828653703995,0.32135709225515036,0.6633833089333162,-3.220471651513071,31.7
,,0.019345959821460586,0.039936217840376056,0.0009186403306921332,0.06020081799252878,0.7172138047333231,0.32135709225515036,0.6633833089333162,-3.220471651513071,31.8
,,0.019345959821460586,0.039936217840376056,0.0009186403306921332,0.06020081799252878,0.7096447440962467,0.32135709225515036,0.6633833089333162,-3.220471651513071,31.9
,,0.015922023955554667,0.034500907320251434,0.0007569208472821122,0.05117985212308822,0.7027006247173567,0.3110994521293651,0.674111117735868,-3.3667696561529166,32.0
,,0.015922023955554667,0.034500907320251434,0.0007569208472821122,0.05117985212308822,0.6958292365329278,0.3110994521293651,0.674111117735868,-3.3667696561529166,32.1
,,0.015922023955554667,0.034500907320251434,0.0007569208472821122,0.05117985212308822,0.6889578483484989,0.3110994521293651,0.674111117735868,-3.3667696561529166,32.2
,,0.015922023955554667,0.034500907320251434,0.0007569208472821122,0.05117985212308822,0.6820864601640699,0.3110994521293651,0.674111117735868,-3.3667696561529166,32.3
,,0.015922023955554667,0.034500907320251434,0.0007569208472821122,0.05117985212308822,0.675215071979641,0.3110994521293651,0.674111117735868,-3.3667696561529166,32.4
,,0.015922023955554667,0.034500907320251434,0.0007569208472821122,0.05117985212308822,0.668343683795212,0.3110994521293651,0.674111117735868,-3.3667696561529166,32.5
,,0.016090502879771033,0.02307874233270495,0.0010046607689937757,0.04017390598146976,0.6644186000810665,0.4005212459847142,0.574470959914877,-3.7688433304775275,32.6
,,0.01477658164596419,0.021454522266162925,0.0008520649686721712,0.03708316888079929,0.6605346194101465,0.3984713845103762,0.5785514807304272,-3.8418198275699216,32.7
,,0.01477658164596419,0.021454522266162925,0.0008520649686721712,0.03708316888079929,0.6574599980606741,0.3984713845103762,0.5785514807304272,-3.8418198275699216,32.8
,,0.01477658164596419,0.021454522266162925,0.0008520649686721712,0.03708316888079929,0.6543853767112018,0.3984713845103762,0.5785514807304272,-3.8418198275699216,32.9
,,0.01477658164596419,0.021454522266162925,0.0008520649686721712,0.03708316888079929,0.6513107553617294,0.3984713845103762,0.5785514807304272,-3.8418198275699216,33.0
,,0.01477658164596419,0.021454522266162925,0.0008520649686721712,0.03708316888079929,0.6482361340122572,0.3984713845103762,0.5785514807304272,-3.8418198275699216,33.1
,,0.01477658164596419,0.021454522266162925,0.0008520649686721712,0.03708316888079929,0.6451615126627848,0.3984713845103762,0.5785514807304272,-3.8418198275699216,33.2
,,0.01477658164596419,0.021454522266162925,0.0008520649686721712,0.03708316888079929,0.644067655754493,0.3984713845103762,0.5785514807304272,-3.8418198275699216,33.3
,,0.01185184261172232,0.027657499645685205,0.0005640910797294948,0.040073433337137025,0.6397210753415442,0.2957531118437743,0.6901704531529204,-3.5878583528660117,33.4
,,0.01185184261172232,0.027657499645685205,0.0005640910797294948,0.040073433337137025,0.633538795535194,0.2957531118437743,0.6901704531529204,-3.5878583528660117,33.5
,,0.01185184261172232,0.027657499645685205,0.0005640910797294948,0.040073433337137025,0.6273565157288437,0.2957531118437743,0.6901704531529204,-3.5878583528660117,33.6
,,0.01185184261172232,0.027657499645685205,0.0005640910797294948,0.040073433337137025,0.6211742359224933,0.2957531118437743,0.6901704531529204,-3.5878583528660117,33.7
,,0.01185184261172232,0.027657499645685205,0.0005640910797294948,0.040073433337137025,0.6149919561161431,0.2957531118437743,0.6901704531529204,-3.5878583528660117,33.8
,,0.01185184261172232,0.027657499645685205,0.0005640910797294948,0.040073433337137025,0.6088096763097928,0.2957531118437743,0.6901704531529204,-3.5878583528660117,33.9
,,0.01185184261172232,0.027657499645685205,0.0005640910797294948,0.040073433337137025,0.6035969213971067,0.2957531118437743,0.6901704531529204,-3.5878583528660117,34.0
,,0.011195219746946455,0.027013250061272667,0.0006150989211213055,0.03882356872934043,0.5982080733416146,0.288361428723728,0.6957951302621425,-3.6114277903426797,34.1
,,0.010708422892113326,0.025497826098107232,0.0005085886245406179,0.03671483761476117,0.5928884698889725,0.2916647216167453,0.6944828781662881,-3.6691620815064527,34.2
,,0.010708422892113326,0.025497826098107232,0.0005085886245406179,0.03671483761476117,0.5882240573304923,0.2916647216167453,0.6944828781662881,-3.6691620815064527,34.3
,,0.010708422892113326,0.025497826098107232,0.0005085886245406179,0.03671483761476117,0.583559644772012,0.2916647216167453,0.6944828781662881,-3.6691620815064527,34.4
,,0.010708422892113326,0.025497826098107232,0.0005085886245406179,0.03671483761476117,0.5788952322135318,0.2916647216167453,0.6944828781662881,-3.6691620815064527,34.5
,,0.010708422892113326,0.025497826098107232,0.0005085886245406179,0.03671483761476117,0.5736891817722741,0.2916647216167453,0.6944828781662881,-3.6691620815064527,34.6
,,0.006746211836160124,0.025129989399361466,0.0005654164072080686,0.03244161764272966,0.5665891148026165,0.20794930482364482,0.774621958624595,-3.68369334925874,34.7
,,0.006746211836160124,0.025129989399361466,0.0005654164072080686,0.03244161764272966,0.560691360079346,0.20794930482364482,0.774621958624595,-3.68369334925874,34.8
,,0.009925655384731922,0.023812795812601074,0.000469926626002275,0.03420837782333527,0.5554458882524005,0.2901527642144179,0.6961100563019728,-3.7375322035959537,34.9
,,0.009925655384731922,0.023812795812601074,0.000469926626002275,0.03420837782333527,0.5515009513821412,0.2901527642144179,0.6961100563019728,-3.7375322035959537,35.0
,,0.009925655384731922,0.023812795812601074,0.000469926626002275,0.03420837782333527,0.5475560145118815,0.2901527642144179,0.6961100563019728,-3.7375322035959537,35.1
,,0.009925655384731922,0.023812795812601074,0.000469926626002275,0.03420837782333527,0.5436110776416221,0.2901527642144179,0.6961100563019728,-3.7375322035959537,35.2
,,0.009925655384731922,0.023812795812601074,0.000469926626002275,0.03420837782333527,0.5398256021055466,0.2901527642144179,0.6961100563019728,-3.7375322035959537,35.3
,,0.009550521736057175,0.02356017022313226,0.0005301335412705093,0.033640825500459944,0.5358969643034392,0.2838967710803232,0.7003445924003899,-3.7481976951343485,35.4
,,0.009550521736057175,0.02356017022313226,0.0005301335412705093,0.033640825500459944,0.531968326501332,0.2838967710803232,0.7003445924003899,-3.7481976951343485,35.5
,,0.009371660392285317,0.022413460739494972,0.00044499352441623047,0.03223011465619652,0.5286864492563111,0.290773411520692,0.6954198264133631,-3.798093574734481,35.6
,,0.009371660392285317,0.022413460739494972,0.00044499352441623047,0.03223011465619652,0.5254045720112904,0.290773411520692,0.6954198264133631,-3.798093574734481,35.7
,,0.009371660392285317,0.022413460739494972,0.00044499352441623047,0.03223011465619652,0.5221226947662697,0.290773411520692,0.6954198264133631,-3.798093574734481,35.8
,,0.009371660392285317,0.022413460739494972,0.00044499352441623047,0.03223011465619652,0.5188408175212489,0.290773411520692,0.6954198264133631,-3.798093574734481,35.9
,,0.009088466769238959,0.02230834847956434,0.0005092931490300932,0.031906108397833394,0.5154248854127841,0.28485036958804155,0.6991873844783654,-3.802794299294595,36.0
,,0.009088466769238959,0.02230834847956434,0.0005092931490300932,0.031906108397833394,0.5121466068550754,0.28485036958804155,0.6991873844783654,-3.802794299294595,36.1
,,0.009088466769238959,0.02230834847956434,0.0005092931490300932,0.031906108397833394,0.5093147748216286,0.28485036958804155,0.6991873844783654,-3.802794299294595,36.2
,,0.009016061043058488,0.02129634164878145,0.0004337766023471797,0.030746179294187114,0.5066824417977098,0.2932416726250949,0.6926500182352004,-3.849219974596428,36.3
,,0.009016061043058488,0.02129634164878145,0.0004337766023471797,0.030746179294187114,0.5040501087737913,0.2932416726250949,0.6926500182352004,-3.849219974596428,36.4
,,0.009016061043058488,0.02129634164878145,0.0004337766023471797,0.030746179294187114,0.5014177757498727,0.2932416726250949,0.6926500182352004,-3.849219974596428,36.5
,,0.008859408128358143,0.021423428256511317,0.0005026597346111134,0.030785496119480574,0.49866264693194867,0.2877786375108001,0.695893552384719,-3.84327017744547,36.6
,,0.008859408128358143,0.021423428256511317,0.0005026597346111134,0.030785496119480574,0.4959075181140246,0.2877786375108001,0.695893552384719,-3.84327017744547,36.7
,,0.008859408128358143,0.021423428256511317,0.0005026597346111134,0.030785496119480574,0.4947878235178632,0.2877786375108001,0.695893552384719,-3.84327017744547,36.8
,,0.008859408128358143,0.021423428256511317,0.0005026597346111134,0.030785496119480574,0.492525095505406,0.2877786375108001,0.695893552384719,-3.84327017744547,36.9
,,0.008915521126070773,0.020588757516199457,0.00043353335061823507,0.029937811992888468,0.4905059963990744,0.2978013599720847,0.6877175099199028,-3.8830101038040366,37.0
,,0.008915521126070773,0.020588757516199457,0.00043353335061823507,0.029937811992888468,0.48848689729274275,0.2978013599720847,0.6877175099199028,-3.8830101038040366,37.1
,,0.008915521126070773,0.020588757516199457,0.00043353335061823507,0.029937811992888468,0.48646779818641106,0.2978013599720847,0.6877175099199028,-3.8830101038040366,37.2
,,0.008827435052944468,0.020849662628901294,0.0005132364290225734,0.030190334110868335,0.4843281542923899,0.29239275791143515,0.6906072172747351,-3.8704175117362816,37.3
,,0.008827435052944468,0.020849662628901294,0.0005132364290225734,0.030190334110868335,0.48227466475816305,0.29239275791143515,0.6906072172747351,-3.8704175117362816,37.4
,,0.008827435052944468,0.020849662628901294,0.0005132364290225734,0.030190334110868335,0.48022117522393615,0.29239275791143515,0.6906072172747351,-3.8704175117362816,37.5
,,0.01183712433581605,0.015820673240714084,0.0008121012160334939,0.028469898792563626,0.4841347164722533,0.4157768322979751,0.5556982606782734,-4.146437761245084,37.6
,,0.01183712433581605,0.015820673240714084,0.0008121012160334939,0.028469898792563626,0.4880482577205704,0.4157768322979751,0.5556982606782734,-4.146437761245084,37.7
,,0.01183712433581605,0.015820673240714084,0.0008121012160334939,0.028469898792563626,0.4919617989688877,0.4157768322979751,0.5556982606782734,-4.146437761245084,37.8
,,0.01183712433581605,0.015820673240714084,0.0008121012160334939,0.028469898792563626,0.4958753402172048,0.4157768322979751,0.5556982606782734,-4.146437761245084,37.9
,,0.009005441894262204,0.02057069702542437,0.0005363823630767839,0.030112521282763354,0.4959085564345715,0.29905971040083545,0.6831276873915968,-3.8838876903578594,38.0
,,0.009005441894262204,0.02057069702542437,0.0005363823630767839,0.030112521282763354,0.4928678725733354,0.29905971040083545,0.6831276873915968,-3.8838876903578594,38.1
,,0.009360289577602595,0.02009782026174821,0.0004696836784782004,0.029927793517829003,0.4901766443465038,0.312762435093197,0.6715436689235127,-3.9071439144868014,38.2
,,0.009360289577602595,0.02009782026174821,0.0004696836784782004,0.029927793517829003,0.48748541611967217,0.312762435093197,0.6715436689235127,-3.9071439144868014,38.3
,,0.009360289577602595,0.02009782026174821,0.0004696836784782004,0.029927793517829003,0.48684338513605396,0.312762435093197,0.6715436689235127,-3.9071439144868014,38.4
,,0.009360289577602595,0.02009782026174821,0.0004696836784782004,0.029927793517829003,0.48620135415243587,0.312762435093197,0.6715436689235127,-3.9071439144868014,38.5
,,0.009442469890856606,0.02058350090558777,0.0005484212002358636,0.030574391996680238,0.48547186300020934,0.30883590070677014,0.673226826810578,-3.8832654510131404,38.6
,,0.009360289577602595,0.02009782026174821,0.0004696836784782004,0.029927793517829003,0.48486894765688315,0.312762435093197,0.6715436689235127,-3.9071439144868014,38.7
,,0.009989490108691632,0.02035907871239782,0.0004969921759884336,0.030845560997077887,0.48457763956222716,0.3238550308628841,0.6600326936613833,-3.894228338205851,38.8
,,0.009989490108691632,0.02035907871239782,0.0004969921759884336,0.030845560997077887,0.48428633146757116,0.3238550308628841,0.6600326936613833,-3.894228338205851,38.9
,,0.009989490108691632,0.02035907871239782,0.0004969921759884336,0.030845560997077887,0.48399502337291517,0.3238550308628841,0.6600326936613833,-3.894228338205851,39.0
,,0.009989490108691632,0.02035907871239782,0.0004969921759884336,0.030845560997077887,0.4815486783490958,0.3238550308628841,0.6600326936613833,-3.894228338205851,39.1
,,0.009989490108691632,0.02035907871239782,0.0004969921759884336,0.030845560997077887,0.4790716487608667,0.3238550308628841,0.6600326936613833,-3.894228338205851,39.2
,,0.009989490108691632,0.02035907871239782,0.0004969921759884336,0.030845560997077887,0.47659461917263757,0.3238550308628841,0.6600326936613833,-3.894228338205851,39.3
,,0.010715225613853494,0.020196546651688914,0.0004175656861927603,0.03132933795173517,0.4771711939617894,0.3420188971232325,0.6446528389078305,-3.902243647027117,39.4
,,0.01091688495256347,0.02100541862152934,0.0005306285832555298,0.032452932157348346,0.4776123955896823,0.33639132820519424,0.6472579586856549,-3.86297484494599,39.5
,,0.01091688495256347,0.02100541862152934,0.0005306285832555298,0.032452932157348346,0.478053597217575,0.33639132820519424,0.6472579586856549,-3.86297484494599,39.6
,,0.01091688495256347,0.02100541862152934,0.0005306285832555298,0.032452932157348346,0.4784947988454677,0.33639132820519424,0.6472579586856549,-3.86297484494599,39.7
,,0.01091688495256347,0.02100541862152934,0.0005306285832555298,0.032452932157348346,0.4789360004733605,0.33639132820519424,0.6472579586856549,-3.86297484494599,39.8
,,0.01091688495256347,0.02100541862152934,0.0005306285832555298,0.032452932157348346,0.4793772021012532,0.33639132820519424,0.6472579586856549,-3.86297484494599,39.9
,,0.010136930693668635,0.02100184384841869,0.0004511129615809415,0.031589887503668264,0.4796418621287196,0.3208916363659579,0.664828067082541,-3.863145042807459,40.0
,,0.010136930693668635,0.02100184384841869,0.0004511129615809415,0.031589887503668264,0.4799065221561859,0.3208916363659579,0.664828067082541,-3.863145042807459,40.1
,,0.01159878807617077,0.017747795500721555,0.0009521027381308408,0.030298686315023166,0.48230699981393654,0.38281488364133065,0.5857612213345886,-4.031493967916264,40.2
,,0.01159878807617077,0.017747795500721555,0.0009521027381308408,0.030298686315023166,0.4847074774716872,0.38281488364133065,0.5857612213345886,-4.031493967916264,40.3
,,0.01159878807617077,0.017747795500721555,0.0009521027381308408,0.030298686315023166,0.4871079551294379,0.38281488364133065,0.5857612213345886,-4.031493967916264,40.4
,,0.01159878807617077,0.017747795500721555,0.0009521027381308408,0.030298686315023166,0.4895084327871886,0.38281488364133065,0.5857612213345886,-4.031493967916264,40.5
,,0.01159878807617077,0.017747795500721555,0.0009521027381308408,0.030298686315023166,0.48896260597465596,0.38281488364133065,0.5857612213345886,-4.031493967916264,40.6
,,0.013498980118535772,0.02221720812134255,0.00048047898876806564,0.03619666722864639,0.48794824946804266,0.3729343376633457,0.6137915400056401,-3.8068881497692075,40.7
,,0.013498980118535772,0.02221720812134255,0.00048047898876806564,0.03619666722864639,0.4869338929614294,0.3729343376633457,0.6137915400056401,-3.8068881497692075,40.8
,,0.013498980118535772,0.02221720812134255,0.00048047898876806564,0.03619666722864639,0.4859195364548162,0.3729343376633457,0.6137915400056401,-3.8068881497692075,40.9
,,0.01219478254357869,0.01985486138289515,0.0010016164224454175,0.03305126034891926,0.48498774380342946,0.36896573428182283,0.6007293269088415,-3.9193063958941994,41.0
,,0.01219478254357869,0.01985486138289515,0.0010016164224454175,0.03305126034891926,0.4840559511520426,0.36896573428182283,0.6007293269088415,-3.9193063958941994,41.1
,,0.01219478254357869,0.01985486138289515,0.0010016164224454175,0.03305126034891926,0.48312415850065593,0.36896573428182283,0.6007293269088415,-3.9193063958941994,41.2
,,0.015420072958005139,0.023625461848094737,0.0005095552925436219,0.0395550900986435,0.48267352127503216,0.3898378924065187,0.5972799401841067,-3.745430256667709,41.3
,,0.015420072958005139,0.023625461848094737,0.0005095552925436219,0.0395550900986435,0.4854756075540655,0.3898378924065187,0.5972799401841067,-3.745430256667709,41.4
,,0.015420072958005139,0.023625461848094737,0.0005095552925436219,0.0395550900986435,0.4882776938330987,0.3898378924065187,0.5972799401841067,-3.745430256667709,41.5
,,0.015420072958005139,0.023625461848094737,0.0005095552925436219,0.0395550900986435,0.4910797801121318,0.3898378924065187,0.5972799401841067,-3.745430256667709,41.6
,,0.015692420147389915,0.02472228563080499,0.000635911647944642,0.04105061742613955,0.4936576065110893,0.3822700151982988,0.6022390692487547,-3.7000501898738003,41.7
,,0.015692420147389915,0.02472228563080499,0.000635911647944642,0.04105061742613955,0.49623543291004674,0.3822700151982988,0.6022390692487547,-3.7000501898738003,41.8
,,0.015692420147389915,0.02472228563080499,0.000635911647944642,0.04105061742613955,0.4988132593090042,0.3822700151982988,0.6022390692487547,-3.7000501898738003,41.9
,,0.015692420147389915,0.02472228563080499,0.000635911647944642,0.04105061742613955,0.5013910857079616,0.3822700151982988,0.6022390692487547,-3.7000501898738003,42.0
,,0.017186258982828315,0.024930786212669902,0.0005400669320536294,0.04265711212755185,0.5048276419236701,0.4028931665940851,0.5844461795285792,-3.6916518451340816,42.1
,,0.017186258982828315,0.024930786212669902,0.0005400669320536294,0.04265711212755185,0.5081949535365287,0.4028931665940851,0.5844461795285792,-3.6916518451340816,42.2
,,0.0173981911754245,0.025910958279373182,0.0006618251256133594,0.04397097458041104,0.5113385383166608,0.39567444982616673,0.5892741411039011,-3.6530893001683395,42.3
,,0.0173981911754245,0.025910958279373182,0.0006618251256133594,0.04397097458041104,0.514482123096793,0.39567444982616673,0.5892741411039011,-3.6530893001683395,42.4
,,0.0173981911754245,0.025910958279373182,0.0006618251256133594,0.04397097458041104,0.5176257078769251,0.39567444982616673,0.5892741411039011,-3.6530893001683395,42.5
,,0.0173981911754245,0.025910958279373182,0.0006618251256133594,0.04397097458041104,0.5207692926570572,0.39567444982616673,0.5892741411039011,-3.6530893001683395,42.6
,,0.0173981911754245,0.025910958279373182,0.0006618251256133594,0.04397097458041104,0.5258068939655892,0.39567444982616673,0.5892741411039011,-3.6530893001683395,42.7
,,0.0173981911754245,0.025910958279373182,0.0006618251256133594,0.04397097458041104,0.5308444952741214,0.39567444982616673,0.5892741411039011,-3.6530893001683395,42.8
,,0.01887239116603852,0.026085888294541337,0.000565430061812035,0.04552370952239189,0.5346776332938795,0.4145618044758786,0.573017633409474,-3.6463607892428103,42.9
,,0.017100618872263818,0.026984159004394402,0.0006894145359424111,0.04477419241260063,0.537388981044236,0.38193025827644533,0.602672154435115,-3.6125052886966267,43.0
,,0.017100618872263818,0.026984159004394402,0.0006894145359424111,0.04477419241260063,0.5401003287945926,0.38193025827644533,0.602672154435115,-3.6125052886966267,43.1
,,0.017100618872263818,0.026984159004394402,0.0006894145359424111,0.04477419241260063,0.5428116765449491,0.38193025827644533,0.602672154435115,-3.6125052886966267,43.2
,,0.017100618872263818,0.026984159004394402,0.0006894145359424111,0.04477419241260063,0.5455230242953055,0.38193025827644533,0.602672154435115,-3.6125052886966267,43.3
,,0.017100618872263818,0.026984159004394402,0.0006894145359424111,0.04477419241260063,0.5483775343116939,0.38193025827644533,0.602672154435115,-3.6125052886966267,43.4
,,0.020598860030582634,0.02714967952562853,0.0005872615616002649,0.04833580111781143,0.5527943768389834,0.4261615521872893,0.5616888289376888,-3.6063900365161117,43.5
,,0.020598860030582634,0.02714967952562853,0.0005872615616002649,0.04833580111781143,0.5570517297490667,0.4261615521872893,0.5616888289376888,-3.6063900365161117,43.6
,,0.02073124249680383,0.027997254597421636,0.0007182669060336191,0.04944676400025909,0.561081075851633,0.4192638874547019,0.5662100475831935,-3.575648823706242,43.7
,,0.02073124249680383,0.027997254597421636,0.0007182669060336191,0.04944676400025909,0.5651104219541994,0.4192638874547019,0.5662100475831935,-3.575648823706242,43.8
,,0.02073124249680383,0.027997254597421636,0.0007182669060336191,0.04944676400025909,0.5691397680567658,0.4192638874547019,0.5662100475831935,-3.575648823706242,43.9
,,0.02073124249680383,0.027997254597421636,0.0007182669060336191,0.04944676400025909,0.5733031690227763,0.4192638874547019,0.5662100475831935,-3.575648823706242,44.0
,,0.02073124249680383,0.027997254597421636,0.0007182669060336191,0.04944676400025909,0.5774665699887868,0.4192638874547019,0.5662100475831935,-3.575648823706242,44.1
,,0.02235665642304559,0.028063259009616173,0.0006040746534609281,0.05102399008612269,0.5823321966685765,0.438159704588177,0.5500012633713786,-3.5732940667321595,44.2
,,0.02235665642304559,0.028063259009616173,0.0006040746534609281,0.05102399008612269,0.5869983243388381,0.438159704588177,0.5500012633713786,-3.5732940667321595,44.3
,,0.014031112113118985,0.030337643790472657,0.001045636457228147,0.04541439236081979,0.5874875299440026,0.3089573895790798,0.6680182693943904,-3.495365968246454,44.4
,,0.014031112113118985,0.030337643790472657,0.001045636457228147,0.04541439236081979,0.5879767355491671,0.3089573895790798,0.6680182693943904,-3.495365968246454,44.5
,,0.014031112113118985,0.030337643790472657,0.001045636457228147,0.04541439236081979,0.588588736948337,0.3089573895790798,0.6680182693943904,-3.495365968246454,44.6
,,0.014031112113118985,0.030337643790472657,0.001045636457228147,0.04541439236081979,0.5892007383475069,0.3089573895790798,0.6680182693943904,-3.495365968246454,44.7
,,0.014797231303767595,0.030861474045405127,0.000876396891101736,0.04653510224027446,0.5900249171236344,0.3179799891137044,0.6631869827223809,-3.4782466676206174,44.8
,,0.014797231303767595,0.030861474045405127,0.000876396891101736,0.04653510224027446,0.5908490958997619,0.3179799891137044,0.6631869827223809,-3.4782466676206174,44.9
,,0.023841432604352533,0.029035997361273568,0.000720759208787717,0.053598189174413814,0.5956999775390067,0.4448178748496549,0.5417346706767939,-3.5392189304373,45.0
,,0.023841432604352533,0.029035997361273568,0.000720759208787717,0.053598189174413814,0.6005508591782516,0.4448178748496549,0.5417346706767939,-3.5392189304373,45.1
,,0.023841432604352533,0.029035997361273568,0.000720759208787717,0.053598189174413814,0.6054017408174965,0.4448178748496549,0.5417346706767939,-3.5392189304373,45.2
,,0.023841432604352533,0.029035997361273568,0.000720759208787717,0.053598189174413814,0.6103731672444308,0.4448178748496549,0.5417346706767939,-3.5392189304373,45.3
,,0.023841432604352533,0.029035997361273568,0.000720759208787717,0.053598189174413814,0.6153445936713652,0.4448178748496549,0.5417346706767939,-3.5392189304373,45.4
,,0.025322910270961552,0.02882063342669219,0.000592174759738831,0.05473571845739257,0.6210352586315849,0.46263958863851284,0.5265416119298183,-3.5466637099329215,45.5
,,0.025322910270961552,0.02882063342669219,0.000592174759738831,0.05473571845739257,0.6226656601382807,0.46263958863851284,0.5265416119298183,-3.5466637099329215,45.6
,,0.01360496610330856,0.0316173745746448,0.0009194690823545083,0.04614180976030787,0.6186918376844502,0.29485115937112266,0.6852218137712213,-3.454048481177929,45.7
,,0.01360496610330856,0.0316173745746448,0.0009194690823545083,0.04614180976030787,0.6147180152306196,0.29485115937112266,0.6852218137712213,-3.454048481177929,45.8
,,0.01360496610330856,0.0316173745746448,0.0009194690823545083,0.04614180976030787,0.6107441927767893,0.29485115937112266,0.6852218137712213,-3.454048481177929,45.9
,,0.01360496610330856,0.0316173745746448,0.0009194690823545083,0.04614180976030787,0.6106506953539091,0.29485115937112266,0.6852218137712213,-3.454048481177929,46.0
,,0.013857652038788186,0.03101312499766514,0.0007443455981501393,0.04561512263460347,0.6107638421809389,0.3037951284225162,0.6798869148307122,-3.4733447770785295,46.1
,,0.013857652038788186,0.03101312499766514,0.0007443455981501393,0.04561512263460347,0.6105275333735644,0.3037951284225162,0.6798869148307122,-3.4733447770785295,46.2
,,0.013857652038788186,0.03101312499766514,0.0007443455981501393,0.04561512263460347,0.6102912245661897,0.3037951284225162,0.6798869148307122,-3.4733447770785295,46.3
,,0.0262830781386149,0.029386366230412266,0.0007146468215344073,0.05638409119056158,0.6156494802701776,0.4661435093417726,0.5211818725798918,-3.527224445854655,46.4
,,0.0262830781386149,0.029386366230412266,0.0007146468215344073,0.05638409119056158,0.6210077359741657,0.4661435093417726,0.5211818725798918,-3.527224445854655,46.5
,,0.0262830781386149,0.029386366230412266,0.0007146468215344073,0.05638409119056158,0.626453451846762,0.4661435093417726,0.5211818725798918,-3.527224445854655,46.6
,,0.0262830781386149,0.029386366230412266,0.0007146468215344073,0.05638409119056158,0.63181170755075,0.4661435093417726,0.5211818725798918,-3.527224445854655,46.7
,,0.027735119553121333,0.02906939291892267,0.0005863844531346042,0.057390896925178604,0.6376046484217299,0.48326687748546665,0.5065157451158305,-3.5380694480514068,46.8
,,0.02725841262760064,0.029127919156059466,0.0006719403825519816,0.057058272166212086,0.643169051326603,0.47772937372159197,0.5104942377366275,-3.5360581435845857,46.9
,,0.027735119553121333,0.02906939291892267,0.0005863844531346042,0.057390896925178604,0.6489619921975829,0.48326687748546665,0.5065157451158305,-3.5380694480514068,47.0
,,0.027294862920047843,0.029289755986872584,0.0006954772327977854,0.05728009613971822,0.6544773167554936,0.47651566180108923,0.5113426471112881,-3.5305174491136064,47.1
,,0.027294862920047843,0.029289755986872584,0.0006954772327977854,0.05728009613971822,0.6599926413134043,0.47651566180108923,0.5113426471112881,-3.5305174491136064,47.2
,,0.027294862920047843,0.029289755986872584,0.0006954772327977854,0.05728009613971822,0.665507965871315,0.47651566180108923,0.5113426471112881,-3.5305174491136064,47.3
,,0.012600493291104402,0.02965862683775135,0.0006050976095556805,0.04286421773841144,0.6641867590091419,0.2939629825511282,0.6919204036044659,-3.5180022401157807,47.4
,,0.012600493291104402,0.02965862683775135,0.0006050976095556805,0.04286421773841144,0.6630009253082279,0.2939629825511282,0.6919204036044659,-3.5180022401157807,47.5
,,0.012600493291104402,0.02965862683775135,0.0006050976095556805,0.04286421773841144,0.6618150916073138,0.2939629825511282,0.6919204036044659,-3.5180022401157807,47.6
,,0.027978072262443164,0.029047033275810083,0.0006749807117682705,0.057700086250021515,0.6673586090922761,0.48488787592466953,0.503414035638452,-3.5388389256562727,47.7
,,0.027978072262443164,0.029047033275810083,0.0006749807117682705,0.057700086250021515,0.672902126577238,0.48488787592466953,0.503414035638452,-3.5388389256562727,47.8
,,0.027978072262443164,0.029047033275810083,0.0006749807117682705,0.057700086250021515,0.6784456440622002,0.48488787592466953,0.503414035638452,-3.5388389256562727,47.9
,,0.012093750043958271,0.0289467550717107,0.0005373074487928106,0.04157781256446178,0.6776346982973084,0.29087028148025473,0.6962067816057416,-3.542297168578351,48.0
,,0.012093750043958271,0.0289467550717107,0.0005373074487928106,0.04157781256446178,0.6768237525324166,0.29087028148025473,0.6962067816057416,-3.542297168578351,48.1
,,0.011688689809675279,0.029198221536210617,0.0005814355644127539,0.041468346910298645,0.6736586020565523,0.28187016557374267,0.7041086445854743,-3.533647477856922,48.2
,,0.012093750043958271,0.0289467550717107,0.0005373074487928106,0.04157781256446178,0.6707118386613761,0.29087028148025473,0.6962067816057416,-3.542297168578351,48.3
,,0.011534706082085445,0.029092249154980633,0.0005885035585369907,0.04121545879560307,0.6674987541749395,0.2798635856339414,0.7058577049755962,-3.537283492345222,48.4
,,0.011534706082085445,0.029092249154980633,0.0005885035585369907,0.04121545879560307,0.664285669688503,0.2798635856339414,0.7058577049755962,-3.537283492345222,48.5
,,0.029840165468935573,0.02859340021920838,0.0005324716256353973,0.05896603731377935,0.6691615351395739,0.5060568223390253,0.48491303675457587,-3.554579349352018,48.6
,,0.029840165468935573,0.02859340021920838,0.0005324716256353973,0.05896603731377935,0.6746116858097017,0.5060568223390253,0.48491303675457587,-3.554579349352018,48.7
,,0.029840165468935573,0.02859340021920838,0.0005324716256353973,0.05896603731377935,0.6800618364798293,0.5060568223390253,0.48491303675457587,-3.554579349352018,48.8
,,0.029840165468935573,0.02859340021920838,0.0005324716256353973,0.05896603731377935,0.6855119871499569,0.5060568223390253,0.48491303675457587,-3.554579349352018,48.9
,,0.02887404977121354,0.02847713109480036,0.0006240746288073794,0.05797525549482128,0.6905087602501128,0.49804092323133886,0.49119457692332413,-3.5586539315432613,49.0
,,0.02887404977121354,0.02847713109480036,0.0006240746288073794,0.05797525549482128,0.6955055333502688,0.49804092323133886,0.49119457692332413,-3.5586539315432613,49.1
,,0.030267970920204237,0.028255381259740472,0.0004955080847519049,0.05901886026469662,0.7012184363058379,0.5128525150172998,0.4787517267025576,-3.5664713524595864,49.2
,,0.030267970920204237,0.028255381259740472,0.0004955080847519049,0.05901886026469662,0.7064501838356442,0.5128525150172998,0.4787517267025576,-3.5664713524595864,49.3
,,0.030267970920204237,0.028255381259740472,0.0004955080847519049,0.05901886026469662,0.7116819313654504,0.5128525150172998,0.4787517267025576,-3.5664713524595864,49.4
,,0.011278713717336044,0.028196822951270666,0.0004565870726579402,0.039932123741264654,0.708523315243264,0.2824471292940766,0.7061187913262154,-3.568545968687289,49.5
,,0.011278713717336044,0.028196822951270666,0.0004565870726579402,0.039932123741264654,0.7053646991210776,0.2824471292940766,0.7061187913262154,-3.568545968687289,49.6
,,0.011278713717336044,0.028196822951270666,0.0004565870726579402,0.039932123741264654,0.7024303428789669,0.2824471292940766,0.7061187913262154,-3.568545968687289,49.7
,,0.03038265666576235,0.027724408292694066,0.0004490732789703606,0.05855613823742677,0.7081945079673675,0.5188637362417959,0.47346715694058045,-3.5854420879862885,49.8
,,0.03038265666576235,0.027724408292694066,0.0004490732789703606,0.05855613823742677,0.7139586730557681,0.5188637362417959,0.47346715694058045,-3.5854420879862885,49.9
,,0.029090958264463486,0.027414467178394276,0.0005158392815395033,0.057021264724397266,0.7192887426318244,0.510177359360052,0.4807762035952291,-3.59668440571918,50.0
,,0.03038265666576235,0.027724408292694066,0.0004490732789703606,0.05855613823742677,0.7243702710462799,0.5188637362417959,0.47346715694058045,-3.5854420879862885,50.1
,,0.028981544371529652,0.02753615519673081,0.0005376309889745033,0.05705533055723496,0.728909417424787,0.5079550690264929,0.4826219553510072,-3.5922554033895713,50.2
,,0.028981544371529652,0.02753615519673081,0.0005376309889745033,0.05705533055723496,0.7336722906360204,0.5079550690264929,0.4826219553510072,-3.5922554033895713,50.3
,,0.030194648942021677,0.027221946075762952,0.0004120057654607086,0.05782860078324534,0.7391440618770496,0.5221404034172994,0.47073499457123225,-3.6037317899807286,50.4
,,0.030194648942021677,0.027221946075762952,0.0004120057654607086,0.05782860078324534,0.744615833118079,0.5221404034172994,0.47073499457123225,-3.6037317899807286,50.5
,,0.030194648942021677,0.027221946075762952,0.0004120057654607086,0.05782860078324534,0.7500876043591082,0.5221404034172994,0.47073499457123225,-3.6037317899807286,50.6
,,0.030194648942021677,0.027221946075762952,0.0004120057654607086,0.05782860078324534,0.7555593756001375,0.5221404034172994,0.47073499457123225,-3.6037317899807286,50.7
,,0.028825441611956458,0.027358232106300444,0.0005110181339180647,0.05669469185217497,0.7603364856686933,0.5084328121425469,0.48255367852838776,-3.5987378043132816,50.8
,,0.028825441611956458,0.027358232106300444,0.0005110181339180647,0.05669469185217497,0.7644634638833109,0.5084328121425469,0.48255367852838776,-3.5987378043132816,50.9
,,0.03011371873665304,0.027250110821801468,0.0003947396799786653,0.05775856923843318,0.7703554393406532,0.5213723112208785,0.4717933837541971,-3.6026976910260538,51.0
,,0.03011371873665304,0.027250110821801468,0.0003947396799786653,0.05775856923843318,0.7762474147979956,0.5213723112208785,0.4717933837541971,-3.6026976910260538,51.1
,,0.03011371873665304,0.027250110821801468,0.0003947396799786653,0.05775856923843318,0.782139390255338,0.5213723112208785,0.4717933837541971,-3.6026976910260538,51.2
,,0.03011371873665304,0.027250110821801468,0.0003947396799786653,0.05775856923843318,0.7880313657126805,0.5213723112208785,0.4717933837541971,-3.6026976910260538,51.3
,,0.03011371873665304,0.027250110821801468,0.0003947396799786653,0.05775856923843318,0.7939233411700227,0.5213723112208785,0.4717933837541971,-3.6026976910260538,51.4
,,0.02870697785234677,0.02769023288412861,0.000509822336962811,0.056907033073438196,0.7973983896163384,0.50445395414132,0.4865871824383205,-3.5866755314291225,51.5
,,0.02870697785234677,0.02769023288412861,0.000509822336962811,0.056907033073438196,0.8008734380626539,0.50445395414132,0.4865871824383205,-3.5866755314291225,51.6
,,0.030127128353521455,0.027808021113724445,0.0003954675338077283,0.05833061700105363,0.8051599748119248,0.5164891081638527,0.4767311326952387,-3.582430770631447,51.7
,,0.030127128353521455,0.027808021113724445,0.0003954675338077283,0.05833061700105363,0.8094465115611957,0.5164891081638527,0.4767311326952387,-3.582430770631447,51.8
,,0.030127128353521455,0.027808021113724445,0.0003954675338077283,0.05833061700105363,0.8137330483104668,0.5164891081638527,0.4767311326952387,-3.582430770631447,51.9
,,0.030127128353521455,0.027808021113724445,0.0003954675338077283,0.05833061700105363,0.8180195850597377,0.5164891081638527,0.4767311326952387,-3.582430770631447,52.0
,,0.030127128353521455,0.027808021113724445,0.0003954675338077283,0.05833061700105363,0.8223061218090086,0.5164891081638527,0.4767311326952387,-3.582430770631447,52.1
,,0.02884529410032747,0.028471115156064576,0.0005122776075019315,0.057828686863893974,0.8250122496494325,0.49880596749876005,0.4923354947186403,-3.558865208945261,52.2
,,0.03037199796575954,0.028768257111568055,0.0003989190405188813,0.059539174117846476,0.8282509335398569,0.5101178915522735,0.4831819980342146,-3.548482683317402,52.3
,,0.03037199796575954,0.028768257111568055,0.0003989190405188813,0.059539174117846476,0.8356665394953782,0.5101178915522735,0.4831819980342146,-3.548482683317402,52.4
,,0.03037199796575954,0.028768257111568055,0.0003989190405188813,0.059539174117846476,0.8430821454508992,0.5101178915522735,0.4831819980342146,-3.548482683317402,52.5
,,0.03037199796575954,0.028768257111568055,0.0003989190405188813,0.059539174117846476,0.8504977514064205,0.5101178915522735,0.4831819980342146,-3.548482683317402,52.6
,,0.03037199796575954,0.028768257111568055,0.0003989190405188813,0.059539174117846476,0.8579133573619417,0.5101178915522735,0.4831819980342146,-3.548482683317402,52.7
,,0.02880514016907208,0.02939739045984096,0.0005228776990601624,0.0587254083279732,0.8641681203713029,0.49050557483056395,0.5005906522720224,-3.5268493684462467,52.8
,,0.011763009588044762,0.029705019710204863,0.00020673645501652964,0.04167476575326615,0.863124637834866,0.2822573654687637,0.7127819238642465,-3.5164392336430965,52.9
,,0.011763009588044762,0.029705019710204863,0.00020673645501652964,0.04167476575326615,0.8578108235291859,0.2822573654687637,0.7127819238642465,-3.5164392336430965,53.0
,,0.011763009588044762,0.029705019710204863,0.00020673645501652964,0.04167476575326615,0.8524970092235062,0.2822573654687637,0.7127819238642465,-3.5164392336430965,53.1
,,0.011763009588044762,0.029705019710204863,0.00020673645501652964,0.04167476575326615,0.8471831949178263,0.2822573654687637,0.7127819238642465,-3.5164392336430965,53.2
,,0.011763009588044762,0.029705019710204863,0.00020673645501652964,0.04167476575326615,0.8418693806121464,0.2822573654687637,0.7127819238642465,-3.5164392336430965,53.3
,,0.011763009588044762,0.029705019710204863,0.00020673645501652964,0.04167476575326615,0.8365555663064667,0.2822573654687637,0.7127819238642465,-3.5164392336430965,53.4
,,0.030697790131863148,0.031730182999813616,0.00045382959192237927,0.06288180272359914,0.8376658807273664,0.48818241211685975,0.5046004030655037,-3.450486905996995,53.5
,,0.030697790131863148,0.031730182999813616,0.00045382959192237927,0.06288180272359914,0.8387761951482663,0.48818241211685975,0.5046004030655037,-3.450486905996995,53.6
,,0.030697790131863148,0.031730182999813616,0.00045382959192237927,0.06288180272359914,0.8454907335296925,0.48818241211685975,0.5046004030655037,-3.450486905996995,53.7
,,0.030697790131863148,0.031730182999813616,0.00045382959192237927,0.06288180272359914,0.8522052719111184,0.48818241211685975,0.5046004030655037,-3.450486905996995,53.8
,,0.030697790131863148,0.031730182999813616,0.00045382959192237927,0.06288180272359914,0.8589198102925446,0.48818241211685975,0.5046004030655037,-3.450486905996995,53.9
,,0.030697790131863148,0.031730182999813616,0.00045382959192237927,0.06288180272359914,0.8656343486739706,0.48818241211685975,0.5046004030655037,-3.450486905996995,54.0
,,0.029502474135947376,0.033294747297173,0.0006212981767277984,0.06341851960984818,0.8711251999980272,0.46520281957773696,0.5250003863540628,-3.402355633261449,54.1
,,0.03303325121340746,0.03274647861689479,0.00034649610796171136,0.06612622593826396,0.8781492688239814,0.49954841282258566,0.4952116675684349,-3.418959845830155,54.2
,,0.03196943669818674,0.03532669919663086,0.0005465292336925703,0.06784266512851017,0.8838759368558738,0.47122908036747985,0.5207150858492023,-3.3431162497529487,54.3
,,0.03196943669818674,0.03532669919663086,0.0005465292336925703,0.06784266512851017,0.8840080403764038,0.47122908036747985,0.5207150858492023,-3.3431162497529487,54.4
,,0.03196943669818674,0.03532669919663086,0.0005465292336925703,0.06784266512851017,0.8841401438969336,0.47122908036747985,0.5207150858492023,-3.3431162497529487,54.5
,,0.03196943669818674,0.03532669919663086,0.0005465292336925703,0.06784266512851017,0.8842722474174636,0.47122908036747985,0.5207150858492023,-3.3431162497529487,54.6
,,0.03196943669818674,0.03532669919663086,0.0005465292336925703,0.06784266512851017,0.8844043509379933,0.47122908036747985,0.5207150858492023,-3.3431162497529487,54.7
,,0.0346067079887436,0.03664010007756438,0.00042279269850003837,0.07166960076480802,0.8842843914097692,0.482864528606898,0.5112362799090099,-3.3066120078053642,54.8
,,0.03375811651102935,0.0392935685739317,0.0006294689474611536,0.0736811540324222,0.8833257461709056,0.4581648720672132,0.5332919806961927,-3.2366944230172425,54.9
,,0.020857467721017414,0.03768746739914708,0.0002552343223859814,0.058800169442550475,0.8783173968359275,0.35471781661098417,0.6409414761290588,-3.2784276695260304,55.0
,,0.020857467721017414,0.03768746739914708,0.0002552343223859814,0.058800169442550475,0.8735866638140187,0.35471781661098417,0.6409414761290588,-3.2784276695260304,55.1
,,0.020857467721017414,0.03768746739914708,0.0002552343223859814,0.058800169442550475,0.8688559307921098,0.35471781661098417,0.6409414761290588,-3.2784276695260304,55.2
,,0.020857467721017414,0.03768746739914708,0.0002552343223859814,0.058800169442550475,0.8641251977702009,0.35471781661098417,0.6409414761290588,-3.2784276695260304,55.3
,,0.02375365224092631,0.03925196514096033,0.00023095634834758078,0.06323657373023422,0.8663790406160834,0.37563155053685937,0.62071619041867,-3.2377537687214306,55.4
,,0.02375365224092631,0.03925196514096033,0.00023095634834758078,0.06323657373023422,0.8686328834619657,0.37563155053685937,0.62071619041867,-3.2377537687214306,55.5
,,0.02375365224092631,0.03925196514096033,0.00023095634834758078,0.06323657373023422,0.8708867263078479,0.37563155053685937,0.62071619041867,-3.2377537687214306,55.6
,,0.02375365224092631,0.03925196514096033,0.00023095634834758078,0.06323657373023422,0.8664112179678541,0.37563155053685937,0.62071619041867,-3.2377537687214306,55.7
,,0.0356567234479736,0.04483118703184423,0.0008198192456978845,0.0813077297255157,0.8643131725540838,0.43854038931287403,0.5513766917756586,-3.104851242649964,55.8
,,0.0356567234479736,0.04483118703184423,0.0008198192456978845,0.0813077297255157,0.8622151271403139,0.43854038931287403,0.5513766917756586,-3.104851242649964,55.9
,,0.026881387379740974,0.04260348025884545,0.0002694691498736111,0.06975433678846003,0.8648798020237619,0.3853722738596542,0.6107646093467504,-3.155819332826737,56.0
,,0.026881387379740974,0.04260348025884545,0.0002694691498736111,0.06975433678846003,0.8675444769072099,0.3853722738596542,0.6107646093467504,-3.155819332826737,56.1
,,0.026881387379740974,0.04260348025884545,0.0002694691498736111,0.06975433678846003,0.8704275388713458,0.3853722738596542,0.6107646093467504,-3.155819332826737,56.2
,,0.026881387379740974,0.04260348025884545,0.0002694691498736111,0.06975433678846003,0.8730922137547938,0.3853722738596542,0.6107646093467504,-3.155819332826737,56.3
,,0.026881387379740974,0.04260348025884545,0.0002694691498736111,0.06975433678846003,0.8760232097295022,0.3853722738596542,0.6107646093467504,-3.155819332826737,56.4
,,0.0263114487348033,0.0436968481668336,0.0003409345076775251,0.07034923140931443,0.8785938199738759,0.3740118862381714,0.6211417991561456,-3.1304793038104277,56.5
,,0.03570632932732627,0.04414430788569975,0.0006816321453663791,0.08053226935839239,0.8756594626189615,0.44337915237955805,0.5481567604812493,-3.1202912869551485,56.6
,,0.03570632932732627,0.04414430788569975,0.0006816321453663791,0.08053226935839239,0.8727251052640472,0.44337915237955805,0.5481567604812493,-3.1202912869551485,56.7
,,0.03570632932732627,0.04414430788569975,0.0006816321453663791,0.08053226935839239,0.8697907479091329,0.44337915237955805,0.5481567604812493,-3.1202912869551485,56.8
,,0.03570632932732627,0.04414430788569975,0.0006816321453663791,0.08053226935839239,0.8668563905542186,0.44337915237955805,0.5481567604812493,-3.1202912869551485,56.9
,,0.03570632932732627,0.04414430788569975,0.0006816321453663791,0.08053226935839239,0.8642928469140493,0.44337915237955805,0.5481567604812493,-3.1202912869551485,57.0
,,0.03373774543713168,0.044843189974649804,0.0008748315256126521,0.07945576693739415,0.8610229870169028,0.42461040573322734,0.5643792981066215,-3.104583542036301,57.1
,,0.029816388131694408,0.04266299019240824,0.0003057597993591146,0.07278513812346175,0.8563686529404448,0.40964939959471364,0.586149745570877,-3.154423474808682,57.2
,,0.029816388131694408,0.04266299019240824,0.0003057597993591146,0.07278513812346175,0.8517143188639871,0.40964939959471364,0.586149745570877,-3.154423474808682,57.3
,,0.029816388131694408,0.04266299019240824,0.0003057597993591146,0.07278513812346175,0.8470599847875292,0.40964939959471364,0.586149745570877,-3.154423474808682,57.4
,,0.029816388131694408,0.04266299019240824,0.0003057597993591146,0.07278513812346175,0.8507960143630641,0.40964939959471364,0.586149745570877,-3.154423474808682,57.5
,,0.029816388131694408,0.04266299019240824,0.0003057597993591146,0.07278513812346175,0.8545320439385989,0.40964939959471364,0.586149745570877,-3.154423474808682,57.6
,,0.029816388131694408,0.04266299019240824,0.0003057597993591146,0.07278513812346175,0.8582680735141338,0.40964939959471364,0.586149745570877,-3.154423474808682,57.7
,,0.029094170003796826,0.043577623140073955,0.0003913431174345366,0.07306313626130533,0.8529150606709429,0.39820587361242626,0.5964378942647843,-3.1332114911073696,57.8
,,0.034051063657693226,0.04301932962775705,0.0007210858404094844,0.07779147912585976,0.8491106635469766,0.4377222806446655,0.5530082486046519,-3.1461057380683117,57.9
,,0.034051063657693226,0.04301932962775705,0.0007210858404094844,0.07779147912585976,0.8457403619353544,0.4377222806446655,0.5530082486046519,-3.1461057380683117,58.0
,,0.034051063657693226,0.04301932962775705,0.0007210858404094844,0.07779147912585976,0.8419359648113882,0.4377222806446655,0.5530082486046519,-3.1461057380683117,58.1
,,0.034051063657693226,0.04301932962775705,0.0007210858404094844,0.07779147912585976,0.8386739497233705,0.4377222806446655,0.5530082486046519,-3.1461057380683117,58.2
,,0.034051063657693226,0.04301932962775705,0.0007210858404094844,0.07779147912585976,0.8354119346353528,0.4377222806446655,0.5530082486046519,-3.1461057380683117,58.3
,,0.033367959892799885,0.044288536633224324,0.000904002854929317,0.07856049938095354,0.8309646797433381,0.4247422070345154,0.563750701462086,-3.1170294021613096,58.4
,,0.03326220614043515,0.04453998797770545,0.0009444051610622037,0.0787465992792028,0.8264345771811052,0.4223954614535309,0.5656115741555405,-3.1113678870742487,58.5
,,0.031701520400168534,0.041788755826009404,0.000359993393558863,0.0738502696197368,0.8220522172811371,0.4292674971046574,0.5658578640428035,-3.175127975016014,58.6
,,0.031701520400168534,0.041788755826009404,0.000359993393558863,0.0738502696197368,0.8176698573811692,0.4292674971046574,0.5658578640428035,-3.175127975016014,58.7
,,0.031701520400168534,0.041788755826009404,0.000359993393558863,0.0738502696197368,0.8139821586536747,0.4292674971046574,0.5658578640428035,-3.175127975016014,58.8
,,0.031701520400168534,0.041788755826009404,0.000359993393558863,0.0738502696197368,0.8102944599261802,0.4292674971046574,0.5658578640428035,-3.175127975016014,58.9
,,0.031701520400168534,0.041788755826009404,0.000359993393558863,0.0738502696197368,0.8059635542253625,0.4292674971046574,0.5658578640428035,-3.175127975016014,59.0
,,0.031701520400168534,0.041788755826009404,0.000359993393558863,0.0738502696197368,0.8016326485245449,0.4292674971046574,0.5658578640428035,-3.175127975016014,59.1
,,0.0325159470897463,0.04076908539874593,0.000375878249005653,0.07366091073749788,0.7977886198820829,0.44142743775761795,0.5534697438650047,-3.199831195595001,59.2
,,0.0325159470897463,0.04076908539874593,0.000375878249005653,0.07366091073749788,0.793944591239621,0.44142743775761795,0.5534697438650047,-3.199831195595001,59.3
,,0.0325159470897463,0.04076908539874593,0.000375878249005653,0.07366091073749788,0.7901005625971591,0.44142743775761795,0.5534697438650047,-3.199831195595001,59.4
,,0.0325159470897463,0.04076908539874593,0.000375878249005653,0.07366091073749788,0.787111128454823,0.44142743775761795,0.5534697438650047,-3.199831195595001,59.5
,,0.0325159470897463,0.04076908539874593,0.000375878249005653,0.07366091073749788,0.7841216943124869,0.44142743775761795,0.5534697438650047,-3.199831195595001,59.6
,,0.0325159470897463,0.04076908539874593,0.000375878249005653,0.07366091073749788,0.7805487786747123,0.44142743775761795,0.5534697438650047,-3.199831195595001,59.7
,,0.035481596925075534,0.042133346772151054,0.0007724939714659454,0.07838743766869254,0.7775328934178778,0.452643918213526,0.5375012632793182,-3.166915766978259,59.8
,,0.035481596925075534,0.042133346772151054,0.0007724939714659454,0.07838743766869254,0.7745170081610435,0.452643918213526,0.5375012632793182,-3.166915766978259,59.9
,,0.035481596925075534,0.042133346772151054,0.0007724939714659454,0.07838743766869254,0.771501122904209,0.452643918213526,0.5375012632793182,-3.166915766978259,60.0
,,0.035481596925075534,0.042133346772151054,0.0007724939714659454,0.07838743766869254,0.7684852376473746,0.452643918213526,0.5375012632793182,-3.166915766978259,60.1
,,0.035481596925075534,0.042133346772151054,0.0007724939714659454,0.07838743766869254,0.766347535585608,0.452643918213526,0.5375012632793182,-3.166915766978259,60.2
,,0.035481596925075534,0.042133346772151054,0.0007724939714659454,0.07838743766869254,0.763677277473841,0.452643918213526,0.5375012632793182,-3.166915766978259,60.3
,,0.035481596925075534,0.042133346772151054,0.0007724939714659454,0.07838743766869254,0.761007019362074,0.452643918213526,0.5375012632793182,-3.166915766978259,60.4
,,0.031848735837429726,0.039617228783757306,0.0003978848630450095,0.07186384948423205,0.7578590738427646,0.4431816005684164,0.5512817510903015,-3.2284911850404403,60.5
,,0.031848735837429726,0.039617228783757306,0.0003978848630450095,0.07186384948423205,0.7547111283234553,0.4431816005684164,0.5512817510903015,-3.2284911850404403,60.6
,,0.031848735837429726,0.039617228783757306,0.0003978848630450095,0.07186384948423205,0.7515631828041461,0.4431816005684164,0.5512817510903015,-3.2284911850404403,60.7
,,0.031848735837429726,0.039617228783757306,0.0003978848630450095,0.07186384948423205,0.7493639028540392,0.4431816005684164,0.5512817510903015,-3.2284911850404403,60.8
,,0.031848735837429726,0.039617228783757306,0.0003978848630450095,0.07186384948423205,0.7544628684497305,0.4431816005684164,0.5512817510903015,-3.2284911850404403,60.9
,,0.031848735837429726,0.039617228783757306,0.0003978848630450095,0.07186384948423205,0.7595618340454219,0.4431816005684164,0.5512817510903015,-3.2284911850404403,61.0
,,0.031848735837429726,0.039617228783757306,0.0003978848630450095,0.07186384948423205,0.7646607996411132,0.4431816005684164,0.5512817510903015,-3.2284911850404403,61.1
,,0.038910971294799604,0.04266488780870667,0.0008150860022782927,0.08239094510578457,0.771111048553061,0.47227242319942403,0.517834669257984,-3.154378996583202,61.2
,,0.038910971294799604,0.04266488780870667,0.0008150860022782927,0.08239094510578457,0.7775612974650089,0.47227242319942403,0.517834669257984,-3.154378996583202,61.3
,,0.038910971294799604,0.04266488780870667,0.0008150860022782927,0.08239094510578457,0.7840115463769568,0.47227242319942403,0.517834669257984,-3.154378996583202,61.4
,,0.038910971294799604,0.04266488780870667,0.0008150860022782927,0.08239094510578457,0.7833184280290394,0.47227242319942403,0.517834669257984,-3.154378996583202,61.5
,,0.038910971294799604,0.04266488780870667,0.0008150860022782927,0.08239094510578457,0.782625309681122,0.47227242319942403,0.517834669257984,-3.154378996583202,61.6
,,0.038910971294799604,0.04266488780870667,0.0008150860022782927,0.08239094510578457,0.7819321913332047,0.47227242319942403,0.517834669257984,-3.154378996583202,61.7
,,0.040842009531786,0.04192557622005338,0.0006142596400512097,0.08338184539189059,0.7820158365169604,0.48981896886343257,0.5028142040153372,-3.171859227299254,61.8
,,0.041136636448397775,0.043481799841130306,0.0008621039839647984,0.08548054027349289,0.7817483646520029,0.481239780618865,0.5086748364248911,-3.1354128228956553,61.9
,,0.041136636448397775,0.043481799841130306,0.0008621039839647984,0.08548054027349289,0.7814808927870455,0.481239780618865,0.5086748364248911,-3.1354128228956553,62.0
,,0.041136636448397775,0.043481799841130306,0.0008621039839647984,0.08548054027349289,0.7822304637295475,0.481239780618865,0.5086748364248911,-3.1354128228956553,62.1
,,0.041136636448397775,0.043481799841130306,0.0008621039839647984,0.08548054027349289,0.7814468171701521,0.481239780618865,0.5086748364248911,-3.1354128228956553,62.2
,,0.041136636448397775,0.043481799841130306,0.0008621039839647984,0.08548054027349289,0.7819605714048182,0.481239780618865,0.5086748364248911,-3.1354128228956553,62.3
,,0.041136636448397775,0.043481799841130306,0.0008621039839647984,0.08548054027349289,0.7824743256394844,0.481239780618865,0.5086748364248911,-3.1354128228956553,62.4
,,0.043239538679133355,0.04296835901032004,0.0006536181503572035,0.0868615158398106,0.7837411488225781,0.49779857352334733,0.4946765963601417,-3.14729127111878,62.5
,,0.04368744590853575,0.044620996796869525,0.0009263403343316178,0.08923478303973689,0.7846675603480788,0.4895786645111404,0.5000404021490081,-3.1095507505394804,62.6
,,0.04368744590853575,0.044620996796869525,0.0009263403343316178,0.08923478303973689,0.7855939718735796,0.4895786645111404,0.5000404021490081,-3.1095507505394804,62.7
,,0.04368744590853575,0.044620996796869525,0.0009263403343316178,0.08923478303973689,0.7860261540321722,0.4895786645111404,0.5000404021490081,-3.1095507505394804,62.8
,,0.04368744590853575,0.044620996796869525,0.0009263403343316178,0.08923478303973689,0.7875255598675112,0.4895786645111404,0.5000404021490081,-3.1095507505394804,62.9
,,0.04368744590853575,0.044620996796869525,0.0009263403343316178,0.08923478303973689,0.7928461318328577,0.4895786645111404,0.5000404021490081,-3.1095507505394804,63.0
,,0.045830740938364686,0.04419897441626892,0.0007017871040527189,0.09073150245868633,0.7988897092476532,0.5051248981491654,0.48714033404653995,-3.1190536934195188,63.1
,,0.045830740938364686,0.04419897441626892,0.0007017871040527189,0.09073150245868633,0.8049332866624488,0.5051248981491654,0.48714033404653995,-3.1190536934195188,63.2
,,0.04635108977063393,0.045980545047959454,0.0010107722458463774,0.09334240706443976,0.8106161150411937,0.49657054310411175,0.4926008070074342,-3.0795369056947535,63.3
,,0.04635108977063393,0.045980545047959454,0.0010107722458463774,0.09334240706443976,0.8156523704771173,0.49657054310411175,0.4926008070074342,-3.0795369056947535,63.4
,,0.04635108977063393,0.045980545047959454,0.0010107722458463774,0.09334240706443976,0.8206886259130408,0.49657054310411175,0.4926008070074342,-3.0795369056947535,63.5
,,0.04635108977063393,0.045980545047959454,0.0010107722458463774,0.09334240706443976,0.8257248813489643,0.49657054310411175,0.4926008070074342,-3.0795369056947535,63.6
,,0.04316931274377965,0.04044919691427824,0.00041342962337284465,0.08403193928143074,0.8315009990447028,0.5137250563646,0.4813550331000947,-3.207708489462655,63.7
,,0.04316931274377965,0.04044919691427824,0.00041342962337284465,0.08403193928143074,0.8348996538142174,0.5137250563646,0.4813550331000947,-3.207708489462655,63.8
,,0.049054475140496726,0.047354800246217806,0.001094449906263809,0.09750372529297835,0.8379063665493754,0.5031035993045215,0.48567170232651635,-3.050087086532422,63.9
,,0.049054475140496726,0.047354800246217806,0.001094449906263809,0.09750372529297835,0.8429679341859021,0.5031035993045215,0.48567170232651635,-3.050087086532422,64.0
,,0.049054475140496726,0.047354800246217806,0.001094449906263809,0.09750372529297835,0.8480295018224286,0.5031035993045215,0.48567170232651635,-3.050087086532422,64.1
,,0.049054475140496726,0.047354800246217806,0.001094449906263809,0.09750372529297835,0.8530910694589551,0.5031035993045215,0.48567170232651635,-3.050087086532422,64.2
,,0.05131505131600464,0.046790307057262094,0.0009059224421382247,0.09901128081540495,0.8589127652418039,0.5182747954919965,0.4725755153546311,-3.062079211670702,64.3
,,0.05131505131600464,0.046790307057262094,0.0009059224421382247,0.09901128081540495,0.8647344610246529,0.5182747954919965,0.4725755153546311,-3.062079211670702,64.4
,,0.05131505131600464,0.046790307057262094,0.0009059224421382247,0.09901128081540495,0.8709165425378366,0.5182747954919965,0.4725755153546311,-3.062079211670702,64.5
,,0.04181361875508542,0.04867354666144452,0.0011870870081718175,0.09167425242470176,0.8715441405060206,0.45611082336809633,0.5309402081181234,-3.0226195861779632,64.6
,,0.04181361875508542,0.04867354666144452,0.0011870870081718175,0.09167425242470176,0.8721717384742048,0.45611082336809633,0.5309402081181234,-3.0226195861779632,64.7
,,0.05365713751679889,0.04782009712942361,0.0009721490045730669,0.10244938365079556,0.8760868363656987,0.523742902150512,0.4667680314448848,-3.0403092858075635,64.8
,,0.05365713751679889,0.04782009712942361,0.0009721490045730669,0.10244938365079556,0.8800019342571928,0.523742902150512,0.4667680314448848,-3.0403092858075635,64.9
,,0.05365713751679889,0.04782009712942361,0.0009721490045730669,0.10244938365079556,0.8839170321486867,0.523742902150512,0.4667680314448848,-3.0403092858075635,65.0
,,0.05365713751679889,0.04782009712942361,0.0009721490045730669,0.10244938365079556,0.8885384462971582,0.523742902150512,0.4667680314448848,-3.0403092858075635,65.1
,,0.05366907749494385,0.049669751197618545,0.0012672056717855592,0.10460603436434796,0.8933089029229446,0.5130590966484,0.4748268252347313,-3.0023591589831637,65.2
,,0.05366907749494385,0.049669751197618545,0.0012672056717855592,0.10460603436434796,0.8980793595487311,0.5130590966484,0.4748268252347313,-3.0023591589831637,65.3
,,0.05366907749494385,0.049669751197618545,0.0012672056717855592,0.10460603436434796,0.9028498161745178,0.5130590966484,0.4748268252347313,-3.0023591589831637,65.4
,,0.05528980389646987,0.04861875081130584,0.001050670638444862,0.10495922534622057,0.9083289375531995,0.5267741231329579,0.4632156025440457,-3.0237460033220924,65.5
,,0.05528980389646987,0.04861875081130584,0.001050670638444862,0.10495922534622057,0.9138080589318813,0.5267741231329579,0.4632156025440457,-3.0237460033220924,65.6
,,0.05528980389646987,0.04861875081130584,0.001050670638444862,0.10495922534622057,0.9192871803105632,0.5267741231329579,0.4632156025440457,-3.0237460033220924,65.7
,,0.044336297647000554,0.050373717219479267,0.0013533874637554205,0.09606340233023523,0.921943521527632,0.46153161944635845,0.524379899082801,-2.988285723665241,65.8
,,0.044336297647000554,0.050373717219479267,0.0013533874637554205,0.09606340233023523,0.923051247025476,0.46153161944635845,0.524379899082801,-2.988285723665241,65.9
,,0.044336297647000554,0.050373717219479267,0.0013533874637554205,0.09606340233023523,0.9241589725233202,0.46153161944635845,0.524379899082801,-2.988285723665241,66.0
,,0.04412709029370311,0.0398493583921378,0.0004569469470707016,0.08443339563291162,0.9281066998319576,0.5226260292260785,0.4719620488247279,-3.222648974449235,66.1
,,0.04412709029370311,0.0398493583921378,0.0004569469470707016,0.08443339563291162,0.9320544271405948,0.5226260292260785,0.4719620488247279,-3.222648974449235,66.2
,,0.04412709029370311,0.0398493583921378,0.0004569469470707016,0.08443339563291162,0.936002154449232,0.5226260292260785,0.4719620488247279,-3.222648974449235,66.3
,,0.04412709029370311,0.0398493583921378,0.0004569469470707016,0.08443339563291162,0.9404262235320703,0.5226260292260785,0.4719620488247279,-3.222648974449235,66.4
,,0.04456599961046389,0.05076930535721791,0.001443715090687508,0.09677902005836932,0.9420639688024078,0.46049236274127664,0.5245899919899782,-2.980463332266959,66.5
,,0.04456599961046389,0.05076930535721791,0.001443715090687508,0.09677902005836932,0.9435539714104803,0.46049236274127664,0.5245899919899782,-2.980463332266959,66.6
,,0.042554637918306444,0.03894139040030815,0.0004686607018569824,0.08196468902047158,0.9477311360064828,0.519182570285577,0.47509959307699084,-3.245697573452933,66.7
,,0.042554637918306444,0.03894139040030815,0.0004686607018569824,0.08196468902047158,0.9519083006024852,0.519182570285577,0.47509959307699084,-3.245697573452933,66.8
,,0.042554637918306444,0.03894139040030815,0.0004686607018569824,0.08196468902047158,0.9560854651984878,0.519182570285577,0.47509959307699084,-3.245697573452933,66.9
,,0.042554637918306444,0.03894139040030815,0.0004686607018569824,0.08196468902047158,0.9602626297944902,0.519182570285577,0.47509959307699084,-3.245697573452933,67.0
,,0.054638420544800614,0.0509389846978881,0.0015547391914464475,0.10713214443413516,0.9641877697824055,0.5100095852033684,0.47547806465505216,-2.977126740962632,67.1
,,0.054638420544800614,0.0509389846978881,0.0015547391914464475,0.10713214443413516,0.9676260327119651,0.5100095852033684,0.47547806465505216,-2.977126740962632,67.2
,,0.054848790785329685,0.04924644482405011,0.001315402544352237,0.10541063815373204,0.9715785029530609,0.5203344913379387,0.46718666812574033,-3.0109181002832996,67.3
,,0.054848790785329685,0.04924644482405011,0.001315402544352237,0.10541063815373204,0.9755309731941569,0.5203344913379387,0.46718666812574033,-3.0109181002832996,67.4
,,0.054848790785329685,0.04924644482405011,0.001315402544352237,0.10541063815373204,0.9794834434352527,0.5203344913379387,0.46718666812574033,-3.0109181002832996,67.5
,,0.054848790785329685,0.04924644482405011,0.001315402544352237,0.10541063815373204,0.9834359136763486,0.5203344913379387,0.46718666812574033,-3.0109181002832996,67.6
,,0.054848790785329685,0.04924644482405011,0.001315402544352237,0.10541063815373204,0.9873883839174444,0.5203344913379387,0.46718666812574033,-3.0109181002832996,67.7
,,0.054848790785329685,0.04924644482405011,0.001315402544352237,0.10541063815373204,0.9907838237776001,0.5203344913379387,0.46718666812574033,-3.0109181002832996,67.8
,,0.05279586732293358,0.0492432973974185,0.0014857151719220958,0.10352487989227417,0.9936590359904601,0.5099824059479408,0.4756663079315817,-3.010982014079025,67.9
,,0.05279586732293358,0.0492432973974185,0.0014857151719220958,0.10352487989227417,0.9965342482033199,0.5099824059479408,0.4756663079315817,-3.010982014079025,68.0
,,0.05279586732293358,0.0492432973974185,0.0014857151719220958,0.10352487989227417,0.9994094604161796,0.5099824059479408,0.4756663079315817,-3.010982014079025,68.1
,,0.05279586732293358,0.0492432973974185,0.0014857151719220958,0.10352487989227417,1.0022846726290395,0.5099824059479408,0.4756663079315817,-3.010982014079025,68.2
,,0.05279586732293358,0.0492432973974185,0.0014857151719220958,0.10352487989227417,1.0051598848418992,0.5099824059479408,0.4756663079315817,-3.010982014079025,68.3
,,0.05279586732293358,0.0492432973974185,0.0014857151719220958,0.10352487989227417,1.0080350970547591,0.5099824059479408,0.4756663079315817,-3.010982014079025,68.4
,,0.052673369406708234,0.047340640047744784,0.001155798587863471,0.10116980804231648,1.0118942802971571,0.5206431684112364,0.4679324885932721,-3.0503861547565014,68.5
,,0.05026030257567909,0.04882045519613701,0.0016309270778624998,0.1007116848496786,1.01471404853323,0.4990513528861838,0.48475462672485325,-3.0196058900923965,68.6
,,0.05026030257567909,0.04882045519613701,0.0016309270778624998,0.1007116848496786,1.017533816769303,0.4990513528861838,0.48475462672485325,-3.0196058900923965,68.7
,,0.05026030257567909,0.04882045519613701,0.0016309270778624998,0.1007116848496786,1.0203535850053762,0.4990513528861838,0.48475462672485325,-3.0196058900923965,68.8
,,0.05026030257567909,0.04882045519613701,0.0016309270778624998,0.1007116848496786,1.023173353241449,0.4990513528861838,0.48475462672485325,-3.0196058900923965,68.9
,,0.05026030257567909,0.04882045519613701,0.0016309270778624998,0.1007116848496786,1.0259931214775222,0.4990513528861838,0.48475462672485325,-3.0196058900923965,69.0
,,0.05026030257567909,0.04882045519613701,0.0016309270778624998,0.1007116848496786,1.028812889713595,0.4990513528861838,0.48475462672485325,-3.0196058900923965,69.1
,,0.05011727649469638,0.04659810508163547,0.0012653928213124618,0.09798077439764433,1.0308567379315776,0.5115011266526723,0.4755841680993674,-3.066195402161536,69.2
,,0.04745678328579625,0.04784612833724308,0.0017274149340792667,0.0970303265571186,1.0318548460003796,0.4890922762983796,0.4931048882853921,-3.039765076849074,69.3
,,0.04745678328579625,0.04784612833724308,0.0017274149340792667,0.0970303265571186,1.0328529540691815,0.4890922762983796,0.4931048882853921,-3.039765076849074,69.4
,,0.04745678328579625,0.04784612833724308,0.0017274149340792667,0.0970303265571186,1.0338510621379835,0.4890922762983796,0.4931048882853921,-3.039765076849074,69.5
,,0.04745678328579625,0.04784612833724308,0.0017274149340792667,0.0970303265571186,1.0348491702067855,0.4890922762983796,0.4931048882853921,-3.039765076849074,69.6
,,0.04745678328579625,0.04784612833724308,0.0017274149340792667,0.0970303265571186,1.0358472782755874,0.4890922762983796,0.4931048882853921,-3.039765076849074,69.7
,,0.047299841775079315,0.04565909522586826,0.0013804640944880594,0.09433940109543562,1.0366195247572154,0.5013795002496343,0.48398754598493376,-3.086552453541813,69.8
,,0.047299841775079315,0.04565909522586826,0.0013804640944880594,0.09433940109543562,1.0377428882875561,0.5013795002496343,0.48398754598493376,-3.086552453541813,69.9
,,0.047299841775079315,0.04565909522586826,0.0013804640944880594,0.09433940109543562,1.0388662518178973,0.5013795002496343,0.48398754598493376,-3.086552453541813,70.0
,,0.044516306356436074,0.04664740295393933,0.0018265784730153902,0.09299028778339079,1.038969366239602,0.47871995471324086,0.5016373652117154,-3.0651380241079322,70.1
,,0.044516306356436074,0.04664740295393933,0.0018265784730153902,0.09299028778339079,1.0390724806613068,0.47871995471324086,0.5016373652117154,-3.0651380241079322,70.2
,,0.044516306356436074,0.04664740295393933,0.0018265784730153902,0.09299028778339079,1.0391755950830117,0.47871995471324086,0.5016373652117154,-3.0651380241079322,70.3
,,0.044516306356436074,0.04664740295393933,0.0018265784730153902,0.09299028778339079,1.0392787095047162,0.47871995471324086,0.5016373652117154,-3.0651380241079322,70.4
,,0.04458579296845251,0.04446032631297226,0.001482544099212532,0.09052866338063731,1.0392350950475955,0.4925047084920148,0.4911187755643108,-3.1131580309999602,70.5
,,0.04458579296845251,0.04446032631297226,0.001482544099212532,0.09052866338063731,1.0395318922480676,0.4925047084920148,0.4911187755643108,-3.1131580309999602,70.6
,,0.04458579296845251,0.04446032631297226,0.001482544099212532,0.09052866338063731,1.0398286894485396,0.4925047084920148,0.4911187755643108,-3.1131580309999602,70.7
,,0.03386917867478903,0.04518197988574044,0.0019095675058593913,0.08096072606638886,1.0369604238309673,0.41834084648667624,0.5580728098793312,-3.097056946730233,70.8
,,0.03386917867478903,0.04518197988574044,0.0019095675058593913,0.08096072606638886,1.034092158213395,0.41834084648667624,0.5580728098793312,-3.097056946730233,70.9
,,0.03386917867478903,0.04518197988574044,0.0019095675058593913,0.08096072606638886,1.031223892595823,0.41834084648667624,0.5580728098793312,-3.097056946730233,71.0
,,0.03386917867478903,0.04518197988574044,0.0019095675058593913,0.08096072606638886,1.0276326215288019,0.41834084648667624,0.5580728098793312,-3.097056946730233,71.1
,,0.04228700602518007,0.04306585546842144,0.0015632355042763692,0.08691609699787788,1.0269450748876428,0.48652674804544593,0.49548768244244706,-3.1450248123517097,71.2
,,0.04228700602518007,0.04306585546842144,0.0015632355042763692,0.08691609699787788,1.026618277282534,0.48652674804544593,0.49548768244244706,-3.1450248123517097,71.3
,,0.03986625009659365,0.04350304343694352,0.001935973887715692,0.08530526742125286,1.0254725607316066,0.4673363240247157,0.5099690177643734,-3.134924379267203,71.4
,,0.03986625009659365,0.04350304343694352,0.001935973887715692,0.08530526742125286,1.024326844180679,0.4673363240247157,0.5099690177643734,-3.134924379267203,71.5
,,0.03986625009659365,0.04350304343694352,0.001935973887715692,0.08530526742125286,1.0231811276297513,0.4673363240247157,0.5099690177643734,-3.134924379267203,71.6
,,0.03986625009659365,0.04350304343694352,0.001935973887715692,0.08530526742125286,1.0212955488190087,0.4673363240247157,0.5099690177643734,-3.134924379267203,71.7
,,0.03986625009659365,0.04350304343694352,0.001935973887715692,0.08530526742125286,1.0194099700082664,0.4673363240247157,0.5099690177643734,-3.134924379267203,71.8
,,0.040855545608559724,0.041559608791223064,0.0015954781024876679,0.08401063250227045,1.0187495526217607,0.48631398659515596,0.49469463035050815,-3.1806265259036173,71.9
,,0.040855545608559724,0.041559608791223064,0.0015954781024876679,0.08401063250227045,1.0180891352352548,0.48631398659515596,0.49469463035050815,-3.1806265259036173,72.0
,,0.03858541967566319,0.04177027689075132,0.0019335691952789946,0.0822892657616935,1.0166873937305096,0.4688997929256661,0.5076029844732898,-3.1755702715567597,72.1
