HRV_ULF,HRV_VLF,HRV_LF,HRV_HF,HRV_VHF,HRV_TP,HRV_LFHF,HRV_LFn,HRV_HFn,HRV_LnHF,time
,,0.02531033681388419,0.014116214721412976,0.0010672533519604348,0.0404938048872576,1.792997436875962,0.6250421980436994,0.3486018357799467,-4.260431162076743,0.0
,,0.02531033681388419,0.014116214721412976,0.0010672533519604348,0.0404938048872576,1.792997436875962,0.6250421980436994,0.3486018357799467,-4.260431162076743,0.1
,,0.02531033681388419,0.014116214721412976,0.0010672533519604348,0.0404938048872576,1.792997436875962,0.6250421980436994,0.3486018357799467,-4.260431162076743,0.2
,,0.02531033681388419,0.014116214721412976,0.0010672533519604348,0.0404938048872576,1.792997436875962,0.6250421980436994,0.3486018357799467,-4.260431162076743,0.3
,,0.02531033681388419,0.014116214721412976,0.0010672533519604348,0.0404938048872576,1.792997436875962,0.6250421980436994,0.3486018357799467,-4.260431162076743,0.4
,,0.03398925186337286,0.0148440010331426,0.001249284315338813,0.050082537211854274,1.8757917818945316,0.6786647353666375,0.296390755331563,-4.210159466183775,0.5
,,0.023411760654044447,0.015779394881094422,0.0013652674506316393,0.04055642298577051,1.8197775156060858,0.5772639431800635,0.38907264791647744,-4.149050311505358,0.6
,,0.023411760654044447,0.015779394881094422,0.0013652674506316393,0.04055642298577051,1.7777668158897515,0.5772639431800635,0.38907264791647744,-4.149050311505358,0.7
,,0.023411760654044447,0.015779394881094422,0.0013652674506316393,0.04055642298577051,1.7450918272214917,0.5772639431800635,0.38907264791647744,-4.149050311505358,0.8
,,0.023411760654044447,0.015779394881094422,0.0013652674506316393,0.04055642298577051,1.7189518362868839,0.5772639431800635,0.38907264791647744,-4.149050311505358,0.9
,,0.023411760654044447,0.015779394881094422,0.0013652674506316393,0.04055642298577051,1.69756457097675,0.5772639431800635,0.38907264791647744,-4.149050311505358,1.0
,,0.023411760654044447,0.015779394881094422,0.0013652674506316393,0.04055642298577051,1.6797418498849719,0.5772639431800635,0.38907264791647744,-4.149050311505358,1.1
,,0.023411760654044447,0.015779394881094422,0.0013652674506316393,0.04055642298577051,1.6646610858842363,0.5772639431800635,0.38907264791647744,-4.149050311505358,1.2
,,0.023411760654044447,0.015779394881094422,0.0013652674506316393,0.04055642298577051,1.6517347167407492,0.5772639431800635,0.38907264791647744,-4.149050311505358,1.3
,,0.022973471759609544,0.01500230230179428,0.0019398462479687578,0.03991562030937258,1.643707718630876,0.5755509141922354,0.3758504110800851,-4.199551602871534,1.4
,,0.021694136111926554,0.01808553296972895,0.0017979508029114526,0.04157761988456696,1.6159465999807654,0.5217743625574661,0.4349824020696782,-4.012642943748066,1.5
,,0.021694136111926554,0.01808553296972895,0.0017979508029114526,0.04157761988456696,1.5914514952894914,0.5217743625574661,0.4349824020696782,-4.012642943748066,1.6
,,0.021694136111926554,0.01808553296972895,0.0017979508029114526,0.04157761988456696,1.5696780688972478,0.5217743625574661,0.4349824020696782,-4.012642943748066,1.7
,,0.021694136111926554,0.01808553296972895,0.0017979508029114526,0.04157761988456696,1.5501965821252404,0.5217743625574661,0.4349824020696782,-4.012642943748066,1.8
,,0.021694136111926554,0.01808553296972895,0.0017979508029114526,0.04157761988456696,1.5326632440304337,0.5217743625574661,0.4349824020696782,-4.012642943748066,1.9
,,0.021694136111926554,0.01808553296972895,0.0017979508029114526,0.04157761988456696,1.5167997476589419,0.5217743625574661,0.4349824020696782,-4.012642943748066,2.0
,,0.021694136111926554,0.01808553296972895,0.0017979508029114526,0.04157761988456696,1.5023783873212222,0.5217743625574661,0.4349824020696782,-4.012642943748066,2.1
,,0.021694136111926554,0.01808553296972895,0.0017979508029114526,0.04157761988456696,1.4892110583172171,0.5217743625574661,0.4349824020696782,-4.012642943748066,2.2
,,0.021273837672021456,0.017077410095140508,0.002569642031785553,0.040920889798947514,1.4790660034710907,0.5198772015111123,0.41732743786963644,-4.069998735893251,2.3
,,0.021273837672021456,0.017077410095140508,0.002569642031785553,0.040920889798947514,1.4697325530126542,0.5198772015111123,0.41732743786963644,-4.069998735893251,2.4
,,0.01972866194237979,0.02136167827206778,0.002441494985517174,0.04353183519996475,1.4487256829378632,0.4532007863154771,0.4907139378329053,-3.846156697186976,2.5
,,0.01972866194237979,0.02136167827206778,0.002441494985517174,0.04353183519996475,1.4292748773130564,0.4532007863154771,0.4907139378329053,-3.846156697186976,2.6
,,0.01972866194237979,0.02136167827206778,0.002441494985517174,0.04353183519996475,1.4112134149471642,0.4532007863154771,0.4907139378329053,-3.846156697186976,2.7
,,0.01972866194237979,0.02136167827206778,0.002441494985517174,0.04353183519996475,1.3943975706754719,0.4532007863154771,0.4907139378329053,-3.846156697186976,2.8
,,0.01972866194237979,0.02136167827206778,0.002441494985517174,0.04353183519996475,1.3787027826885587,0.4532007863154771,0.4907139378329053,-3.846156697186976,2.9
,,0.01972866194237979,0.02136167827206778,0.002441494985517174,0.04353183519996475,1.3640205616685432,0.4532007863154771,0.4907139378329053,-3.846156697186976,3.0
,,0.01972866194237979,0.02136167827206778,0.002441494985517174,0.04353183519996475,1.3502559794622786,0.4532007863154771,0.4907139378329053,-3.846156697186976,3.1
,,0.01933452892170504,0.02003996304058741,0.0034560326774762755,0.042830524639768726,1.3385754537737644,0.4514193810213724,0.46788974006589756,-3.910026847049239,3.2
,,0.01933452892170504,0.02003996304058741,0.0034560326774762755,0.042830524639768726,1.327582017831633,0.4514193810213724,0.46788974006589756,-3.910026847049239,3.3
,,0.017470549758842477,0.020929207850132872,0.006567022594628956,0.044966780203604305,1.313500957656488,0.3885212523497986,0.4654371016863532,-3.8666095908213136,3.4
,,0.017470549758842477,0.020929207850132872,0.006567022594628956,0.044966780203604305,1.3002021786021838,0.3885212523497986,0.4654371016863532,-3.8666095908213136,3.5
,,0.017470549758842477,0.020929207850132872,0.006567022594628956,0.044966780203604305,1.2876222524697343,0.3885212523497986,0.4654371016863532,-3.8666095908213136,3.6
,,0.017470549758842477,0.020929207850132872,0.006567022594628956,0.044966780203604305,1.2757044277126768,0.3885212523497986,0.4654371016863532,-3.8666095908213136,3.7
,,0.017470549758842477,0.020929207850132872,0.006567022594628956,0.044966780203604305,1.264397773455981,0.3885212523497986,0.4654371016863532,-3.8666095908213136,3.8
,,0.017470549758842477,0.020929207850132872,0.006567022594628956,0.044966780203604305,1.25365645191212,0.3885212523497986,0.4654371016863532,-3.8666095908213136,3.9
,,0.01720191309328816,0.024574433956717993,0.004574414625760876,0.04635076167576703,1.240152446764566,0.3711247123320007,0.5301840372898537,-3.7060486465115123,4.0
,,0.01720191309328816,0.024574433956717993,0.004574414625760876,0.04635076167576703,1.2272914894811813,0.3711247123320007,0.5301840372898537,-3.7060486465115123,4.1
,,0.01720191309328816,0.024574433956717993,0.004574414625760876,0.04635076167576703,1.2150287162574887,0.3711247123320007,0.5301840372898537,-3.7060486465115123,4.2
,,0.01720191309328816,0.024574433956717993,0.004574414625760876,0.04635076167576703,1.2033233418166913,0.3711247123320007,0.5301840372898537,-3.7060486465115123,4.3
,,0.015493132190156796,0.02570903818625795,0.008679028973528301,0.04988119934994305,1.1899746825776583,0.310600634949939,0.5154053735936744,-3.660912668506878,4.4
,,0.015493132190156796,0.02570903818625795,0.008679028973528301,0.04988119934994305,1.1772063998272788,0.310600634949939,0.5154053735936744,-3.660912668506878,4.5
,,0.015493132190156796,0.02570903818625795,0.008679028973528301,0.04988119934994305,1.1649814482577665,0.310600634949939,0.5154053735936744,-3.660912668506878,4.6
,,0.015493132190156796,0.02570903818625795,0.008679028973528301,0.04988119934994305,1.1532658696703175,0.310600634949939,0.5154053735936744,-3.660912668506878,4.7
,,0.015271361217377951,0.029927240500161857,0.006141145316852659,0.051339747034392466,1.1401437697118588,0.2974568847631383,0.5829253595681649,-3.5089861598257412,4.8
,,0.015271361217377951,0.029927240500161857,0.006141145316852659,0.051339747034392466,1.1275465537517382,0.2974568847631383,0.5829253595681649,-3.5089861598257412,4.9
,,0.015271361217377951,0.029927240500161857,0.006141145316852659,0.051339747034392466,1.1154433462606423,0.2974568847631383,0.5829253595681649,-3.5089861598257412,5.0
,,0.015271361217377951,0.029927240500161857,0.006141145316852659,0.051339747034392466,1.103805646749973,0.2974568847631383,0.5829253595681649,-3.5089861598257412,5.1
,,0.015271361217377951,0.029927240500161857,0.006141145316852659,0.051339747034392466,1.0926071057114044,0.2974568847631383,0.5829253595681649,-3.5089861598257412,5.2
,,0.015271361217377951,0.029927240500161857,0.006141145316852659,0.051339747034392466,1.081823325452042,0.2974568847631383,0.5829253595681649,-3.5089861598257412,5.3
,,0.013403333304144893,0.029008837405770187,0.011017178589938816,0.0534293492998539,1.0705545941690544,0.2508608747773304,0.5429382499675981,-3.5401547572888896,5.4
,,0.013403333304144893,0.029008837405770187,0.011017178589938816,0.0534293492998539,1.0596883175747447,0.2508608747773304,0.5429382499675981,-3.5401547572888896,5.5
,,0.013403333304144893,0.029008837405770187,0.011017178589938816,0.0534293492998539,1.0492033138433932,0.2508608747773304,0.5429382499675981,-3.5401547572888896,5.6
,,0.027936922253208738,0.0659388580363792,0.00572055383153845,0.09959633412112638,1.0384184152324831,0.28050151142342855,0.6620610951020158,-2.7190273597114563,5.7
,,0.027936922253208738,0.0659388580363792,0.00572055383153845,0.09959633412112638,1.0279991064049938,0.28050151142342855,0.6620610951020158,-2.7190273597114563,5.8
,,0.027936922253208738,0.0659388580363792,0.00572055383153845,0.09959633412112638,1.017927107871754,0.28050151142342855,0.6620610951020158,-2.7190273597114563,5.9
,,0.027936922253208738,0.0659388580363792,0.00572055383153845,0.09959633412112638,1.0081853387986206,0.28050151142342855,0.6620610951020158,-2.7190273597114563,6.0
,,0.027936922253208738,0.0659388580363792,0.00572055383153845,0.09959633412112638,0.9987578203407494,0.28050151142342855,0.6620610951020158,-2.7190273597114563,6.1
,,0.027936922253208738,0.0659388580363792,0.00572055383153845,0.09959633412112638,0.9896295881831282,0.28050151142342855,0.6620610951020158,-2.7190273597114563,6.2
,,0.027936922253208738,0.0659388580363792,0.00572055383153845,0.09959633412112638,0.9807866132804326,0.28050151142342855,0.6620610951020158,-2.7190273597114563,6.3
,,0.010925753628740405,0.03130302578349231,0.012971836646658876,0.055200616058891594,0.9710673095390672,0.19792811038710334,0.5670774715647415,-3.464040515709196,6.4
,,0.01063716419333318,0.03554821614899388,0.008598541145670748,0.05478392148799781,0.9608879868286476,0.19416580457212423,0.6488804595118637,-3.336865302641839,6.5
,,0.01063716419333318,0.03554821614899388,0.008598541145670748,0.05478392148799781,0.9510125244976435,0.19416580457212423,0.6488804595118637,-3.336865302641839,6.6
,,0.01063716419333318,0.03554821614899388,0.008598541145670748,0.05478392148799781,0.9414275169410807,0.19416580457212423,0.6488804595118637,-3.336865302641839,6.7
,,0.01063716419333318,0.03554821614899388,0.008598541145670748,0.05478392148799781,0.9321203356905053,0.19416580457212423,0.6488804595118637,-3.336865302641839,6.8
,,0.01063716419333318,0.03554821614899388,0.008598541145670748,0.05478392148799781,0.9230790739042322,0.19416580457212423,0.6488804595118637,-3.336865302641839,6.9
,,0.01063716419333318,0.03554821614899388,0.008598541145670748,0.05478392148799781,0.9142924955485582,0.19416580457212423,0.6488804595118637,-3.336865302641839,7.0
,,0.01063716419333318,0.03554821614899388,0.008598541145670748,0.05478392148799781,0.9057499888138749,0.19416580457212423,0.6488804595118637,-3.336865302641839,7.1
,,0.012542518952935138,0.05578613205537272,0.009715311537913995,0.07804396254622185,0.8964223479088962,0.16071094475125836,0.7148039417185302,-2.8862299699570464,7.2
,,0.009178252834871387,0.03922402422734951,0.009278914063134212,0.05768119112535511,0.8874706363917465,0.15912037625791803,0.6800141165966263,-3.2384658569669282,7.3
,,0.007377181566161394,0.03780380698772248,0.009329851361366178,0.054510839915250055,0.8782396129702997,0.13533421201417847,0.6935098972332367,-3.2753454674669933,7.4
,,0.007377181566161394,0.03780380698772248,0.009329851361366178,0.054510839915250055,0.8692515112178387,0.13533421201417847,0.6935098972332367,-3.2753454674669933,7.5
,,0.007377181566161394,0.03780380698772248,0.009329851361366178,0.054510839915250055,0.8604968666537531,0.13533421201417847,0.6935098972332367,-3.2753454674669933,7.6
,,0.007377181566161394,0.03780380698772248,0.009329851361366178,0.054510839915250055,0.8519667001554134,0.13533421201417847,0.6935098972332367,-3.2753454674669933,7.7
,,0.007377181566161394,0.03780380698772248,0.009329851361366178,0.054510839915250055,0.8436524872393101,0.13533421201417847,0.6935098972332367,-3.2753454674669933,7.8
,,0.007377181566161394,0.03780380698772248,0.009329851361366178,0.054510839915250055,0.8355461296461094,0.13533421201417847,0.6935098972332367,-3.2753454674669933,7.9
,,0.007377181566161394,0.03780380698772248,0.009329851361366178,0.054510839915250055,0.8276399290305185,0.13533421201417847,0.6935098972332367,-3.2753454674669933,8.0
,,0.007377181566161394,0.03780380698772248,0.009329851361366178,0.054510839915250055,0.8199265625762836,0.13533421201417847,0.6935098972332367,-3.2753454674669933,8.1
,,0.008852589864658457,0.038977194225237176,0.015577116160149325,0.06340690025004496,0.812784342503414,0.1396155596590953,0.6147153396796043,-3.2447785673487792,8.2
,,0.008852589864658457,0.038977194225237176,0.015577116160149325,0.06340690025004496,0.8058121752894225,0.1396155596590953,0.6147153396796043,-3.2447785673487792,8.3
,,0.007658858031386756,0.06361584859055672,0.0045634831849811425,0.07583818980692462,0.7977484119958199,0.10098946257664292,0.8388365908062337,-2.7548926480037292,8.4
,,0.007658858031386756,0.06361584859055672,0.0045634831849811425,0.07583818980692462,0.7898721780811383,0.10098946257664292,0.8388365908062337,-2.7548926480037292,8.5
,,0.007658858031386756,0.06361584859055672,0.0045634831849811425,0.07583818980692462,0.7821770070150701,0.10098946257664292,0.8388365908062337,-2.7548926480037292,8.6
,,0.007658858031386756,0.06361584859055672,0.0045634831849811425,0.07583818980692462,0.7746567262005036,0.10098946257664292,0.8388365908062337,-2.7548926480037292,8.7
,,0.007658858031386756,0.06361584859055672,0.0045634831849811425,0.07583818980692462,0.7673054404604216,0.10098946257664292,0.8388365908062337,-2.7548926480037292,8.8
,,0.007658858031386756,0.06361584859055672,0.0045634831849811425,0.07583818980692462,0.7601175166256747,0.10098946257664292,0.8388365908062337,-2.7548926480037292,8.9
,,0.007658858031386756,0.06361584859055672,0.0045634831849811425,0.07583818980692462,0.7415330150529774,0.10098946257664292,0.8388365908062337,-2.7548926480037292,9.0
,,0.007658858031386756,0.06361584859055672,0.0045634831849811425,0.07583818980692462,0.72294851348028,0.10098946257664292,0.8388365908062337,-2.7548926480037292,9.1
,,0.007915395532369534,0.03364528390282229,0.01048022366464822,0.052040903099840045,0.7056403217323396,0.15209950367663513,0.6465161420868136,-3.3918823841898424,9.2
,,0.00820582197211063,0.03140851479377224,0.015396347158772012,0.055010683924654885,0.6886210286927538,0.149167786813007,0.5709529959087722,-3.460676251052164,9.3
,,0.00820582197211063,0.03140851479377224,0.015396347158772012,0.055010683924654885,0.671601735653168,0.149167786813007,0.5709529959087722,-3.460676251052164,9.4
,,0.00820582197211063,0.03140851479377224,0.015396347158772012,0.055010683924654885,0.6490628196123444,0.149167786813007,0.5709529959087722,-3.460676251052164,9.5
,,0.00820582197211063,0.03140851479377224,0.015396347158772012,0.055010683924654885,0.6354802545616535,0.149167786813007,0.5709529959087722,-3.460676251052164,9.6
,,0.00820582197211063,0.03140851479377224,0.015396347158772012,0.055010683924654885,0.6218976895109627,0.149167786813007,0.5709529959087722,-3.460676251052164,9.7
,,0.00820582197211063,0.03140851479377224,0.015396347158772012,0.055010683924654885,0.6083151244602719,0.149167786813007,0.5709529959087722,-3.460676251052164,9.8
,,0.00820582197211063,0.03140851479377224,0.015396347158772012,0.055010683924654885,0.5947325594095811,0.149167786813007,0.5709529959087722,-3.460676251052164,9.9
,,0.00820582197211063,0.03140851479377224,0.015396347158772012,0.055010683924654885,0.5811499943588904,0.149167786813007,0.5709529959087722,-3.460676251052164,10.0
,,0.00820582197211063,0.03140851479377224,0.015396347158772012,0.055010683924654885,0.5675674293081996,0.149167786813007,0.5709529959087722,-3.460676251052164,10.1
,,0.007667004622420214,0.03322499806387608,0.009489641115234397,0.05038164380153069,0.5536459649148512,0.15217853257474057,0.6594663364847702,-3.404452732655935,10.2
,,0.007667004622420214,0.03322499806387608,0.009489641115234397,0.05038164380153069,0.5397245005215028,0.15217853257474057,0.6594663364847702,-3.404452732655935,10.3
,,0.007667004622420214,0.03322499806387608,0.009489641115234397,0.05038164380153069,0.5252737269368517,0.15217853257474057,0.6594663364847702,-3.404452732655935,10.4
,,0.0077919609018467974,0.029273434027498955,0.01295333001105631,0.05001872494040206,0.5149031575253195,0.15578087828370307,0.5852495053078346,-3.531074862731008,10.5
,,0.0077919609018467974,0.029273434027498955,0.01295333001105631,0.05001872494040206,0.5045325881137873,0.15578087828370307,0.5852495053078346,-3.531074862731008,10.6
,,0.0077919609018467974,0.029273434027498955,0.01295333001105631,0.05001872494040206,0.4941620187022551,0.15578087828370307,0.5852495053078346,-3.531074862731008,10.7
,,0.0077919609018467974,0.029273434027498955,0.01295333001105631,0.05001872494040206,0.4837914492907231,0.15578087828370307,0.5852495053078346,-3.531074862731008,10.8
,,0.0077919609018467974,0.029273434027498955,0.01295333001105631,0.05001872494040206,0.4734208798791909,0.15578087828370307,0.5852495053078346,-3.531074862731008,10.9
,,0.0077919609018467974,0.029273434027498955,0.01295333001105631,0.05001872494040206,0.4630503104676587,0.15578087828370307,0.5852495053078346,-3.531074862731008,11.0
,,0.007223206626851448,0.030840139689819614,0.00771931062335602,0.04578265694002708,0.4523245842295879,0.15777167839589293,0.6736205749312147,-3.478938200795982,11.1
,,0.007223206626851448,0.030840139689819614,0.00771931062335602,0.04578265694002708,0.4415988579915168,0.15777167839589293,0.6736205749312147,-3.478938200795982,11.2
,,0.007223206626851448,0.030840139689819614,0.00771931062335602,0.04578265694002708,0.43035979928921175,0.15777167839589293,0.6736205749312147,-3.478938200795982,11.3
,,0.007223206626851448,0.030840139689819614,0.00771931062335602,0.04578265694002708,0.4191207405869066,0.15777167839589293,0.6736205749312147,-3.478938200795982,11.4
,,0.007223206626851448,0.030840139689819614,0.00771931062335602,0.04578265694002708,0.41146141311729156,0.15777167839589293,0.6736205749312147,-3.478938200795982,11.5
,,0.004011680057732115,0.04871382720451791,0.006995872461444704,0.05972137972369473,0.4021147247570509,0.06717326485577597,0.8156848925777661,-3.0217923630222012,11.6
,,0.004011680057732115,0.04871382720451791,0.006995872461444704,0.05972137972369473,0.39276803639681035,0.06717326485577597,0.8156848925777661,-3.0217923630222012,11.7
,,0.004011680057732115,0.04871382720451791,0.006995872461444704,0.05972137972369473,0.3834213480365697,0.06717326485577597,0.8156848925777661,-3.0217923630222012,11.8
,,0.004011680057732115,0.04871382720451791,0.006995872461444704,0.05972137972369473,0.37407465967632914,0.06717326485577597,0.8156848925777661,-3.0217923630222012,11.9
,,0.006627723631539889,0.028232269509863583,0.006320169220573122,0.041180162361976594,0.36642136073277093,0.16094457261439915,0.6855793637164395,-3.5672896464000017,12.0
,,0.006627723631539889,0.028232269509863583,0.006320169220573122,0.041180162361976594,0.3587680617892127,0.16094457261439915,0.6855793637164395,-3.5672896464000017,12.1
,,0.006627723631539889,0.028232269509863583,0.006320169220573122,0.041180162361976594,0.35065648839372976,0.16094457261439915,0.6855793637164395,-3.5672896464000017,12.2
,,0.006627723631539889,0.028232269509863583,0.006320169220573122,0.041180162361976594,0.3425449149982468,0.16094457261439915,0.6855793637164395,-3.5672896464000017,12.3
,,0.006627723631539889,0.028232269509863583,0.006320169220573122,0.041180162361976594,0.33587838293653893,0.16094457261439915,0.6855793637164395,-3.5672896464000017,12.4
,,0.006627723631539889,0.028232269509863583,0.006320169220573122,0.041180162361976594,0.32921185087483107,0.16094457261439915,0.6855793637164395,-3.5672896464000017,12.5
,,0.006627723631539889,0.028232269509863583,0.006320169220573122,0.041180162361976594,0.3225453188131232,0.16094457261439915,0.6855793637164395,-3.5672896464000017,12.6
,,0.006627723631539889,0.028232269509863583,0.006320169220573122,0.041180162361976594,0.31587878675141534,0.16094457261439915,0.6855793637164395,-3.5672896464000017,12.7
,,0.00638733652107658,0.02381626149515192,0.008860077299505902,0.0390636753157344,0.3095837570668998,0.16351089521020654,0.6096779502352407,-3.7373866755190672,12.8
,,0.005979738873897411,0.025714250410148028,0.005330885273229842,0.03702487455727528,0.3028926549360224,0.16150598605397326,0.6945128300264626,-3.6607099500868703,12.9
,,0.005979738873897411,0.025714250410148028,0.005330885273229842,0.03702487455727528,0.29769880470335774,0.16150598605397326,0.6945128300264626,-3.6607099500868703,13.0
,,0.005979738873897411,0.025714250410148028,0.005330885273229842,0.03702487455727528,0.292504954470693,0.16150598605397326,0.6945128300264626,-3.6607099500868703,13.1
,,0.005979738873897411,0.025714250410148028,0.005330885273229842,0.03702487455727528,0.2873111042380284,0.16150598605397326,0.6945128300264626,-3.6607099500868703,13.2
,,0.005979738873897411,0.025714250410148028,0.005330885273229842,0.03702487455727528,0.2821172540053637,0.16150598605397326,0.6945128300264626,-3.6607099500868703,13.3
,,0.005979738873897411,0.025714250410148028,0.005330885273229842,0.03702487455727528,0.2780051656038346,0.16150598605397326,0.6945128300264626,-3.6607099500868703,13.4
,,0.005979738873897411,0.025714250410148028,0.005330885273229842,0.03702487455727528,0.27389307720230543,0.16150598605397326,0.6945128300264626,-3.6607099500868703,13.5
,,0.005979738873897411,0.025714250410148028,0.005330885273229842,0.03702487455727528,0.2697809888007763,0.16150598605397326,0.6945128300264626,-3.6607099500868703,13.6
,,0.005979738873897411,0.025714250410148028,0.005330885273229842,0.03702487455727528,0.2656689003992471,0.16150598605397326,0.6945128300264626,-3.6607099500868703,13.7
,,0.005621268032095911,0.02175334394149185,0.006099212607192993,0.033473824580780756,0.2628703048905165,0.16793025901567887,0.6498613234049656,-3.8279877888285014,13.8
,,0.00539095538962728,0.023558286556308553,0.004713977307613037,0.03366321925354887,0.25974310279268253,0.16014378627970796,0.6998227465670851,-3.748277649655505,13.9
,,0.00539095538962728,0.023558286556308553,0.004713977307613037,0.03366321925354887,0.2566159006948486,0.16014378627970796,0.6998227465670851,-3.748277649655505,14.0
,,0.00539095538962728,0.023558286556308553,0.004713977307613037,0.03366321925354887,0.25348869859701456,0.16014378627970796,0.6998227465670851,-3.748277649655505,14.1
,,0.00539095538962728,0.023558286556308553,0.004713977307613037,0.03366321925354887,0.25036149649918066,0.16014378627970796,0.6998227465670851,-3.748277649655505,14.2
,,0.00539095538962728,0.023558286556308553,0.004713977307613037,0.03366321925354887,0.24723429440134667,0.16014378627970796,0.6998227465670851,-3.748277649655505,14.3
,,0.00539095538962728,0.023558286556308553,0.004713977307613037,0.03366321925354887,0.24464309082371408,0.16014378627970796,0.6998227465670851,-3.748277649655505,14.4
,,0.00539095538962728,0.023558286556308553,0.004713977307613037,0.03366321925354887,0.24205188724608154,0.16014378627970796,0.6998227465670851,-3.748277649655505,14.5
,,0.00539095538962728,0.023558286556308553,0.004713977307613037,0.03366321925354887,0.23946068366844894,0.16014378627970796,0.6998227465670851,-3.748277649655505,14.6
,,0.005125159722497556,0.02041478583906335,0.005507011315016128,0.031046956876577034,0.2375425966050147,0.16507768355114266,0.6575454696001145,-3.8914958446372436,14.7
,,0.005125159722497556,0.02041478583906335,0.005507011315016128,0.031046956876577034,0.2356245095415804,0.16507768355114266,0.6575454696001145,-3.8914958446372436,14.8
,,0.004899938435930749,0.016360239946637538,0.008184796366675861,0.029444974749244148,0.2342447723442646,0.1664100063817012,0.5556207837148003,-4.112901281250204,14.9
,,0.004899938435930749,0.016360239946637538,0.008184796366675861,0.029444974749244148,0.23286503514694878,0.1664100063817012,0.5556207837148003,-4.112901281250204,15.0
,,0.004899938435930749,0.016360239946637538,0.008184796366675861,0.029444974749244148,0.23148529794963296,0.1664100063817012,0.5556207837148003,-4.112901281250204,15.1
,,0.004899938435930749,0.016360239946637538,0.008184796366675861,0.029444974749244148,0.2301055607523171,0.1664100063817012,0.5556207837148003,-4.112901281250204,15.2
,,0.004899938435930749,0.016360239946637538,0.008184796366675861,0.029444974749244148,0.22872582355500132,0.1664100063817012,0.5556207837148003,-4.112901281250204,15.3
,,0.004899938435930749,0.016360239946637538,0.008184796366675861,0.029444974749244148,0.22817550107234028,0.1664100063817012,0.5556207837148003,-4.112901281250204,15.4
,,0.004899938435930749,0.016360239946637538,0.008184796366675861,0.029444974749244148,0.22817851036123815,0.1664100063817012,0.5556207837148003,-4.112901281250204,15.5
,,0.00469431311788412,0.019036608626458524,0.005255200669406711,0.028986122413749357,0.22759364337208474,0.16195036544996466,0.6567490592473537,-3.9613913838421473,15.6
,,0.00469431311788412,0.019036608626458524,0.005255200669406711,0.028986122413749357,0.2270087763829313,0.16195036544996466,0.6567490592473537,-3.9613913838421473,15.7
,,0.00469431311788412,0.019036608626458524,0.005255200669406711,0.028986122413749357,0.22642390939377782,0.16195036544996466,0.6567490592473537,-3.9613913838421473,15.8
,,0.0017700870046845547,0.03432379644698008,0.011317281226509004,0.04741116467817364,0.22367211213121077,0.037334813787003165,0.723960203888041,-3.371916391395714,15.9
,,0.0017700870046845547,0.03432379644698008,0.011317281226509004,0.04741116467817364,0.22092031486864366,0.037334813787003165,0.723960203888041,-3.371916391395714,16.0
,,0.0017700870046845547,0.03432379644698008,0.011317281226509004,0.04741116467817364,0.21816851760607656,0.037334813787003165,0.723960203888041,-3.371916391395714,16.1
,,0.0017700870046845547,0.03432379644698008,0.011317281226509004,0.04741116467817364,0.21624338487574238,0.037334813787003165,0.723960203888041,-3.371916391395714,16.2
,,0.0017700870046845547,0.03432379644698008,0.011317281226509004,0.04741116467817364,0.21421643555774825,0.037334813787003165,0.723960203888041,-3.371916391395714,16.3
,,0.0017700870046845547,0.03432379644698008,0.011317281226509004,0.04741116467817364,0.2126211730826048,0.037334813787003165,0.723960203888041,-3.371916391395714,16.4
,,0.004330856804075282,0.018026327664534082,0.005070641666499777,0.02742782613510914,0.21312237166312673,0.15790011146860614,0.6572277210646083,-4.01592194168404,16.5
,,0.004330856804075282,0.018026327664534082,0.005070641666499777,0.02742782613510914,0.2136235702436487,0.15790011146860614,0.6572277210646083,-4.01592194168404,16.6
,,0.004330856804075282,0.018026327664534082,0.005070641666499777,0.02742782613510914,0.21412476882417064,0.15790011146860614,0.6572277210646083,-4.01592194168404,16.7
,,0.004171108214354554,0.014524569822072505,0.007706029770583379,0.026401707807010438,0.21514734820630085,0.15798630319084891,0.5501375111126637,-4.231913593063286,16.8
,,0.004171108214354554,0.014524569822072505,0.007706029770583379,0.026401707807010438,0.2161699275884311,0.15798630319084891,0.5501375111126637,-4.231913593063286,16.9
,,0.004171108214354554,0.014524569822072505,0.007706029770583379,0.026401707807010438,0.21719250697056125,0.15798630319084891,0.5501375111126637,-4.231913593063286,17.0
,,0.004171108214354554,0.014524569822072505,0.007706029770583379,0.026401707807010438,0.2182150863526915,0.15798630319084891,0.5501375111126637,-4.231913593063286,17.1
,,0.004171108214354554,0.014524569822072505,0.007706029770583379,0.026401707807010438,0.21888234999321202,0.15798630319084891,0.5501375111126637,-4.231913593063286,17.2
,,0.0015796675171704426,0.03606867151776771,0.007949107567970437,0.04559744660290859,0.2168453923687644,0.034643771413938734,0.7910239323678915,-3.3223306154139958,17.3
,,0.0015796675171704426,0.03606867151776771,0.007949107567970437,0.04559744660290859,0.21599432364648247,0.034643771413938734,0.7910239323678915,-3.3223306154139958,17.4
,,0.0015796675171704426,0.03606867151776771,0.007949107567970437,0.04559744660290859,0.21514325492420053,0.034643771413938734,0.7910239323678915,-3.3223306154139958,17.5
,,0.0015796675171704426,0.03606867151776771,0.007949107567970437,0.04559744660290859,0.21429218620191856,0.034643771413938734,0.7910239323678915,-3.3223306154139958,17.6
,,0.0015796675171704426,0.03606867151776771,0.007949107567970437,0.04559744660290859,0.21344111747963668,0.034643771413938734,0.7910239323678915,-3.3223306154139958,17.7
,,0.0040219591875988005,0.01391360889185832,0.007812781056816574,0.025748349136273694,0.21531527607818748,0.15620260414803663,0.5403689696073424,-4.274887860840944,17.8
,,0.0040219591875988005,0.01391360889185832,0.007812781056816574,0.025748349136273694,0.21718943467673835,0.15620260414803663,0.5403689696073424,-4.274887860840944,17.9
,,0.0040219591875988005,0.01391360889185832,0.007812781056816574,0.025748349136273694,0.21906359327528918,0.15620260414803663,0.5403689696073424,-4.274887860840944,18.0
,,0.0040219591875988005,0.01391360889185832,0.007812781056816574,0.025748349136273694,0.22093775187384004,0.15620260414803663,0.5403689696073424,-4.274887860840944,18.1
,,0.004049746891671063,0.01696604691810383,0.005180159660061569,0.026195953469836462,0.22097594033312232,0.15459436879570643,0.6476590721402647,-4.076541172181119,18.2
,,0.004049746891671063,0.01696604691810383,0.005180159660061569,0.026195953469836462,0.2207252300840499,0.15459436879570643,0.6476590721402647,-4.076541172181119,18.3
,,0.004049746891671063,0.01696604691810383,0.005180159660061569,0.026195953469836462,0.22047451983497746,0.15459436879570643,0.6476590721402647,-4.076541172181119,18.4
,,0.004049746891671063,0.01696604691810383,0.005180159660061569,0.026195953469836462,0.22022380958590507,0.15459436879570643,0.6476590721402647,-4.076541172181119,18.5
,,0.004049746891671063,0.01696604691810383,0.005180159660061569,0.026195953469836462,0.21997309933683262,0.15459436879570643,0.6476590721402647,-4.076541172181119,18.6
,,0.004049746891671063,0.01696604691810383,0.005180159660061569,0.026195953469836462,0.2197223890877602,0.15459436879570643,0.6476590721402647,-4.076541172181119,18.7
,,0.0020237951156268055,0.02779297144449415,0.014789629909407067,0.04460639646952802,0.2176285638888821,0.045370065188057085,0.6230714346871837,-3.582972115988981,18.8
,,0.0020237951156268055,0.02779297144449415,0.014789629909407067,0.04460639646952802,0.21553473869000403,0.045370065188057085,0.6230714346871837,-3.582972115988981,18.9
,,0.0020237951156268055,0.02779297144449415,0.014789629909407067,0.04460639646952802,0.21344091349112593,0.045370065188057085,0.6230714346871837,-3.582972115988981,19.0
,,0.004121276441035679,0.016565909381043603,0.005415775644822729,0.02610296146690201,0.2133022413852226,0.1578853972665656,0.6346371618426827,-4.100408346998281,19.1
,,0.004121276441035679,0.016565909381043603,0.005415775644822729,0.02610296146690201,0.2135024686219769,0.1578853972665656,0.6346371618426827,-4.100408346998281,19.2
,,0.004121276441035679,0.016565909381043603,0.005415775644822729,0.02610296146690201,0.21370269585873125,0.1578853972665656,0.6346371618426827,-4.100408346998281,19.3
,,0.004121276441035679,0.016565909381043603,0.005415775644822729,0.02610296146690201,0.2139029230954856,0.1578853972665656,0.6346371618426827,-4.100408346998281,19.4
,,0.004121276441035679,0.016565909381043603,0.005415775644822729,0.02610296146690201,0.21370961199093808,0.1578853972665656,0.6346371618426827,-4.100408346998281,19.5
,,0.004121276441035679,0.016565909381043603,0.005415775644822729,0.02610296146690201,0.21351630088639062,0.1578853972665656,0.6346371618426827,-4.100408346998281,19.6
,,0.004212674213851107,0.0132719686776556,0.008381341478468493,0.025865984369975198,0.2140855545637453,0.16286541248904138,0.5131051069937813,-4.322101086128756,19.7
,,0.004212674213851107,0.0132719686776556,0.008381341478468493,0.025865984369975198,0.2146548082411,0.16286541248904138,0.5131051069937813,-4.322101086128756,19.8
,,0.004212674213851107,0.0132719686776556,0.008381341478468493,0.025865984369975198,0.2152240619184547,0.16286541248904138,0.5131051069937813,-4.322101086128756,19.9
,,0.002912577274667135,0.03029587902094634,0.011071296785394875,0.04427975308100835,0.21333471930333817,0.06577672800791529,0.6841925917138929,-3.4967435816258177,20.0
,,0.002912577274667135,0.03029587902094634,0.011071296785394875,0.04427975308100835,0.21180053351476044,0.06577672800791529,0.6841925917138929,-3.4967435816258177,20.1
,,0.002912577274667135,0.03029587902094634,0.011071296785394875,0.04427975308100835,0.2102663477261827,0.06577672800791529,0.6841925917138929,-3.4967435816258177,20.2
,,0.002912577274667135,0.03029587902094634,0.011071296785394875,0.04427975308100835,0.20873216193760497,0.06577672800791529,0.6841925917138929,-3.4967435816258177,20.3
,,0.002912577274667135,0.03029587902094634,0.011071296785394875,0.04427975308100835,0.20719797614902724,0.06577672800791529,0.6841925917138929,-3.4967435816258177,20.4
,,0.002912577274667135,0.03029587902094634,0.011071296785394875,0.04427975308100835,0.20566379036044952,0.06577672800791529,0.6841925917138929,-3.4967435816258177,20.5
,,0.002912577274667135,0.03029587902094634,0.011071296785394875,0.04427975308100835,0.20581696546249728,0.06577672800791529,0.6841925917138929,-3.4967435816258177,20.6
,,0.004618194982023836,0.01316480392373462,0.0089679887241821,0.026750987629940555,0.2087997058654394,0.17263642920065522,0.49212403317028014,-4.33020837989832,20.7
,,0.004618194982023836,0.01316480392373462,0.0089679887241821,0.026750987629940555,0.21178244626838152,0.17263642920065522,0.49212403317028014,-4.33020837989832,20.8
,,0.004618194982023836,0.01316480392373462,0.0089679887241821,0.026750987629940555,0.21476518667132363,0.17263642920065522,0.49212403317028014,-4.33020837989832,20.9
,,0.004176292759252764,0.03086424205978185,0.01315521720673912,0.04819575202577374,0.21366023849391003,0.08665271489112567,0.6403934115039126,-3.4781569800623924,21.0
,,0.004176292759252764,0.03086424205978185,0.01315521720673912,0.04819575202577374,0.21255529031649648,0.08665271489112567,0.6403934115039126,-3.4781569800623924,21.1
,,0.004176292759252764,0.03086424205978185,0.01315521720673912,0.04819575202577374,0.21145034213908284,0.08665271489112567,0.6403934115039126,-3.4781569800623924,21.2
,,0.004176292759252764,0.03086424205978185,0.01315521720673912,0.04819575202577374,0.2103453939616693,0.08665271489112567,0.6403934115039126,-3.4781569800623924,21.3
,,0.004176292759252764,0.03086424205978185,0.01315521720673912,0.04819575202577374,0.2092404457842557,0.08665271489112567,0.6403934115039126,-3.4781569800623924,21.4
,,0.004176292759252764,0.03086424205978185,0.01315521720673912,0.04819575202577374,0.20813549760684213,0.08665271489112567,0.6403934115039126,-3.4781569800623924,21.5
,,0.004176292759252764,0.03086424205978185,0.01315521720673912,0.04819575202577374,0.20703054942942856,0.08665271489112567,0.6403934115039126,-3.4781569800623924,21.6
,,0.005347496558141418,0.013627936190695508,0.009589287706698186,0.02856472045553511,0.2087820519276147,0.1872063325970764,0.4770897797480375,-4.295633461415137,21.7
,,0.0058807267852249295,0.01755879010553964,0.006705457054339961,0.03014497394510453,0.2095234314914291,0.19508150167699664,0.582478198107421,-4.042200593744614,21.8
,,0.0058807267852249295,0.01755879010553964,0.006705457054339961,0.03014497394510453,0.21066088350160525,0.19508150167699664,0.582478198107421,-4.042200593744614,21.9
,,0.0058807267852249295,0.01755879010553964,0.006705457054339961,0.03014497394510453,0.21179833551178145,0.19508150167699664,0.582478198107421,-4.042200593744614,22.0
,,0.0058807267852249295,0.01755879010553964,0.006705457054339961,0.03014497394510453,0.2129357875219577,0.19508150167699664,0.582478198107421,-4.042200593744614,22.1
,,0.0058807267852249295,0.01755879010553964,0.006705457054339961,0.03014497394510453,0.21407323953213384,0.19508150167699664,0.582478198107421,-4.042200593744614,22.2
,,0.0058807267852249295,0.01755879010553964,0.006705457054339961,0.03014497394510453,0.21521069154231004,0.19508150167699664,0.582478198107421,-4.042200593744614,22.3
,,0.0058807267852249295,0.01755879010553964,0.006705457054339961,0.03014497394510453,0.21634814355248622,0.19508150167699664,0.582478198107421,-4.042200593744614,22.4
,,0.0058807267852249295,0.01755879010553964,0.006705457054339961,0.03014497394510453,0.21748559556266242,0.19508150167699664,0.582478198107421,-4.042200593744614,22.5
,,0.006468142237053379,0.014768404658109167,0.010347812707223946,0.031584359602386494,0.2197681056569095,0.20478940584771743,0.46758600915224113,-4.215265200587482,22.6
,,0.006468142237053379,0.014768404658109167,0.010347812707223946,0.031584359602386494,0.2220506157511566,0.20478940584771743,0.46758600915224113,-4.215265200587482,22.7
,,0.0072260590611744535,0.01898525649676682,0.007420259426265936,0.03363157498420721,0.22340844762603349,0.21485937142603884,0.5645069107135767,-3.9640925748936238,22.8
,,0.0072260590611744535,0.01898525649676682,0.007420259426265936,0.03363157498420721,0.2250948860900138,0.21485937142603884,0.5645069107135767,-3.9640925748936238,22.9
,,0.0072260590611744535,0.01898525649676682,0.007420259426265936,0.03363157498420721,0.22678132455399408,0.21485937142603884,0.5645069107135767,-3.9640925748936238,23.0
,,0.0072260590611744535,0.01898525649676682,0.007420259426265936,0.03363157498420721,0.22846776301797442,0.21485937142603884,0.5645069107135767,-3.9640925748936238,23.1
,,0.0072260590611744535,0.01898525649676682,0.007420259426265936,0.03363157498420721,0.23015420148195473,0.21485937142603884,0.5645069107135767,-3.9640925748936238,23.2
,,0.0072260590611744535,0.01898525649676682,0.007420259426265936,0.03363157498420721,0.23184063994593498,0.21485937142603884,0.5645069107135767,-3.9640925748936238,23.3
,,0.0072260590611744535,0.01898525649676682,0.007420259426265936,0.03363157498420721,0.23352707840991532,0.21485937142603884,0.5645069107135767,-3.9640925748936238,23.4
,,0.0072260590611744535,0.01898525649676682,0.007420259426265936,0.03363157498420721,0.2352135168738956,0.21485937142603884,0.5645069107135767,-3.9640925748936238,23.5
,,0.00790796293660271,0.015828109409582108,0.011393206262642374,0.03512927860882719,0.23822218739460893,0.22511031395377468,0.4505674479066833,-4.14596784307559,23.6
,,0.0087758195488955,0.020248507605280585,0.008165155071998519,0.0371894822261746,0.24024834725613795,0.23597584649132128,0.54446866138484,-3.8996741866501194,23.7
,,0.0087758195488955,0.020248507605280585,0.008165155071998519,0.0371894822261746,0.242274507117667,0.23597584649132128,0.54446866138484,-3.8996741866501194,23.8
,,0.0087758195488955,0.020248507605280585,0.008165155071998519,0.0371894822261746,0.24376231711307755,0.23597584649132128,0.54446866138484,-3.8996741866501194,23.9
,,0.0087758195488955,0.020248507605280585,0.008165155071998519,0.0371894822261746,0.24525012710848815,0.23597584649132128,0.54446866138484,-3.8996741866501194,24.0
,,0.0087758195488955,0.020248507605280585,0.008165155071998519,0.0371894822261746,0.24673793710389874,0.23597584649132128,0.54446866138484,-3.8996741866501194,24.1
,,0.0087758195488955,0.020248507605280585,0.008165155071998519,0.0371894822261746,0.24822574709930934,0.23597584649132128,0.54446866138484,-3.8996741866501194,24.2
,,0.0087758195488955,0.020248507605280585,0.008165155071998519,0.0371894822261746,0.24971355709471987,0.23597584649132128,0.54446866138484,-3.8996741866501194,24.3
,,0.0087758195488955,0.020248507605280585,0.008165155071998519,0.0371894822261746,0.25120136709013047,0.23597584649132128,0.54446866138484,-3.8996741866501194,24.4
,,0.0087758195488955,0.020248507605280585,0.008165155071998519,0.0371894822261746,0.25268917708554106,0.23597584649132128,0.54446866138484,-3.8996741866501194,24.5
,,0.01077541359235763,0.022210901342289487,0.008931191541392623,0.041917506476039736,0.2553396968626807,0.25706237079051714,0.529871722092662,-3.8071720591757328,24.6
,,0.01077541359235763,0.022210901342289487,0.008931191541392623,0.041917506476039736,0.25799021663982047,0.25706237079051714,0.529871722092662,-3.8071720591757328,24.7
,,0.01077541359235763,0.022210901342289487,0.008931191541392623,0.041917506476039736,0.2606407364169602,0.25706237079051714,0.529871722092662,-3.8071720591757328,24.8
,,0.01077541359235763,0.022210901342289487,0.008931191541392623,0.041917506476039736,0.26545818646751357,0.25706237079051714,0.529871722092662,-3.8071720591757328,24.9
,,0.01077541359235763,0.022210901342289487,0.008931191541392623,0.041917506476039736,0.27027563651806696,0.25706237079051714,0.529871722092662,-3.8071720591757328,25.0
,,0.01077541359235763,0.022210901342289487,0.008931191541392623,0.041917506476039736,0.27509308656862036,0.25706237079051714,0.529871722092662,-3.8071720591757328,25.1
,,0.01077541359235763,0.022210901342289487,0.008931191541392623,0.041917506476039736,0.2799105366191737,0.25706237079051714,0.529871722092662,-3.8071720591757328,25.2
,,0.01077541359235763,0.022210901342289487,0.008931191541392623,0.041917506476039736,0.2847279866697271,0.25706237079051714,0.529871722092662,-3.8071720591757328,25.3
,,0.01077541359235763,0.022210901342289487,0.008931191541392623,0.041917506476039736,0.2895454367202805,0.25706237079051714,0.529871722092662,-3.8071720591757328,25.4
,,0.013563339979543338,0.03404750410568389,0.016791212898225,0.06440205698345222,0.2913022525467754,0.21060414239607855,0.5286710658082275,-3.3799985499342275,25.5
,,0.013563339979543338,0.03404750410568389,0.016791212898225,0.06440205698345222,0.2930590683732703,0.21060414239607855,0.5286710658082275,-3.3799985499342275,25.6
,,0.013563339979543338,0.03404750410568389,0.016791212898225,0.06440205698345222,0.2948158841997652,0.21060414239607855,0.5286710658082275,-3.3799985499342275,25.7
,,0.013563339979543338,0.03404750410568389,0.016791212898225,0.06440205698345222,0.2960513192246518,0.21060414239607855,0.5286710658082275,-3.3799985499342275,25.8
,,0.013563339979543338,0.03404750410568389,0.016791212898225,0.06440205698345222,0.29728675424953843,0.21060414239607855,0.5286710658082275,-3.3799985499342275,25.9
,,0.013563339979543338,0.03404750410568389,0.016791212898225,0.06440205698345222,0.2985221892744251,0.21060414239607855,0.5286710658082275,-3.3799985499342275,26.0
,,0.013563339979543338,0.03404750410568389,0.016791212898225,0.06440205698345222,0.29975762429931174,0.21060414239607855,0.5286710658082275,-3.3799985499342275,26.1
,,0.013563339979543338,0.03404750410568389,0.016791212898225,0.06440205698345222,0.3009930593241984,0.21060414239607855,0.5286710658082275,-3.3799985499342275,26.2
,,0.013563339979543338,0.03404750410568389,0.016791212898225,0.06440205698345222,0.3049327156140532,0.21060414239607855,0.5286710658082275,-3.3799985499342275,26.3
,,0.013431428504017462,0.021788589203386898,0.011622689128558827,0.04684270683596319,0.31129546148933135,0.2867346789128242,0.4651436835127309,-3.8263688772622393,26.4
,,0.014453558034066779,0.02595756176510124,0.00981765310611861,0.05022877290528663,0.31699567063826123,0.2877545517849099,0.5167866994092778,-3.6512923143191602,26.5
,,0.014453558034066779,0.02595756176510124,0.00981765310611861,0.05022877290528663,0.3226958797871912,0.2877545517849099,0.5167866994092778,-3.6512923143191602,26.6
,,0.014453558034066779,0.02595756176510124,0.00981765310611861,0.05022877290528663,0.32839608893612116,0.2877545517849099,0.5167866994092778,-3.6512923143191602,26.7
,,0.014453558034066779,0.02595756176510124,0.00981765310611861,0.05022877290528663,0.3313710707642183,0.2877545517849099,0.5167866994092778,-3.6512923143191602,26.8
,,0.014453558034066779,0.02595756176510124,0.00981765310611861,0.05022877290528663,0.3343460525923154,0.2877545517849099,0.5167866994092778,-3.6512923143191602,26.9
,,0.014453558034066779,0.02595756176510124,0.00981765310611861,0.05022877290528663,0.33732103442041256,0.2877545517849099,0.5167866994092778,-3.6512923143191602,27.0
,,0.014453558034066779,0.02595756176510124,0.00981765310611861,0.05022877290528663,0.3402960162485097,0.2877545517849099,0.5167866994092778,-3.6512923143191602,27.1
,,0.014453558034066779,0.02595756176510124,0.00981765310611861,0.05022877290528663,0.34383065839111854,0.2877545517849099,0.5167866994092778,-3.6512923143191602,27.2
,,0.014453558034066779,0.02595756176510124,0.00981765310611861,0.05022877290528663,0.34736530053372744,0.2877545517849099,0.5167866994092778,-3.6512923143191602,27.3
,,0.016195198370284804,0.028380150754092153,0.010227481530442407,0.05480283065481936,0.35105369121709834,0.2955175522281274,0.5178592130185232,-3.562065295280834,27.4
,,0.016195198370284804,0.028380150754092153,0.010227481530442407,0.05480283065481936,0.3547420819004693,0.2955175522281274,0.5178592130185232,-3.562065295280834,27.5
,,0.016195198370284804,0.028380150754092153,0.010227481530442407,0.05480283065481936,0.3584304725838402,0.2955175522281274,0.5178592130185232,-3.562065295280834,27.6
,,0.016195198370284804,0.028380150754092153,0.010227481530442407,0.05480283065481936,0.3621188632672111,0.2955175522281274,0.5178592130185232,-3.562065295280834,27.7
,,0.016195198370284804,0.028380150754092153,0.010227481530442407,0.05480283065481936,0.3676503689003877,0.2955175522281274,0.5178592130185232,-3.562065295280834,27.8
,,0.016195198370284804,0.028380150754092153,0.010227481530442407,0.05480283065481936,0.3731818745335643,0.2955175522281274,0.5178592130185232,-3.562065295280834,27.9
,,0.016195198370284804,0.028380150754092153,0.010227481530442407,0.05480283065481936,0.3787133801667409,0.2955175522281274,0.5178592130185232,-3.562065295280834,28.0
,,0.016195198370284804,0.028380150754092153,0.010227481530442407,0.05480283065481936,0.38228973270694266,0.2955175522281274,0.5178592130185232,-3.562065295280834,28.1
,,0.016195198370284804,0.028380150754092153,0.010227481530442407,0.05480283065481936,0.3858660852471445,0.2955175522281274,0.5178592130185232,-3.562065295280834,28.2
,,0.015987265498251586,0.024731022654167455,0.01220110382050856,0.0529193919729276,0.39028458765903384,0.3021059937051114,0.4673338398676104,-3.699696845527128,28.3
,,0.013781799128349887,0.032256416745727774,0.01295412435264555,0.058992340226723214,0.39226766570227856,0.23362014585932303,0.546789915805303,-3.434038286672258,28.4
,,0.013781799128349887,0.032256416745727774,0.01295412435264555,0.058992340226723214,0.3942507437455232,0.23362014585932303,0.546789915805303,-3.434038286672258,28.5
,,0.013781799128349887,0.032256416745727774,0.01295412435264555,0.058992340226723214,0.3962338217887679,0.23362014585932303,0.546789915805303,-3.434038286672258,28.6
,,0.013781799128349887,0.032256416745727774,0.01295412435264555,0.058992340226723214,0.39745433505011046,0.23362014585932303,0.546789915805303,-3.434038286672258,28.7
,,0.013781799128349887,0.032256416745727774,0.01295412435264555,0.058992340226723214,0.39867484831145306,0.23362014585932303,0.546789915805303,-3.434038286672258,28.8
,,0.013781799128349887,0.032256416745727774,0.01295412435264555,0.058992340226723214,0.3998953615727956,0.23362014585932303,0.546789915805303,-3.434038286672258,28.9
,,0.013781799128349887,0.032256416745727774,0.01295412435264555,0.058992340226723214,0.4035744711266093,0.23362014585932303,0.546789915805303,-3.434038286672258,29.0
,,0.013781799128349887,0.032256416745727774,0.01295412435264555,0.058992340226723214,0.4072535806804231,0.23362014585932303,0.546789915805303,-3.434038286672258,29.1
,,0.016536632118622052,0.025589787056074217,0.012575579979636693,0.054701999154332964,0.41336560578404724,0.30230398110252943,0.4678035072150968,-3.6655619502176995,29.2
,,0.01656599813946526,0.02563495872039874,0.012597743915722595,0.054798700775586594,0.41947770682046037,0.30230640334534337,0.46780230840471654,-3.6637982840306353,29.3
,,0.016506458704892715,0.02098494317788721,0.01739594042345478,0.05488734230623471,0.4271493521607739,0.3007334298096946,0.38232755123768325,-3.86395008994925,29.4
,,0.016506458704892715,0.02098494317788721,0.01739594042345478,0.05488734230623471,0.43482099750108727,0.3007334298096946,0.38232755123768325,-3.86395008994925,29.5
,,0.016473806196181433,0.028825891000304703,0.010114356301162841,0.055414053497648975,0.4401027269806769,0.29728570924486436,0.5201909837100743,-3.5464813026263458,29.6
,,0.016473806196181433,0.028825891000304703,0.010114356301162841,0.055414053497648975,0.4425548911593721,0.29728570924486436,0.5201909837100743,-3.5464813026263458,29.7
,,0.016506458704892715,0.02098494317788721,0.01739594042345478,0.05488734230623471,0.44739697119879124,0.3007334298096946,0.38232755123768325,-3.86395008994925,29.8
,,0.016473806196181433,0.028825891000304703,0.010114356301162841,0.055414053497648975,0.4498491353774865,0.29728570924486436,0.5201909837100743,-3.5464813026263458,29.9
,,0.016506458704892715,0.02098494317788721,0.01739594042345478,0.05488734230623471,0.45708551458057894,0.3007334298096946,0.38232755123768325,-3.86395008994925,30.0
,,0.015928826337184402,0.024945758807783377,0.012549646016307751,0.05342423116127553,0.46267692310051295,0.2981573340587517,0.46693716063929563,-3.691051458898143,30.1
,,0.015928826337184402,0.024945758807783377,0.012549646016307751,0.05342423116127553,0.46826833162044695,0.2981573340587517,0.46693716063929563,-3.691051458898143,30.2
,,0.012279578479488542,0.020858614892577447,0.01938471270717084,0.05252290607923683,0.4733060391108542,0.23379472683715158,0.39713367842041786,-3.8699882317781715,30.3
,,0.01224819897305898,0.020807326974544075,0.019337074329474437,0.05239260027707749,0.47834311325921275,0.2337772683219493,0.39714247555007454,-3.8724500959117436,30.4
,,0.012279578479488542,0.020858614892577447,0.01938471270717084,0.05252290607923683,0.4833808207496201,0.23379472683715158,0.39713367842041786,-3.8699882317781715,30.5
,,0.012279578479488542,0.020858614892577447,0.01938471270717084,0.05252290607923683,0.4884185282400274,0.23379472683715158,0.39713367842041786,-3.8699882317781715,30.6
,,0.012279578479488542,0.020858614892577447,0.01938471270717084,0.05252290607923683,0.49059978505483487,0.23379472683715158,0.39713367842041786,-3.8699882317781715,30.7
,,0.012279578479488542,0.020858614892577447,0.01938471270717084,0.05252290607923683,0.493419662426822,0.23379472683715158,0.39713367842041786,-3.8699882317781715,30.8
,,0.01224819897305898,0.020807326974544075,0.019337074329474437,0.05239260027707749,0.4962389064567603,0.2337772683219493,0.39714247555007454,-3.8724500959117436,30.9
,,0.015737880564334512,0.02555837129987994,0.012928131605505055,0.054224383469719514,0.49935941604247436,0.29023622874611393,0.4713446177613524,-3.666790372165025,31.0
,,0.015737880564334512,0.02555837129987994,0.012928131605505055,0.054224383469719514,0.5024799256281884,0.29023622874611393,0.4713446177613524,-3.666790372165025,31.1
,,0.015711597874018227,0.02551676025987927,0.01290555068890018,0.05413390882279768,0.5056001477417861,0.29023579149713136,0.47136371296235074,-3.6684197776285545,31.2
,,0.015434409350426047,0.020097160458805538,0.018382877674841848,0.05391444748407343,0.5104120716951063,0.28627594403124396,0.37276020429852924,-3.9071767446029453,31.3
,,0.015461531173069285,0.020130930603047402,0.018412994796526295,0.05400545657264298,0.5152246506407989,0.2862957218456604,0.37275734491697515,-3.905497810739412,31.4
,,0.015461531173069285,0.020130930603047402,0.018412994796526295,0.05400545657264298,0.5200372295864916,0.2862957218456604,0.37275734491697515,-3.905497810739412,31.5
,,0.015461531173069285,0.020130930603047402,0.018412994796526295,0.05400545657264298,0.5237047504481134,0.2862957218456604,0.37275734491697515,-3.905497810739412,31.6
,,0.015434409350426047,0.020097160458805538,0.018382877674841848,0.05391444748407343,0.5273716163173627,0.28627594403124396,0.37276020429852924,-3.9071767446029453,31.7
,,0.015461531173069285,0.020130930603047402,0.018412994796526295,0.05400545657264298,0.5316764414428268,0.2862957218456604,0.37275734491697515,-3.905497810739412,31.8
,,0.015434409350426047,0.020097160458805538,0.018382877674841848,0.05391444748407343,0.5359806115759185,0.28627594403124396,0.37276020429852924,-3.9071767446029453,31.9
,,0.011250180483580872,0.023862469828534096,0.01311877277094246,0.04823142308305743,0.5369899997582221,0.23325416843304372,0.49474944555215544,-3.735448354319374,32.0
,,0.011250180483580872,0.023862469828534096,0.01311877277094246,0.04823142308305743,0.5379993879405259,0.23325416843304372,0.49474944555215544,-3.735448354319374,32.1
,,0.011251147596986784,0.02386442348515467,0.013119846994939724,0.04823541807708118,0.5390087975606244,0.23325489952232242,0.49474897153412944,-3.735366486152979,32.2
,,0.014804525582214281,0.019585281674802214,0.01915322538338715,0.053543032640403644,0.5431786456203209,0.27649770384957173,0.3657858120651749,-3.932976929797624,32.3
,,0.014804525582214281,0.019585281674802214,0.01915322538338715,0.053543032640403644,0.5473484936800174,0.27649770384957173,0.3657858120651749,-3.932976929797624,32.4
,,0.014804525582214281,0.019585281674802214,0.01915322538338715,0.053543032640403644,0.5515183417397138,0.27649770384957173,0.3657858120651749,-3.932976929797624,32.5
,,0.014804525582214281,0.019585281674802214,0.01915322538338715,0.053543032640403644,0.5543659577426773,0.27649770384957173,0.3657858120651749,-3.932976929797624,32.6
,,0.014804525582214281,0.019585281674802214,0.01915322538338715,0.053543032640403644,0.5579492335625945,0.27649770384957173,0.3657858120651749,-3.932976929797624,32.7
,,0.014804525582214281,0.019585281674802214,0.01915322538338715,0.053543032640403644,0.5615325093825119,0.27649770384957173,0.3657858120651749,-3.932976929797624,32.8
,,0.014095920125731425,0.023944861182615556,0.013900294635672317,0.051941075944019297,0.5632578063600283,0.2713829059090657,0.46100048463421683,-3.7320015425476325,32.9
,,0.014095920125731425,0.023944861182615556,0.013900294635672317,0.051941075944019297,0.5649831033375446,0.2713829059090657,0.46100048463421683,-3.7320015425476325,33.0
,,0.014095920125731425,0.023944861182615556,0.013900294635672317,0.051941075944019297,0.566708400315061,0.2713829059090657,0.46100048463421683,-3.7320015425476325,33.1
,,0.014905608174338073,0.019953113757641864,0.02085515384928449,0.055713875781264424,0.5701931329584762,0.26753852546281764,0.3581354461136186,-3.914370069747894,33.2
,,0.01491315498179376,0.019937540184179158,0.020856478812899447,0.055707173978872364,0.573688554962593,0.26770618426003373,0.35789896991975784,-3.915150882931686,33.3
,,0.01491315498179376,0.019937540184179158,0.020856478812899447,0.055707173978872364,0.5771839769667098,0.26770618426003373,0.35789896991975784,-3.915150882931686,33.4
,,0.014905608174338073,0.019953113757641864,0.02085515384928449,0.055713875781264424,0.580668709610125,0.26753852546281764,0.3581354461136186,-3.914370069747894,33.5
,,0.014905608174338073,0.019953113757641864,0.02085515384928449,0.055713875781264424,0.5835786087498623,0.26753852546281764,0.3581354461136186,-3.914370069747894,33.6
,,0.014905608174338073,0.019953113757641864,0.02085515384928449,0.055713875781264424,0.5864885078895997,0.26753852546281764,0.3581354461136186,-3.914370069747894,33.7
,,0.01107335802514625,0.022212414429097,0.013526275224141184,0.046812047678384434,0.5866371786919122,0.23654931955175712,0.4745020893276077,-3.807103937884837,33.8
,,0.011076123406923197,0.022217731649134986,0.013529514110291985,0.046823369166350166,0.5867859068234171,0.23655118382389076,0.47450091791134635,-3.8068645859793087,33.9
,,0.01107335802514625,0.022212414429097,0.013526275224141184,0.046812047678384434,0.5869345776257296,0.23654931955175712,0.4745020893276077,-3.807103937884837,34.0
,,0.01107335802514625,0.022212414429097,0.013526275224141184,0.046812047678384434,0.5870832484280422,0.23654931955175712,0.4745020893276077,-3.807103937884837,34.1
,,0.014470276492840606,0.01925426404375212,0.021726982517242952,0.055451523053835675,0.5900431977783245,0.26095363474132155,0.34722696480417536,-3.9500227340114447,34.2
,,0.014470276492840606,0.01925426404375212,0.021726982517242952,0.055451523053835675,0.5930031471286067,0.26095363474132155,0.34722696480417536,-3.9500227340114447,34.3
,,0.014470276492840606,0.01925426404375212,0.021726982517242952,0.055451523053835675,0.595963096478889,0.26095363474132155,0.34722696480417536,-3.9500227340114447,34.4
,,0.014470276492840606,0.01925426404375212,0.021726982517242952,0.055451523053835675,0.5998872189975644,0.26095363474132155,0.34722696480417536,-3.9500227340114447,34.5
,,0.014470276492840606,0.01925426404375212,0.021726982517242952,0.055451523053835675,0.6038113415162397,0.26095363474132155,0.34722696480417536,-3.9500227340114447,34.6
,,0.014470276492840606,0.01925426404375212,0.021726982517242952,0.055451523053835675,0.6077354640349151,0.26095363474132155,0.34722696480417536,-3.9500227340114447,34.7
,,0.014565627770437352,0.02492336499417388,0.016702138476081044,0.05619113124069228,0.6098027018696703,0.2592157774515362,0.4435462401960858,-3.691949562309931,34.8
,,0.014565627770437352,0.02492336499417388,0.016702138476081044,0.05619113124069228,0.6118699397044257,0.2592157774515362,0.4435462401960858,-3.691949562309931,34.9
,,0.014565627770437352,0.02492336499417388,0.016702138476081044,0.05619113124069228,0.6139371775391811,0.2592157774515362,0.4435462401960858,-3.691949562309931,35.0
,,0.014565627770437352,0.02492336499417388,0.016702138476081044,0.05619113124069228,0.6160044153739365,0.2592157774515362,0.4435462401960858,-3.691949562309931,35.1
,,0.015469064051918464,0.020111943157091874,0.024278958075553,0.05985996528456333,0.6201242262908476,0.2584208657385844,0.33598320783320496,-3.906441453456265,35.2
,,0.015469064051918464,0.020111943157091874,0.024278958075553,0.05985996528456333,0.6242440372077589,0.2584208657385844,0.33598320783320496,-3.906441453456265,35.3
,,0.015469064051918464,0.020111943157091874,0.024278958075553,0.05985996528456333,0.625940758539247,0.2584208657385844,0.33598320783320496,-3.906441453456265,35.4
,,0.015469064051918464,0.020111943157091874,0.024278958075553,0.05985996528456333,0.6283000165970832,0.2584208657385844,0.33598320783320496,-3.906441453456265,35.5
,,0.015469064051918464,0.020111943157091874,0.024278958075553,0.05985996528456333,0.6306592746549194,0.2584208657385844,0.33598320783320496,-3.906441453456265,35.6
,,0.015469064051918464,0.020111943157091874,0.024278958075553,0.05985996528456333,0.6330185327127557,0.2584208657385844,0.33598320783320496,-3.906441453456265,35.7
,,0.015137835798564597,0.02504216872314476,0.018046590496209367,0.05822659501791872,0.6335482979231863,0.25998147056179505,0.43008128356875847,-3.6871941261514674,35.8
,,0.015137835798564597,0.02504216872314476,0.018046590496209367,0.05822659501791872,0.634078063133617,0.25998147056179505,0.43008128356875847,-3.6871941261514674,35.9
,,0.015137835798564597,0.02504216872314476,0.018046590496209367,0.05822659501791872,0.6346078283440477,0.25998147056179505,0.43008128356875847,-3.6871941261514674,36.0
,,0.016473965643698123,0.020434901488944585,0.0262999889236323,0.063208856056275,0.6373784190459286,0.2606274922778433,0.3232917468202769,-3.8905109826800075,36.1
,,0.016473965643698123,0.020434901488944585,0.0262999889236323,0.063208856056275,0.6401490097478096,0.2606274922778433,0.3232917468202769,-3.8905109826800075,36.2
,,0.016473965643698123,0.020434901488944585,0.0262999889236323,0.063208856056275,0.6429196004496908,0.2606274922778433,0.3232917468202769,-3.8905109826800075,36.3
,,0.016473965643698123,0.020434901488944585,0.0262999889236323,0.063208856056275,0.6455364426108098,0.2606274922778433,0.3232917468202769,-3.8905109826800075,36.4
,,0.016473965643698123,0.020434901488944585,0.0262999889236323,0.063208856056275,0.6481532847719287,0.2606274922778433,0.3232917468202769,-3.8905109826800075,36.5
,,0.016473965643698123,0.020434901488944585,0.0262999889236323,0.063208856056275,0.6507701269330478,0.2606274922778433,0.3232917468202769,-3.8905109826800075,36.6
,,0.016744830512476504,0.02605415923385842,0.020055315518556025,0.06285430526489094,0.6515705811551459,0.26640705743079474,0.4145167005514849,-3.647577860039772,36.7
,,0.016744830512476504,0.02605415923385842,0.020055315518556025,0.06285430526489094,0.652371035377244,0.26640705743079474,0.4145167005514849,-3.647577860039772,36.8
,,0.016744830512476504,0.02605415923385842,0.020055315518556025,0.06285430526489094,0.653171489599342,0.26640705743079474,0.4145167005514849,-3.647577860039772,36.9
,,0.016744830512476504,0.02605415923385842,0.020055315518556025,0.06285430526489094,0.6539719438214401,0.26640705743079474,0.4145167005514849,-3.647577860039772,37.0
,,0.018007434602072284,0.02084882053993348,0.028223407360289377,0.06707966250229513,0.6572281936557757,0.2684484973587361,0.310806878898953,-3.8704579011655333,37.1
,,0.018007434602072284,0.02084882053993348,0.028223407360289377,0.06707966250229513,0.6604844434901114,0.2684484973587361,0.310806878898953,-3.8704579011655333,37.2
,,0.018007434602072284,0.02084882053993348,0.028223407360289377,0.06707966250229513,0.6628985434527594,0.2684484973587361,0.310806878898953,-3.8704579011655333,37.3
,,0.018007434602072284,0.02084882053993348,0.028223407360289377,0.06707966250229513,0.6677480677840522,0.2684484973587361,0.310806878898953,-3.8704579011655333,37.4
,,0.018007434602072284,0.02084882053993348,0.028223407360289377,0.06707966250229513,0.672597592115345,0.2684484973587361,0.310806878898953,-3.8704579011655333,37.5
,,0.018007434602072284,0.02084882053993348,0.028223407360289377,0.06707966250229513,0.6774471164466377,0.2684484973587361,0.310806878898953,-3.8704579011655333,37.6
,,0.018613983664824318,0.02648104591474688,0.021849335113250084,0.06694436469282128,0.6805100013437979,0.2780515395169681,0.39556796208697986,-3.631326050402321,37.7
,,0.018613983664824318,0.02648104591474688,0.021849335113250084,0.06694436469282128,0.683572886240958,0.2780515395169681,0.39556796208697986,-3.631326050402321,37.8
,,0.018613983664824318,0.02648104591474688,0.021849335113250084,0.06694436469282128,0.6866357711381184,0.2780515395169681,0.39556796208697986,-3.631326050402321,37.9
,,0.018613983664824318,0.02648104591474688,0.021849335113250084,0.06694436469282128,0.6896986560352786,0.2780515395169681,0.39556796208697986,-3.631326050402321,38.0
,,0.01055737055196313,0.016497452293321255,0.027071292251050007,0.05412611509633439,0.6920617877311399,0.19505132657632973,0.30479653424153696,-4.104549316462886,38.1
,,0.01055737055196313,0.016497452293321255,0.027071292251050007,0.05412611509633439,0.691992003877191,0.19505132657632973,0.30479653424153696,-4.104549316462886,38.2
,,0.01055737055196313,0.016497452293321255,0.027071292251050007,0.05412611509633439,0.691922144090453,0.19505132657632973,0.30479653424153696,-4.104549316462886,38.3
,,0.01055737055196313,0.016497452293321255,0.027071292251050007,0.05412611509633439,0.6902927399998149,0.19505132657632973,0.30479653424153696,-4.104549316462886,38.4
,,0.01055737055196313,0.016497452293321255,0.027071292251050007,0.05412611509633439,0.6886633359091765,0.19505132657632973,0.30479653424153696,-4.104549316462886,38.5
,,0.021631344362951766,0.028381630998211865,0.023444600206075247,0.07345757556723888,0.6907818539754687,0.29447397624975613,0.3863676520637812,-3.5620131389152534,38.6
,,0.021631344362951766,0.028381630998211865,0.023444600206075247,0.07345757556723888,0.6929003720417608,0.29447397624975613,0.3863676520637812,-3.5620131389152534,38.7
,,0.021631344362951766,0.028381630998211865,0.023444600206075247,0.07345757556723888,0.6926289742473289,0.29447397624975613,0.3863676520637812,-3.5620131389152534,38.8
,,0.021631344362951766,0.028381630998211865,0.023444600206075247,0.07345757556723888,0.694747492313621,0.29447397624975613,0.3863676520637812,-3.5620131389152534,38.9
,,0.02375997465921678,0.02334138238184331,0.032724187056767884,0.07982554409782798,0.6973180219164112,0.29764876553924147,0.29240492683943287,-3.7575274258637843,39.0
,,0.02375997465921678,0.02334138238184331,0.032724187056767884,0.07982554409782798,0.7015335222023598,0.29764876553924147,0.29240492683943287,-3.7575274258637843,39.1
,,0.02375997465921678,0.02334138238184331,0.032724187056767884,0.07982554409782798,0.7057490224883084,0.29764876553924147,0.29240492683943287,-3.7575274258637843,39.2
,,0.025737680435909342,0.03168874105255878,0.025148013493521866,0.08257443498198999,0.7082323260054296,0.31169066359973147,0.38375970794677916,-3.4517938330309317,39.3
,,0.02375997465921678,0.02334138238184331,0.032724187056767884,0.07982554409782798,0.7130021606629537,0.29764876553924147,0.29240492683943287,-3.7575274258637843,39.4
,,0.02686739582158592,0.023002336789896626,0.022102751887357688,0.07197248449884024,0.7194390896503862,0.3733009358877817,0.31959903774431025,-3.7721594686531503,39.5
,,0.02686739582158592,0.023002336789896626,0.022102751887357688,0.07197248449884024,0.7258760186378186,0.3733009358877817,0.31959903774431025,-3.7721594686531503,39.6
,,0.02686739582158592,0.023002336789896626,0.022102751887357688,0.07197248449884024,0.732312947625251,0.3733009358877817,0.31959903774431025,-3.7721594686531503,39.7
,,0.02686739582158592,0.023002336789896626,0.022102751887357688,0.07197248449884024,0.7387498766126834,0.3733009358877817,0.31959903774431025,-3.7721594686531503,39.8
,,0.027319280834626945,0.025121061184946315,0.03417544218307002,0.08661578420264328,0.744292728655631,0.3154076486880463,0.29002867567617874,-3.6840486936507593,39.9
,,0.027319280834626945,0.025121061184946315,0.03417544218307002,0.08661578420264328,0.7495343151428027,0.3154076486880463,0.29002867567617874,-3.6840486936507593,40.0
,,0.027319280834626945,0.025121061184946315,0.03417544218307002,0.08661578420264328,0.7547759016299744,0.3154076486880463,0.29002867567617874,-3.6840486936507593,40.1
,,0.027319280834626945,0.025121061184946315,0.03417544218307002,0.08661578420264328,0.7600177755892623,0.3154076486880463,0.29002867567617874,-3.6840486936507593,40.2
,,0.027319280834626945,0.025121061184946315,0.03417544218307002,0.08661578420264328,0.7635679477088277,0.3154076486880463,0.29002867567617874,-3.6840486936507593,40.3
,,0.027768564480886493,0.031219936812882588,0.024745126964678347,0.08373362825844742,0.7649168502381423,0.33162977716882913,0.372848250603938,-3.46669838782763,40.4
,,0.027768564480886493,0.031219936812882588,0.024745126964678347,0.08373362825844742,0.7662657527674568,0.33162977716882913,0.372848250603938,-3.46669838782763,40.5
,,0.027768564480886493,0.031219936812882588,0.024745126964678347,0.08373362825844742,0.7676146552967714,0.33162977716882913,0.372848250603938,-3.46669838782763,40.6
,,0.027768564480886493,0.031219936812882588,0.024745126964678347,0.08373362825844742,0.7689642128184583,0.33162977716882913,0.372848250603938,-3.46669838782763,40.7
,,0.027768564480886493,0.031219936812882588,0.024745126964678347,0.08373362825844742,0.7703131153477727,0.33162977716882913,0.372848250603938,-3.46669838782763,40.8
,,0.029320064041597437,0.025490401629933598,0.03322797046863474,0.08803843614016577,0.7745603357271562,0.3330370838813747,0.289537192475232,-3.6694533043457995,40.9
,,0.029320064041597437,0.025490401629933598,0.03322797046863474,0.08803843614016577,0.7821023380573277,0.3330370838813747,0.289537192475232,-3.6694533043457995,41.0
,,0.029320064041597437,0.025490401629933598,0.03322797046863474,0.08803843614016577,0.7896443403874992,0.3330370838813747,0.289537192475232,-3.6694533043457995,41.1
,,0.029320064041597437,0.025490401629933598,0.03322797046863474,0.08803843614016577,0.7971863212798757,0.3330370838813747,0.289537192475232,-3.6694533043457995,41.2
,,0.015506453576824931,0.03049165435966728,0.02263221504628226,0.06863032298277447,0.7944379534638852,0.22594172521549838,0.44428837042367386,-3.4903022603635128,41.3
,,0.015506453576824931,0.03049165435966728,0.02263221504628226,0.06863032298277447,0.7916895856478952,0.22594172521549838,0.44428837042367386,-3.4903022603635128,41.4
,,0.015506453576824931,0.03049165435966728,0.02263221504628226,0.06863032298277447,0.7889412178319047,0.22594172521549838,0.44428837042367386,-3.4903022603635128,41.5
,,0.015506453576824931,0.03049165435966728,0.02263221504628226,0.06863032298277447,0.7861928500159142,0.22594172521549838,0.44428837042367386,-3.4903022603635128,41.6
,,0.015506453576824931,0.03049165435966728,0.02263221504628226,0.06863032298277447,0.7834444821999241,0.22594172521549838,0.44428837042367386,-3.4903022603635128,41.7
,,0.03194609865872941,0.01685633462636876,0.026121048653494502,0.07492348193859268,0.7961033471388259,0.4263829954527801,0.22498066280721202,-4.083028750614606,41.8
,,0.03194609865872941,0.01685633462636876,0.026121048653494502,0.07492348193859268,0.8106201909201287,0.4263829954527801,0.22498066280721202,-4.083028750614606,41.9
,,0.03194609865872941,0.01685633462636876,0.026121048653494502,0.07492348193859268,0.8251370347014314,0.4263829954527801,0.22498066280721202,-4.083028750614606,42.0
,,0.03194609865872941,0.01685633462636876,0.026121048653494502,0.07492348193859268,0.8396538784827342,0.4263829954527801,0.22498066280721202,-4.083028750614606,42.1
,,0.03194609865872941,0.01685633462636876,0.026121048653494502,0.07492348193859268,0.8524112865981383,0.4263829954527801,0.22498066280721202,-4.083028750614606,42.2
,,0.026970898009556387,0.027866206272852613,0.019387795126055537,0.07422489940846454,0.8548543694383586,0.36336725579288087,0.3754293571959328,-3.5803405690051857,42.3
,,0.026970898009556387,0.027866206272852613,0.019387795126055537,0.07422489940846454,0.8572974522785788,0.36336725579288087,0.3754293571959328,-3.5803405690051857,42.4
,,0.026970898009556387,0.027866206272852613,0.019387795126055537,0.07422489940846454,0.8597512244795008,0.36336725579288087,0.3754293571959328,-3.5803405690051857,42.5
,,0.026970898009556387,0.027866206272852613,0.019387795126055537,0.07422489940846454,0.8622049966804226,0.36336725579288087,0.3754293571959328,-3.5803405690051857,42.6
,,0.026970898009556387,0.027866206272852613,0.019387795126055537,0.07422489940846454,0.8646587688813445,0.36336725579288087,0.3754293571959328,-3.5803405690051857,42.7
,,0.024861711571047322,0.020354843075749144,0.0238833711267697,0.06909992577356616,0.8726909234503182,0.3597936074854374,0.2945711279408608,-3.8944364064281163,42.8
,,0.024861711571047322,0.020354843075749144,0.0238833711267697,0.06909992577356616,0.8807230206900998,0.3597936074854374,0.2945711279408608,-3.8944364064281163,42.9
,,0.024861711571047322,0.020354843075749144,0.0238833711267697,0.06909992577356616,0.8887551752590737,0.3597936074854374,0.2945711279408608,-3.8944364064281163,43.0
,,0.024861711571047322,0.020354843075749144,0.0238833711267697,0.06909992577356616,0.8967873298280472,0.3597936074854374,0.2945711279408608,-3.8944364064281163,43.1
,,0.023510025267855797,0.024127796707588002,0.015411077034959702,0.0630488990104035,0.8992635482588477,0.3728855798731153,0.38268387055587993,-3.724390712772823,43.2
,,0.023510025267855797,0.024127796707588002,0.015411077034959702,0.0630488990104035,0.9017397666896477,0.3728855798731153,0.38268387055587993,-3.724390712772823,43.3
,,0.023510025267855797,0.024127796707588002,0.015411077034959702,0.0630488990104035,0.9042159851204482,0.3728855798731153,0.38268387055587993,-3.724390712772823,43.4
,,0.023510025267855797,0.024127796707588002,0.015411077034959702,0.0630488990104035,0.9066922035512485,0.3728855798731153,0.38268387055587993,-3.724390712772823,43.5
,,0.023510025267855797,0.024127796707588002,0.015411077034959702,0.0630488990104035,0.9091684219820487,0.3728855798731153,0.38268387055587993,-3.724390712772823,43.6
,,0.02211908452229983,0.01843604266983423,0.01967570680588427,0.060230833998018325,0.9141488418657744,0.3672385563020359,0.3060897790397656,-3.9934476896421627,43.7
,,0.02211908452229983,0.01843604266983423,0.01967570680588427,0.060230833998018325,0.9209861464334199,0.3672385563020359,0.3060897790397656,-3.9934476896421627,43.8
,,0.02211908452229983,0.01843604266983423,0.01967570680588427,0.060230833998018325,0.9278234510010657,0.3672385563020359,0.3060897790397656,-3.9934476896421627,43.9
,,0.02211908452229983,0.01843604266983423,0.01967570680588427,0.060230833998018325,0.9346607555687112,0.3672385563020359,0.3060897790397656,-3.9934476896421627,44.0
,,0.011565189763449045,0.02283753491707894,0.01282155473487753,0.04722427941540551,0.9337940321727649,0.24489923206062192,0.4835973190017353,-3.779349828343048,44.1
,,0.011565189763449045,0.02283753491707894,0.01282155473487753,0.04722427941540551,0.9308747356946627,0.24489923206062192,0.4835973190017353,-3.779349828343048,44.2
,,0.011565189763449045,0.02283753491707894,0.01282155473487753,0.04722427941540551,0.9279554392165604,0.24489923206062192,0.4835973190017353,-3.779349828343048,44.3
,,0.011565189763449045,0.02283753491707894,0.01282155473487753,0.04722427941540551,0.9250361427384585,0.24489923206062192,0.4835973190017353,-3.779349828343048,44.4
,,0.011565189763449045,0.02283753491707894,0.01282155473487753,0.04722427941540551,0.9221168462603563,0.24489923206062192,0.4835973190017353,-3.779349828343048,44.5
,,0.019800017103951205,0.01705303117113436,0.016775490208562702,0.053628538483648264,0.9264716990117579,0.369206725817978,0.31798426086763404,-4.071427309755631,44.6
,,0.019800017103951205,0.01705303117113436,0.016775490208562702,0.053628538483648264,0.9308265517631593,0.369206725817978,0.31798426086763404,-4.071427309755631,44.7
,,0.019800017103951205,0.01705303117113436,0.016775490208562702,0.053628538483648264,0.9370108973619666,0.369206725817978,0.31798426086763404,-4.071427309755631,44.8
,,0.019800017103951205,0.01705303117113436,0.016775490208562702,0.053628538483648264,0.9431952429607736,0.369206725817978,0.31798426086763404,-4.071427309755631,44.9
,,0.019304803884454068,0.02110486535378924,0.010900457404775883,0.05131012664301919,0.9466420751180602,0.3762376970683332,0.41131968939820546,-3.858251679593222,45.0
,,0.019304803884454068,0.02110486535378924,0.010900457404775883,0.05131012664301919,0.9478480817838961,0.3762376970683332,0.41131968939820546,-3.858251679593222,45.1
,,0.019304803884454068,0.02110486535378924,0.010900457404775883,0.05131012664301919,0.9490540884497323,0.3762376970683332,0.41131968939820546,-3.858251679593222,45.2
,,0.019304803884454068,0.02110486535378924,0.010900457404775883,0.05131012664301919,0.9502600951155683,0.3762376970683332,0.41131968939820546,-3.858251679593222,45.3
,,0.019304803884454068,0.02110486535378924,0.010900457404775883,0.05131012664301919,0.9514661017814044,0.3762376970683332,0.41131968939820546,-3.858251679593222,45.4
,,0.017125497007277012,0.015398268929187619,0.014230848245467416,0.046754614181932046,0.954866125995335,0.36628463964301144,0.32934223067844626,-4.173500183076325,45.5
,,0.017125497007277012,0.015398268929187619,0.014230848245467416,0.046754614181932046,0.9582661502092656,0.36628463964301144,0.32934223067844626,-4.173500183076325,45.6
,,0.017125497007277012,0.015398268929187619,0.014230848245467416,0.046754614181932046,0.9634825623622173,0.36628463964301144,0.32934223067844626,-4.173500183076325,45.7
,,0.017125497007277012,0.015398268929187619,0.014230848245467416,0.046754614181932046,0.9686989745151688,0.36628463964301144,0.32934223067844626,-4.173500183076325,45.8
,,0.01665692457694928,0.019249056468095174,0.009066136041761977,0.044972117086806436,0.971172796904327,0.3703833765441289,0.4280220215325889,-3.950293234094007,45.9
,,0.01665692457694928,0.019249056468095174,0.009066136041761977,0.044972117086806436,0.9736466192934851,0.3703833765441289,0.4280220215325889,-3.950293234094007,46.0
,,0.01665692457694928,0.019249056468095174,0.009066136041761977,0.044972117086806436,0.9736646460704057,0.3703833765441289,0.4280220215325889,-3.950293234094007,46.1
,,0.01665692457694928,0.019249056468095174,0.009066136041761977,0.044972117086806436,0.9736826728473265,0.3703833765441289,0.4280220215325889,-3.950293234094007,46.2
,,0.01665692457694928,0.019249056468095174,0.009066136041761977,0.044972117086806436,0.9737006996242469,0.3703833765441289,0.4280220215325889,-3.950293234094007,46.3
,,0.015441851883288995,0.015132009377405728,0.012412883099898984,0.04298674436059371,0.975442490493904,0.3592235725914769,0.3520157109473348,-4.190942952504586,46.4
,,0.015441851883288995,0.015132009377405728,0.012412883099898984,0.04298674436059371,0.9771842813635611,0.3592235725914769,0.3520157109473348,-4.190942952504586,46.5
,,0.015441851883288995,0.015132009377405728,0.012412883099898984,0.04298674436059371,0.9789260722332179,0.3592235725914769,0.3520157109473348,-4.190942952504586,46.6
,,0.015441851883288995,0.015132009377405728,0.012412883099898984,0.04298674436059371,0.9824545025370074,0.3592235725914769,0.3520157109473348,-4.190942952504586,46.7
,,0.019051727455840557,0.01704611415072181,0.009025231010696891,0.04512307261725926,0.9870627342683244,0.4222169801564756,0.37776935749277396,-4.071833010276399,46.8
,,0.019051727455840557,0.01704611415072181,0.009025231010696891,0.04512307261725926,0.9916709659996414,0.4222169801564756,0.37776935749277396,-4.071833010276399,46.9
,,0.019051727455840557,0.01704611415072181,0.009025231010696891,0.04512307261725926,0.9962791977309582,0.4222169801564756,0.37776935749277396,-4.071833010276399,47.0
,,0.019051727455840557,0.01704611415072181,0.009025231010696891,0.04512307261725926,1.0015871826635738,0.4222169801564756,0.37776935749277396,-4.071833010276399,47.1
,,0.019051727455840557,0.01704611415072181,0.009025231010696891,0.04512307261725926,1.00689516759619,0.4222169801564756,0.37776935749277396,-4.071833010276399,47.2
,,0.01416068289888413,0.014890167336001622,0.01145472469643343,0.040505574931319184,1.0103514957402493,0.34959836819733653,0.3676078505551206,-4.207054194202851,47.3
,,0.01416068289888413,0.014890167336001622,0.01145472469643343,0.040505574931319184,1.0138078238843087,0.34959836819733653,0.3676078505551206,-4.207054194202851,47.4
,,0.01416068289888413,0.014890167336001622,0.01145472469643343,0.040505574931319184,1.017264152028368,0.34959836819733653,0.3676078505551206,-4.207054194202851,47.5
,,0.01416068289888413,0.014890167336001622,0.01145472469643343,0.040505574931319184,1.0193624738762213,0.34959836819733653,0.3676078505551206,-4.207054194202851,47.6
,,0.01416068289888413,0.014890167336001622,0.01145472469643343,0.040505574931319184,1.0214607957240742,0.34959836819733653,0.3676078505551206,-4.207054194202851,47.7
,,0.013897235110610117,0.018457721579117493,0.007515924459053205,0.03987088114878082,1.021358157390155,0.34855600654401564,0.4629373880712917,-3.9922724822747573,47.8
,,0.013897235110610117,0.018457721579117493,0.007515924459053205,0.03987088114878082,1.0212555190562358,0.34855600654401564,0.4629373880712917,-3.9922724822747573,47.9
,,0.013897235110610117,0.018457721579117493,0.007515924459053205,0.03987088114878082,1.0183109533250945,0.34855600654401564,0.4629373880712917,-3.9922724822747573,48.0
,,0.013897235110610117,0.018457721579117493,0.007515924459053205,0.03987088114878082,1.0153663875939531,0.34855600654401564,0.4629373880712917,-3.9922724822747573,48.1
,,0.013897235110610117,0.018457721579117493,0.007515924459053205,0.03987088114878082,1.0124218218628118,0.34855600654401564,0.4629373880712917,-3.9922724822747573,48.2
,,0.012901541259086402,0.014669644331993052,0.010726283691826799,0.038297469282906255,1.0131692586051777,0.3368771227096432,0.38304474438316793,-4.221974931702402,48.3
,,0.012901541259086402,0.014669644331993052,0.010726283691826799,0.038297469282906255,1.0116307975491898,0.3368771227096432,0.38304474438316793,-4.221974931702402,48.4
,,0.012901541259086402,0.014669644331993052,0.010726283691826799,0.038297469282906255,1.0084246088212447,0.3368771227096432,0.38304474438316793,-4.221974931702402,48.5
,,0.012901541259086402,0.014669644331993052,0.010726283691826799,0.038297469282906255,1.0052184200932994,0.3368771227096432,0.38304474438316793,-4.221974931702402,48.6
,,0.012689198274542617,0.01835211331338557,0.006945844669777828,0.03798715625770602,0.9999228738678663,0.3340391733579295,0.48311363948604835,-3.998010544170768,48.7
,,0.012689198274542617,0.01835211331338557,0.006945844669777828,0.03798715625770602,0.9946273276424331,0.3340391733579295,0.48311363948604835,-3.998010544170768,48.8
,,0.012689198274542617,0.01835211331338557,0.006945844669777828,0.03798715625770602,0.9902264917035337,0.3340391733579295,0.48311363948604835,-3.998010544170768,48.9
,,0.012689198274542617,0.01835211331338557,0.006945844669777828,0.03798715625770602,0.9858256557646344,0.3340391733579295,0.48311363948604835,-3.998010544170768,49.0
,,0.012689198274542617,0.01835211331338557,0.006945844669777828,0.03798715625770602,0.981424819825735,0.3340391733579295,0.48311363948604835,-3.998010544170768,49.1
,,0.01208599792806783,0.014949576754899614,0.01032405549788538,0.037359630180852824,0.9783242175532144,0.3235042175086097,0.40015323177801204,-4.203072290255253,49.2
,,0.01208599792806783,0.014949576754899614,0.01032405549788538,0.037359630180852824,0.9752236152806939,0.3235042175086097,0.40015323177801204,-4.203072290255253,49.3
,,0.01208599792806783,0.014949576754899614,0.01032405549788538,0.037359630180852824,0.9743236276060521,0.3235042175086097,0.40015323177801204,-4.203072290255253,49.4
,,0.01208599792806783,0.014949576754899614,0.01032405549788538,0.037359630180852824,0.9734236399314099,0.3235042175086097,0.40015323177801204,-4.203072290255253,49.5
,,0.01208599792806783,0.014949576754899614,0.01032405549788538,0.037359630180852824,0.972523652256768,0.3235042175086097,0.40015323177801204,-4.203072290255253,49.6
,,0.012141469235508061,0.01890991768025963,0.006981955632898398,0.03803334254866609,0.9697749758529134,0.3192322426032441,0.49719315771584327,-3.9680687495597637,49.7
,,0.012141469235508061,0.01890991768025963,0.006981955632898398,0.03803334254866609,0.9670262994490589,0.3192322426032441,0.49719315771584327,-3.9680687495597637,49.8
,,0.012141469235508061,0.01890991768025963,0.006981955632898398,0.03803334254866609,0.961379960187508,0.3192322426032441,0.49719315771584327,-3.9680687495597637,49.9
,,0.012141469235508061,0.01890991768025963,0.006981955632898398,0.03803334254866609,0.9557336209259572,0.3192322426032441,0.49719315771584327,-3.9680687495597637,50.0
,,0.011599949344975682,0.015306703738288838,0.01048904343320312,0.03739569651646764,0.9513735674338347,0.3101947663915688,0.40931725209472564,-4.179464393715333,50.1
,,0.011599949344975682,0.015306703738288838,0.01048904343320312,0.03739569651646764,0.9470135139417124,0.3101947663915688,0.40931725209472564,-4.179464393715333,50.2
,,0.011599949344975682,0.015306703738288838,0.01048904343320312,0.03739569651646764,0.9497833707183592,0.3101947663915688,0.40931725209472564,-4.179464393715333,50.3
,,0.011599949344975682,0.015306703738288838,0.01048904343320312,0.03739569651646764,0.9525532274950057,0.3101947663915688,0.40931725209472564,-4.179464393715333,50.4
,,0.011599949344975682,0.015306703738288838,0.01048904343320312,0.03739569651646764,0.9553230842716525,0.3101947663915688,0.40931725209472564,-4.179464393715333,50.5
,,0.011599949344975682,0.015306703738288838,0.01048904343320312,0.03739569651646764,0.958092941048299,0.3101947663915688,0.40931725209472564,-4.179464393715333,50.6
,,0.011463456959716924,0.018898506038347567,0.0071905975523099954,0.03755256055037449,0.9591821921055999,0.30526432263758396,0.5032547917204305,-3.9686724056308833,50.7
,,0.011463456959716924,0.018898506038347567,0.0071905975523099954,0.03755256055037449,0.9448642104080085,0.30526432263758396,0.5032547917204305,-3.9686724056308833,50.8
,,0.011463456959716924,0.018898506038347567,0.0071905975523099954,0.03755256055037449,0.9305462287104174,0.30526432263758396,0.5032547917204305,-3.9686724056308833,50.9
,,0.011463456959716924,0.018898506038347567,0.0071905975523099954,0.03755256055037449,0.9162282470128261,0.30526432263758396,0.5032547917204305,-3.9686724056308833,51.0
,,0.011402118073675806,0.016109737808838526,0.010983781035851547,0.03849563691836588,0.9030346868974308,0.2961924775489549,0.41848217352529976,-4.128331356982272,51.1
,,0.011402118073675806,0.016109737808838526,0.010983781035851547,0.03849563691836588,0.8898411267820355,0.2961924775489549,0.41848217352529976,-4.128331356982272,51.2
,,0.011402118073675806,0.016109737808838526,0.010983781035851547,0.03849563691836588,0.8869512025811223,0.2961924775489549,0.41848217352529976,-4.128331356982272,51.3
,,0.011402118073675806,0.016109737808838526,0.010983781035851547,0.03849563691836588,0.8840612783802091,0.2961924775489549,0.41848217352529976,-4.128331356982272,51.4
,,0.011402118073675806,0.016109737808838526,0.010983781035851547,0.03849563691836588,0.8811713541792958,0.2961924775489549,0.41848217352529976,-4.128331356982272,51.5
,,0.01138292612867391,0.020336478692599278,0.00734341383648295,0.03906281865775614,0.8766364460953876,0.2914005317538387,0.5206096075855334,-3.8953390256402045,51.6
,,0.01138292612867391,0.020336478692599278,0.00734341383648295,0.03906281865775614,0.8721015380114793,0.2914005317538387,0.5206096075855334,-3.8953390256402045,51.7
,,0.01138292612867391,0.020336478692599278,0.00734341383648295,0.03906281865775614,0.864749475896944,0.2914005317538387,0.5206096075855334,-3.8953390256402045,51.8
,,0.011556326405961086,0.017409325215515234,0.011629426425024354,0.04059507804650067,0.8585537635957953,0.2846730924552872,0.4288531037081214,-4.050749284395716,51.9
,,0.011556326405961086,0.017409325215515234,0.011629426425024354,0.04059507804650067,0.8523580512946465,0.2846730924552872,0.4288531037081214,-4.050749284395716,52.0
,,0.011556326405961086,0.017409325215515234,0.011629426425024354,0.04059507804650067,0.846162338993498,0.2846730924552872,0.4288531037081214,-4.050749284395716,52.1
,,0.011556326405961086,0.017409325215515234,0.011629426425024354,0.04059507804650067,0.842711284282553,0.2846730924552872,0.4288531037081214,-4.050749284395716,52.2
,,0.011556326405961086,0.017409325215515234,0.011629426425024354,0.04059507804650067,0.8392602295716084,0.2846730924552872,0.4288531037081214,-4.050749284395716,52.3
,,0.011556326405961086,0.017409325215515234,0.011629426425024354,0.04059507804650067,0.8358091748606635,0.2846730924552872,0.4288531037081214,-4.050749284395716,52.4
,,0.012969062126558163,0.021793702251562585,0.008081139661524413,0.04284390403964516,0.8315945877154018,0.3027049569188974,0.5086768524034601,-3.826134238466139,52.5
,,0.012969062126558163,0.021793702251562585,0.008081139661524413,0.04284390403964516,0.8273800005701404,0.3027049569188974,0.5086768524034601,-3.826134238466139,52.6
,,0.012969062126558163,0.021793702251562585,0.008081139661524413,0.04284390403964516,0.8206612119719533,0.3027049569188974,0.5086768524034601,-3.826134238466139,52.7
,,0.012969062126558163,0.021793702251562585,0.008081139661524413,0.04284390403964516,0.8139424233737664,0.3027049569188974,0.5086768524034601,-3.826134238466139,52.8
,,0.0122911473401613,0.019487814369239076,0.012997773346228283,0.044776735055628666,0.8076194832458437,0.2744985163588036,0.43522187013028674,-3.9379659128879956,52.9
,,0.0122911473401613,0.019487814369239076,0.012997773346228283,0.044776735055628666,0.8012965431179208,0.2744985163588036,0.43522187013028674,-3.9379659128879956,53.0
,,0.0122911473401613,0.019487814369239076,0.012997773346228283,0.044776735055628666,0.8026776309535897,0.2744985163588036,0.43522187013028674,-3.9379659128879956,53.1
,,0.0122911473401613,0.019487814369239076,0.012997773346228283,0.044776735055628666,0.8040587187892587,0.2744985163588036,0.43522187013028674,-3.9379659128879956,53.2
,,0.0122911473401613,0.019487814369239076,0.012997773346228283,0.044776735055628666,0.8054398066249278,0.2744985163588036,0.43522187013028674,-3.9379659128879956,53.3
,,0.0122911473401613,0.019487814369239076,0.012997773346228283,0.044776735055628666,0.8068208944605966,0.2744985163588036,0.43522187013028674,-3.9379659128879956,53.4
,,0.013307549383681108,0.02317443803559045,0.008271865707006143,0.0447538531262777,0.8075744776458166,0.2973498023987445,0.5178199510598861,-3.7647054165581846,53.5
,,0.013307549383681108,0.02317443803559045,0.008271865707006143,0.0447538531262777,0.8010539116015326,0.2973498023987445,0.5178199510598861,-3.7647054165581846,53.6
,,0.013307549383681108,0.02317443803559045,0.008271865707006143,0.0447538531262777,0.7945333455572491,0.2973498023987445,0.5178199510598861,-3.7647054165581846,53.7
,,0.01331632023637799,0.02202111078091506,0.014420574768819973,0.049758005786113016,0.788351369019176,0.26762166260478326,0.4425641750108269,-3.8157537047766232,53.8
,,0.01331632023637799,0.02202111078091506,0.014420574768819973,0.049758005786113016,0.7821693924811034,0.26762166260478326,0.4425641750108269,-3.8157537047766232,53.9
,,0.01331632023637799,0.02202111078091506,0.014420574768819973,0.049758005786113016,0.7787249293845513,0.26762166260478326,0.4425641750108269,-3.8157537047766232,54.0
,,0.01331632023637799,0.02202111078091506,0.014420574768819973,0.049758005786113016,0.7752804662879994,0.26762166260478326,0.4425641750108269,-3.8157537047766232,54.1
,,0.01331632023637799,0.02202111078091506,0.014420574768819973,0.049758005786113016,0.7718360031914473,0.26762166260478326,0.4425641750108269,-3.8157537047766232,54.2
,,0.01331632023637799,0.02202111078091506,0.014420574768819973,0.049758005786113016,0.7683915400948952,0.26762166260478326,0.4425641750108269,-3.8157537047766232,54.3
,,0.01347693020238502,0.028174622533503616,0.009474008861773622,0.05112556159766226,0.7635429521919253,0.26360454107953035,0.5510868077152216,-3.569333616359754,54.4
,,0.01347693020238502,0.028174622533503616,0.009474008861773622,0.05112556159766226,0.7565003467408606,0.26360454107953035,0.5510868077152216,-3.569333616359754,54.5
,,0.01347693020238502,0.028174622533503616,0.009474008861773622,0.05112556159766226,0.7494577412897961,0.26360454107953035,0.5510868077152216,-3.569333616359754,54.6
,,0.01457012000508908,0.02462381661852764,0.015995840573144345,0.05518977719676106,0.7436748319481522,0.26400034109839027,0.44616626247175256,-3.7040411491791163,54.7
,,0.01457012000508908,0.02462381661852764,0.015995840573144345,0.05518977719676106,0.7378919226065086,0.26400034109839027,0.44616626247175256,-3.7040411491791163,54.8
,,0.01457012000508908,0.02462381661852764,0.015995840573144345,0.05518977719676106,0.7348516030286583,0.26400034109839027,0.44616626247175256,-3.7040411491791163,54.9
,,0.01457012000508908,0.02462381661852764,0.015995840573144345,0.05518977719676106,0.731811283450808,0.26400034109839027,0.44616626247175256,-3.7040411491791163,55.0
,,0.01457012000508908,0.02462381661852764,0.015995840573144345,0.05518977719676106,0.7287709638729578,0.26400034109839027,0.44616626247175256,-3.7040411491791163,55.1
,,0.01457012000508908,0.02462381661852764,0.015995840573144345,0.05518977719676106,0.7257306442951075,0.26400034109839027,0.44616626247175256,-3.7040411491791163,55.2
,,0.014699061172582087,0.031286097647390626,0.01039978381049371,0.05638494263046642,0.7213360893066885,0.2606912499479916,0.5548661785901302,-3.4645814447264605,55.3
,,0.014699061172582087,0.031286097647390626,0.01039978381049371,0.05638494263046642,0.7152177702255331,0.2606912499479916,0.5548661785901302,-3.4645814447264605,55.4
,,0.014699061172582087,0.031286097647390626,0.01039978381049371,0.05638494263046642,0.7090994511443777,0.2606912499479916,0.5548661785901302,-3.4645814447264605,55.5
,,0.014699061172582087,0.031286097647390626,0.01039978381049371,0.05638494263046642,0.7029811320632222,0.2606912499479916,0.5548661785901302,-3.4645814447264605,55.6
,,0.015864396251714145,0.027137542328685937,0.01732458173395323,0.06032652031435331,0.6981379793884268,0.2629754901997816,0.44984431701473726,-3.606837183993188,55.7
,,0.015864396251714145,0.027137542328685937,0.01732458173395323,0.06032652031435331,0.692215025286104,0.2629754901997816,0.44984431701473726,-3.606837183993188,55.8
,,0.015864396251714145,0.027137542328685937,0.01732458173395323,0.06032652031435331,0.6862920711837811,0.2629754901997816,0.44984431701473726,-3.606837183993188,55.9
,,0.015864396251714145,0.027137542328685937,0.01732458173395323,0.06032652031435331,0.6803691170814584,0.2629754901997816,0.44984431701473726,-3.606837183993188,56.0
,,0.015864396251714145,0.027137542328685937,0.01732458173395323,0.06032652031435331,0.6744461629791356,0.2629754901997816,0.44984431701473726,-3.606837183993188,56.1
,,0.015864396251714145,0.027137542328685937,0.01732458173395323,0.06032652031435331,0.6685232088768127,0.2629754901997816,0.44984431701473726,-3.606837183993188,56.2
,,0.016099167525937392,0.034818257505664835,0.01094118491913776,0.06185860995073998,0.6630939665570071,0.260257505604437,0.5628684112590268,-3.3576133888102837,56.3
,,0.016099167525937392,0.034818257505664835,0.01094118491913776,0.06185860995073998,0.6576647242372015,0.260257505604437,0.5628684112590268,-3.3576133888102837,56.4
,,0.016099167525937392,0.034818257505664835,0.01094118491913776,0.06185860995073998,0.6522354819173958,0.260257505604437,0.5628684112590268,-3.3576133888102837,56.5
,,0.017415861540512494,0.029792179390770154,0.01887772600164457,0.06608576693292723,0.6481640298657918,0.26353422754688566,0.4508108292214765,-3.5135093564646134,56.6
,,0.017415861540512494,0.029792179390770154,0.01887772600164457,0.06608576693292723,0.6440925778141878,0.26353422754688566,0.4508108292214765,-3.5135093564646134,56.7
,,0.017415861540512494,0.029792179390770154,0.01887772600164457,0.06608576693292723,0.6422220859443561,0.26353422754688566,0.4508108292214765,-3.5135093564646134,56.8
,,0.017415861540512494,0.029792179390770154,0.01887772600164457,0.06608576693292723,0.6403515940745247,0.26353422754688566,0.4508108292214765,-3.5135093564646134,56.9
,,0.017415861540512494,0.029792179390770154,0.01887772600164457,0.06608576693292723,0.638481102204693,0.26353422754688566,0.4508108292214765,-3.5135093564646134,57.0
,,0.017415861540512494,0.029792179390770154,0.01887772600164457,0.06608576693292723,0.6366106103348613,0.26353422754688566,0.4508108292214765,-3.5135093564646134,57.1
,,0.017415861540512494,0.029792179390770154,0.01887772600164457,0.06608576693292723,0.6347401184650298,0.26353422754688566,0.4508108292214765,-3.5135093564646134,57.2
,,0.01759257622542538,0.03785406327570713,0.011960662902708833,0.06740730240384134,0.6301320671206553,0.26098917473402455,0.5615721431621916,-3.2740169527942613,57.3
,,0.01759257622542538,0.03785406327570713,0.011960662902708833,0.06740730240384134,0.6255240157762808,0.26098917473402455,0.5615721431621916,-3.2740169527942613,57.4
,,0.021483470952795326,0.03735385328222636,0.008406178095267024,0.06724350233028871,0.622142482549944,0.3194876859220115,0.5555013047766393,-3.2873192058645015,57.5
,,0.021483470952795326,0.03735385328222636,0.008406178095267024,0.06724350233028871,0.6187609493236074,0.3194876859220115,0.5555013047766393,-3.2873192058645015,57.6
,,0.021483470952795326,0.03735385328222636,0.008406178095267024,0.06724350233028871,0.6174687735947586,0.3194876859220115,0.5555013047766393,-3.2873192058645015,57.7
,,0.021483470952795326,0.03735385328222636,0.008406178095267024,0.06724350233028871,0.6161765978659097,0.3194876859220115,0.5555013047766393,-3.2873192058645015,57.8
,,0.021483470952795326,0.03735385328222636,0.008406178095267024,0.06724350233028871,0.6148844221370611,0.3194876859220115,0.5555013047766393,-3.2873192058645015,57.9
,,0.021483470952795326,0.03735385328222636,0.008406178095267024,0.06724350233028871,0.6135922464082123,0.3194876859220115,0.5555013047766393,-3.2873192058645015,58.0
,,0.021483470952795326,0.03735385328222636,0.008406178095267024,0.06724350233028871,0.6123000706793635,0.3194876859220115,0.5555013047766393,-3.2873192058645015,58.1
,,0.019262889844496943,0.0416741719907514,0.012889924146170118,0.07382698598141846,0.608453129053107,0.26091935880120076,0.5644842659734258,-3.1778737187909725,58.2
,,0.019262889844496943,0.0416741719907514,0.012889924146170118,0.07382698598141846,0.6046061874268505,0.26091935880120076,0.5644842659734258,-3.1778737187909725,58.3
,,0.020323500507332858,0.04818435201318478,0.009496272195917602,0.07800412471643524,0.6003099149482214,0.2605439209941004,0.6177154373354885,-3.032720957664199,58.4
,,0.020323500507332858,0.04818435201318478,0.009496272195917602,0.07800412471643524,0.5960136424695922,0.2605439209941004,0.6177154373354885,-3.032720957664199,58.5
,,0.020323500507332858,0.04818435201318478,0.009496272195917602,0.07800412471643524,0.5917173699909632,0.2605439209941004,0.6177154373354885,-3.032720957664199,58.6
,,0.020323500507332858,0.04818435201318478,0.009496272195917602,0.07800412471643524,0.5892697862415466,0.2605439209941004,0.6177154373354885,-3.032720957664199,58.7
,,0.020323500507332858,0.04818435201318478,0.009496272195917602,0.07800412471643524,0.5868222024921299,0.2605439209941004,0.6177154373354885,-3.032720957664199,58.8
,,0.020323500507332858,0.04818435201318478,0.009496272195917602,0.07800412471643524,0.5843746187427132,0.2605439209941004,0.6177154373354885,-3.032720957664199,58.9
,,0.020323500507332858,0.04818435201318478,0.009496272195917602,0.07800412471643524,0.5819270349932966,0.2605439209941004,0.6177154373354885,-3.032720957664199,59.0
,,0.019872853844442245,0.04352155644473985,0.012962634806113742,0.07635704509529584,0.5785802167667623,0.2602622170572517,0.5699743408145728,-3.134498913178286,59.1
,,0.019872853844442245,0.04352155644473985,0.012962634806113742,0.07635704509529584,0.5752333985402278,0.2602622170572517,0.5699743408145728,-3.134498913178286,59.2
,,0.02094738037832705,0.050054507998166436,0.009939088705495397,0.08094097708198889,0.5714629186349262,0.25879821486598154,0.6184075088130441,-2.9946427073835213,59.3
,,0.02094738037832705,0.050054507998166436,0.009939088705495397,0.08094097708198889,0.5676924387296243,0.25879821486598154,0.6184075088130441,-2.9946427073835213,59.4
,,0.02094738037832705,0.050054507998166436,0.009939088705495397,0.08094097708198889,0.5639219588243225,0.25879821486598154,0.6184075088130441,-2.9946427073835213,59.5
,,0.02094738037832705,0.050054507998166436,0.009939088705495397,0.08094097708198889,0.5601514789190207,0.25879821486598154,0.6184075088130441,-2.9946427073835213,59.6
,,0.02094738037832705,0.050054507998166436,0.009939088705495397,0.08094097708198889,0.5580616047330647,0.25879821486598154,0.6184075088130441,-2.9946427073835213,59.7
,,0.02094738037832705,0.050054507998166436,0.009939088705495397,0.08094097708198889,0.5559717305471086,0.25879821486598154,0.6184075088130441,-2.9946427073835213,59.8
,,0.02094738037832705,0.050054507998166436,0.009939088705495397,0.08094097708198889,0.5538818563611526,0.25879821486598154,0.6184075088130441,-2.9946427073835213,59.9
,,0.020276063595334442,0.030448772544965162,0.011522358353338534,0.062247194493638136,0.5545410492407272,0.3257345774419877,0.4891589539521677,-3.4917095961488966,60.0
,,0.020276063595334442,0.030448772544965162,0.011522358353338534,0.062247194493638136,0.5540758205381059,0.3257345774419877,0.4891589539521677,-3.4917095961488966,60.1
,,0.02092321392185837,0.050569384516931375,0.01023723109619583,0.08172982953498557,0.5508088715147158,0.25600461962179794,0.6187384068295952,-2.984408934877276,60.2
,,0.02092321392185837,0.050569384516931375,0.01023723109619583,0.08172982953498557,0.5475419224913258,0.25600461962179794,0.6187384068295952,-2.984408934877276,60.3
,,0.02092321392185837,0.050569384516931375,0.01023723109619583,0.08172982953498557,0.5442749734679359,0.25600461962179794,0.6187384068295952,-2.984408934877276,60.4
,,0.02092321392185837,0.050569384516931375,0.01023723109619583,0.08172982953498557,0.5410080244445459,0.25600461962179794,0.6187384068295952,-2.984408934877276,60.5
,,0.02092321392185837,0.050569384516931375,0.01023723109619583,0.08172982953498557,0.5393860593041508,0.25600461962179794,0.6187384068295952,-2.984408934877276,60.6
,,0.02092321392185837,0.050569384516931375,0.01023723109619583,0.08172982953498557,0.5377640941637559,0.25600461962179794,0.6187384068295952,-2.984408934877276,60.7
,,0.02092321392185837,0.050569384516931375,0.01023723109619583,0.08172982953498557,0.536142129023361,0.25600461962179794,0.6187384068295952,-2.984408934877276,60.8
,,0.02092321392185837,0.050569384516931375,0.01023723109619583,0.08172982953498557,0.5333638140695793,0.25600461962179794,0.6187384068295952,-2.984408934877276,60.9
,,0.020885532913128266,0.050955235096686924,0.011151266454924902,0.08299203446474009,0.530542470566464,0.251657078270586,0.6139774187405385,-2.9768077749021558,61.0
,,0.020885532913128266,0.050955235096686924,0.011151266454924902,0.08299203446474009,0.5277211270633486,0.251657078270586,0.6139774187405385,-2.9768077749021558,61.1
,,0.020885532913128266,0.050955235096686924,0.011151266454924902,0.08299203446474009,0.5248997835602334,0.251657078270586,0.6139774187405385,-2.9768077749021558,61.2
,,0.020885532913128266,0.050955235096686924,0.011151266454924902,0.08299203446474009,0.5220784400571181,0.251657078270586,0.6139774187405385,-2.9768077749021558,61.3
,,0.020885532913128266,0.050955235096686924,0.011151266454924902,0.08299203446474009,0.5192570965540028,0.251657078270586,0.6139774187405385,-2.9768077749021558,61.4
,,0.020885532913128266,0.050955235096686924,0.011151266454924902,0.08299203446474009,0.5171992854852041,0.251657078270586,0.6139774187405385,-2.9768077749021558,61.5
,,0.020885532913128266,0.050955235096686924,0.011151266454924902,0.08299203446474009,0.5151414744164056,0.251657078270586,0.6139774187405385,-2.9768077749021558,61.6
,,0.020885532913128266,0.050955235096686924,0.011151266454924902,0.08299203446474009,0.5130836633476069,0.251657078270586,0.6139774187405385,-2.9768077749021558,61.7
,,0.020885532913128266,0.050955235096686924,0.011151266454924902,0.08299203446474009,0.5110258522788083,0.251657078270586,0.6139774187405385,-2.9768077749021558,61.8
,,0.021745451175787998,0.04315546341425454,0.020601969532099144,0.08550288412214167,0.5096167080636428,0.2543241833190611,0.5047252365499924,-3.1429462550005542,61.9
,,0.021178515587356603,0.05245631493371239,0.012606296753125685,0.08624112727419468,0.5070947843225365,0.24557326946830968,0.6082517308352545,-2.947774552269732,62.0
,,0.021178515587356603,0.05245631493371239,0.012606296753125685,0.08624112727419468,0.5045728605814301,0.24557326946830968,0.6082517308352545,-2.947774552269732,62.1
,,0.021178515587356603,0.05245631493371239,0.012606296753125685,0.08624112727419468,0.5020509368403238,0.24557326946830968,0.6082517308352545,-2.947774552269732,62.2
,,0.021178515587356603,0.05245631493371239,0.012606296753125685,0.08624112727419468,0.4995290130992173,0.24557326946830968,0.6082517308352545,-2.947774552269732,62.3
,,0.021178515587356603,0.05245631493371239,0.012606296753125685,0.08624112727419468,0.49700708935811094,0.24557326946830968,0.6082517308352545,-2.947774552269732,62.4
,,0.021178515587356603,0.05245631493371239,0.012606296753125685,0.08624112727419468,0.49511267026745365,0.24557326946830968,0.6082517308352545,-2.947774552269732,62.5
,,0.021178515587356603,0.05245631493371239,0.012606296753125685,0.08624112727419468,0.4932182511767963,0.24557326946830968,0.6082517308352545,-2.947774552269732,62.6
,,0.021178515587356603,0.05245631493371239,0.012606296753125685,0.08624112727419468,0.49132383208613906,0.24557326946830968,0.6082517308352545,-2.947774552269732,62.7
,,0.022018343496199997,0.04466652893685364,0.022513108893281935,0.08919798132633558,0.49008208198164943,0.24684800226189774,0.5007571726700715,-3.108530851207366,62.8
,,0.021133442267128866,0.054147069205771274,0.014226472711845038,0.08950698418474518,0.48769974918498055,0.23610942162355497,0.604947979187971,-2.9160514306236727,62.9
,,0.021133442267128866,0.054147069205771274,0.014226472711845038,0.08950698418474518,0.48531741638831155,0.23610942162355497,0.604947979187971,-2.9160514306236727,63.0
,,0.021133442267128866,0.054147069205771274,0.014226472711845038,0.08950698418474518,0.4829350835916425,0.23610942162355497,0.604947979187971,-2.9160514306236727,63.1
,,0.021133442267128866,0.054147069205771274,0.014226472711845038,0.08950698418474518,0.48055275079497367,0.23610942162355497,0.604947979187971,-2.9160514306236727,63.2
,,0.021133442267128866,0.054147069205771274,0.014226472711845038,0.08950698418474518,0.4781704179983046,0.23610942162355497,0.604947979187971,-2.9160514306236727,63.3
,,0.021133442267128866,0.054147069205771274,0.014226472711845038,0.08950698418474518,0.4771922100080536,0.23610942162355497,0.604947979187971,-2.9160514306236727,63.4
,,0.021133442267128866,0.054147069205771274,0.014226472711845038,0.08950698418474518,0.47621400201780273,0.23610942162355497,0.604947979187971,-2.9160514306236727,63.5
,,0.01743045342293267,0.026650756433763686,0.017975159313776537,0.06205636917047289,0.4781661846343285,0.2808809741196762,0.4294604532945252,-3.6249377447669597,63.6
,,0.01743045342293267,0.026650756433763686,0.017975159313776537,0.06205636917047289,0.4788586711414334,0.2808809741196762,0.4294604532945252,-3.6249377447669597,63.7
,,0.01743045342293267,0.026650756433763686,0.017975159313776537,0.06205636917047289,0.47955115764853823,0.2808809741196762,0.4294604532945252,-3.6249377447669597,63.8
,,0.017207055556506385,0.03235316200585854,0.012946744894608066,0.06250696245697299,0.47888607296906416,0.27528222265401164,0.5175929325973729,-3.4310435191995032,63.9
,,0.017207055556506385,0.03235316200585854,0.012946744894608066,0.06250696245697299,0.4782209882895899,0.27528222265401164,0.5175929325973729,-3.4310435191995032,64.0
,,0.017207055556506385,0.03235316200585854,0.012946744894608066,0.06250696245697299,0.4775559036101157,0.27528222265401164,0.5175929325973729,-3.4310435191995032,64.1
,,0.017207055556506385,0.03235316200585854,0.012946744894608066,0.06250696245697299,0.47689081893064156,0.27528222265401164,0.5175929325973729,-3.4310435191995032,64.2
,,0.017207055556506385,0.03235316200585854,0.012946744894608066,0.06250696245697299,0.4775799696617362,0.27528222265401164,0.5175929325973729,-3.4310435191995032,64.3
,,0.017207055556506385,0.03235316200585854,0.012946744894608066,0.06250696245697299,0.47826912039283087,0.27528222265401164,0.5175929325973729,-3.4310435191995032,64.4
,,0.021802675375495035,0.04930804921715876,0.026813486518826177,0.09792421111147998,0.47796184811025505,0.22264846586993883,0.5035327694498855,-3.009667941135685,64.5
,,0.021802675375495035,0.04930804921715876,0.026813486518826177,0.09792421111147998,0.4776545758276792,0.22264846586993883,0.5035327694498855,-3.009667941135685,64.6
,,0.021802675375495035,0.04930804921715876,0.026813486518826177,0.09792421111147998,0.4760721371387433,0.22264846586993883,0.5035327694498855,-3.009667941135685,64.7
,,0.010367996234153938,0.03246368494460951,0.014104650555571842,0.05693633173433529,0.4731252472028009,0.18209807197504346,0.5701752107263415,-3.427633200707675,64.8
,,0.010367996234153938,0.03246368494460951,0.014104650555571842,0.05693633173433529,0.4701783572668586,0.18209807197504346,0.5701752107263415,-3.427633200707675,64.9
,,0.010367996234153938,0.03246368494460951,0.014104650555571842,0.05693633173433529,0.46723146733091614,0.18209807197504346,0.5701752107263415,-3.427633200707675,65.0
,,0.010367996234153938,0.03246368494460951,0.014104650555571842,0.05693633173433529,0.46428457739497375,0.18209807197504346,0.5701752107263415,-3.427633200707675,65.1
,,0.010367996234153938,0.03246368494460951,0.014104650555571842,0.05693633173433529,0.46133768745903136,0.18209807197504346,0.5701752107263415,-3.427633200707675,65.2
,,0.010367996234153938,0.03246368494460951,0.014104650555571842,0.05693633173433529,0.4597487425291281,0.18209807197504346,0.5701752107263415,-3.427633200707675,65.3
,,0.021650007551748757,0.05433833572221003,0.02977305804489351,0.1057614013188523,0.4590382151885141,0.20470613363449805,0.5137822971765414,-2.912525302574596,65.4
,,0.021650007551748757,0.05433833572221003,0.02977305804489351,0.1057614013188523,0.4583276878479002,0.20470613363449805,0.5137822971765414,-2.912525302574596,65.5
,,0.021650007551748757,0.05433833572221003,0.02977305804489351,0.1057614013188523,0.4562593702390846,0.20470613363449805,0.5137822971765414,-2.912525302574596,65.6
,,0.021650007551748757,0.05433833572221003,0.02977305804489351,0.1057614013188523,0.4541910526302689,0.20470613363449805,0.5137822971765414,-2.912525302574596,65.7
,,0.010175616892098498,0.03579558836352998,0.016240843421285525,0.062212048676914,0.4508542953049825,0.16356344323176938,0.5753803181989281,-3.329930623237926,65.8
,,0.010175616892098498,0.03579558836352998,0.016240843421285525,0.062212048676914,0.4475175379796962,0.16356344323176938,0.5753803181989281,-3.329930623237926,65.9
,,0.010175616892098498,0.03579558836352998,0.016240843421285525,0.062212048676914,0.4441807806544098,0.16356344323176938,0.5753803181989281,-3.329930623237926,66.0
,,0.010175616892098498,0.03579558836352998,0.016240843421285525,0.062212048676914,0.4408440233291234,0.16356344323176938,0.5753803181989281,-3.329930623237926,66.1
,,0.020129323952080724,0.05832567898266078,0.031173877187439622,0.10962888012218112,0.4381833690175224,0.18361333190347873,0.5320284118350652,-2.8417128197765953,66.2
,,0.020129323952080724,0.05832567898266078,0.031173877187439622,0.10962888012218112,0.436854169505311,0.18361333190347873,0.5320284118350652,-2.8417128197765953,66.3
,,0.020129323952080724,0.05832567898266078,0.031173877187439622,0.10962888012218112,0.4355249699930996,0.18361333190347873,0.5320284118350652,-2.8417128197765953,66.4
,,0.020129323952080724,0.05832567898266078,0.031173877187439622,0.10962888012218112,0.43296925236285044,0.18361333190347873,0.5320284118350652,-2.8417128197765953,66.5
,,0.018994535467027104,0.07379081557723696,0.021754151804366934,0.114539502848631,0.42943899199453833,0.16583392624053223,0.6442390069979156,-2.6065210052932164,66.6
,,0.020129323952080724,0.05832567898266078,0.031173877187439622,0.10962888012218112,0.42688327436428913,0.18361333190347873,0.5320284118350652,-2.8417128197765953,66.7
,,0.018898479860896655,0.07397361226171181,0.022619073954503268,0.11549116607711174,0.423331518432382,0.16363571780267955,0.6405131645507911,-2.6040468404296253,66.8
,,0.018898479860896655,0.07397361226171181,0.022619073954503268,0.11549116607711174,0.4197797625004747,0.16363571780267955,0.6405131645507911,-2.6040468404296253,66.9
,,0.018898479860896655,0.07397361226171181,0.022619073954503268,0.11549116607711174,0.4162280065685674,0.16363571780267955,0.6405131645507911,-2.6040468404296253,67.0
,,0.018157559170153825,0.07846783528837915,0.01716943972156404,0.11379483418009702,0.41240875438713126,0.1595640021885073,0.6895553374961845,-2.54506647971009,67.1
,,0.018157559170153825,0.07846783528837915,0.01716943972156404,0.11379483418009702,0.40984403443672407,0.1595640021885073,0.6895553374961845,-2.54506647971009,67.2
,,0.018157559170153825,0.07846783528837915,0.01716943972156404,0.11379483418009702,0.407279314486317,0.1595640021885073,0.6895553374961845,-2.54506647971009,67.3
,,0.018157559170153825,0.07846783528837915,0.01716943972156404,0.11379483418009702,0.4051639253882824,0.1595640021885073,0.6895553374961845,-2.54506647971009,67.4
,,0.018157559170153825,0.07846783528837915,0.01716943972156404,0.11379483418009702,0.4030485362902478,0.1595640021885073,0.6895553374961845,-2.54506647971009,67.5
,,0.018157559170153825,0.07846783528837915,0.01716943972156404,0.11379483418009702,0.4009331471922131,0.1595640021885073,0.6895553374961845,-2.54506647971009,67.6
,,0.017167592432068935,0.08013804135353549,0.02385453492165924,0.12116016870726365,0.39862691315112714,0.14169336849924447,0.6614223321788024,-2.524004614383071,67.7
,,0.017167592432068935,0.08013804135353549,0.02385453492165924,0.12116016870726365,0.3963206791100412,0.14169336849924447,0.6614223321788024,-2.524004614383071,67.8
,,0.017167592432068935,0.08013804135353549,0.02385453492165924,0.12116016870726365,0.3940144450689552,0.14169336849924447,0.6614223321788024,-2.524004614383071,67.9
,,0.01635430762046736,0.08437496678679615,0.017810899794367823,0.11854017420163133,0.3914815849307455,0.1379642617417572,0.7117837252649742,-2.472484523427492,68.0
,,0.01635430762046736,0.08437496678679615,0.017810899794367823,0.11854017420163133,0.38856167350022475,0.1379642617417572,0.7117837252649742,-2.472484523427492,68.1
,,0.01635430762046736,0.08437496678679615,0.017810899794367823,0.11854017420163133,0.38564176206970413,0.1379642617417572,0.7117837252649742,-2.472484523427492,68.2
,,0.01635430762046736,0.08437496678679615,0.017810899794367823,0.11854017420163133,0.38314551231795085,0.1379642617417572,0.7117837252649742,-2.472484523427492,68.3
,,0.01635430762046736,0.08437496678679615,0.017810899794367823,0.11854017420163133,0.3806492625661976,0.1379642617417572,0.7117837252649742,-2.472484523427492,68.4
,,0.01635430762046736,0.08437496678679615,0.017810899794367823,0.11854017420163133,0.37815301281444447,0.1379642617417572,0.7117837252649742,-2.472484523427492,68.5
,,0.015416314001146052,0.08734417409369802,0.024301319831245862,0.12706180792608993,0.3754642282055476,0.12132925111622453,0.6874148536002643,-2.4378989407488754,68.6
,,0.015416314001146052,0.08734417409369802,0.024301319831245862,0.12706180792608993,0.3727754435966507,0.12132925111622453,0.6874148536002643,-2.4378989407488754,68.7
,,0.015416314001146052,0.08734417409369802,0.024301319831245862,0.12706180792608993,0.3700866589877539,0.12132925111622453,0.6874148536002643,-2.4378989407488754,68.8
,,0.014847182563647157,0.09180479079994747,0.01813244379903716,0.12478441716263178,0.36723370554119417,0.11898266547414166,0.7357071731184038,-2.388090795354143,68.9
,,0.014847182563647157,0.09180479079994747,0.01813244379903716,0.12478441716263178,0.3616316850291037,0.11898266547414166,0.7357071731184038,-2.388090795354143,69.0
,,0.014847182563647157,0.09180479079994747,0.01813244379903716,0.12478441716263178,0.3560296645170133,0.11898266547414166,0.7357071731184038,-2.388090795354143,69.1
,,0.014847182563647157,0.09180479079994747,0.01813244379903716,0.12478441716263178,0.3532293643256914,0.11898266547414166,0.7357071731184038,-2.388090795354143,69.2
,,0.014847182563647157,0.09180479079994747,0.01813244379903716,0.12478441716263178,0.3504290641343696,0.11898266547414166,0.7357071731184038,-2.388090795354143,69.3
,,0.014847182563647157,0.09180479079994747,0.01813244379903716,0.12478441716263178,0.34762876394304776,0.11898266547414166,0.7357071731184038,-2.388090795354143,69.4
,,0.014847182563647157,0.09180479079994747,0.01813244379903716,0.12478441716263178,0.34482846375172593,0.11898266547414166,0.7357071731184038,-2.388090795354143,69.5
,,0.013980691466631015,0.09549304397201622,0.024591197955998144,0.13406493339464537,0.3418579387169658,0.10428298521192128,0.7122894969925839,-2.3487018721376267,69.6
,,0.013980691466631015,0.09549304397201622,0.024591197955998144,0.13406493339464537,0.33888741368220565,0.10428298521192128,0.7122894969925839,-2.3487018721376267,69.7
,,0.013756089083885873,0.10016379969498476,0.018561011466363485,0.13248090024523412,0.33581611749280615,0.10383450790583479,0.7560621909239182,-2.300948436098065,69.8
,,0.013756089083885873,0.10016379969498476,0.018561011466363485,0.13248090024523412,0.33274482130340666,0.10383450790583479,0.7560621909239182,-2.300948436098065,69.9
,,0.013756089083885873,0.10016379969498476,0.018561011466363485,0.13248090024523412,0.32971655366334074,0.10383450790583479,0.7560621909239182,-2.300948436098065,70.0
,,0.013756089083885873,0.10016379969498476,0.018561011466363485,0.13248090024523412,0.32668828602327493,0.10383450790583479,0.7560621909239182,-2.300948436098065,70.1
,,0.013756089083885873,0.10016379969498476,0.018561011466363485,0.13248090024523412,0.32366001838320907,0.10383450790583479,0.7560621909239182,-2.300948436098065,70.2
