HRV_ULF,HRV_VLF,HRV_LF,HRV_HF,HRV_VHF,HRV_TP,HRV_LFHF,HRV_LFn,HRV_HFn,HRV_LnHF,time
,,0.035730851666095055,0.014830919072720614,0.003949202897858542,0.05451097363667421,2.409213582172188,0.6554799755412155,0.27207217342275797,-4.21104115086719,0.0
,,0.035730851666095055,0.014830919072720614,0.003949202897858542,0.05451097363667421,2.409213582172188,0.6554799755412155,0.27207217342275797,-4.21104115086719,0.1
,,0.02805097892891876,0.014625610127225712,0.007534389281060259,0.05021097833720473,2.245454268323732,0.558662265860171,0.2912831140035485,-4.224981168633489,0.2
,,0.02805097892891876,0.014625610127225712,0.007534389281060259,0.05021097833720473,2.163574611399504,0.558662265860171,0.2912831140035485,-4.224981168633489,0.3
,,0.04061744527316428,0.016024619747340794,0.008440913111660455,0.06508297813216553,2.237797712156369,0.6240870722092877,0.2462182925126632,-4.133629005172017,0.4
,,0.04061744527316428,0.016024619747340794,0.008440913111660455,0.06508297813216553,2.287279779327612,0.6240870722092877,0.2462182925126632,-4.133629005172017,0.5
,,0.04061744527316428,0.016024619747340794,0.008440913111660455,0.06508297813216553,2.3226241130213574,0.6240870722092877,0.2462182925126632,-4.133629005172017,0.6
,,0.04061744527316428,0.016024619747340794,0.008440913111660455,0.06508297813216553,2.349132363291666,0.6240870722092877,0.2462182925126632,-4.133629005172017,0.7
,,0.03604904340131946,0.017614513677724333,0.005188601119094698,0.05885215819813849,2.3155124819182067,0.6125356232468583,0.29930106587461536,-4.0390320759876355,0.8
,,0.03604904340131946,0.017614513677724333,0.005188601119094698,0.05885215819813849,2.2886165768194386,0.6125356232468583,0.29930106587461536,-4.0390320759876355,0.9
,,0.04271932879882086,0.017669768004596534,0.00921406263745196,0.06960315944086935,2.300346960985178,0.6137555987686539,0.2538644530871864,-4.035900122074779,1.0
,,0.04271932879882086,0.017669768004596534,0.00921406263745196,0.06960315944086935,2.310122281123294,0.6137555987686539,0.2538644530871864,-4.035900122074779,1.1
,,0.04271932879882086,0.017669768004596534,0.00921406263745196,0.06960315944086935,2.3183937058555464,0.6137555987686539,0.2538644530871864,-4.035900122074779,1.2
,,0.04271932879882086,0.017669768004596534,0.00921406263745196,0.06960315944086935,2.325483498483191,0.6137555987686539,0.2538644530871864,-4.035900122074779,1.3
,,0.03690160862087807,0.020542031773016747,0.006405622201241629,0.06384926259513644,2.2902109496179057,0.5779488614436865,0.32172700103480106,-3.885282161505384,1.4
,,0.04415454873682055,0.017789476107838053,0.008964633718911945,0.07090865856357055,2.3022015211291005,0.6226961506715772,0.2508787568148614,-4.029148226426151,1.5
,,0.03690160862087807,0.020542031773016747,0.006405622201241629,0.06384926259513644,2.2724482119746776,0.5779488614436865,0.32172700103480106,-3.885282161505384,1.6
,,0.037803574037382964,0.023352232537600808,0.007326943839154701,0.06848275041413848,2.236136753878591,0.5520160012378577,0.3409943729827134,-3.7570626875490705,1.7
,,0.037803574037382964,0.023352232537600808,0.007326943839154701,0.06848275041413848,2.2036475545294607,0.5520160012378577,0.3409943729827134,-3.7570626875490705,1.8
,,0.037803574037382964,0.023352232537600808,0.007326943839154701,0.06848275041413848,2.174407275115244,0.5520160012378577,0.3409943729827134,-3.7570626875490705,1.9
,,0.03812248544918935,0.02386940537449057,0.007945645463847316,0.06993753628752725,2.1469177654397886,0.5450933429004442,0.3412960570466574,-3.735157749939145,2.0
,,0.03812248544918935,0.02386940537449057,0.007945645463847316,0.06993753628752725,2.1219273020984657,0.5450933429004442,0.3412960570466574,-3.735157749939145,2.1
,,0.03812248544918935,0.02386940537449057,0.007945645463847316,0.06993753628752725,2.0991099225259533,0.5450933429004442,0.3412960570466574,-3.735157749939145,2.2
,,0.035597687137763526,0.020815461245659472,0.010770810269604702,0.0671839586530277,2.0829035114808883,0.52985396888576,0.30982784675075714,-3.8720592392888804,2.3
,,0.035597687137763526,0.020815461245659472,0.010770810269604702,0.0671839586530277,2.0679936133194285,0.52985396888576,0.30982784675075714,-3.8720592392888804,2.4
,,0.035597687137763526,0.020815461245659472,0.010770810269604702,0.0671839586530277,2.054230630401158,0.52985396888576,0.30982784675075714,-3.8720592392888804,2.5
,,0.035597687137763526,0.020815461245659472,0.010770810269604702,0.0671839586530277,2.0414871276990554,0.52985396888576,0.30982784675075714,-3.8720592392888804,2.6
,,0.05129955235780887,0.020891832098166037,0.010432149128157379,0.08262353358413228,2.0562727181611087,0.6208830599767627,0.25285570819714104,-3.8683970050971834,2.7
,,0.05129955235780887,0.020891832098166037,0.010432149128157379,0.08262353358413228,2.070038612729227,0.6208830599767627,0.25285570819714104,-3.8683970050971834,2.8
,,0.03918639714841543,0.022389944011545555,0.01164572035714672,0.0732220615171077,2.0593766067729873,0.5351720005760815,0.3057813935805992,-3.7991433489755133,2.9
,,0.03918639714841543,0.022389944011545555,0.01164572035714672,0.0732220615171077,2.0494024721687625,0.5351720005760815,0.3057813935805992,-3.7991433489755133,3.0
,,0.03918639714841543,0.022389944011545555,0.01164572035714672,0.0732220615171077,2.040051720977302,0.5351720005760815,0.3057813935805992,-3.7991433489755133,3.1
,,0.03918639714841543,0.022389944011545555,0.01164572035714672,0.0732220615171077,2.0312676819792634,0.5351720005760815,0.3057813935805992,-3.7991433489755133,3.2
,,0.056975494714700856,0.022666824031549473,0.011364355081939847,0.09100667382819018,2.045454141801474,0.6260584231686551,0.24906771204869824,-3.7868529199298804,3.3
,,0.056975494714700856,0.022666824031549473,0.011364355081939847,0.09100667382819018,2.058829946776701,0.6260584231686551,0.24906771204869824,-3.7868529199298804,3.4
,,0.04364906293654666,0.023952212749424634,0.012597711368399583,0.08019898705437088,2.0522607671555084,0.5442595292002228,0.298659791465773,-3.7316945690203043,3.5
,,0.04364906293654666,0.023952212749424634,0.012597711368399583,0.08019898705437088,2.0460466783246507,0.5442595292002228,0.298659791465773,-3.7316945690203043,3.6
,,0.04364906293654666,0.023952212749424634,0.012597711368399583,0.08019898705437088,2.04015964680068,0.5442595292002228,0.298659791465773,-3.7316945690203043,3.7
,,0.04364906293654666,0.023952212749424634,0.012597711368399583,0.08019898705437088,2.034574514329221,0.5442595292002228,0.298659791465773,-3.7316945690203043,3.8
,,0.06037389632514077,0.02310472900066331,0.011675481496272486,0.09515410682207656,2.049036492588655,0.6344854504076277,0.24281378673298437,-3.7677179637629576,3.9
,,0.06037389632514077,0.02310472900066331,0.011675481496272486,0.09515410682207656,2.06279300849397,0.6344854504076277,0.24281378673298437,-3.7677179637629576,4.0
,,0.0614794136756827,0.023148892518125377,0.012372849884464687,0.09700115607827277,2.0769128241963184,0.6338008345598826,0.23864553221866686,-3.7658083389840664,4.1
,,0.0614794136756827,0.023148892518125377,0.012372849884464687,0.09700115607827277,2.090375904284605,0.6338008345598826,0.23864553221866686,-3.7658083389840664,4.2
,,0.0614794136756827,0.023148892518125377,0.012372849884464687,0.09700115607827277,2.1032270261870596,0.6338008345598826,0.23864553221866686,-3.7658083389840664,4.3
,,0.0614794136756827,0.023148892518125377,0.012372849884464687,0.09700115607827277,2.115506987116072,0.6338008345598826,0.23864553221866686,-3.7658083389840664,4.4
,,0.054437296395297215,0.0454660397649075,0.02076563834303991,0.12066897450324462,2.0955463515086943,0.45112918726124973,0.3767831785434207,-3.090789610497801,4.5
,,0.054437296395297215,0.0454660397649075,0.02076563834303991,0.12066897450324462,2.0764351046505665,0.45112918726124973,0.3767831785434207,-3.090789610497801,4.6
,,0.054437296395297215,0.0454660397649075,0.02076563834303991,0.12066897450324462,2.058120159744861,0.45112918726124973,0.3767831785434207,-3.090789610497801,4.7
,,0.06154239732314442,0.021756164171077497,0.011918773704631002,0.09521733519885292,2.0738469690805514,0.646336060493802,0.22848953003821926,-3.8278581514360357,4.8
,,0.06154239732314442,0.021756164171077497,0.011918773704631002,0.09521733519885292,2.088944706042814,0.646336060493802,0.22848953003821926,-3.8278581514360357,4.9
,,0.06154239732314442,0.021756164171077497,0.011918773704631002,0.09521733519885292,2.1034503748889093,0.646336060493802,0.22848953003821926,-3.8278581514360357,5.0
,,0.06154239732314442,0.021756164171077497,0.011918773704631002,0.09521733519885292,2.1173981333947705,0.646336060493802,0.22848953003821926,-3.8278581514360357,5.1
,,0.056663803190041565,0.04791968882416225,0.02407600198963257,0.12865949400383636,2.099758062126309,0.4404168042845868,0.37245357752404484,-3.0382288188487347,5.2
,,0.056663803190041565,0.04791968882416225,0.02407600198963257,0.12865949400383636,2.0827713268307537,0.4404168042845868,0.37245357752404484,-3.0382288188487347,5.3
,,0.05724026175907066,0.047591009859336085,0.02556282791629531,0.13039409953470205,2.0667710057943145,0.4389789259124965,0.364978246938778,-3.045111404084007,5.4
,,0.05724026175907066,0.047591009859336085,0.02556282791629531,0.13039409953470205,2.0513421247948913,0.4389789259124965,0.364978246938778,-3.045111404084007,5.5
,,0.05724026175907066,0.047591009859336085,0.02556282791629531,0.13039409953470205,2.0364546080410615,0.4389789259124965,0.364978246938778,-3.045111404084007,5.6
,,0.05724026175907066,0.047591009859336085,0.02556282791629531,0.13039409953470205,2.0220804539339157,0.4389789259124965,0.364978246938778,-3.045111404084007,5.7
,,0.06003952982780415,0.019483559151206382,0.010508619201427276,0.0900317081804378,2.0400375371558157,0.6668709395969187,0.21640774728119389,-3.9381842894893424,5.8
,,0.06003952982780415,0.019483559151206382,0.010508619201427276,0.0900317081804378,2.0573960509369855,0.6668709395969187,0.21640774728119389,-3.9381842894893424,5.9
,,0.06003952982780415,0.019483559151206382,0.010508619201427276,0.0900317081804378,2.0741854331187732,0.6668709395969187,0.21640774728119389,-3.9381842894893424,6.0
,,0.0597951752847982,0.018433297182783963,0.008893944126275966,0.08712241659385812,2.0930512743384293,0.6863351319046582,0.21157926861366994,-3.993596620274841,6.1
,,0.0597951752847982,0.018433297182783963,0.008893944126275966,0.08712241659385812,2.1113181999638106,0.6863351319046582,0.21157926861366994,-3.993596620274841,6.2
,,0.0597951752847982,0.018433297182783963,0.008893944126275966,0.08712241659385812,2.1290142841633983,0.6863351319046582,0.21157926861366994,-3.993596620274841,6.3
,,0.05510112003065212,0.04411536329291316,0.0270838096584824,0.12630029298204767,2.1154759625122743,0.43627072217864293,0.3492894770971253,-3.1209471832085045,6.4
,,0.05510112003065212,0.04411536329291316,0.0270838096584824,0.12630029298204767,2.102347893032396,0.43627072217864293,0.3492894770971253,-3.1209471832085045,6.5
,,0.05510112003065212,0.04411536329291316,0.0270838096584824,0.12630029298204767,2.0896117062235597,0.43627072217864293,0.3492894770971253,-3.1209471832085045,6.6
,,0.05510112003065212,0.04411536329291316,0.0270838096584824,0.12630029298204767,2.077250113144394,0.43627072217864293,0.3492894770971253,-3.1209471832085045,6.7
,,0.059525079954674466,0.01716758086065655,0.008635781379460361,0.08532844219479138,2.097395701914427,0.6975995157486655,0.20119412026139738,-4.064732507379673,6.8
,,0.059525079954674466,0.01716758086065655,0.008635781379460361,0.08532844219479138,2.1169657024338875,0.6975995157486655,0.20119412026139738,-4.064732507379673,6.9
,,0.05953982735562961,0.01720937673394702,0.009925066282157892,0.08667427037173453,2.1358779005091177,0.6869377394268349,0.19855231154687855,-4.0623008847574775,7.0
,,0.05953982735562961,0.01720937673394702,0.009925066282157892,0.08667427037173453,2.1542647597489246,0.6869377394268349,0.19855231154687855,-4.0623008847574775,7.1
,,0.05953982735562961,0.01720937673394702,0.009925066282157892,0.08667427037173453,2.172147869420518,0.6869377394268349,0.19855231154687855,-4.0623008847574775,7.2
,,0.05953982735562961,0.01720937673394702,0.009925066282157892,0.08667427037173453,2.1895476518036894,0.6869377394268349,0.19855231154687855,-4.0623008847574775,7.3
,,0.05953982735562961,0.01720937673394702,0.009925066282157892,0.08667427037173453,2.206483439989977,0.6869377394268349,0.19855231154687855,-4.0623008847574775,7.4
,,0.059639182768028334,0.016285474873476057,0.00847906380738321,0.0844037214488876,2.2256364068059034,0.7065942323899079,0.19294735580276587,-4.1174816805024825,7.5
,,0.059870502297993906,0.016528062878280993,0.009833887731367383,0.08623245290764228,2.2437756023142614,0.6942920012042001,0.19166870848476358,-4.102695562263047,7.6
,,0.059870502297993906,0.016528062878280993,0.009833887731367383,0.08623245290764228,2.2614496902454815,0.6942920012042001,0.19166870848476358,-4.102695562263047,7.7
,,0.059870502297993906,0.016528062878280993,0.009833887731367383,0.08623245290764228,2.2786763329126196,0.6942920012042001,0.19166870848476358,-4.102695562263047,7.8
,,0.059870502297993906,0.016528062878280993,0.009833887731367383,0.08623245290764228,2.2954723095130802,0.6942920012042001,0.19166870848476358,-4.102695562263047,7.9
,,0.059870502297993906,0.016528062878280993,0.009833887731367383,0.08623245290764228,2.311853570641924,0.6942920012042001,0.19166870848476358,-4.102695562263047,8.0
,,0.059870502297993906,0.016528062878280993,0.009833887731367383,0.08623245290764228,2.3278352888164062,0.6942920012042001,0.19166870848476358,-4.102695562263047,8.1
,,0.06043608758559307,0.016127536185983792,0.009853248739976696,0.08641687251155356,2.34493829768018,0.6993551817963909,0.18662485365722548,-4.127227145816244,8.2
,,0.06043608758559307,0.016127536185983792,0.009853248739976696,0.08641687251155356,2.3616340920471974,0.6993551817963909,0.18662485365722548,-4.127227145816244,8.3
,,0.06043608758559307,0.016127536185983792,0.009853248739976696,0.08641687251155356,2.377937044193814,0.6993551817963909,0.18662485365722548,-4.127227145816244,8.4
,,0.06043608758559307,0.016127536185983792,0.009853248739976696,0.08641687251155356,2.393860857918417,0.6993551817963909,0.18662485365722548,-4.127227145816244,8.5
,,0.06043608758559307,0.016127536185983792,0.009853248739976696,0.08641687251155356,2.409418606959696,0.6993551817963909,0.18662485365722548,-4.127227145816244,8.6
,,0.06043608758559307,0.016127536185983792,0.009853248739976696,0.08641687251155356,2.4246227707954904,0.6993551817963909,0.18662485365722548,-4.127227145816244,8.7
,,0.06043608758559307,0.016127536185983792,0.009853248739976696,0.08641687251155356,2.4394852680282337,0.6993551817963909,0.18662485365722548,-4.127227145816244,8.8
,,0.05982096904884128,0.015633728021559837,0.009788649945536748,0.08524334701593786,2.4548954829928027,0.701767013414626,0.18340115174779348,-4.15832464593505,8.9
,,0.05982096904884128,0.015633728021559837,0.009788649945536748,0.08524334701593786,2.470642050022439,0.701767013414626,0.18340115174779348,-4.15832464593505,9.0
,,0.05982096904884128,0.015633728021559837,0.009788649945536748,0.08524334701593786,2.4863886170520755,0.701767013414626,0.18340115174779348,-4.15832464593505,9.1
,,0.05982096904884128,0.015633728021559837,0.009788649945536748,0.08524334701593786,2.5075938278766596,0.701767013414626,0.18340115174779348,-4.15832464593505,9.2
,,0.05982096904884128,0.015633728021559837,0.009788649945536748,0.08524334701593786,2.5287990387012442,0.701767013414626,0.18340115174779348,-4.15832464593505,9.3
,,0.05982096904884128,0.015633728021559837,0.009788649945536748,0.08524334701593786,2.543151422030751,0.701767013414626,0.18340115174779348,-4.15832464593505,9.4
,,0.059259682910518946,0.015418430219079942,0.009826368694476681,0.08450448182407558,2.5576929947934532,0.7012608281994777,0.18245695241559584,-4.172191717645177,9.5
,,0.059259682910518946,0.015418430219079942,0.009826368694476681,0.08450448182407558,2.5722345675561553,0.7012608281994777,0.18245695241559584,-4.172191717645177,9.6
,,0.059259682910518946,0.015418430219079942,0.009826368694476681,0.08450448182407558,2.586776140318857,0.7012608281994777,0.18245695241559584,-4.172191717645177,9.7
,,0.059259682910518946,0.015418430219079942,0.009826368694476681,0.08450448182407558,2.606741454017707,0.7012608281994777,0.18245695241559584,-4.172191717645177,9.8
,,0.059259682910518946,0.015418430219079942,0.009826368694476681,0.08450448182407558,2.6267067677165565,0.7012608281994777,0.18245695241559584,-4.172191717645177,9.9
,,0.05875985170997665,0.015898344336395982,0.009596953506344347,0.08425514955271698,2.64091034789543,0.6974036841891976,0.18869285047614406,-4.14154030496425,10.0
,,0.05875985170997665,0.015898344336395982,0.009596953506344347,0.08425514955271698,2.655113928074304,0.6974036841891976,0.18869285047614406,-4.14154030496425,10.1
,,0.05861329261208752,0.015454980009360025,0.009935248446371026,0.08400352106781857,2.6703902322348503,0.6977480451654787,0.18398014527132447,-4.169823996872849,10.2
,,0.05861329261208752,0.015454980009360025,0.009935248446371026,0.08400352106781857,2.685666536395397,0.6977480451654787,0.18398014527132447,-4.169823996872849,10.3
,,0.05861329261208752,0.015454980009360025,0.009935248446371026,0.08400352106781857,2.707845679857484,0.6977480451654787,0.18398014527132447,-4.169823996872849,10.4
,,0.05861329261208752,0.015454980009360025,0.009935248446371026,0.08400352106781857,2.7224063252274253,0.6977480451654787,0.18398014527132447,-4.169823996872849,10.5
,,0.0580091860860813,0.01598222122863275,0.009758702137154622,0.08375010945186867,2.742775347307646,0.6926460928319058,0.19083224288581688,-4.136278347763466,10.6
,,0.0580091860860813,0.01598222122863275,0.009758702137154622,0.08375010945186867,2.7651171838240756,0.6926460928319058,0.19083224288581688,-4.136278347763466,10.7
,,0.0580091860860813,0.01598222122863275,0.009758702137154622,0.08375010945186867,2.787459020340505,0.6926460928319058,0.19083224288581688,-4.136278347763466,10.8
,,0.05778899861602153,0.015700869988144853,0.010093839484539815,0.0835837080887062,2.8103677094040176,0.6913907020575216,0.1878460569311156,-4.154039154905498,10.9
,,0.05778899861602153,0.015700869988144853,0.010093839484539815,0.0835837080887062,2.833517669515468,0.6913907020575216,0.1878460569311156,-4.154039154905498,11.0
,,0.05778899861602153,0.015700869988144853,0.010093839484539815,0.0835837080887062,2.8566676296269184,0.6913907020575216,0.1878460569311156,-4.154039154905498,11.1
,,0.05703444873652932,0.016221967202279294,0.009952026721833115,0.08320844266064172,2.8779870727545207,0.6854406465596199,0.1949557843359616,-4.121388955141028,11.2
,,0.05703444873652932,0.016221967202279294,0.009952026721833115,0.08320844266064172,2.8980506438208598,0.6854406465596199,0.1949557843359616,-4.121388955141028,11.3
,,0.05703444873652932,0.016221967202279294,0.009952026721833115,0.08320844266064172,2.9181142148871984,0.6854406465596199,0.1949557843359616,-4.121388955141028,11.4
,,0.05703444873652932,0.016221967202279294,0.009952026721833115,0.08320844266064172,2.938177785953537,0.6854406465596199,0.1949557843359616,-4.121388955141028,11.5
,,0.05672731198582765,0.016076719925648943,0.01027706606314928,0.08308109797462587,2.9583820261746907,0.6827944426438968,0.1935063488274914,-4.130383020762355,11.6
,,0.05672731198582765,0.016076719925648943,0.01027706606314928,0.08308109797462587,2.970304848582599,0.6827944426438968,0.1935063488274914,-4.130383020762355,11.7
,,0.055772877075299515,0.01657065837353159,0.010140982426584469,0.08248451787541557,2.980419042165742,0.6761617635874255,0.20089416535791452,-4.100121715470497,11.8
,,0.055772877075299515,0.01657065837353159,0.010140982426584469,0.08248451787541557,2.998369960488824,0.6761617635874255,0.20089416535791452,-4.100121715470497,11.9
,,0.055772877075299515,0.01657065837353159,0.010140982426584469,0.08248451787541557,3.0163208788119062,0.6761617635874255,0.20089416535791452,-4.100121715470497,12.0
,,0.055772877075299515,0.01657065837353159,0.010140982426584469,0.08248451787541557,3.0342717971349886,0.6761617635874255,0.20089416535791452,-4.100121715470497,12.1
,,0.0554344217364667,0.016527899439976887,0.010472605408694524,0.0824349265851381,3.052091933910297,0.6724628022712497,0.2004963202448784,-4.102705450845478,12.2
,,0.0554344217364667,0.016527899439976887,0.010472605408694524,0.0824349265851381,3.0614295275534666,0.6724628022712497,0.2004963202448784,-4.102705450845478,12.3
,,0.05428203040022711,0.01697756657718331,0.010321514155470512,0.08158111113288094,3.069025888310723,0.6653749825962956,0.20810658670154555,-4.075862419488902,12.4
,,0.05428203040022711,0.01697756657718331,0.010321514155470512,0.08158111113288094,3.084303002795987,0.6653749825962956,0.20810658670154555,-4.075862419488902,12.5
,,0.05428203040022711,0.01697756657718331,0.010321514155470512,0.08158111113288094,3.0995801172812496,0.6653749825962956,0.20810658670154555,-4.075862419488902,12.6
,,0.05428203040022711,0.01697756657718331,0.010321514155470512,0.08158111113288094,3.1148572317665133,0.6653749825962956,0.20810658670154555,-4.075862419488902,12.7
,,0.053971939549511364,0.01703325056842493,0.008812714323601575,0.07981790444153787,3.129815931038446,0.6761883806288447,0.21340137513758992,-4.072587929448972,12.8
,,0.053971939549511364,0.01703325056842493,0.008812714323601575,0.07981790444153787,3.1359889173737936,0.6761883806288447,0.21340137513758992,-4.072587929448972,12.9
,,0.053971939549511364,0.01703325056842493,0.008812714323601575,0.07981790444153787,3.1421619037091406,0.6761883806288447,0.21340137513758992,-4.072587929448972,13.0
,,0.05264725118203538,0.017420763420745253,0.010462103540828684,0.08053011814360932,3.1462315987476863,0.6537585240859769,0.21632606312185976,-4.05009248413542,13.1
,,0.05264725118203538,0.017420763420745253,0.010462103540828684,0.08053011814360932,3.150301293786233,0.6537585240859769,0.21632606312185976,-4.05009248413542,13.2
,,0.05264725118203538,0.017420763420745253,0.010462103540828684,0.08053011814360932,3.154370988824779,0.6537585240859769,0.21632606312185976,-4.05009248413542,13.3
,,0.05264725118203538,0.017420763420745253,0.010462103540828684,0.08053011814360932,3.1584406838633257,0.6537585240859769,0.21632606312185976,-4.05009248413542,13.4
,,0.052381018762701,0.017559838535850053,0.008935584729584875,0.07887644202813593,3.1782816106760974,0.6640895230037915,0.2226246276370618,-4.04214088581459,13.5
,,0.052381018762701,0.017559838535850053,0.008935584729584875,0.07887644202813593,3.1981225374888695,0.6640895230037915,0.2226246276370618,-4.04214088581459,13.6
,,0.05109950875952442,0.017835890437974806,0.010581272810249811,0.07951667200774903,3.2166521425812302,0.6426263507927581,0.22430378419555422,-4.026542534982196,13.7
,,0.05109950875952442,0.017835890437974806,0.010581272810249811,0.07951667200774903,3.217054902473403,0.6426263507927581,0.22430378419555422,-4.026542534982196,13.8
,,0.05109950875952442,0.017835890437974806,0.010581272810249811,0.07951667200774903,3.2174576623655753,0.6426263507927581,0.22430378419555422,-4.026542534982196,13.9
,,0.05109950875952442,0.017835890437974806,0.010581272810249811,0.07951667200774903,3.2178604222577483,0.6426263507927581,0.22430378419555422,-4.026542534982196,14.0
,,0.050976904582165826,0.01802461490285839,0.00903084033688419,0.0780323598219084,3.2178542990660906,0.6532790331922466,0.230988976163166,-4.016016960651923,14.1
,,0.050976904582165826,0.01802461490285839,0.00903084033688419,0.0780323598219084,3.2361399476636272,0.6532790331922466,0.230988976163166,-4.016016960651923,14.2
,,0.04972281356096185,0.01821886038418364,0.010649245020240217,0.07859091896538571,3.2533257270421068,0.6326788669166927,0.23181889999540387,-4.00529793662661,14.3
,,0.04972281356096185,0.01821886038418364,0.010649245020240217,0.07859091896538571,3.2702861807132493,0.6326788669166927,0.23181889999540387,-4.00529793662661,14.4
,,0.04972281356096185,0.01821886038418364,0.010649245020240217,0.07859091896538571,3.2872466343843914,0.6326788669166927,0.23181889999540387,-4.00529793662661,14.5
,,0.04972281356096185,0.01821886038418364,0.010649245020240217,0.07859091896538571,3.304207088055534,0.6326788669166927,0.23181889999540387,-4.00529793662661,14.6
,,0.04979569811959985,0.018449146749220463,0.009105909535431686,0.077350754404252,3.32083292117945,0.6437648669766892,0.23851282241930283,-3.992737156219728,14.7
,,0.04979569811959985,0.018449146749220463,0.009105909535431686,0.077350754404252,3.3165832577011494,0.6437648669766892,0.23851282241930283,-3.992737156219728,14.8
,,0.04871786557126392,0.018544922414333857,0.01068533259585298,0.07794812058145076,3.3115329326536247,0.6250037230898581,0.23791365687843122,-3.987559251692696,14.9
,,0.04871786557126392,0.018544922414333857,0.01068533259585298,0.07794812058145076,3.3064826076061,0.6250037230898581,0.23791365687843122,-3.987559251692696,15.0
,,0.04871786557126392,0.018544922414333857,0.01068533259585298,0.07794812058145076,3.2996287356173375,0.6250037230898581,0.23791365687843122,-3.987559251692696,15.1
,,0.04871786557126392,0.018544922414333857,0.01068533259585298,0.07794812058145076,3.292774863628575,0.6250037230898581,0.23791365687843122,-3.987559251692696,15.2
,,0.04833642153340435,0.02312559816784036,0.017467503420697066,0.08892952312194179,3.279955996732063,0.5435362727305371,0.2600441040949935,-3.766815129200765,15.3
,,0.04833642153340435,0.02312559816784036,0.017467503420697066,0.08892952312194179,3.2893020655232967,0.5435362727305371,0.2600441040949935,-3.766815129200765,15.4
,,0.048185793936399074,0.018776865017085934,0.010691023863321955,0.07765368281680696,3.3039377181165737,0.6205216827909416,0.24180263364176163,-3.975129751134271,15.5
,,0.048185793936399074,0.018776865017085934,0.010691023863321955,0.07765368281680696,3.3185733707098506,0.6205216827909416,0.24180263364176163,-3.975129751134271,15.6
,,0.048185793936399074,0.018776865017085934,0.010691023863321955,0.07765368281680696,3.3332090233031275,0.6205216827909416,0.24180263364176163,-3.975129751134271,15.7
,,0.048185793936399074,0.018776865017085934,0.010691023863321955,0.07765368281680696,3.3231972052137793,0.6205216827909416,0.24180263364176163,-3.975129751134271,15.8
,,0.048185793936399074,0.018776865017085934,0.010691023863321955,0.07765368281680696,3.31318538712443,0.6205216827909416,0.24180263364176163,-3.975129751134271,15.9
,,0.048760490695119896,0.019022084267271044,0.009188726126421815,0.07697130108881275,3.3032257246511594,0.6334892356679533,0.24713216482234796,-3.9621546449416893,16.0
,,0.048760490695119896,0.019022084267271044,0.009188726126421815,0.07697130108881275,3.29326606217789,0.6334892356679533,0.24713216482234796,-3.9621546449416893,16.1
,,0.050438040415210716,0.021569142924188014,0.015467528963288959,0.08747471230268769,3.2808072100909285,0.5766013867034003,0.246575751510363,-3.836491553993229,16.2
,,0.050438040415210716,0.021569142924188014,0.015467528963288959,0.08747471230268769,3.2683483580039674,0.5766013867034003,0.246575751510363,-3.836491553993229,16.3
,,0.050438040415210716,0.021569142924188014,0.015467528963288959,0.08747471230268769,3.2558895059170063,0.5766013867034003,0.246575751510363,-3.836491553993229,16.4
,,0.050438040415210716,0.021569142924188014,0.015467528963288959,0.08747471230268769,3.24118201880532,0.5766013867034003,0.246575751510363,-3.836491553993229,16.5
,,0.05188924869831345,0.021721558415907293,0.013171112957432007,0.08678192007165275,3.2274762622091973,0.5979269490173799,0.25030050496661715,-3.829450036218355,16.6
,,0.05188924869831345,0.021721558415907293,0.013171112957432007,0.08678192007165275,3.213770505613073,0.5979269490173799,0.25030050496661715,-3.829450036218355,16.7
,,0.04869574748893163,0.018870847999497214,0.01059286944593784,0.07815946493436668,3.202194064801375,0.6230307171348115,0.24144034270633435,-3.970136981581347,16.8
,,0.04869574748893163,0.018870847999497214,0.01059286944593784,0.07815946493436668,3.190617623989677,0.6230307171348115,0.24144034270633435,-3.970136981581347,16.9
,,0.04869574748893163,0.018870847999497214,0.01059286944593784,0.07815946493436668,3.179041183177979,0.6230307171348115,0.24144034270633435,-3.970136981581347,17.0
,,0.04869574748893163,0.018870847999497214,0.01059286944593784,0.07815946493436668,3.1674647423662803,0.6230307171348115,0.24144034270633435,-3.970136981581347,17.1
,,0.04977498143497101,0.019008108312679975,0.009124787658819014,0.07790787740647,3.15492289054922,0.6388953606742386,0.2439818532535378,-3.9628896375500413,17.2
,,0.04977498143497101,0.019008108312679975,0.009124787658819014,0.07790787740647,3.1423810387321605,0.6388953606742386,0.2439818532535378,-3.9628896375500413,17.3
,,0.053672835472217684,0.019956293276937095,0.013946947172195289,0.08757607592135007,3.130626974874522,0.6128709799742562,0.22787380077247757,-3.9142107329128866,17.4
,,0.053672835472217684,0.019956293276937095,0.013946947172195289,0.08757607592135007,3.1188729110168842,0.6128709799742562,0.22787380077247757,-3.9142107329128866,17.5
,,0.053672835472217684,0.019956293276937095,0.013946947172195289,0.08757607592135007,3.1071188471592457,0.6128709799742562,0.22787380077247757,-3.9142107329128866,17.6
,,0.053672835472217684,0.019956293276937095,0.013946947172195289,0.08757607592135007,3.0953647833016076,0.6128709799742562,0.22787380077247757,-3.9142107329128866,17.7
,,0.053672835472217684,0.019956293276937095,0.013946947172195289,0.08757607592135007,3.0836107194439695,0.6128709799742562,0.22787380077247757,-3.9142107329128866,17.8
,,0.05088475641234716,0.018755388758131993,0.009034153984438955,0.0786742991549181,3.071240378575743,0.6467773715041254,0.23839282916522242,-3.9762741674236044,17.9
,,0.05503236235701113,0.019031140710854457,0.013211483862920287,0.08727498693078588,3.0608547791959766,0.6305628255281778,0.218059508000239,-3.9616786567036564,18.0
,,0.05503236235701113,0.019031140710854457,0.013211483862920287,0.08727498693078588,3.0504691798162096,0.6305628255281778,0.218059508000239,-3.9616786567036564,18.1
,,0.05503236235701113,0.019031140710854457,0.013211483862920287,0.08727498693078588,3.040083580436443,0.6305628255281778,0.218059508000239,-3.9616786567036564,18.2
,,0.05503236235701113,0.019031140710854457,0.013211483862920287,0.08727498693078588,3.029697981056676,0.6305628255281778,0.218059508000239,-3.9616786567036564,18.3
,,0.05503236235701113,0.019031140710854457,0.013211483862920287,0.08727498693078588,3.01931238167691,0.6305628255281778,0.218059508000239,-3.9616786567036564,18.4
,,0.0502775984207355,0.017656760993768197,0.008550547357397438,0.07648490677190113,3.008246456360794,0.6573532026479031,0.23085287985543967,-4.036636509814244,18.5
,,0.0502775984207355,0.017656760993768197,0.008550547357397438,0.07648490677190113,2.9971805310446786,0.6573532026479031,0.23085287985543967,-4.036636509814244,18.6
,,0.0547412988487571,0.01763564584793184,0.012218488791603838,0.08459543348829278,2.9889647837844198,0.6470951987772814,0.2084704235290957,-4.037833092889491,18.7
,,0.0547412988487571,0.01763564584793184,0.012218488791603838,0.08459543348829278,2.9807490365241613,0.6470951987772814,0.2084704235290957,-4.037833092889491,18.8
,,0.0547412988487571,0.01763564584793184,0.012218488791603838,0.08459543348829278,2.9725332892639025,0.6470951987772814,0.2084704235290957,-4.037833092889491,18.9
,,0.0547412988487571,0.01763564584793184,0.012218488791603838,0.08459543348829278,2.965955971393486,0.6470951987772814,0.2084704235290957,-4.037833092889491,19.0
,,0.04940518094239409,0.016393356919884975,0.008006594794156347,0.07380513265643542,2.958375513328977,0.6694003406562027,0.22211675976786638,-4.1108790920739935,19.1
,,0.04940518094239409,0.016393356919884975,0.008006594794156347,0.07380513265643542,2.949722331282794,0.6694003406562027,0.22211675976786638,-4.1108790920739935,19.2
,,0.05448738942702819,0.016400725742895614,0.011392270961461452,0.08228038613138525,2.944497182380303,0.6622160151268952,0.19932728216305343,-4.110429692515516,19.3
,,0.05448738942702819,0.016400725742895614,0.011392270961461452,0.08228038613138525,2.939272033477811,0.6622160151268952,0.19932728216305343,-4.110429692515516,19.4
,,0.05448738942702819,0.016400725742895614,0.011392270961461452,0.08228038613138525,2.93404688457532,0.6622160151268952,0.19932728216305343,-4.110429692515516,19.5
,,0.05448738942702819,0.016400725742895614,0.011392270961461452,0.08228038613138525,2.930631857054695,0.6622160151268952,0.19932728216305343,-4.110429692515516,19.6
,,0.05448738942702819,0.016400725742895614,0.011392270961461452,0.08228038613138525,2.927216829534069,0.6622160151268952,0.19932728216305343,-4.110429692515516,19.7
,,0.04869447119821881,0.015195292503926702,0.0075078368200056506,0.07139760052215116,2.9224942611760487,0.6820183149307842,0.21282637501539495,-4.186769602787031,19.8
,,0.04869447119821881,0.015195292503926702,0.0075078368200056506,0.07139760052215116,2.9172048402709447,0.6820183149307842,0.21282637501539495,-4.186769602787031,19.9
,,0.05455478644420601,0.015385268249144584,0.010725095146609857,0.08066514983996045,2.915708025403819,0.6763117226267185,0.19073005231712747,-4.174344834601629,20.0
,,0.05455478644420601,0.015385268249144584,0.010725095146609857,0.08066514983996045,2.914211210536694,0.6763117226267185,0.19073005231712747,-4.174344834601629,20.1
,,0.05455478644420601,0.015385268249144584,0.010725095146609857,0.08066514983996045,2.914544912653418,0.6763117226267185,0.19073005231712747,-4.174344834601629,20.2
,,0.05455478644420601,0.015385268249144584,0.010725095146609857,0.08066514983996045,2.9148786147701413,0.6763117226267185,0.19073005231712747,-4.174344834601629,20.3
,,0.04761927472287545,0.013961841810428335,0.0069458566087428585,0.06852697314204664,2.9137096746717583,0.6948982647193169,0.2037422808897079,-4.271427255506111,20.4
,,0.04761927472287545,0.013961841810428335,0.0069458566087428585,0.06852697314204664,2.9125407345733745,0.6948982647193169,0.2037422808897079,-4.271427255506111,20.5
,,0.045317080417087444,0.013089944224356418,0.007562042076386382,0.06596906671783025,2.9118011668919985,0.6869443918453837,0.19842548751441474,-4.335910960004745,20.6
,,0.045317080417087444,0.013089944224356418,0.007562042076386382,0.06596906671783025,2.911061599210622,0.6869443918453837,0.19842548751441474,-4.335910960004745,20.7
,,0.045317080417087444,0.013089944224356418,0.007562042076386382,0.06596906671783025,2.9121306603540114,0.6869443918453837,0.19842548751441474,-4.335910960004745,20.8
,,0.045317080417087444,0.013089944224356418,0.007562042076386382,0.06596906671783025,2.9131997214974,0.6869443918453837,0.19842548751441474,-4.335910960004745,20.9
,,0.04476204846308155,0.012365214275670429,0.0076015923807186934,0.06472885511947067,2.916024573896964,0.6915315956147194,0.19103094366257264,-4.392868048949814,21.0
,,0.04476204846308155,0.012365214275670429,0.0076015923807186934,0.06472885511947067,2.9188494262965277,0.6915315956147194,0.19103094366257264,-4.392868048949814,21.1
,,0.04476204846308155,0.012365214275670429,0.0076015923807186934,0.06472885511947067,2.9218050602438654,0.6915315956147194,0.19103094366257264,-4.392868048949814,21.2
,,0.04281824071063764,0.011729884014303346,0.006861821594247542,0.06140994631918853,2.9250979963759094,0.6972525344360769,0.19100951421346796,-4.445615504319318,21.3
,,0.04281824071063764,0.011729884014303346,0.006861821594247542,0.06140994631918853,2.9301321653938683,0.6972525344360769,0.19100951421346796,-4.445615504319318,21.4
,,0.04281824071063764,0.011729884014303346,0.006861821594247542,0.06140994631918853,2.9351663344118264,0.6972525344360769,0.19100951421346796,-4.445615504319318,21.5
,,0.04231906518412965,0.011078189238313118,0.006934812949621447,0.060332067372064216,2.94208583135183,0.7014356879758575,0.18362024907906097,-4.502777037163533,21.6
,,0.04231906518412965,0.011078189238313118,0.006934812949621447,0.060332067372064216,2.949005328291834,0.7014356879758575,0.18362024907906097,-4.502777037163533,21.7
,,0.04231906518412965,0.011078189238313118,0.006934812949621447,0.060332067372064216,2.956243240445167,0.7014356879758575,0.18362024907906097,-4.502777037163533,21.8
,,0.040364164279021494,0.010559729849559857,0.0062472070797539424,0.057171101208335295,2.963508122828955,0.7060239076370384,0.184703978520188,-4.550707583459301,21.9
,,0.040364164279021494,0.010559729849559857,0.0062472070797539424,0.057171101208335295,2.9707730052127426,0.7060239076370384,0.184703978520188,-4.550707583459301,22.0
,,0.040364164279021494,0.010559729849559857,0.0062472070797539424,0.057171101208335295,2.9796659386345974,0.7060239076370384,0.184703978520188,-4.550707583459301,22.1
,,0.040364164279021494,0.010559729849559857,0.0062472070797539424,0.057171101208335295,2.9885588720564518,0.7060239076370384,0.184703978520188,-4.550707583459301,22.2
,,0.04007361396003324,0.01000926764284661,0.006375954236861443,0.056458835839741296,2.9994650179878737,0.7097846309439041,0.17728434343311592,-4.604243850884304,22.3
,,0.04007361396003324,0.01000926764284661,0.006375954236861443,0.056458835839741296,3.0103711639192947,0.7097846309439041,0.17728434343311592,-4.604243850884304,22.4
,,0.04007361396003324,0.01000926764284661,0.006375954236861443,0.056458835839741296,3.0217117171744454,0.7097846309439041,0.17728434343311592,-4.604243850884304,22.5
,,0.038253902258596054,0.009639528204267995,0.005778061235820815,0.05367149169868486,3.0326610525219095,0.7127415513873897,0.1796023903785815,-4.641883113023331,22.6
,,0.038253902258596054,0.009639528204267995,0.005778061235820815,0.05367149169868486,3.0449217095897856,0.7127415513873897,0.1796023903785815,-4.641883113023331,22.7
,,0.038253902258596054,0.009639528204267995,0.005778061235820815,0.05367149169868486,3.0571823666576607,0.7127415513873897,0.1796023903785815,-4.641883113023331,22.8
,,0.05682309397303567,0.012438734262919445,0.009920913454098118,0.07918274169005324,3.0761074269467246,0.7176196827770825,0.15708895647499374,-4.386939944201459,22.9
,,0.05682309397303567,0.012438734262919445,0.009920913454098118,0.07918274169005324,3.0950324872357884,0.7176196827770825,0.15708895647499374,-4.386939944201459,23.0
,,0.05682309397303567,0.012438734262919445,0.009920913454098118,0.07918274169005324,3.114366430608681,0.7176196827770825,0.15708895647499374,-4.386939944201459,23.1
,,0.036416190600816994,0.008940901941532473,0.005422118413894292,0.050779210956243756,3.128197605599536,0.7171476262637614,0.17607406206521822,-4.717118806571004,23.2
,,0.036416190600816994,0.008940901941532473,0.005422118413894292,0.050779210956243756,3.1431286498094475,0.7171476262637614,0.17607406206521822,-4.717118806571004,23.3
,,0.036416190600816994,0.008940901941532473,0.005422118413894292,0.050779210956243756,3.15805969401936,0.7171476262637614,0.17607406206521822,-4.717118806571004,23.4
,,0.036171017279037904,0.008502098107878256,0.0055929551669899715,0.05026607055390613,3.175006018088853,0.7195911055002306,0.16914188863759444,-4.7674423097239425,23.5
,,0.036171017279037904,0.008502098107878256,0.0055929551669899715,0.05026607055390613,3.1919523421583462,0.7195911055002306,0.16914188863759444,-4.7674423097239425,23.6
,,0.036171017279037904,0.008502098107878256,0.0055929551669899715,0.05026607055390613,3.2092332867750657,0.7195911055002306,0.16914188863759444,-4.7674423097239425,23.7
,,0.036171017279037904,0.008502098107878256,0.0055929551669899715,0.05026607055390613,3.2265142313917856,0.7195911055002306,0.16914188863759444,-4.7674423097239425,23.8
,,0.03523928061570724,0.008508199335645004,0.005238766212572136,0.048986246163924385,3.243345157084085,0.7193709127616108,0.17368547300345732,-4.766724952717265,23.9
,,0.03523928061570724,0.008508199335645004,0.005238766212572136,0.048986246163924385,3.260176082776384,0.7193709127616108,0.17368547300345732,-4.766724952717265,24.0
,,0.03523928061570724,0.008508199335645004,0.005238766212572136,0.048986246163924385,3.277007008468683,0.7193709127616108,0.17368547300345732,-4.766724952717265,24.1
,,0.03492133274910669,0.008110834768373286,0.005402725247286406,0.04843489276476638,3.2956569792318793,0.7209953559453314,0.1674585057463667,-4.814554485402958,24.2
,,0.03492133274910669,0.008110834768373286,0.005402725247286406,0.04843489276476638,3.320271944902824,0.7209953559453314,0.1674585057463667,-4.814554485402958,24.3
,,0.03492133274910669,0.008110834768373286,0.005402725247286406,0.04843489276476638,3.3448869105737704,0.7209953559453314,0.1674585057463667,-4.814554485402958,24.4
,,0.034238965664307563,0.008244386833403426,0.005124716239696739,0.04760806873740772,3.36251770148855,0.7191840915278407,0.17317204944559017,-4.798222694031555,24.5
,,0.034238965664307563,0.008244386833403426,0.005124716239696739,0.04760806873740772,3.3801484924033294,0.7191840915278407,0.17317204944559017,-4.798222694031555,24.6
,,0.034238965664307563,0.008244386833403426,0.005124716239696739,0.04760806873740772,3.3977792833181093,0.7191840915278407,0.17317204944559017,-4.798222694031555,24.7
,,0.033982841135327166,0.007911298848294451,0.005310023355789723,0.04720416333941134,3.4169931700494,0.7199119469818983,0.16759748057411727,-4.839463307358261,24.8
,,0.033982841135327166,0.007911298848294451,0.005310023355789723,0.04720416333941134,3.436207056780691,0.7199119469818983,0.16759748057411727,-4.839463307358261,24.9
,,0.033982841135327166,0.007911298848294451,0.005310023355789723,0.04720416333941134,3.455452832034807,0.7199119469818983,0.16759748057411727,-4.839463307358261,25.0
,,0.033982841135327166,0.007911298848294451,0.005310023355789723,0.04720416333941134,3.4746986072889237,0.7199119469818983,0.16759748057411727,-4.839463307358261,25.1
,,0.03358272396160792,0.00817809819415258,0.0051095326828210184,0.04687035483858151,3.494342908622441,0.71650244759752,0.17448338554972379,-4.806295650000916,25.2
,,0.03358272396160792,0.00817809819415258,0.0051095326828210184,0.04687035483858151,3.513987209955958,0.71650244759752,0.17448338554972379,-4.806295650000916,25.3
,,0.03358272396160792,0.00817809819415258,0.0051095326828210184,0.04687035483858151,3.533631511289476,0.71650244759752,0.17448338554972379,-4.806295650000916,25.4
,,0.032782476039838616,0.007760216315092487,0.00521598988467088,0.045758682239601986,3.554586989564671,0.7164208940323663,0.16959003046587703,-4.85874506951928,25.5
,,0.032782476039838616,0.007760216315092487,0.00521598988467088,0.045758682239601986,3.57498245351376,0.7164208940323663,0.16959003046587703,-4.85874506951928,25.6
,,0.032782476039838616,0.007760216315092487,0.00521598988467088,0.045758682239601986,3.5953779174628493,0.7164208940323663,0.16959003046587703,-4.85874506951928,25.7
,,0.031159333104580855,0.007769063693948146,0.004861289315719404,0.04378968611424841,3.611269236266227,0.7115678569443352,0.1774176611743336,-4.857605624572992,25.8
,,0.031159333104580855,0.007769063693948146,0.004861289315719404,0.04378968611424841,3.6271605550696044,0.7115678569443352,0.1774176611743336,-4.857605624572992,25.9
,,0.031159333104580855,0.007769063693948146,0.004861289315719404,0.04378968611424841,3.6430518738729822,0.7115678569443352,0.1774176611743336,-4.857605624572992,26.0
,,0.03033462424698894,0.007399918317950084,0.0049450093818781665,0.04267955194681719,3.6599279184034867,0.710753109235748,0.1733832240594065,-4.906286316947787,26.1
,,0.03033462424698894,0.007399918317950084,0.0049450093818781665,0.04267955194681719,3.676380145455352,0.710753109235748,0.1733832240594065,-4.906286316947787,26.2
,,0.03033462424698894,0.007399918317950084,0.0049450093818781665,0.04267955194681719,3.6928323725072167,0.710753109235748,0.1733832240594065,-4.906286316947787,26.3
,,0.03033462424698894,0.007399918317950084,0.0049450093818781665,0.04267955194681719,3.7084968115996606,0.710753109235748,0.1733832240594065,-4.906286316947787,26.4
,,0.028905506852965217,0.007477362486492676,0.0046417439994674336,0.04102461333892533,3.72156588258693,0.7045893794089424,0.18226527632858738,-4.8958751579345,26.5
,,0.028905506852965217,0.007477362486492676,0.0046417439994674336,0.04102461333892533,3.734634953574201,0.7045893794089424,0.18226527632858738,-4.8958751579345,26.6
,,0.028905506852965217,0.007477362486492676,0.0046417439994674336,0.04102461333892533,3.7477040245614712,0.7045893794089424,0.18226527632858738,-4.8958751579345,26.7
,,0.02815300946439963,0.007158070475409704,0.004715865876399774,0.04002694581620911,3.761520971092792,0.7033514271528288,0.1788312930063979,-4.939514821002264,26.8
,,0.02815300946439963,0.007158070475409704,0.004715865876399774,0.04002694581620911,3.775076199186591,0.7033514271528288,0.1788312930063979,-4.939514821002264,26.9
,,0.028137275568573854,0.007153968508573116,0.004713196831774481,0.04000444090892145,3.7866473059949177,0.7033538009601059,0.1788293585919782,-4.9400880400877485,27.0
,,0.02682340294768031,0.007267639499578793,0.0044398856171981235,0.03853092806445722,3.7955261860295124,0.6961525272064106,0.18861833505336228,-4.924323730726982,27.1
,,0.02680807130937898,0.0072633881028313215,0.004437329317045274,0.038508788729255575,3.8044056158783457,0.6961546232435136,0.1886163741450855,-4.924908878176303,27.2
,,0.02682340294768031,0.007267639499578793,0.0044398856171981235,0.03853092806445722,3.8132844959129404,0.6961525272064106,0.18861833505336228,-4.924323730726982,27.3
,,0.054911226592502436,0.011188574850590969,0.010271280345815613,0.07637108178890903,3.835685538935783,0.7190054835713602,0.14650276765119527,-4.492862123965692,27.4
,,0.054911226592502436,0.011188574850590969,0.010271280345815613,0.07637108178890903,3.858577718461779,0.7190054835713602,0.14650276765119527,-4.492862123965692,27.5
,,0.054911226592502436,0.011188574850590969,0.010271280345815613,0.07637108178890903,3.8814698979877744,0.7190054835713602,0.14650276765119527,-4.492862123965692,27.6
,,0.02502205759992336,0.007146293014545892,0.004251346172094037,0.03641969678656329,3.8858853357788163,0.6870473893993269,0.19622055220356616,-4.9411615162268925,27.7
,,0.02502205759992336,0.007146293014545892,0.004251346172094037,0.03641969678656329,3.890300773569858,0.6870473893993269,0.19622055220356616,-4.9411615162268925,27.8
,,0.02502205759992336,0.007146293014545892,0.004251346172094037,0.03641969678656329,3.8947162113608997,0.6870473893993269,0.19622055220356616,-4.9411615162268925,27.9
,,0.02502205759992336,0.007146293014545892,0.004251346172094037,0.03641969678656329,3.899131649151941,0.6870473893993269,0.19622055220356616,-4.9411615162268925,28.0
,,0.02435425209587454,0.006882080529220979,0.0042753518765318394,0.03551168450162736,3.904965652382145,0.6858095423425629,0.19379763663155997,-4.978834270248257,28.1
,,0.02435425209587454,0.006882080529220979,0.0042753518765318394,0.03551168450162736,3.910799655612349,0.6858095423425629,0.19379763663155997,-4.978834270248257,28.2
,,0.02435425209587454,0.006882080529220979,0.0042753518765318394,0.03551168450162736,3.9132056256988625,0.6858095423425629,0.19379763663155997,-4.978834270248257,28.3
,,0.02340639832079423,0.007072991568685505,0.00405392916449325,0.034533319053972986,3.9130612868084516,0.6777917374293443,0.20481644285714182,-4.951471752971197,28.4
,,0.02340639832079423,0.007072991568685505,0.00405392916449325,0.034533319053972986,3.9129169479180406,0.6777917374293443,0.20481644285714182,-4.951471752971197,28.5
,,0.02340639832079423,0.007072991568685505,0.00405392916449325,0.034533319053972986,3.9127726090276296,0.6777917374293443,0.20481644285714182,-4.951471752971197,28.6
,,0.02291449236152793,0.006843715503061053,0.004074393520000357,0.03383260138458934,3.913061480453174,0.6772902887676092,0.20228168166159244,-4.9844244926266805,28.7
,,0.02291449236152793,0.006843715503061053,0.004074393520000357,0.03383260138458934,3.9146578927161135,0.6772902887676092,0.20228168166159244,-4.9844244926266805,28.8
,,0.02291449236152793,0.006843715503061053,0.004074393520000357,0.03383260138458934,3.9162543049790535,0.6772902887676092,0.20228168166159244,-4.9844244926266805,28.9
,,0.05021804568293371,0.011002754167505084,0.009001047749318815,0.07022184759975761,3.9275678991305067,0.7151342124912569,0.1566856262486472,-4.509609658659224,29.0
,,0.05021804568293371,0.011002754167505084,0.009001047749318815,0.07022184759975761,3.9388814932819605,0.7151342124912569,0.1566856262486472,-4.509609658659224,29.1
,,0.05021804568293371,0.011002754167505084,0.009001047749318815,0.07022184759975761,3.9501950874334124,0.7151342124912569,0.1566856262486472,-4.509609658659224,29.2
,,0.021955427883706476,0.006866572559426122,0.003896779178271986,0.032718779621404584,3.94632314951112,0.6710344376458119,0.20986640207491172,-4.981090196886568,29.3
,,0.021955427883706476,0.006866572559426122,0.003896779178271986,0.032718779621404584,3.943953853803934,0.6710344376458119,0.20986640207491172,-4.981090196886568,29.4
,,0.021955427883706476,0.006866572559426122,0.003896779178271986,0.032718779621404584,3.941584558096748,0.6710344376458119,0.20986640207491172,-4.981090196886568,29.5
,,0.021955427883706476,0.006866572559426122,0.003896779178271986,0.032718779621404584,3.9386452208177394,0.6710344376458119,0.20986640207491172,-4.981090196886568,29.6
,,0.048866091049515004,0.010847617682557724,0.008493479870387918,0.06820718860246064,3.950231884308066,0.7164360832158989,0.1590392142649666,-4.523809791532204,29.7
,,0.048866091049515004,0.010847617682557724,0.008493479870387918,0.06820718860246064,3.961818547798392,0.7164360832158989,0.1590392142649666,-4.523809791532204,29.8
,,0.02152905068266842,0.006974297327305917,0.003746167407873224,0.03224951541784756,3.9576511771648324,0.6675774939165067,0.2162605309550231,-4.965523697954371,29.9
,,0.02152905068266842,0.006974297327305917,0.003746167407873224,0.03224951541784756,3.951728015275099,0.6675774939165067,0.2162605309550231,-4.965523697954371,30.0
,,0.02152905068266842,0.006974297327305917,0.003746167407873224,0.03224951541784756,3.945804853385364,0.6675774939165067,0.2162605309550231,-4.965523697954371,30.1
,,0.02152905068266842,0.006974297327305917,0.003746167407873224,0.03224951541784756,3.93988169149563,0.6675774939165067,0.2162605309550231,-4.965523697954371,30.2
,,0.015820651402699375,0.007243948194647755,0.003582961895093394,0.026647561492440526,3.9235886565790254,0.5936997802664771,0.2718428174639073,-4.9275888904708385,30.3
,,0.015820651402699375,0.007243948194647755,0.003582961895093394,0.026647561492440526,3.9072956216624215,0.5936997802664771,0.2718428174639073,-4.9275888904708385,30.4
,,0.021659292612081233,0.007160047658074893,0.0036148156072686277,0.03243415587742475,3.900347463183492,0.6677927026661674,0.22075640522707496,-4.939238641876024,30.5
,,0.021659292612081233,0.007160047658074893,0.0036148156072686277,0.03243415587742475,3.8915139767825173,0.6677927026661674,0.22075640522707496,-4.939238641876024,30.6
,,0.021659292612081233,0.007160047658074893,0.0036148156072686277,0.03243415587742475,3.882680490381543,0.6677927026661674,0.22075640522707496,-4.939238641876024,30.7
,,0.021659292612081233,0.007160047658074893,0.0036148156072686277,0.03243415587742475,3.8738470039805692,0.6677927026661674,0.22075640522707496,-4.939238641876024,30.8
,,0.046741788757689,0.010426039724837164,0.00708991131136626,0.06425773979389242,3.881188291392979,0.7274110310697813,0.1622534461728475,-4.563448782473026,30.9
,,0.046741788757689,0.010426039724837164,0.00708991131136626,0.06425773979389242,3.88852957880539,0.7274110310697813,0.1622534461728475,-4.563448782473026,31.0
,,0.046741788757689,0.010426039724837164,0.00708991131136626,0.06425773979389242,3.8958708662178005,0.7274110310697813,0.1622534461728475,-4.563448782473026,31.1
,,0.022301161889657375,0.007374978698909476,0.003500875365328321,0.033177015953895175,3.886997902466213,0.6721870924331604,0.22229180313136662,-4.9096622650438855,31.2
,,0.022301161889657375,0.007374978698909476,0.003500875365328321,0.033177015953895175,3.8761117262050586,0.6721870924331604,0.22229180313136662,-4.9096622650438855,31.3
,,0.022301161889657375,0.007374978698909476,0.003500875365328321,0.033177015953895175,3.8652255499439043,0.6721870924331604,0.22229180313136662,-4.9096622650438855,31.4
,,0.022301161889657375,0.007374978698909476,0.003500875365328321,0.033177015953895175,3.85433937368275,0.6721870924331604,0.22229180313136662,-4.9096622650438855,31.5
,,0.022495141924594217,0.007651506512409777,0.003365056950915015,0.033511705387919005,3.8429118305544074,0.6712622250702804,0.22832339995350254,-4.872852720805038,31.6
,,0.022495141924594217,0.007651506512409777,0.003365056950915015,0.033511705387919005,3.831484287426065,0.6712622250702804,0.22832339995350254,-4.872852720805038,31.7
,,0.023286766848389193,0.007601567118110013,0.003384493141675826,0.03427282710817503,3.8214284568725887,0.6794527564034729,0.2217957419770844,-4.879400853194781,31.8
,,0.023286766848389193,0.007601567118110013,0.003384493141675826,0.03427282710817503,3.8047082230979234,0.6794527564034729,0.2217957419770844,-4.879400853194781,31.9
,,0.023286766848389193,0.007601567118110013,0.003384493141675826,0.03427282710817503,3.787987989323258,0.6794527564034729,0.2217957419770844,-4.879400853194781,32.0
,,0.023286766848389193,0.007601567118110013,0.003384493141675826,0.03427282710817503,3.771267755548593,0.6794527564034729,0.2217957419770844,-4.879400853194781,32.1
,,0.04372213747467115,0.009430639862189266,0.00530961444526993,0.05846239178213034,3.7775254315244475,0.7478677512478251,0.16131122204739906,-4.663791330748046,32.2
,,0.04372213747467115,0.009430639862189266,0.00530961444526993,0.05846239178213034,3.783783107500302,0.7478677512478251,0.16131122204739906,-4.663791330748046,32.3
,,0.04372213747467115,0.009430639862189266,0.00530961444526993,0.05846239178213034,3.7900407834761562,0.7478677512478251,0.16131122204739906,-4.663791330748046,32.4
,,0.02453870969899664,0.007791979350340504,0.003263500368775994,0.03559418941811313,3.777761484252187,0.6894021215302464,0.21891155488359934,-4.85466036275572,32.5
,,0.02453870969899664,0.007791979350340504,0.003263500368775994,0.03559418941811313,3.765482185028217,0.6894021215302464,0.21891155488359934,-4.85466036275572,32.6
,,0.02453870969899664,0.007791979350340504,0.003263500368775994,0.03559418941811313,3.7532028858042485,0.6894021215302464,0.21891155488359934,-4.85466036275572,32.7
,,0.025020805722845887,0.008033114405708343,0.0031329792969336757,0.0361868994254879,3.7405400450910875,0.6914327041023779,0.2219895744936438,-4.824182979926442,32.8
,,0.025020805722845887,0.008033114405708343,0.0031329792969336757,0.0361868994254879,3.7291278848715725,0.6914327041023779,0.2219895744936438,-4.824182979926442,32.9
,,0.025020805722845887,0.008033114405708343,0.0031329792969336757,0.0361868994254879,3.717715724652057,0.6914327041023779,0.2219895744936438,-4.824182979926442,33.0
,,0.026299571868779296,0.008036624666817203,0.0031734618382481808,0.03750965837384468,3.708056418481114,0.701141332897819,0.21425480836746588,-4.823746101499375,33.1
,,0.026299571868779296,0.008036624666817203,0.0031734618382481808,0.03750965837384468,3.696578067239273,0.701141332897819,0.21425480836746588,-4.823746101499375,33.2
,,0.026299571868779296,0.008036624666817203,0.0031734618382481808,0.03750965837384468,3.685099715997432,0.701141332897819,0.21425480836746588,-4.823746101499375,33.3
,,0.026849015539545013,0.008251788757215614,0.0030380379806170896,0.03813884227737772,3.673413095763278,0.7039808745183298,0.21636180503859218,-4.797325283080964,33.4
,,0.026849015539545013,0.008251788757215614,0.0030380379806170896,0.03813884227737772,3.663421066483247,0.7039808745183298,0.21636180503859218,-4.797325283080964,33.5
,,0.026849015539545013,0.008251788757215614,0.0030380379806170896,0.03813884227737772,3.653429037203215,0.7039808745183298,0.21636180503859218,-4.797325283080964,33.6
,,0.02832583781957902,0.008286615423932931,0.0031002518470072075,0.039712705090519156,3.64526526545436,0.7132689086531506,0.20866408886135643,-4.793113665343889,33.7
,,0.02832583781957902,0.008286615423932931,0.0031002518470072075,0.039712705090519156,3.6355183978889936,0.7132689086531506,0.20866408886135643,-4.793113665343889,33.8
,,0.02832583781957902,0.008286615423932931,0.0031002518470072075,0.039712705090519156,3.625771530323627,0.7132689086531506,0.20866408886135643,-4.793113665343889,33.9
,,0.02832583781957902,0.008286615423932931,0.0031002518470072075,0.039712705090519156,3.616024662758262,0.7132689086531506,0.20866408886135643,-4.793113665343889,34.0
,,0.028833678706434995,0.008452417244210305,0.0029504488428925392,0.040236544793537846,3.60620035057623,0.7166042425955472,0.21006816782060764,-4.773302814118088,34.1
,,0.028833678706434995,0.008452417244210305,0.0029504488428925392,0.040236544793537846,3.59847670192849,0.7166042425955472,0.21006816782060764,-4.773302814118088,34.2
,,0.028833678706434995,0.008452417244210305,0.0029504488428925392,0.040236544793537846,3.590753053280749,0.7166042425955472,0.21006816782060764,-4.773302814118088,34.3
,,0.030139376202962528,0.008444917247995405,0.0030057128117534308,0.04159000626271136,3.584780993650228,0.7246783280719243,0.20305159837321118,-4.774190527705208,34.4
,,0.030139376202962528,0.008444917247995405,0.0030057128117534308,0.04159000626271136,3.5774977570780297,0.7246783280719243,0.20305159837321118,-4.774190527705208,34.5
,,0.030139376202962528,0.008444917247995405,0.0030057128117534308,0.04159000626271136,3.5702145205058304,0.7246783280719243,0.20305159837321118,-4.774190527705208,34.6
,,0.030604774958799683,0.008576111267143997,0.0028524041676241856,0.04203329039356787,3.5629276246590496,0.7281079989750926,0.20403140431890515,-4.758774700490655,34.7
,,0.030604774958799683,0.008576111267143997,0.0028524041676241856,0.04203329039356787,3.5580155581735537,0.7281079989750926,0.20403140431890515,-4.758774700490655,34.8
,,0.030604774958799683,0.008576111267143997,0.0028524041676241856,0.04203329039356787,3.5531034916880584,0.7281079989750926,0.20403140431890515,-4.758774700490655,34.9
,,0.031818953743329374,0.008546701014708813,0.0029073481427216758,0.04327300290075987,3.5499063590694746,0.7353072726730189,0.19750653852956282,-4.762209916724167,35.0
,,0.031818953743329374,0.008546701014708813,0.0029073481427216758,0.04327300290075987,3.545724500723763,0.7353072726730189,0.19750653852956282,-4.762209916724167,35.1
,,0.031818953743329374,0.008546701014708813,0.0029073481427216758,0.04327300290075987,3.5415426423780514,0.7353072726730189,0.19750653852956282,-4.762209916724167,35.2
,,0.032144822154178326,0.00863335380449102,0.002733547076163792,0.04351172303483314,3.537364985146305,0.7387623360363118,0.198414431843566,-4.752122227771,35.3
,,0.032144822154178326,0.00863335380449102,0.002733547076163792,0.04351172303483314,3.5331873279145594,0.7387623360363118,0.198414431843566,-4.752122227771,35.4
,,0.032144822154178326,0.00863335380449102,0.002733547076163792,0.04351172303483314,3.531605038787986,0.7387623360363118,0.198414431843566,-4.752122227771,35.5
,,0.032144822154178326,0.00863335380449102,0.002733547076163792,0.04351172303483314,3.530022749661413,0.7387623360363118,0.198414431843566,-4.752122227771,35.6
,,0.03308439716395292,0.008560307616301248,0.0020633957308862864,0.043708100511140456,3.5300130286947775,0.7569397154543531,0.19585174180972173,-4.760619152990396,35.7
,,0.03308439716395292,0.008560307616301248,0.0020633957308862864,0.043708100511140456,3.529255432184092,0.7569397154543531,0.19585174180972173,-4.760619152990396,35.8
,,0.03322028769583745,0.008598799377565426,0.0026059565831200787,0.04442504365652296,3.5284811992855394,0.7477828936462889,0.19355747726548062,-4.75613269272851,35.9
,,0.03322028769583745,0.008598799377565426,0.0026059565831200787,0.04442504365652296,3.5277063461840013,0.7477828936462889,0.19355747726548062,-4.75613269272851,36.0
,,0.03322028769583745,0.008598799377565426,0.0026059565831200787,0.04442504365652296,3.5296237198561937,0.7477828936462889,0.19355747726548062,-4.75613269272851,36.1
,,0.03322028769583745,0.008598799377565426,0.0026059565831200787,0.04442504365652296,3.531540543714149,0.7477828936462889,0.19355747726548062,-4.75613269272851,36.2
,,0.03378159121620169,0.008473505139985172,0.0019517725488831816,0.04420686890507004,3.5348286746767394,0.7641706380233437,0.19167847327484788,-4.7708110259357435,36.3
,,0.03378159121620169,0.008473505139985172,0.0019517725488831816,0.04420686890507004,3.524594642651083,0.7641706380233437,0.19167847327484788,-4.7708110259357435,36.4
,,0.047341720710674474,0.008701724158277344,0.002567486520432147,0.05861093138938397,3.530513579953551,0.8077285173333613,0.1484658911230587,-4.744234093844147,36.5
,,0.047341720710674474,0.008701724158277344,0.002567486520432147,0.05861093138938397,3.536432517256018,0.8077285173333613,0.1484658911230587,-4.744234093844147,36.6
,,0.047341720710674474,0.008701724158277344,0.002567486520432147,0.05861093138938397,3.557978018237583,0.8077285173333613,0.1484658911230587,-4.744234093844147,36.7
,,0.047341720710674474,0.008701724158277344,0.002567486520432147,0.05861093138938397,3.5795235192191472,0.8077285173333613,0.1484658911230587,-4.744234093844147,36.8
,,0.047341720710674474,0.008701724158277344,0.002567486520432147,0.05861093138938397,3.601069020200713,0.8077285173333613,0.1484658911230587,-4.744234093844147,36.9
,,0.033877612582051825,0.00829413674652434,0.0018240064183229583,0.043995755746899116,3.607548149456137,0.7700200168612757,0.1885212926955783,-4.792206429890398,37.0
,,0.033877612582051825,0.00829413674652434,0.0018240064183229583,0.043995755746899116,3.613611853466493,0.7700200168612757,0.1885212926955783,-4.792206429890398,37.1
,,0.04503987917952686,0.008290559392719483,0.002266651938584672,0.05559709051083101,3.634654949311011,0.8101121617281847,0.14911858366229394,-4.792637834099471,37.2
,,0.04503987917952686,0.008290559392719483,0.002266651938584672,0.05559709051083101,3.655698045155529,0.8101121617281847,0.14911858366229394,-4.792637834099471,37.3
,,0.04503987917952686,0.008290559392719483,0.002266651938584672,0.05559709051083101,3.679291449976972,0.8101121617281847,0.14911858366229394,-4.792637834099471,37.4
,,0.04503987917952686,0.008290559392719483,0.002266651938584672,0.05559709051083101,3.7028848547984152,0.8101121617281847,0.14911858366229394,-4.792637834099471,37.5
,,0.03337424140829007,0.008047373064247021,0.0016872818437174344,0.04310889631625452,3.7121954945140994,0.7741845479747544,0.18667546033213336,-4.822409568230775,37.6
,,0.03337424140829007,0.008047373064247021,0.0016872818437174344,0.04310889631625452,3.7210729239138276,0.7741845479747544,0.18667546033213336,-4.822409568230775,37.7
,,0.0329754568929237,0.008021564266416578,0.002133024349049745,0.04313004550839002,3.729546234705005,0.7645588244628454,0.18598552753337938,-4.825621830434798,37.8
,,0.0329754568929237,0.008021564266416578,0.002133024349049745,0.04313004550839002,3.738019545496181,0.7645588244628454,0.18598552753337938,-4.825621830434798,37.9
,,0.0329754568929237,0.008021564266416578,0.002133024349049745,0.04313004550839002,3.7329830683608667,0.7645588244628454,0.18598552753337938,-4.825621830434798,38.0
,,0.0329754568929237,0.008021564266416578,0.002133024349049745,0.04313004550839002,3.727946591225551,0.7645588244628454,0.18598552753337938,-4.825621830434798,38.1
,,0.0329754568929237,0.008021564266416578,0.002133024349049745,0.04313004550839002,3.7229101140902356,0.7645588244628454,0.18598552753337938,-4.825621830434798,38.2
,,0.03195240652635685,0.007662360729780557,0.001536119542462602,0.04115088679860001,3.733716903534326,0.7764694521101766,0.18620159432484545,-4.8714351534438025,38.3
,,0.03135271141687888,0.00761637548905976,0.0019382545587701664,0.040907341464708806,3.7439285798099617,0.7664323882774732,0.18618602960621353,-4.877454680048252,38.4
,,0.03135271141687888,0.00761637548905976,0.0019382545587701664,0.040907341464708806,3.7541402560855968,0.7664323882774732,0.18618602960621353,-4.877454680048252,38.5
,,0.03135271141687888,0.00761637548905976,0.0019382545587701664,0.040907341464708806,3.7643519323612327,0.7664323882774732,0.18618602960621353,-4.877454680048252,38.6
,,0.03135271141687888,0.00761637548905976,0.0019382545587701664,0.040907341464708806,3.760037607867533,0.7664323882774732,0.18618602960621353,-4.877454680048252,38.7
,,0.03135271141687888,0.00761637548905976,0.0019382545587701664,0.040907341464708806,3.755723283373834,0.7664323882774732,0.18618602960621353,-4.877454680048252,38.8
,,0.03024961006641682,0.007293192525138438,0.0013991142267366216,0.03894191681829188,3.7675092476324035,0.7767879071686555,0.18728386070899994,-4.920813896708098,38.9
,,0.03918400029887275,0.00765962344331254,0.001726515382838227,0.04857013912502351,3.7900508364041774,0.8067508350760522,0.1577023163058282,-4.871792455274456,39.0
,,0.03918400029887275,0.00765962344331254,0.001726515382838227,0.04857013912502351,3.8125924251759518,0.8067508350760522,0.1577023163058282,-4.871792455274456,39.1
,,0.03918400029887275,0.00765962344331254,0.001726515382838227,0.04857013912502351,3.8351340139477266,0.8067508350760522,0.1577023163058282,-4.871792455274456,39.2
,,0.03918400029887275,0.00765962344331254,0.001726515382838227,0.04857013912502351,3.8677081735616645,0.8067508350760522,0.1577023163058282,-4.871792455274456,39.3
,,0.03918400029887275,0.00765962344331254,0.001726515382838227,0.04857013912502351,3.9002823331756025,0.8067508350760522,0.1577023163058282,-4.871792455274456,39.4
,,0.0374702503357471,0.007289765700376051,0.0012449937739824313,0.046005009810105586,3.9237834054551763,0.8144819551264671,0.1584559101381772,-4.921283873344178,39.5
,,0.0374702503357471,0.007289765700376051,0.0012449937739824313,0.046005009810105586,3.9472844777347507,0.8144819551264671,0.1584559101381772,-4.921283873344178,39.6
,,0.0282654570461097,0.007100456259663759,0.0016479436738833226,0.037013856979656784,3.9579041859799777,0.763645276460778,0.19183237952116816,-4.947596235075103,39.7
,,0.0282654570461097,0.007100456259663759,0.0016479436738833226,0.037013856979656784,3.9685238942252057,0.763645276460778,0.19183237952116816,-4.947596235075103,39.8
,,0.0282654570461097,0.007100456259663759,0.0016479436738833226,0.037013856979656784,3.962941858426594,0.763645276460778,0.19183237952116816,-4.947596235075103,39.9
,,0.0282654570461097,0.007100456259663759,0.0016479436738833226,0.037013856979656784,3.9573598226279825,0.763645276460778,0.19183237952116816,-4.947596235075103,40.0
,,0.02678394061698452,0.0067913444501471595,0.0011975281176767269,0.034772813184808404,3.951367123835894,0.7702552127328578,0.19530615524412537,-4.992106352571889,40.1
,,0.02678394061698452,0.0067913444501471595,0.0011975281176767269,0.034772813184808404,3.9615886762078047,0.7702552127328578,0.19530615524412537,-4.992106352571889,40.2
,,0.01751905910575758,0.006777888577975989,0.0014980369293378986,0.02579498461307147,3.9567091413896947,0.6791653249089318,0.26275993878830733,-4.9940896447084375,40.3
,,0.01751905910575758,0.006777888577975989,0.0014980369293378986,0.02579498461307147,3.951829606571586,0.6791653249089318,0.26275993878830733,-4.9940896447084375,40.4
,,0.01751905910575758,0.006777888577975989,0.0014980369293378986,0.02579498461307147,3.9469500717534753,0.6791653249089318,0.26275993878830733,-4.9940896447084375,40.5
,,0.01751905910575758,0.006777888577975989,0.0014980369293378986,0.02579498461307147,3.9430031217102397,0.6791653249089318,0.26275993878830733,-4.9940896447084375,40.6
,,0.01751905910575758,0.006777888577975989,0.0014980369293378986,0.02579498461307147,3.9390561716670045,0.6791653249089318,0.26275993878830733,-4.9940896447084375,40.7
,,0.02451509560456536,0.006507923143908009,0.0011014278576357967,0.032124446606109164,3.946873336739304,0.7631289623492932,0.2025847549594951,-5.034734899174486,40.8
,,0.023715710771318357,0.00652017933013688,0.001371367578203025,0.03160725767965826,3.9532495847047353,0.7503248466437273,0.20628741019608052,-5.0328533987996,40.9
,,0.023715710771318357,0.00652017933013688,0.001371367578203025,0.03160725767965826,3.959625832670166,0.7503248466437273,0.20628741019608052,-5.0328533987996,41.0
,,0.023715710771318357,0.00652017933013688,0.001371367578203025,0.03160725767965826,3.966002080635597,0.7503248466437273,0.20628741019608052,-5.0328533987996,41.1
,,0.023715710771318357,0.00652017933013688,0.001371367578203025,0.03160725767965826,3.9549031872325453,0.7503248466437273,0.20628741019608052,-5.0328533987996,41.2
,,0.023715710771318357,0.00652017933013688,0.001371367578203025,0.03160725767965826,3.9438042938294946,0.7503248466437273,0.20628741019608052,-5.0328533987996,41.3
,,0.022154824054465255,0.006260541142606979,0.0010178521908088412,0.029433217387881076,3.931611227683045,0.7527149941680298,0.21270325496881334,-5.073488653100334,41.4
,,0.021434418497011942,0.006308477020896897,0.0012618414407563506,0.02900473695866519,3.9343722286383365,0.7389971688954894,0.21749816348574863,-5.065860991165227,41.5
,,0.021434418497011942,0.006308477020896897,0.0012618414407563506,0.02900473695866519,3.9371332295936288,0.7389971688954894,0.21749816348574863,-5.065860991165227,41.6
,,0.021434418497011942,0.006308477020896897,0.0012618414407563506,0.02900473695866519,3.9398942305489197,0.7389971688954894,0.21749816348574863,-5.065860991165227,41.7
,,0.021434418497011942,0.006308477020896897,0.0012618414407563506,0.02900473695866519,3.943038772993403,0.7389971688954894,0.21749816348574863,-5.065860991165227,41.8
,,0.021434418497011942,0.006308477020896897,0.0012618414407563506,0.02900473695866519,3.946183315437885,0.7389971688954894,0.21749816348574863,-5.065860991165227,41.9
,,0.021434418497011942,0.006308477020896897,0.0012618414407563506,0.02900473695866519,3.949327857882368,0.7389971688954894,0.21749816348574863,-5.065860991165227,42.0
,,0.019153354642170585,0.006123747047049087,0.0011692581444963724,0.026446359833716043,3.9477195607711995,0.724234063311514,0.23155349490639615,-5.095581107224452,42.1
,,0.019153354642170585,0.006123747047049087,0.0011692581444963724,0.026446359833716043,3.946111263660031,0.724234063311514,0.23155349490639615,-5.095581107224452,42.2
,,0.019153354642170585,0.006123747047049087,0.0011692581444963724,0.026446359833716043,3.9445029665488627,0.724234063311514,0.23155349490639615,-5.095581107224452,42.3
,,0.019153354642170585,0.006123747047049087,0.0011692581444963724,0.026446359833716043,3.9431029384300067,0.724234063311514,0.23155349490639615,-5.095581107224452,42.4
,,0.019153354642170585,0.006123747047049087,0.0011692581444963724,0.026446359833716043,3.941702910311151,0.724234063311514,0.23155349490639615,-5.095581107224452,42.5
,,0.019153354642170585,0.006123747047049087,0.0011692581444963724,0.026446359833716043,3.940302882192296,0.724234063311514,0.23155349490639615,-5.095581107224452,42.6
,,0.012397272802950799,0.005911877924853302,0.0009018825797606941,0.019211033307564795,3.9256222946910846,0.6453204574929908,0.3077334691062849,-5.130791744254887,42.7
,,0.017061390758264523,0.006024771052650817,0.0010999474635377767,0.024186109274453117,3.9191068488660115,0.705421056551904,0.2491004644146943,-5.11187579988745,42.8
,,0.017061390758264523,0.006024771052650817,0.0010999474635377767,0.024186109274453117,3.9125914030409383,0.705421056551904,0.2491004644146943,-5.11187579988745,42.9
,,0.017061390758264523,0.006024771052650817,0.0010999474635377767,0.024186109274453117,3.9060759572158643,0.705421056551904,0.2491004644146943,-5.11187579988745,43.0
,,0.017061390758264523,0.006024771052650817,0.0010999474635377767,0.024186109274453117,3.8996379560074566,0.705421056551904,0.2491004644146943,-5.11187579988745,43.1
,,0.017061390758264523,0.006024771052650817,0.0010999474635377767,0.024186109274453117,3.893199954799048,0.705421056551904,0.2491004644146943,-5.11187579988745,43.2
,,0.011154814043582732,0.005821855072244955,0.0008722518408131829,0.01784892095664087,3.8765858456928393,0.6249573333133324,0.32617406320458125,-5.146136327090332,43.3
,,0.015139693302180266,0.005959830047855189,0.0010538650379627252,0.02215338838799818,3.8651564301741153,0.6834030549648265,0.2690256652153486,-5.122713313771991,43.4
,,0.015139693302180266,0.005959830047855189,0.0010538650379627252,0.02215338838799818,3.853727014655391,0.6834030549648265,0.2690256652153486,-5.122713313771991,43.5
,,0.015139693302180266,0.005959830047855189,0.0010538650379627252,0.02215338838799818,3.8422975991366664,0.6834030549648265,0.2690256652153486,-5.122713313771991,43.6
,,0.015139693302180266,0.005959830047855189,0.0010538650379627252,0.02215338838799818,3.830871842892525,0.6834030549648265,0.2690256652153486,-5.122713313771991,43.7
,,0.015139693302180266,0.005959830047855189,0.0010538650379627252,0.02215338838799818,3.8194460866483833,0.6834030549648265,0.2690256652153486,-5.122713313771991,43.8
,,0.015139693302180266,0.005959830047855189,0.0010538650379627252,0.02215338838799818,3.8080203304042413,0.6834030549648265,0.2690256652153486,-5.122713313771991,43.9
,,0.013388187135286896,0.005919091354076571,0.0010250278088770744,0.02033230629824054,3.7917860384116246,0.6584686920856314,0.2911175578044867,-5.129572329353699,44.0
,,0.013388187135286896,0.005919091354076571,0.0010250278088770744,0.02033230629824054,3.775551746419007,0.6584686920856314,0.2911175578044867,-5.129572329353699,44.1
,,0.013388187135286896,0.005919091354076571,0.0010250278088770744,0.02033230629824054,3.7593174544263896,0.6584686920856314,0.2911175578044867,-5.129572329353699,44.2
,,0.013388187135286896,0.005919091354076571,0.0010250278088770744,0.02033230629824054,3.743078961319807,0.6584686920856314,0.2911175578044867,-5.129572329353699,44.3
,,0.013388187135286896,0.005919091354076571,0.0010250278088770744,0.02033230629824054,3.726840468213224,0.6584686920856314,0.2911175578044867,-5.129572329353699,44.4
,,0.013388187135286896,0.005919091354076571,0.0010250278088770744,0.02033230629824054,3.710601975106641,0.6584686920856314,0.2911175578044867,-5.129572329353699,44.5
,,0.011879923708210345,0.005921873711806055,0.0010155016082633354,0.018817299028279735,3.6915217448909976,0.6313299103317911,0.31470370444272144,-5.129102374790837,44.6
,,0.011879923708210345,0.005921873711806055,0.0010155016082633354,0.018817299028279735,3.670868946515418,0.6313299103317911,0.31470370444272144,-5.129102374790837,44.7
,,0.011879923708210345,0.005921873711806055,0.0010155016082633354,0.018817299028279735,3.6502161481398376,0.6313299103317911,0.31470370444272144,-5.129102374790837,44.8
,,0.011879923708210345,0.005921873711806055,0.0010155016082633354,0.018817299028279735,3.6295799861521245,0.6313299103317911,0.31470370444272144,-5.129102374790837,44.9
,,0.011879923708210345,0.005921873711806055,0.0010155016082633354,0.018817299028279735,3.6089438241644105,0.6313299103317911,0.31470370444272144,-5.129102374790837,45.0
,,0.011879923708210345,0.005921873711806055,0.0010155016082633354,0.018817299028279735,3.5883076621766974,0.6313299103317911,0.31470370444272144,-5.129102374790837,45.1
,,0.010681641614605426,0.005989232734070831,0.001029181631074271,0.017700055979750526,3.565197780193675,0.6034806684693874,0.33837366056484336,-5.117791966199245,45.2
,,0.012313621591069449,0.006132292355908832,0.0010109149060074686,0.01945682885298575,3.543211833973139,0.6328688854751302,0.3151742970164329,-5.094186642020235,45.3
,,0.010681641614605426,0.005989232734070831,0.001029181631074271,0.017700055979750526,3.5187311946997184,0.6034806684693874,0.33837366056484336,-5.117791966199245,45.4
,,0.010681641614605426,0.005989232734070831,0.001029181631074271,0.017700055979750526,3.4780975860981735,0.6034806684693874,0.33837366056484336,-5.117791966199245,45.5
,,0.010681641614605426,0.005989232734070831,0.001029181631074271,0.017700055979750526,3.437463977496629,0.6034806684693874,0.33837366056484336,-5.117791966199245,45.6
,,0.010681641614605426,0.005989232734070831,0.001029181631074271,0.017700055979750526,3.3968303688950843,0.6034806684693874,0.33837366056484336,-5.117791966199245,45.7
,,0.01196123749223957,0.006254271308883006,0.001055712996102449,0.019271221797225027,3.3576302809446754,0.6206787311203038,0.32453942851633794,-5.074490639230424,45.8
,,0.010986047629737285,0.006074138411381223,0.001013754753223794,0.018073940794342304,3.317276508897084,0.6078390847211502,0.336071611636717,-5.103715125100724,45.9
,,0.010986047629737285,0.006074138411381223,0.001013754753223794,0.018073940794342304,3.291989108575634,0.6078390847211502,0.336071611636717,-5.103715125100724,46.0
,,0.010986047629737285,0.006074138411381223,0.001013754753223794,0.018073940794342304,3.2667017082541836,0.6078390847211502,0.336071611636717,-5.103715125100724,46.1
,,0.010986047629737285,0.006074138411381223,0.001013754753223794,0.018073940794342304,3.2264349160985706,0.6078390847211502,0.336071611636717,-5.103715125100724,46.2
,,0.010986047629737285,0.006074138411381223,0.001013754753223794,0.018073940794342304,3.1861681239429567,0.6078390847211502,0.336071611636717,-5.103715125100724,46.3
,,0.009616448654255693,0.006295536446738156,0.0011174810923855554,0.017029466193379403,3.142777367810445,0.5646946618910643,0.36968489647583264,-5.067914397207507,46.4
,,0.00907506533418842,0.006216802731847675,0.0010997477457277281,0.016391615811763825,3.098633960838867,0.5536406806018165,0.3792672304694966,-5.080499534639459,46.5
,,0.00907506533418842,0.006216802731847675,0.0010997477457277281,0.016391615811763825,3.0687733189730477,0.5536406806018165,0.3792672304694966,-5.080499534639459,46.6
,,0.00907506533418842,0.006216802731847675,0.0010997477457277281,0.016391615811763825,3.0389126771072292,0.5536406806018165,0.3792672304694966,-5.080499534639459,46.7
,,0.00907506533418842,0.006216802731847675,0.0010997477457277281,0.016391615811763825,3.0094561538499627,0.5536406806018165,0.3792672304694966,-5.080499534639459,46.8
,,0.00907506533418842,0.006216802731847675,0.0010997477457277281,0.016391615811763825,2.979999630592696,0.5536406806018165,0.3792672304694966,-5.080499534639459,46.9
,,0.00907506533418842,0.006216802731847675,0.0010997477457277281,0.016391615811763825,2.9505431073354296,0.5536406806018165,0.3792672304694966,-5.080499534639459,47.0
,,0.008693740719474739,0.006386092298712341,0.0011533738754913915,0.01623320689367847,2.919993153377472,0.5355528809812836,0.3933968402262655,-5.053632731503619,47.1
,,0.008693740719474739,0.006386092298712341,0.0011533738754913915,0.01623320689367847,2.889443199419515,0.5355528809812836,0.3933968402262655,-5.053632731503619,47.2
,,0.008693740719474739,0.006386092298712341,0.0011533738754913915,0.01623320689367847,2.858235510955898,0.5355528809812836,0.3933968402262655,-5.053632731503619,47.3
,,0.008693740719474739,0.006386092298712341,0.0011533738754913915,0.01623320689367847,2.827622935660736,0.5355528809812836,0.3933968402262655,-5.053632731503619,47.4
,,0.008693740719474739,0.006386092298712341,0.0011533738754913915,0.01623320689367847,2.797010360365574,0.5355528809812836,0.3933968402262655,-5.053632731503619,47.5
,,0.008693740719474739,0.006386092298712341,0.0011533738754913915,0.01623320689367847,2.766397785070412,0.5355528809812836,0.3933968402262655,-5.053632731503619,47.6
,,0.008676912610754676,0.006603869893451131,0.001203414873751663,0.01648419737795747,2.735258076441537,0.526377621658266,0.4006182249602137,-5.020099454291686,47.7
,,0.008547013393857944,0.006591375100520294,0.0012163603236099946,0.016354748817988235,2.70392707044752,0.5226013244824199,0.40302515030194674,-5.021993287512825,47.8
,,0.008547013393857944,0.006591375100520294,0.0012163603236099946,0.016354748817988235,2.6722498098251197,0.5226013244824199,0.40302515030194674,-5.021993287512825,47.9
,,0.008547013393857944,0.006591375100520294,0.0012163603236099946,0.016354748817988235,2.6298169246895142,0.5226013244824199,0.40302515030194674,-5.021993287512825,48.0
,,0.008547013393857944,0.006591375100520294,0.0012163603236099946,0.016354748817988235,2.5873840395539087,0.5226013244824199,0.40302515030194674,-5.021993287512825,48.1
,,0.008547013393857944,0.006591375100520294,0.0012163603236099946,0.016354748817988235,2.5449511544183037,0.5226013244824199,0.40302515030194674,-5.021993287512825,48.2
,,0.008571123735069639,0.006810269104842313,0.0012547369333937484,0.0166361297733057,2.5020945158199654,0.5152114014416289,0.40936619259667334,-4.989323643471897,48.3
,,0.008597577442999028,0.006817942347311496,0.0012829882739930258,0.01669850806430355,2.4592652502269923,0.5148709938571157,0.4082964969718601,-4.988197561255316,48.4
,,0.008597577442999028,0.006817942347311496,0.0012829882739930258,0.01669850806430355,2.4161641955307087,0.5148709938571157,0.4082964969718601,-4.988197561255316,48.5
,,0.008597577442999028,0.006817942347311496,0.0012829882739930258,0.01669850806430355,2.3730631408344247,0.5148709938571157,0.4082964969718601,-4.988197561255316,48.6
,,0.008597577442999028,0.006817942347311496,0.0012829882739930258,0.01669850806430355,2.342843450172487,0.5148709938571157,0.4082964969718601,-4.988197561255316,48.7
,,0.008597577442999028,0.006817942347311496,0.0012829882739930258,0.01669850806430355,2.312623759510549,0.5148709938571157,0.4082964969718601,-4.988197561255316,48.8
,,0.00864200899997579,0.0070292395262173775,0.0013050922966353542,0.01697634082282852,2.282053123818826,0.5090619403891007,0.41406093336468475,-4.957676754513462,48.9
,,0.008796926099589679,0.007055288852082279,0.0013480883349074634,0.01720030328657942,2.251676024714905,0.5114401736423743,0.4101839795805918,-4.953977751626443,49.0
,,0.008796926099589679,0.007055288852082279,0.0013480883349074634,0.01720030328657942,2.2217095886044596,0.5114401736423743,0.4101839795805918,-4.953977751626443,49.1
,,0.008796926099589679,0.007055288852082279,0.0013480883349074634,0.01720030328657942,2.1917431524940145,0.5114401736423743,0.4101839795805918,-4.953977751626443,49.2
,,0.008796926099589679,0.007055288852082279,0.0013480883349074634,0.01720030328657942,2.1768778035735887,0.5114401736423743,0.4101839795805918,-4.953977751626443,49.3
,,0.008796926099589679,0.007055288852082279,0.0013480883349074634,0.01720030328657942,2.162012454653164,0.5114401736423743,0.4101839795805918,-4.953977751626443,49.4
,,0.008853407837514867,0.007255957491757416,0.0013534288088436512,0.017462794138115936,2.146850455902502,0.5069868984019337,0.41550953612399755,-4.9259324245440395,49.5
,,0.009091943819885609,0.0072952321021061,0.0014111236569469311,0.01779829957893864,2.1319787758241993,0.5108321600926657,0.4098836560060382,-4.920534280912278,49.6
,,0.009091943819885609,0.0072952321021061,0.0014111236569469311,0.01779829957893864,2.117107095745897,0.5108321600926657,0.4098836560060382,-4.920534280912278,49.7
,,0.009091943819885609,0.0072952321021061,0.0014111236569469311,0.01779829957893864,2.0890995879771923,0.5108321600926657,0.4098836560060382,-4.920534280912278,49.8
,,0.009091943819885609,0.0072952321021061,0.0014111236569469311,0.01779829957893864,2.0625329973153574,0.5108321600926657,0.4098836560060382,-4.920534280912278,49.9
,,0.009091943819885609,0.0072952321021061,0.0014111236569469311,0.01779829957893864,2.0359664066535226,0.5108321600926657,0.4098836560060382,-4.920534280912278,50.0
,,0.00913624167244542,0.007478446506154731,0.0013972586397287855,0.018011946818328937,2.0091263788570095,0.5072323255556357,0.4151936812596333,-4.895730194908497,50.1
,,0.009411217606015368,0.007523094301344465,0.0014701083292213443,0.01840442023658118,1.9826119126898587,0.5113563744490766,0.4087656228578902,-4.889777749410907,50.2
,,0.009411217606015368,0.007523094301344465,0.0014701083292213443,0.01840442023658118,1.956097446522708,0.5113563744490766,0.4087656228578902,-4.889777749410907,50.3
,,0.009411217606015368,0.007523094301344465,0.0014701083292213443,0.01840442023658118,1.930677153098956,0.5113563744490766,0.4087656228578902,-4.889777749410907,50.4
,,0.009411217606015368,0.007523094301344465,0.0014701083292213443,0.01840442023658118,1.906824487913706,0.5113563744490766,0.4087656228578902,-4.889777749410907,50.5
,,0.009411217606015368,0.007523094301344465,0.0014701083292213443,0.01840442023658118,1.882971822728456,0.5113563744490766,0.4087656228578902,-4.889777749410907,50.6
,,0.009733814434002319,0.005579144696212817,0.0011487503642408406,0.016461709494455974,1.8646047315213239,0.59130034078663,0.33891648361865323,-5.1887197945861345,50.7
,,0.00970119967927938,0.007731850842451219,0.0015201852707790744,0.01895323579250967,1.840793500214355,0.5118492581152448,0.4079435789801576,-4.862407008762216,50.8
,,0.00970119967927938,0.007731850842451219,0.0015201852707790744,0.01895323579250967,1.8169822689073858,0.5118492581152448,0.4079435789801576,-4.862407008762216,50.9
,,0.00970119967927938,0.007731850842451219,0.0015201852707790744,0.01895323579250967,1.7931710376004169,0.5118492581152448,0.4079435789801576,-4.862407008762216,51.0
,,0.00970119967927938,0.007731850842451219,0.0015201852707790744,0.01895323579250967,1.7723597918005274,0.5118492581152448,0.4079435789801576,-4.862407008762216,51.1
,,0.00970119967927938,0.007731850842451219,0.0015201852707790744,0.01895323579250967,1.7515485460006375,0.5118492581152448,0.4079435789801576,-4.862407008762216,51.2
,,0.009688030918761092,0.0078695216759729,0.001461442143751234,0.019018994738485225,1.7304748175215638,0.509387118087646,0.4137716942551545,-4.844757996548189,51.3
,,0.00554523661090791,0.005392776423841898,0.001169950103325055,0.012107963138074862,1.7071476292955123,0.4579826142243764,0.44539088551431927,-5.222694920218851,51.4
,,0.00554523661090791,0.005392776423841898,0.001169950103325055,0.012107963138074862,1.6838204410694608,0.4579826142243764,0.44539088551431927,-5.222694920218851,51.5
,,0.00554523661090791,0.005392776423841898,0.001169950103325055,0.012107963138074862,1.6604932528434098,0.4579826142243764,0.44539088551431927,-5.222694920218851,51.6
,,0.00554523661090791,0.005392776423841898,0.001169950103325055,0.012107963138074862,1.6486183664685383,0.4579826142243764,0.44539088551431927,-5.222694920218851,51.7
,,0.00554523661090791,0.005392776423841898,0.001169950103325055,0.012107963138074862,1.628578338417529,0.4579826142243764,0.44539088551431927,-5.222694920218851,51.8
,,0.00554523661090791,0.005392776423841898,0.001169950103325055,0.012107963138074862,1.6085383103665203,0.4579826142243764,0.44539088551431927,-5.222694920218851,51.9
,,0.009843281314166492,0.008016061544497546,0.0014826800387157267,0.01934202289737976,1.59071687833371,0.5089065071626996,0.4144375997809139,-4.826308056962322,52.0
,,0.009715316592067492,0.007825646835525312,0.0015597047775578038,0.01910066820515061,1.5730457413459766,0.508637524494965,0.40970539624446645,-4.850348883285351,52.1
,,0.009715316592067492,0.007825646835525312,0.0015597047775578038,0.01910066820515061,1.5553746043582433,0.508637524494965,0.40970539624446645,-4.850348883285351,52.2
,,0.009715316592067492,0.007825646835525312,0.0015597047775578038,0.01910066820515061,1.5478795752683097,0.508637524494965,0.40970539624446645,-4.850348883285351,52.3
,,0.009715316592067492,0.007825646835525312,0.0015597047775578038,0.01910066820515061,1.533448263573672,0.508637524494965,0.40970539624446645,-4.850348883285351,52.4
,,0.009715316592067492,0.007825646835525312,0.0015597047775578038,0.01910066820515061,1.519016951879034,0.508637524494965,0.40970539624446645,-4.850348883285351,52.5
,,0.009790683791334702,0.004966953871534056,0.0010578763747280575,0.015815514037596817,1.5126933429418457,0.6190556796358423,0.31405579734724764,-5.304948529887353,52.6
,,0.009318309713563552,0.004660212870666355,0.0010362329280719097,0.015014755512301817,1.5066850818640263,0.620610152854565,0.31037554136983264,-5.368694151487395,52.7
,,0.009318309713563552,0.004660212870666355,0.0010362329280719097,0.015014755512301817,1.500676820786207,0.620610152854565,0.31037554136983264,-5.368694151487395,52.8
,,0.009318309713563552,0.004660212870666355,0.0010362329280719097,0.015014755512301817,1.4946685597083873,0.620610152854565,0.31037554136983264,-5.368694151487395,52.9
,,0.009318309713563552,0.004660212870666355,0.0010362329280719097,0.015014755512301817,1.4917539005121319,0.620610152854565,0.31037554136983264,-5.368694151487395,53.0
,,0.009318309713563552,0.004660212870666355,0.0010362329280719097,0.015014755512301817,1.4888392413158764,0.620610152854565,0.31037554136983264,-5.368694151487395,53.1
,,0.008970529085164672,0.007564786878971625,0.0013950249411684406,0.017930340905304737,1.4768832614064527,0.500298858373112,0.421898664332342,-4.884251104118612,53.2
,,0.008766305563464992,0.004383726293561386,0.0009745556686609014,0.01412458752568728,1.4739707400716033,0.6206415265240418,0.3103613670550766,-5.429856164323451,53.3
,,0.008766305563464992,0.004383726293561386,0.0009745556686609014,0.01412458752568728,1.4710582187367538,0.6206415265240418,0.3103613670550766,-5.429856164323451,53.4
,,0.008766305563464992,0.004383726293561386,0.0009745556686609014,0.01412458752568728,1.468145697401904,0.6206415265240418,0.3103613670550766,-5.429856164323451,53.5
,,0.008766305563464992,0.004383726293561386,0.0009745556686609014,0.01412458752568728,1.4680749131761142,0.6206415265240418,0.3103613670550766,-5.429856164323451,53.6
,,0.008766305563464992,0.004383726293561386,0.0009745556686609014,0.01412458752568728,1.468004128950324,0.6206415265240418,0.3103613670550766,-5.429856164323451,53.7
,,0.008662988608658525,0.004360292681148119,0.0009279478887370136,0.013951229178543656,1.4677894811364958,0.6209480539522495,0.31253824486333054,-5.435216095170528,53.8
,,0.008662988608658525,0.004360292681148119,0.0009279478887370136,0.013951229178543656,1.4675748333226677,0.6209480539522495,0.31253824486333054,-5.435216095170528,53.9
,,0.008193044772364717,0.004187441119606528,0.0009242978331469357,0.013304783725118181,1.4670244621154618,0.6157969149770559,0.31473199460589746,-5.475665442919294,54.0
,,0.008193044772364717,0.004187441119606528,0.0009242978331469357,0.013304783725118181,1.4664740909082556,0.6157969149770559,0.31473199460589746,-5.475665442919294,54.1
,,0.008193044772364717,0.004187441119606528,0.0009242978331469357,0.013304783725118181,1.4683974396963593,0.6157969149770559,0.31473199460589746,-5.475665442919294,54.2
,,0.008193044772364717,0.004187441119606528,0.0009242978331469357,0.013304783725118181,1.4678260954315776,0.6157969149770559,0.31473199460589746,-5.475665442919294,54.3
,,0.007992215368918261,0.007376368548551955,0.0013644484617291162,0.016733032379199334,1.4600484847101105,0.47763102274596114,0.44082676596750303,-4.909473828066127,54.4
,,0.007992215368918261,0.007376368548551955,0.0013644484617291162,0.016733032379199334,1.4522708739886436,0.47763102274596114,0.44082676596750303,-4.909473828066127,54.5
,,0.007992215368918261,0.007376368548551955,0.0013644484617291162,0.016733032379199334,1.4444932632671765,0.47763102274596114,0.44082676596750303,-4.909473828066127,54.6
,,0.0076520065394444425,0.007336395593820428,0.0014869666987386548,0.016475368832003526,1.436265994001996,0.4644513040934394,0.44529477115980703,-4.91490762047909,54.7
,,0.0076520065394444425,0.007336395593820428,0.0014869666987386548,0.016475368832003526,1.42660520408568,0.4644513040934394,0.44529477115980703,-4.91490762047909,54.8
,,0.0076520065394444425,0.007336395593820428,0.0014869666987386548,0.016475368832003526,1.418098098266545,0.4644513040934394,0.44529477115980703,-4.91490762047909,54.9
,,0.007565498803927949,0.007437547312353397,0.0013749660995923698,0.016378012215873716,1.4093041431198836,0.4619302210921176,0.4541178266520561,-4.9012141468057955,55.0
,,0.007565498803927949,0.007437547312353397,0.0013749660995923698,0.016378012215873716,1.4005101879732222,0.4619302210921176,0.4541178266520561,-4.9012141468057955,55.1
,,0.007565498803927949,0.007437547312353397,0.0013749660995923698,0.016378012215873716,1.3917162328265609,0.4619302210921176,0.4541178266520561,-4.9012141468057955,55.2
,,0.007565498803927949,0.007437547312353397,0.0013749660995923698,0.016378012215873716,1.3829222776798993,0.4619302210921176,0.4541178266520561,-4.9012141468057955,55.3
,,0.007256463552042676,0.007482557815161818,0.0015127733101145309,0.016251794677319024,1.3767254017803365,0.44650229073899045,0.4604142473941332,-4.895180591550021,55.4
,,0.007256463552042676,0.007482557815161818,0.0015127733101145309,0.016251794677319024,1.3712811767198394,0.44650229073899045,0.4604142473941332,-4.895180591550021,55.5
,,0.007256463552042676,0.007482557815161818,0.0015127733101145309,0.016251794677319024,1.365836951659342,0.44650229073899045,0.4604142473941332,-4.895180591550021,55.6
,,0.0072230565540993405,0.007618347294754244,0.0014058940733830448,0.016247297922236628,1.3601519432012705,0.4445697117557997,0.46889934136848094,-4.877195823259917,55.7
,,0.0072230565540993405,0.007618347294754244,0.0014058940733830448,0.016247297922236628,1.3544669347431986,0.4445697117557997,0.46889934136848094,-4.877195823259917,55.8
,,0.0072230565540993405,0.007618347294754244,0.0014058940733830448,0.016247297922236628,1.3487819262851266,0.4445697117557997,0.46889934136848094,-4.877195823259917,55.9
,,0.00696931462158363,0.007742491429901457,0.001561404497453168,0.016273210548938256,1.3425638642599174,0.42826918515094997,0.47578143271836515,-4.86103175300788,56.0
,,0.00696931462158363,0.007742491429901457,0.001561404497453168,0.016273210548938256,1.3374392329353983,0.42826918515094997,0.47578143271836515,-4.86103175300788,56.1
,,0.00696931462158363,0.007742491429901457,0.001561404497453168,0.016273210548938256,1.3323146016108793,0.42826918515094997,0.47578143271836515,-4.86103175300788,56.2
,,0.006967252416980875,0.007876260878740918,0.0014638327790509726,0.016307346074772765,1.327017196206113,0.42724624749082357,0.48298851588888414,-4.843901995500784,56.3
,,0.006967252416980875,0.007876260878740918,0.0014638327790509726,0.016307346074772765,1.3217197908013467,0.42724624749082357,0.48298851588888414,-4.843901995500784,56.4
,,0.006967252416980875,0.007876260878740918,0.0014638327790509726,0.016307346074772765,1.3164223853965804,0.42724624749082357,0.48298851588888414,-4.843901995500784,56.5
,,0.006967252416980875,0.007876260878740918,0.0014638327790509726,0.016307346074772765,1.3111249799918139,0.42724624749082357,0.48298851588888414,-4.843901995500784,56.6
,,0.006848601253339907,0.0045880627959663835,0.0009300610431419673,0.012366725092448258,1.3131114984691705,0.5537926332268845,0.37100062964673525,-5.384297392806416,56.7
,,0.006848601253339907,0.0045880627959663835,0.0009300610431419673,0.012366725092448258,1.3152893143116686,0.5537926332268845,0.37100062964673525,-5.384297392806416,56.8
,,0.006801808907702447,0.008200050193220449,0.0015438385369139903,0.016545697637836886,1.3100980616177829,0.41109230064424696,0.4956001477065846,-4.803615003606219,56.9
,,0.006801808907702447,0.008200050193220449,0.0015438385369139903,0.016545697637836886,1.3049068089238969,0.41109230064424696,0.4956001477065846,-4.803615003606219,57.0
,,0.006801808907702447,0.008200050193220449,0.0015438385369139903,0.016545697637836886,1.2997155562300111,0.41109230064424696,0.4956001477065846,-4.803615003606219,57.1
,,0.006801808907702447,0.008200050193220449,0.0015438385369139903,0.016545697637836886,1.2945243035361254,0.41109230064424696,0.4956001477065846,-4.803615003606219,57.2
,,0.0066531925919900495,0.008401678656736722,0.00120211706896871,0.01625698831769548,1.2893390784412786,0.40925123780449246,0.5168041270960146,-4.779323753010535,57.3
,,0.0066531925919900495,0.008401678656736722,0.00120211706896871,0.01625698831769548,1.2841264803410672,0.40925123780449246,0.5168041270960146,-4.779323753010535,57.4
,,0.006545580817946994,0.008318315782235823,0.001605745190044643,0.01646964179022746,1.2788583185444318,0.3974331015402487,0.5050696237468647,-4.789295474660475,57.5
,,0.006545580817946994,0.008318315782235823,0.001605745190044643,0.01646964179022746,1.2735901567477963,0.3974331015402487,0.5050696237468647,-4.789295474660475,57.6
,,0.006545580817946994,0.008318315782235823,0.001605745190044643,0.01646964179022746,1.2683219949511613,0.3974331015402487,0.5050696237468647,-4.789295474660475,57.7
,,0.006545580817946994,0.008318315782235823,0.001605745190044643,0.01646964179022746,1.2630538331545258,0.3974331015402487,0.5050696237468647,-4.789295474660475,57.8
,,0.0063281919457220765,0.00834034409561037,0.001239243698006768,0.015907779739339215,1.2578239158836133,0.39780485079716976,0.5242934106627765,-4.786650804996118,57.9
,,0.0063281919457220765,0.00834034409561037,0.001239243698006768,0.015907779739339215,1.2524004620248992,0.39780485079716976,0.5242934106627765,-4.786650804996118,58.0
,,0.0063281919457220765,0.00834034409561037,0.001239243698006768,0.015907779739339215,1.2469770081661853,0.39780485079716976,0.5242934106627765,-4.786650804996118,58.1
,,0.0062268525043838695,0.00821912101957455,0.0016346759887865753,0.016080649512744995,1.2415408980826588,0.38722643009218444,0.511118721483255,-4.801292007556912,58.2
,,0.0062268525043838695,0.00821912101957455,0.0016346759887865753,0.016080649512744995,1.2361047879991325,0.38722643009218444,0.511118721483255,-4.801292007556912,58.3
,,0.0062268525043838695,0.00821912101957455,0.0016346759887865753,0.016080649512744995,1.230668677915606,0.38722643009218444,0.511118721483255,-4.801292007556912,58.4
,,0.0062268525043838695,0.00821912101957455,0.0016346759887865753,0.016080649512744995,1.225529217662316,0.38722643009218444,0.511118721483255,-4.801292007556912,58.5
,,0.006093983363434438,0.008241675746354678,0.0017613407292028536,0.01609699983899197,1.2198972728261335,0.3785788298682158,0.5120007348444373,-4.798551588461025,58.6
,,0.006093983363434438,0.008241675746354678,0.0017613407292028536,0.01609699983899197,1.214265327989951,0.3785788298682158,0.5120007348444373,-4.798551588461025,58.7
,,0.006093983363434438,0.008241675746354678,0.0017613407292028536,0.01609699983899197,1.2086333831537683,0.3785788298682158,0.5120007348444373,-4.798551588461025,58.8
,,0.005865903188145661,0.0051964508961499485,0.001089850700551715,0.012152204784847324,1.20732830540346,0.48270279278538,0.4276138353617479,-5.259779406388709,58.9
,,0.005865903188145661,0.0051964508961499485,0.001089850700551715,0.012152204784847324,1.206023227653152,0.48270279278538,0.4276138353617479,-5.259779406388709,59.0
,,0.005865903188145661,0.0051964508961499485,0.001089850700551715,0.012152204784847324,1.2049915870375223,0.48270279278538,0.4276138353617479,-5.259779406388709,59.1
,,0.005950615167185902,0.00811370078787928,0.001790095093234125,0.015854411048299308,1.199240768962271,0.3753286797634921,0.5117629890609927,-4.814201190909458,59.2
,,0.005950615167185902,0.00811370078787928,0.001790095093234125,0.015854411048299308,1.19348995088702,0.3753286797634921,0.5117629890609927,-4.814201190909458,59.3
,,0.005950615167185902,0.00811370078787928,0.001790095093234125,0.015854411048299308,1.187739132811769,0.3753286797634921,0.5117629890609927,-4.814201190909458,59.4
,,0.005854217979196,0.007936335718449107,0.001713747819471055,0.015504301517116162,1.1820354718818982,0.37758669571364856,0.5118796038433394,-4.8363036066623275,59.5
,,0.005854217979196,0.007936335718449107,0.001713747819471055,0.015504301517116162,1.176331810952027,0.37758669571364856,0.5118796038433394,-4.8363036066623275,59.6
,,0.005854217979196,0.007936335718449107,0.001713747819471055,0.015504301517116162,1.1651425760440373,0.37758669571364856,0.5118796038433394,-4.8363036066623275,59.7
,,0.005867479456645872,0.005545096119374367,0.0011901657790902437,0.012602741355110483,1.1629584921909433,0.4655716793129755,0.4399912656404552,-5.194841323907257,59.8
,,0.005867479456645872,0.005545096119374367,0.0011901657790902437,0.012602741355110483,1.1607744083378488,0.4655716793129755,0.4399912656404552,-5.194841323907257,59.9
,,0.005867479456645872,0.005545096119374367,0.0011901657790902437,0.012602741355110483,1.1585903244847546,0.4655716793129755,0.4399912656404552,-5.194841323907257,60.0
,,0.005867479456645872,0.005545096119374367,0.0011901657790902437,0.012602741355110483,1.1564062406316602,0.4655716793129755,0.4399912656404552,-5.194841323907257,60.1
,,0.005773195636170588,0.00773881509453949,0.0017540518291062166,0.015266062559816294,1.1507540085121006,0.37817188378141037,0.5069293450237646,-4.861506691660541,60.2
,,0.005773195636170588,0.00773881509453949,0.0017540518291062166,0.015266062559816294,1.1453642590717252,0.37817188378141037,0.5069293450237646,-4.861506691660541,60.3
,,0.0059062165377012825,0.0078075046196963175,0.0018610244149519434,0.015574745572349544,1.142344350516269,0.37921752944631215,0.501292594696204,-4.852669877107399,60.4
,,0.0059062165377012825,0.0078075046196963175,0.0018610244149519434,0.015574745572349544,1.1393244419608126,0.37921752944631215,0.501292594696204,-4.852669877107399,60.5
,,0.0059062165377012825,0.0078075046196963175,0.0018610244149519434,0.015574745572349544,1.1363045334053565,0.37921752944631215,0.501292594696204,-4.852669877107399,60.6
,,0.0059062165377012825,0.0078075046196963175,0.0018610244149519434,0.015574745572349544,1.1332846248499002,0.37921752944631215,0.501292594696204,-4.852669877107399,60.7
,,0.0059062165377012825,0.0078075046196963175,0.0018610244149519434,0.015574745572349544,1.130264716294444,0.37921752944631215,0.501292594696204,-4.852669877107399,60.8
,,0.005802226375729512,0.0075939062295544285,0.001810897645884729,0.015207030251168669,1.127329075047524,0.38154894676319906,0.4993681280387295,-4.880409165213679,60.9
,,0.005802226375729512,0.0075939062295544285,0.001810897645884729,0.015207030251168669,1.1221748377824048,0.38154894676319906,0.4993681280387295,-4.880409165213679,61.0
,,0.005998691329461249,0.007683816072880183,0.0019092837642301253,0.015591791166571556,1.1170550633888956,0.38473394527771165,0.4928116334288846,-4.86863897073917,61.1
,,0.005998691329461249,0.007683816072880183,0.0019092837642301253,0.015591791166571556,1.1119352889953866,0.38473394527771165,0.4928116334288846,-4.86863897073917,61.2
,,0.005998691329461249,0.007683816072880183,0.0019092837642301253,0.015591791166571556,1.1068155146018777,0.38473394527771165,0.4928116334288846,-4.86863897073917,61.3
,,0.005998691329461249,0.007683816072880183,0.0019092837642301253,0.015591791166571556,1.101695740208369,0.38473394527771165,0.4928116334288846,-4.86863897073917,61.4
,,0.0059400226936140305,0.007516016738252107,0.001880670653460213,0.01533671008532635,1.0966828943652591,0.38730749036569745,0.49006708064744475,-4.890718970417418,61.5
,,0.0059400226936140305,0.007516016738252107,0.001880670653460213,0.01533671008532635,1.0835623457647006,0.38730749036569745,0.49006708064744475,-4.890718970417418,61.6
,,0.0067422032418848945,0.006718283916674644,0.0015612881395105473,0.015021775298070087,1.072495839043205,0.44882865760554247,0.44723634746006163,-5.002922526601896,61.7
,,0.0067422032418848945,0.006718283916674644,0.0015612881395105473,0.015021775298070087,1.0614293323217092,0.44882865760554247,0.44723634746006163,-5.002922526601896,61.8
,,0.0067422032418848945,0.006718283916674644,0.0015612881395105473,0.015021775298070087,1.0503628256002138,0.44882865760554247,0.44723634746006163,-5.002922526601896,61.9
,,0.0067422032418848945,0.006718283916674644,0.0015612881395105473,0.015021775298070087,1.039296318878718,0.44882865760554247,0.44723634746006163,-5.002922526601896,62.0
,,0.0068024883637177735,0.007011936761645132,0.0016352715876275141,0.015449696712990419,1.0278583610907508,0.44029915215087057,0.453855948884055,-4.960141330554071,62.1
,,0.0068024883637177735,0.007011936761645132,0.0016352715876275141,0.015449696712990419,1.0254617240159516,0.44029915215087057,0.453855948884055,-4.960141330554071,62.2
,,0.007132173004360852,0.007148155720162429,0.0016854492413474398,0.01596577796587072,1.014328676608621,0.4467162840174126,0.4477173449012443,-4.940900896784807,62.3
,,0.007132173004360852,0.007148155720162429,0.0016854492413474398,0.01596577796587072,1.0031956292012905,0.4467162840174126,0.4477173449012443,-4.940900896784807,62.4
,,0.007132173004360852,0.007148155720162429,0.0016854492413474398,0.01596577796587072,0.9920625817939598,0.4467162840174126,0.4477173449012443,-4.940900896784807,62.5
,,0.007132173004360852,0.007148155720162429,0.0016854492413474398,0.01596577796587072,0.9809295343866293,0.4467162840174126,0.4477173449012443,-4.940900896784807,62.6
,,0.007132173004360852,0.007148155720162429,0.0016854492413474398,0.01596577796587072,0.9697964869792987,0.4467162840174126,0.4477173449012443,-4.940900896784807,62.7
,,0.006412722281677561,0.007450166147167341,0.002018815481621085,0.015881703910465984,0.9572849122377609,0.40378049596124255,0.4691037050664135,-4.899518945206147,62.8
,,0.006412722281677561,0.007450166147167341,0.002018815481621085,0.015881703910465984,0.9447733374962229,0.40378049596124255,0.4691037050664135,-4.899518945206147,62.9
,,0.006667472070349355,0.007581127821636698,0.002078330166932847,0.016326930058918897,0.932805641444822,0.4083726730186561,0.46433271866044173,-4.882093301261733,63.0
,,0.006667472070349355,0.007581127821636698,0.002078330166932847,0.016326930058918897,0.9208379453934213,0.4083726730186561,0.46433271866044173,-4.882093301261733,63.1
,,0.006667472070349355,0.007581127821636698,0.002078330166932847,0.016326930058918897,0.9088702493420203,0.4083726730186561,0.46433271866044173,-4.882093301261733,63.2
,,0.006667472070349355,0.007581127821636698,0.002078330166932847,0.016326930058918897,0.8969025532906195,0.4083726730186561,0.46433271866044173,-4.882093301261733,63.3
,,0.006750383262093613,0.007490428371379407,0.0020909671618712954,0.016331778795344316,0.8948771318373986,0.4133281099801534,0.45864130694169675,-4.894129290647926,63.4
,,0.006750383262093613,0.007490428371379407,0.0020909671618712954,0.016331778795344316,0.8928517103841777,0.4133281099801534,0.45864130694169675,-4.894129290647926,63.5
,,0.007004150683919775,0.007656353469034393,0.0021391208323295685,0.016799624985283736,0.8909775583891919,0.41692303786872176,0.45574549882757887,-4.872219457005595,63.6
,,0.007004150683919775,0.007656353469034393,0.0021391208323295685,0.016799624985283736,0.8895530649379203,0.41692303786872176,0.45574549882757887,-4.872219457005595,63.7
,,0.007004150683919775,0.007656353469034393,0.0021391208323295685,0.016799624985283736,0.8881285714866487,0.41692303786872176,0.45574549882757887,-4.872219457005595,63.8
,,0.007004150683919775,0.007656353469034393,0.0021391208323295685,0.016799624985283736,0.886704078035377,0.41692303786872176,0.45574549882757887,-4.872219457005595,63.9
,,0.007172597670256579,0.007600069848417053,0.0021685575319680323,0.016941225050641665,0.8858879749825385,0.4233812872927339,0.4486139476748875,-4.879597841150893,64.0
,,0.007172597670256579,0.007600069848417053,0.0021685575319680323,0.016941225050641665,0.8850718719296997,0.4233812872927339,0.4486139476748875,-4.879597841150893,64.1
,,0.00739620670994014,0.007784616940756636,0.002202269802050938,0.017383093452747717,0.8843263381813724,0.42548276749734865,0.4478269050280078,-4.85560567969076,64.2
,,0.00739620670994014,0.007784616940756636,0.002202269802050938,0.017383093452747717,0.8835808044330453,0.42548276749734865,0.4478269050280078,-4.85560567969076,64.3
,,0.00739620670994014,0.007784616940756636,0.002202269802050938,0.017383093452747717,0.8833621554145178,0.42548276749734865,0.4478269050280078,-4.85560567969076,64.4
,,0.00739620670994014,0.007784616940756636,0.002202269802050938,0.017383093452747717,0.8831435063959903,0.42548276749734865,0.4478269050280078,-4.85560567969076,64.5
,,0.008190562580452355,0.008853674157941303,0.0020098382015368795,0.019054074939930537,0.8826470553452916,0.4298588415482643,0.46466040392163904,-4.726922747027577,64.6
,,0.00817983624544874,0.008842275261584445,0.0020072375171148187,0.019029349024148004,0.8823911600243446,0.4298537083464406,0.46466514699812955,-4.72821105291761,64.7
,,0.007853224546354195,0.007970156693169438,0.002271607649625972,0.018094988889149607,0.8828046648114118,0.43399996509880506,0.4404620937871161,-4.8320511260006995,64.8
,,0.007853224546354195,0.007970156693169438,0.002271607649625972,0.018094988889149607,0.8832181695984793,0.43399996509880506,0.4404620937871161,-4.8320511260006995,64.9
,,0.007853224546354195,0.007970156693169438,0.002271607649625972,0.018094988889149607,0.8841647279526845,0.43399996509880506,0.4404620937871161,-4.8320511260006995,65.0
,,0.007853224546354195,0.007970156693169438,0.002271607649625972,0.018094988889149607,0.8851112863068896,0.43399996509880506,0.4404620937871161,-4.8320511260006995,65.1
,,0.007853224546354195,0.007970156693169438,0.002271607649625972,0.018094988889149607,0.8860578446610947,0.43399996509880506,0.4404620937871161,-4.8320511260006995,65.2
,,0.008356074335297238,0.009258256345006237,0.002064069383839468,0.019678400064142943,0.8862574552762404,0.42463179466115664,0.47047810364808046,-4.682239547730011,65.3
,,0.008246991251198947,0.007994938881415553,0.002335917784614235,0.018577847917228735,0.8878900959252343,0.44391531720694344,0.43034795618071575,-4.828946577326371,65.4
,,0.0084156240613845,0.008221524867948733,0.0023515057520977246,0.018988654681430957,0.8894347606837191,0.4431922220174005,0.4329703713022165,-4.80099958006863,65.5
,,0.0084156240613845,0.008221524867948733,0.0023515057520977246,0.018988654681430957,0.8909794254422042,0.4431922220174005,0.4329703713022165,-4.80099958006863,65.6
,,0.0084156240613845,0.008221524867948733,0.0023515057520977246,0.018988654681430957,0.8857672996522793,0.4431922220174005,0.4329703713022165,-4.80099958006863,65.7
,,0.0084156240613845,0.008221524867948733,0.0023515057520977246,0.018988654681430957,0.8805551738623546,0.4431922220174005,0.4329703713022165,-4.80099958006863,65.8
,,0.008915846816896313,0.008272767166773212,0.002424088044523509,0.019612702028193034,0.883313515130009,0.454595537324734,0.4218066003797541,-4.794786222918083,65.9
,,0.008915846816896313,0.008272767166773212,0.002424088044523509,0.019612702028193034,0.8860718563976634,0.454595537324734,0.4218066003797541,-4.794786222918083,66.0
,,0.009064153607789126,0.008515750178757511,0.0024369677059879243,0.02001687149253456,0.8886820220450699,0.45282568812862034,0.4254286281416915,-4.765837867895817,66.1
,,0.009064153607789126,0.008515750178757511,0.0024369677059879243,0.02001687149253456,0.8912921876924761,0.45282568812862034,0.4254286281416915,-4.765837867895817,66.2
,,0.009064153607789126,0.008515750178757511,0.0024369677059879243,0.02001687149253456,0.8943200792035757,0.45282568812862034,0.4254286281416915,-4.765837867895817,66.3
,,0.009064153607789126,0.008515750178757511,0.0024369677059879243,0.02001687149253456,0.8973479707146754,0.45282568812862034,0.4254286281416915,-4.765837867895817,66.4
,,0.009700380182216788,0.008589964890237554,0.00252066375940296,0.0208110088318573,0.901152205650495,0.4661177293513775,0.4127606191338555,-4.757160630277498,66.5
,,0.009700380182216788,0.008589964890237554,0.00252066375940296,0.0208110088318573,0.9049564405863145,0.4661177293513775,0.4127606191338555,-4.757160630277498,66.6
,,0.009823767649094763,0.00885519685920553,0.0025315422226434947,0.02121050673094379,0.9085396744169411,0.4631557262497161,0.4174910562738596,-4.7267507765765515,66.7
,,0.009823767649094763,0.00885519685920553,0.0025315422226434947,0.02121050673094379,0.9121229082475676,0.4631557262497161,0.4174910562738596,-4.7267507765765515,66.8
,,0.009823767649094763,0.00885519685920553,0.0025315422226434947,0.02121050673094379,0.916018842582256,0.4631557262497161,0.4174910562738596,-4.7267507765765515,66.9
,,0.009823767649094763,0.00885519685920553,0.0025315422226434947,0.02121050673094379,0.9199147769169448,0.4631557262497161,0.4174910562738596,-4.7267507765765515,67.0
,,0.010604640431300879,0.008948478641492001,0.002623185541455606,0.022176304614248486,0.924651807608557,0.4781969140380267,0.40351531948846514,-4.716271745335161,67.1
,,0.010604640431300879,0.008948478641492001,0.002623185541455606,0.022176304614248486,0.929401494524982,0.4781969140380267,0.40351531948846514,-4.716271745335161,67.2
,,0.007066404824093714,0.009119981267781168,0.0020470495447019394,0.01823343563657682,0.9295928393475672,0.3875520206361051,0.500178981600495,-4.69728752886937,67.3
,,0.007066404824093714,0.009119981267781168,0.0020470495447019394,0.01823343563657682,0.9297841841701523,0.3875520206361051,0.500178981600495,-4.69728752886937,67.4
,,0.007066404824093714,0.009119981267781168,0.0020470495447019394,0.01823343563657682,0.9299755289927374,0.3875520206361051,0.500178981600495,-4.69728752886937,67.5
,,0.007066404824093714,0.009119981267781168,0.0020470495447019394,0.01823343563657682,0.9303690397258564,0.3875520206361051,0.500178981600495,-4.69728752886937,67.6
,,0.0066691153050192275,0.00883122673237582,0.0018236962336699012,0.01732403827106495,0.9305441904585893,0.3849630900526324,0.509767214444796,-4.729461346226959,67.7
,,0.0066691153050192275,0.00883122673237582,0.0018236962336699012,0.01732403827106495,0.9307193411913219,0.3849630900526324,0.509767214444796,-4.729461346226959,67.8
,,0.006269509598674267,0.008702606419242372,0.0019280961521186126,0.01690021217003525,0.9261814379123865,0.37097224198110107,0.5149406606073526,-4.744132709770585,67.9
,,0.006269509598674267,0.008702606419242372,0.0019280961521186126,0.01690021217003525,0.9216435346334512,0.37097224198110107,0.5149406606073526,-4.744132709770585,68.0
,,0.006269509598674267,0.008702606419242372,0.0019280961521186126,0.01690021217003525,0.9171056313545155,0.37097224198110107,0.5149406606073526,-4.744132709770585,68.1
,,0.006269509598674267,0.008702606419242372,0.0019280961521186126,0.01690021217003525,0.9169613439058388,0.37097224198110107,0.5149406606073526,-4.744132709770585,68.2
,,0.012841131184484388,0.009777090116831389,0.002847023959488846,0.025465245260804625,0.9234056388835175,0.504261044924986,0.3839385804730499,-4.627713373273774,68.3
,,0.012841131184484388,0.009777090116831389,0.002847023959488846,0.025465245260804625,0.929849933861196,0.504261044924986,0.3839385804730499,-4.627713373273774,68.4
,,0.012983962671249443,0.01013137885431305,0.0028756260709015278,0.02599096759646402,0.9358933984843467,0.4995567257379008,0.38980383537900254,-4.592117854060188,68.5
,,0.012983962671249443,0.01013137885431305,0.0028756260709015278,0.02599096759646402,0.9419368631074974,0.4995567257379008,0.38980383537900254,-4.592117854060188,68.6
,,0.012983962671249443,0.01013137885431305,0.0028756260709015278,0.02599096759646402,0.9479803277306481,0.4995567257379008,0.38980383537900254,-4.592117854060188,68.7
,,0.012983962671249443,0.01013137885431305,0.0028756260709015278,0.02599096759646402,0.9504627813987411,0.4995567257379008,0.38980383537900254,-4.592117854060188,68.8
,,0.005482865231038355,0.008437135478222425,0.0016615441453495922,0.015581544854610373,0.9459262334174343,0.3518820041400483,0.5414826037436197,-4.7751124262977935,68.9
,,0.005482865231038355,0.008437135478222425,0.0016615441453495922,0.015581544854610373,0.9413896854361277,0.3518820041400483,0.5414826037436197,-4.7751124262977935,69.0
,,0.0050934144552668694,0.008475183996782286,0.0018114645054044024,0.015380062957453559,0.9363101448871118,0.3311699353479223,0.551050019770888,-4.7706129154165104,69.1
,,0.0050934144552668694,0.008475183996782286,0.0018114645054044024,0.015380062957453559,0.9346987526045613,0.3311699353479223,0.551050019770888,-4.7706129154165104,69.2
,,0.0050934144552668694,0.008475183996782286,0.0018114645054044024,0.015380062957453559,0.9330873603220107,0.3311699353479223,0.551050019770888,-4.7706129154165104,69.3
,,0.0050934144552668694,0.008475183996782286,0.0018114645054044024,0.015380062957453559,0.9313595869015185,0.3311699353479223,0.551050019770888,-4.7706129154165104,69.4
,,0.01600837390439546,0.010948276575462969,0.0031396485871323476,0.030096299066990777,0.939200727699155,0.531905064764366,0.3637748465714475,-4.51457322547547,69.5
,,0.01600837390439546,0.010948276575462969,0.0031396485871323476,0.030096299066990777,0.9470418684967914,0.531905064764366,0.3637748465714475,-4.51457322547547,69.6
,,0.016263958696096942,0.01138092186399914,0.0031889561537190828,0.030833836713815167,0.9545149260483216,0.5274711300786593,0.3691049534195624,-4.4758168461835774,69.7
,,0.016263958696096942,0.01138092186399914,0.0031889561537190828,0.030833836713815167,0.9619879835998519,0.5274711300786593,0.3691049534195624,-4.4758168461835774,69.8
,,0.016263958696096942,0.01138092186399914,0.0031889561537190828,0.030833836713815167,0.9693767738428458,0.5274711300786593,0.3691049534195624,-4.4758168461835774,69.9
,,0.016263958696096942,0.01138092186399914,0.0031889561537190828,0.030833836713815167,0.9767655640858397,0.5274711300786593,0.3691049534195624,-4.4758168461835774,70.0
,,0.018025452440369755,0.01166519844083742,0.003309592316163946,0.03300024319737112,0.9852604702903461,0.5462218060806809,0.3534882567703834,-4.451145362008569,70.1
,,0.018025452440369755,0.01166519844083742,0.003309592316163946,0.03300024319737112,0.9937553764948529,0.5462218060806809,0.3534882567703834,-4.451145362008569,70.2
,,0.018455916918020038,0.01214865721153258,0.0033813193890650755,0.033985893518617694,1.0019607288993844,0.5430463938783827,0.3574617570339137,-4.410536632872431,70.3
,,0.018455916918020038,0.01214865721153258,0.0033813193890650755,0.033985893518617694,1.010166081303916,0.5430463938783827,0.3574617570339137,-4.410536632872431,70.4
,,0.018455916918020038,0.01214865721153258,0.0033813193890650755,0.033985893518617694,1.0182645051580481,0.5430463938783827,0.3574617570339137,-4.410536632872431,70.5
,,0.018455916918020038,0.01214865721153258,0.0033813193890650755,0.033985893518617694,1.02636292901218,0.5430463938783827,0.3574617570339137,-4.410536632872431,70.6
,,0.018455916918020038,0.01214865721153258,0.0033813193890650755,0.033985893518617694,1.03209196312788,0.5430463938783827,0.3574617570339137,-4.410536632872431,70.7
,,0.02045785088650089,0.012503234273635177,0.0035087729215963364,0.0364698580817324,1.0391213451681371,0.5609523031499851,0.3428374809031131,-4.381767926250977,70.8
,,0.021037799766584354,0.013040196535743155,0.0036025601129627337,0.037680556415290244,1.0458962735574253,0.5583197746529961,0.3460722923521274,-4.339718650837764,70.9
,,0.021037799766584354,0.013040196535743155,0.0036025601129627337,0.037680556415290244,1.0526712019467135,0.5583197746529961,0.3460722923521274,-4.339718650837764,71.0
,,0.021037799766584354,0.013040196535743155,0.0036025601129627337,0.037680556415290244,1.059817581402473,0.5583197746529961,0.3460722923521274,-4.339718650837764,71.1
,,0.021037799766584354,0.013040196535743155,0.0036025601129627337,0.037680556415290244,1.066963960858233,0.5583197746529961,0.3460722923521274,-4.339718650837764,71.2
,,0.021037799766584354,0.013040196535743155,0.0036025601129627337,0.037680556415290244,1.0738032920719502,0.5583197746529961,0.3460722923521274,-4.339718650837764,71.3
,,0.022933997614702488,0.013262831029708058,0.0036816398321384406,0.03987846847654899,1.081930282634851,0.5750972514952298,0.33258125340263317,-4.322789815526341,71.4
,,0.023487997102242034,0.013717008708722441,0.003763667360976863,0.04096867317194134,1.0898698647646532,0.5733160310968654,0.3348170113089471,-4.289118704600711,71.5
,,0.023487997102242034,0.013717008708722441,0.003763667360976863,0.04096867317194134,1.097809446894455,0.5733160310968654,0.3348170113089471,-4.289118704600711,71.6
,,0.023487997102242034,0.013717008708722441,0.003763667360976863,0.04096867317194134,1.1057490290242573,0.5733160310968654,0.3348170113089471,-4.289118704600711,71.7
,,0.023487997102242034,0.013717008708722441,0.003763667360976863,0.04096867317194134,1.1152110020763042,0.5733160310968654,0.3348170113089471,-4.289118704600711,71.8
,,0.023487997102242034,0.013717008708722441,0.003763667360976863,0.04096867317194134,1.1246729751283515,0.5733160310968654,0.3348170113089471,-4.289118704600711,71.9
,,0.02499804259206202,0.013667485374195489,0.0037545499709663566,0.04242007793722387,1.1352233376578102,0.5892974225331653,0.32219378272764065,-4.2927355973112595,72.0
,,0.0253388020634715,0.013950731202114909,0.003810169291759589,0.043099702557346,1.1456324877259714,0.5879112977579634,0.323685092340321,-4.272223356166213,72.1
