HRV_ULF,HRV_VLF,HRV_LF,HRV_HF,HRV_VHF,HRV_TP,HRV_LFHF,HRV_LFn,HRV_HFn,HRV_LnHF,time
,,0.017012460101966623,0.0422262912768121,0.013827013582557734,0.07306576496133646,0.4028878593775235,0.2328376375853856,0.5779217024437724,-3.1647122358958915,0.0
,,0.017012460101966623,0.0422262912768121,0.013827013582557734,0.07306576496133646,0.4028878593775235,0.2328376375853856,0.5779217024437724,-3.1647122358958915,0.1
,,0.017012460101966623,0.0422262912768121,0.013827013582557734,0.07306576496133646,0.4028878593775235,0.2328376375853856,0.5779217024437724,-3.1647122358958915,0.2
,,0.01763168235230809,0.04116580845831386,0.013661914226175444,0.0724594050367974,0.4092431208322608,0.2433318675933664,0.5681223636518742,-3.190147258965985,0.3
,,0.01763168235230809,0.04116580845831386,0.013661914226175444,0.0724594050367974,0.4130562777051031,0.2433318675933664,0.5681223636518742,-3.190147258965985,0.4
,,0.01763168235230809,0.04116580845831386,0.013661914226175444,0.0724594050367974,0.41559838228699797,0.2433318675933664,0.5681223636518742,-3.190147258965985,0.5
,,0.017599102777580544,0.040186397926381665,0.01345426486794725,0.07123976557190946,0.4187895857636401,0.24704043642333437,0.5641006480547369,-3.214226700654093,0.6
,,0.017599102777580544,0.040186397926381665,0.01345426486794725,0.07123976557190946,0.4211829883711217,0.24704043642333437,0.5641006480547369,-3.214226700654093,0.7
,,0.017599102777580544,0.040186397926381665,0.01345426486794725,0.07123976557190946,0.4230445237324963,0.24704043642333437,0.5641006480547369,-3.214226700654093,0.8
,,0.01746876182835658,0.040437385436067855,0.013266590540396883,0.07117273780482132,0.42393960476126386,0.2454417571551284,0.5681583522466179,-3.2080005398361813,0.9
,,0.01746876182835658,0.040437385436067855,0.013266590540396883,0.07117273780482132,0.42467194378480105,0.2454417571551284,0.5681583522466179,-3.2080005398361813,1.0
,,0.01746876182835658,0.040437385436067855,0.013266590540396883,0.07117273780482132,0.4252822263044153,0.2454417571551284,0.5681583522466179,-3.2080005398361813,1.1
,,0.017702453515812726,0.04014322348039178,0.01326175686265273,0.07110743385885723,0.426489929063903,0.24895362629666443,0.5645432734933591,-3.2153016328992865,1.2
,,0.017702453515812726,0.04014322348039178,0.01326175686265273,0.07110743385885723,0.42752510285774964,0.24895362629666443,0.5645432734933591,-3.2153016328992865,1.3
,,0.017702453515812726,0.04014322348039178,0.01326175686265273,0.07110743385885723,0.4284222534790834,0.24895362629666443,0.5645432734933591,-3.2153016328992865,1.4
,,0.017702453515812726,0.04014322348039178,0.01326175686265273,0.07110743385885723,0.42920726027275047,0.24895362629666443,0.5645432734933591,-3.2153016328992865,1.5
,,0.017852172369492394,0.04143259360985904,0.011701409478118081,0.07098617545746952,0.4293052257436069,0.25148801515850505,0.5836713042060262,-3.1836874226350527,1.6
,,0.017852172369492394,0.04143259360985904,0.011701409478118081,0.07098617545746952,0.4293923061621461,0.25148801515850505,0.5836713042060262,-3.1836874226350527,1.7
,,0.01751461201063467,0.04160078621425462,0.013231691322929031,0.07234708954781832,0.42895146742886886,0.24209145274680693,0.5750167211185225,-3.17963621251239,1.8
,,0.01751461201063467,0.04160078621425462,0.013231691322929031,0.07234708954781832,0.42855471256891936,0.24209145274680693,0.5750167211185225,-3.17963621251239,1.9
,,0.01751461201063467,0.04160078621425462,0.013231691322929031,0.07234708954781832,0.42819574388610787,0.24209145274680693,0.5750167211185225,-3.17963621251239,2.0
,,0.01751461201063467,0.04160078621425462,0.013231691322929031,0.07234708954781832,0.42786940871991563,0.24209145274680693,0.5750167211185225,-3.17963621251239,2.1
,,0.017987179669421285,0.043937962182975,0.011837341249216798,0.07376248310161308,0.42706537959438506,0.24385268652958256,0.5956681545338884,-3.124976590366152,2.2
,,0.017987179669421285,0.043937962182975,0.011837341249216798,0.07376248310161308,0.426328352895982,0.24385268652958256,0.5956681545338884,-3.124976590366152,2.3
,,0.019195752468365693,0.04433185757268872,0.01415419083490713,0.07768180087596153,0.42659527123848273,0.24710745955821137,0.5706852450997582,-3.116051727816634,2.4
,,0.019195752468365693,0.04433185757268872,0.01415419083490713,0.07768180087596153,0.4268416574007911,0.24710745955821137,0.5706852450997582,-3.116051727816634,2.5
,,0.019195752468365693,0.04433185757268872,0.01415419083490713,0.07768180087596153,0.42706979273626183,0.24710745955821137,0.5706852450997582,-3.116051727816634,2.6
,,0.019195752468365693,0.04433185757268872,0.01415419083490713,0.07768180087596153,0.4272816326906275,0.24710745955821137,0.5706852450997582,-3.116051727816634,2.7
,,0.019822787460073623,0.04753038679416254,0.01282139151303512,0.08017456576727128,0.4269289916318642,0.2472453361034061,0.592836223549156,-3.046386050494054,2.8
,,0.019822787460073623,0.04753038679416254,0.01282139151303512,0.08017456576727128,0.4265998599770184,0.2472453361034061,0.592836223549156,-3.046386050494054,2.9
,,0.020461834338270157,0.04828851740845435,0.01518158512530848,0.08393193687203299,0.42650764515601186,0.24379080360634758,0.5753294777657466,-3.0305614814016204,3.0
,,0.020461834338270157,0.04828851740845435,0.01518158512530848,0.08393193687203299,0.4264211937613182,0.24379080360634758,0.5753294777657466,-3.0305614814016204,3.1
,,0.020461834338270157,0.04828851740845435,0.01518158512530848,0.08393193687203299,0.4263399818450908,0.24379080360634758,0.5753294777657466,-3.0305614814016204,3.2
,,0.020461834338270157,0.04828851740845435,0.01518158512530848,0.08393193687203299,0.42626354710040626,0.24379080360634758,0.5753294777657466,-3.0305614814016204,3.3
,,0.020461834338270157,0.04828851740845435,0.01518158512530848,0.08393193687203299,0.4261914800554179,0.24379080360634758,0.5753294777657466,-3.0305614814016204,3.4
,,0.02135677011839437,0.05254671601286039,0.013882733718681936,0.0877862198499367,0.4256426601830187,0.2432815783035425,0.5985759052239026,-2.9460526762311345,3.5
,,0.010877899919732155,0.05346242922551846,0.016583808815339364,0.08092413796058998,0.4196379428578151,0.13442095515468683,0.6606487331574004,-2.9287761292453998,3.6
,,0.010877899919732155,0.05346242922551846,0.016583808815339364,0.08092413796058998,0.41394926328656956,0.13442095515468683,0.6606487331574004,-2.9287761292453998,3.7
,,0.010877899919732155,0.05346242922551846,0.016583808815339364,0.08092413796058998,0.4085523108728238,0.13442095515468683,0.6606487331574004,-2.9287761292453998,3.8
,,0.010877899919732155,0.05346242922551846,0.016583808815339364,0.08092413796058998,0.40342520607976534,0.13442095515468683,0.6606487331574004,-2.9287761292453998,3.9
,,0.010877899919732155,0.05346242922551846,0.016583808815339364,0.08092413796058998,0.39854820395953894,0.13442095515468683,0.6606487331574004,-2.9287761292453998,4.0
,,0.023801769151321435,0.05932399197018777,0.018221460416616087,0.1013472215381253,0.39861173671481975,0.2348536919916208,0.585353905808567,-2.8247414684576357,4.1
,,0.023801769151321435,0.05932399197018777,0.018221460416616087,0.1013472215381253,0.39867231445822693,0.2348536919916208,0.585353905808567,-2.8247414684576357,4.2
,,0.023801769151321435,0.05932399197018777,0.018221460416616087,0.1013472215381253,0.39873013866784296,0.2348536919916208,0.585353905808567,-2.8247414684576357,4.3
,,0.023801769151321435,0.05932399197018777,0.018221460416616087,0.1013472215381253,0.3987853929125871,0.2348536919916208,0.585353905808567,-2.8247414684576357,4.4
,,0.023801769151321435,0.05932399197018777,0.018221460416616087,0.1013472215381253,0.39883824479886415,0.2348536919916208,0.585353905808567,-2.8247414684576357,4.5
,,0.023801769151321435,0.05932399197018777,0.018221460416616087,0.1013472215381253,0.3988888476687038,0.2348536919916208,0.585353905808567,-2.8247414684576357,4.6
,,0.025660406526371478,0.06575390107099283,0.020065847719415764,0.11148015531678006,0.3987088547670452,0.23017914222899416,0.5898260626220666,-2.7218362778061116,4.7
,,0.025660406526371478,0.06575390107099283,0.020065847719415764,0.11148015531678006,0.39853620851443383,0.23017914222899416,0.5898260626220666,-2.7218362778061116,4.8
,,0.025660406526371478,0.06575390107099283,0.020065847719415764,0.11148015531678006,0.398370468111927,0.23017914222899416,0.5898260626220666,-2.7218362778061116,4.9
,,0.025660406526371478,0.06575390107099283,0.020065847719415764,0.11148015531678006,0.39821122733304787,0.23017914222899416,0.5898260626220666,-2.7218362778061116,5.0
,,0.025660406526371478,0.06575390107099283,0.020065847719415764,0.11148015531678006,0.3980581111995102,0.23017914222899416,0.5898260626220666,-2.7218362778061116,5.1
,,0.025660406526371478,0.06575390107099283,0.020065847719415764,0.11148015531678006,0.3979107730332759,0.23017914222899416,0.5898260626220666,-2.7218362778061116,5.2
,,0.027581180784899566,0.07251239316882077,0.02206951783320858,0.12216309178692893,0.39758585242320793,0.22577343436105363,0.5935703829049567,-2.6239977914705324,5.3
,,0.027581180784899566,0.07251239316882077,0.02206951783320858,0.12216309178692893,0.39727274710805144,0.22577343436105363,0.5935703829049567,-2.6239977914705324,5.4
,,0.027581180784899566,0.07251239316882077,0.02206951783320858,0.12216309178692893,0.3969708241255792,0.22577343436105363,0.5935703829049567,-2.6239977914705324,5.5
,,0.027581180784899566,0.07251239316882077,0.02206951783320858,0.12216309178692893,0.39667949493196564,0.22577343436105363,0.5935703829049567,-2.6239977914705324,5.6
,,0.027581180784899566,0.07251239316882077,0.02206951783320858,0.12216309178692893,0.39639821157261457,0.22577343436105363,0.5935703829049567,-2.6239977914705324,5.7
,,0.027581180784899566,0.07251239316882077,0.02206951783320858,0.12216309178692893,0.3961264632423941,0.22577343436105363,0.5935703829049567,-2.6239977914705324,5.8
,,0.027760185395891028,0.07374238111800364,0.022474065387157027,0.1239766319010517,0.395798491908168,0.2239146601276199,0.594808715055745,-2.6071775959732575,5.9
,,0.02949099556295018,0.0794527379741328,0.02418494978745495,0.13312868332453792,0.395394854010113,0.22152247604716208,0.5968115659977258,-2.5325929249930383,6.0
,,0.02949099556295018,0.0794527379741328,0.02418494978745495,0.13312868332453792,0.3950042366894146,0.22152247604716208,0.5968115659977258,-2.5325929249930383,6.1
,,0.02949099556295018,0.0794527379741328,0.02418494978745495,0.13312868332453792,0.3946260199185796,0.22152247604716208,0.5968115659977258,-2.5325929249930383,6.2
,,0.02949099556295018,0.0794527379741328,0.02418494978745495,0.13312868332453792,0.3942596224218332,0.22152247604716208,0.5968115659977258,-2.5325929249930383,6.3
,,0.02949099556295018,0.0794527379741328,0.02418494978745495,0.13312868332453792,0.3939044986942175,0.22152247604716208,0.5968115659977258,-2.5325929249930383,6.4
,,0.029751474691339836,0.07928364341534037,0.024596242296226856,0.13363136040290707,0.39362190971729716,0.22263841812009727,0.5933011770313131,-2.534723433717922,6.5
,,0.03128304935516507,0.08803099435156102,0.026427099746376553,0.14574114345310263,0.3930508966613628,0.21464803015787715,0.6040229427724239,-2.4300663179743323,6.6
,,0.03128304935516507,0.08803099435156102,0.026427099746376553,0.14574114345310263,0.39249667810707356,0.21464803015787715,0.6040229427724239,-2.4300663179743323,6.7
,,0.03128304935516507,0.08803099435156102,0.026427099746376553,0.14574114345310263,0.3919585238587057,0.21464803015787715,0.6040229427724239,-2.4300663179743323,6.8
,,0.03128304935516507,0.08803099435156102,0.026427099746376553,0.14574114345310263,0.39143574544600557,0.21464803015787715,0.6040229427724239,-2.4300663179743323,6.9
,,0.03128304935516507,0.08803099435156102,0.026427099746376553,0.14574114345310263,0.3909276931857758,0.21464803015787715,0.6040229427724239,-2.4300663179743323,7.0
,,0.03134656001734608,0.08544259508773588,0.026611278020742084,0.14340043312582404,0.3905935967835854,0.21859459789665783,0.5958321967742306,-2.4599105310136267,7.1
,,0.033224953191606614,0.0954696178577358,0.02878786109947778,0.1574824321488202,0.39001034184131633,0.21097561637992215,0.6062239232342909,-2.348947219727291,7.2
,,0.033224953191606614,0.0954696178577358,0.02878786109947778,0.1574824321488202,0.3894428505461356,0.21097561637992215,0.6062239232342909,-2.348947219727291,7.3
,,0.033224953191606614,0.0954696178577358,0.02878786109947778,0.1574824321488202,0.38889049235215967,0.21097561637992215,0.6062239232342909,-2.348947219727291,7.4
,,0.033224953191606614,0.0954696178577358,0.02878786109947778,0.1574824321488202,0.38835266990013045,0.21097561637992215,0.6062239232342909,-2.348947219727291,7.5
,,0.033224953191606614,0.0954696178577358,0.02878786109947778,0.1574824321488202,0.38782881686243975,0.21097561637992215,0.6062239232342909,-2.348947219727291,7.6
,,0.0328731538182321,0.09144902949054677,0.028659953430296897,0.15298213673907576,0.3874652382479368,0.21488230272466455,0.5977758674303326,-2.3919735166614244,7.7
,,0.03510157030269078,0.10290587259579449,0.031221940249968372,0.16922938314845365,0.3868783828916279,0.20742006884170058,0.6080851367609255,-2.273940566868822,7.8
,,0.03510157030269078,0.10290587259579449,0.031221940249968372,0.16922938314845365,0.38630619891922663,0.20742006884170058,0.6080851367609255,-2.273940566868822,7.9
,,0.03510157030269078,0.10290587259579449,0.031221940249968372,0.16922938314845365,0.38574814294614396,0.20742006884170058,0.6080851367609255,-2.273940566868822,8.0
,,0.03510157030269078,0.10290587259579449,0.031221940249968372,0.16922938314845365,0.385203698094356,0.20742006884170058,0.6080851367609255,-2.273940566868822,8.1
,,0.03510157030269078,0.10290587259579449,0.031221940249968372,0.16922938314845365,0.38467237239562313,0.20742006884170058,0.6080851367609255,-2.273940566868822,8.2
,,0.03415827475085633,0.09688153647932024,0.03056088087197944,0.16160069210215602,0.38429029363160694,0.21137455729003404,0.5995118908158914,-2.3342663202499305,8.3
,,0.03683153576882715,0.11003184414456053,0.033636879877387914,0.1805002597907756,0.3837072930018717,0.20405253605462906,0.6095938270233098,-2.2069854628612315,8.4
,,0.03683153576882715,0.11003184414456053,0.033636879877387914,0.1805002597907756,0.38313785052631627,0.20405253605462906,0.6095938270233098,-2.2069854628612315,8.5
,,0.03683153576882715,0.11003184414456053,0.033636879877387914,0.1805002597907756,0.3825814986823828,0.20405253605462906,0.6095938270233098,-2.2069854628612315,8.6
,,0.03683153576882715,0.11003184414456053,0.033636879877387914,0.1805002597907756,0.38203779119853876,0.20405253605462906,0.6095938270233098,-2.2069854628612315,8.7
,,0.03683153576882715,0.11003184414456053,0.033636879877387914,0.1805002597907756,0.38150630186039913,0.20405253605462906,0.6095938270233098,-2.2069854628612315,8.8
,,0.03683153576882715,0.11003184414456053,0.033636879877387914,0.1805002597907756,0.38098662339644024,0.20405253605462906,0.6095938270233098,-2.2069854628612315,8.9
,,0.038379534818052494,0.1166806560482735,0.035986947797934585,0.1910471386642606,0.38016484717974475,0.20089039326309574,0.6107427562855255,-2.1483145113700934,9.0
,,0.038379534818052494,0.1166806560482735,0.035986947797934585,0.1910471386642606,0.3793430709630492,0.20089039326309574,0.6107427562855255,-2.1483145113700934,9.1
,,0.038379534818052494,0.1166806560482735,0.035986947797934585,0.1910471386642606,0.37852129474635354,0.20089039326309574,0.6107427562855255,-2.1483145113700934,9.2
,,0.038379534818052494,0.1166806560482735,0.035986947797934585,0.1910471386642606,0.37741706246500306,0.20089039326309574,0.6107427562855255,-2.1483145113700934,9.3
,,0.038379534818052494,0.1166806560482735,0.035986947797934585,0.1910471386642606,0.3763128301836525,0.20089039326309574,0.6107427562855255,-2.1483145113700934,9.4
,,0.038379534818052494,0.1166806560482735,0.035986947797934585,0.1910471386642606,0.37520859790230204,0.20089039326309574,0.6107427562855255,-2.1483145113700934,9.5
,,0.03817977409404388,0.11575317185794484,0.03639515322767192,0.19032809917966065,0.3740074980730395,0.20059977616864652,0.6081769972844596,-2.156295183730809,9.6
,,0.039846039839078966,0.12306433354671276,0.038333554053028907,0.20124392743882064,0.37273911348112704,0.19799871899832805,0.611518246105215,-2.095048023380732,9.7
,,0.039846039839078966,0.12306433354671276,0.038333554053028907,0.20124392743882064,0.3714707288892145,0.19799871899832805,0.611518246105215,-2.095048023380732,9.8
,,0.039846039839078966,0.12306433354671276,0.038333554053028907,0.20124392743882064,0.37026836065956115,0.19799871899832805,0.611518246105215,-2.095048023380732,9.9
,,0.039846039839078966,0.12306433354671276,0.038333554053028907,0.20124392743882064,0.3690659924299078,0.19799871899832805,0.611518246105215,-2.095048023380732,10.0
,,0.039846039839078966,0.12306433354671276,0.038333554053028907,0.20124392743882064,0.36786362420025437,0.19799871899832805,0.611518246105215,-2.095048023380732,10.1
,,0.03649887011860939,0.10793877888956235,0.035049906325682056,0.1794875553338538,0.3667209777564001,0.20335042198730757,0.601371937395838,-2.2261910747186815,10.2
,,0.041119423804087105,0.12884054253033103,0.040639870690667414,0.21059983702508553,0.3653672817952337,0.19524907704078223,0.6117789279912131,-2.049179743643722,10.3
,,0.041119423804087105,0.12884054253033103,0.040639870690667414,0.21059983702508553,0.3640135858340672,0.19524907704078223,0.6117789279912131,-2.049179743643722,10.4
,,0.041119423804087105,0.12884054253033103,0.040639870690667414,0.21059983702508553,0.3626598898729008,0.19524907704078223,0.6117789279912131,-2.049179743643722,10.5
,,0.041119423804087105,0.12884054253033103,0.040639870690667414,0.21059983702508553,0.361418523788406,0.19524907704078223,0.6117789279912131,-2.049179743643722,10.6
,,0.041119423804087105,0.12884054253033103,0.040639870690667414,0.21059983702508553,0.36017715770391123,0.19524907704078223,0.6117789279912131,-2.049179743643722,10.7
,,0.0407933206021535,0.1277922873526002,0.04105658255661259,0.2096421905113663,0.35904604054914574,0.19458545296940974,0.6095733260603935,-2.057349088213474,10.8
,,0.03767200137750021,0.11354054760733867,0.03714235054115566,0.18835489952599455,0.35805467392447243,0.20000542312572633,0.6028011370719302,-2.175595258216674,10.9
,,0.03767200137750021,0.11354054760733867,0.03714235054115566,0.18835489952599455,0.35706330729979907,0.20000542312572633,0.6028011370719302,-2.175595258216674,11.0
,,0.03767200137750021,0.11354054760733867,0.03714235054115566,0.18835489952599455,0.35607194067512576,0.20000542312572633,0.6028011370719302,-2.175595258216674,11.1
,,0.03767200137750021,0.11354054760733867,0.03714235054115566,0.18835489952599455,0.35520990328819874,0.20000542312572633,0.6028011370719302,-2.175595258216674,11.2
,,0.03767200137750021,0.11354054760733867,0.03714235054115566,0.18835489952599455,0.35434786590127176,0.20000542312572633,0.6028011370719302,-2.175595258216674,11.3
,,0.03677339828626033,0.11008851183722636,0.03667612050425936,0.18353803062774604,0.3532482384253688,0.20035846609275523,0.5998130821208884,-2.2064705836837475,11.4
,,0.03725822193923646,0.1123645340213694,0.03735252724398492,0.18697528320459078,0.35212137350479866,0.19926816689705468,0.60095929309768,-2.1860069249314624,11.5
,,0.03725822193923646,0.1123645340213694,0.03735252724398492,0.18697528320459078,0.3509945085842286,0.19926816689705468,0.60095929309768,-2.1860069249314624,11.6
,,0.03725822193923646,0.1123645340213694,0.03735252724398492,0.18697528320459078,0.34986764366365847,0.19926816689705468,0.60095929309768,-2.1860069249314624,11.7
,,0.03725822193923646,0.1123645340213694,0.03735252724398492,0.18697528320459078,0.3489179595149996,0.19926816689705468,0.60095929309768,-2.1860069249314624,11.8
,,0.03725822193923646,0.1123645340213694,0.03735252724398492,0.18697528320459078,0.34796827536634073,0.19926816689705468,0.60095929309768,-2.1860069249314624,11.9
,,0.0375206319459882,0.11350663704549167,0.0328335802067984,0.18386084919827828,0.3469329167517234,0.20407080740460082,0.617350771196996,-2.1758939675986118,12.0
,,0.024446409862568658,0.10943482294212152,0.03708504092559306,0.17096627373028322,0.3447067684176646,0.142989662985434,0.6400959707103762,-2.2124261312147375,12.1
,,0.024446409862568658,0.10943482294212152,0.03708504092559306,0.17096627373028322,0.34248062008360586,0.142989662985434,0.6400959707103762,-2.2124261312147375,12.2
,,0.024446409862568658,0.10943482294212152,0.03708504092559306,0.17096627373028322,0.34025447174954704,0.142989662985434,0.6400959707103762,-2.2124261312147375,12.3
,,0.024446409862568658,0.10943482294212152,0.03708504092559306,0.17096627373028322,0.3380283234154883,0.142989662985434,0.6400959707103762,-2.2124261312147375,12.4
,,0.024446409862568658,0.10943482294212152,0.03708504092559306,0.17096627373028322,0.33599447770228247,0.142989662985434,0.6400959707103762,-2.2124261312147375,12.5
,,0.03629881747688992,0.1087261774068041,0.032304645572257054,0.17732964045595107,0.33744322486139205,0.20469684246558092,0.6131303098976949,-2.2189226913383617,12.6
,,0.03525894507678838,0.10472148496287394,0.03622147733787804,0.17620190737754035,0.3389234964494783,0.2001053541448932,0.5943266251851159,-2.2564509771632904,12.7
,,0.03525894507678838,0.10472148496287394,0.03622147733787804,0.17620190737754035,0.3404037680375645,0.2001053541448932,0.5943266251851159,-2.2564509771632904,12.8
,,0.03525894507678838,0.10472148496287394,0.03622147733787804,0.17620190737754035,0.34188403962565067,0.2001053541448932,0.5943266251851159,-2.2564509771632904,12.9
,,0.03525894507678838,0.10472148496287394,0.03622147733787804,0.17620190737754035,0.34336431121373695,0.2001053541448932,0.5943266251851159,-2.2564509771632904,13.0
,,0.03525894507678838,0.10472148496287394,0.03622147733787804,0.17620190737754035,0.34264737768481374,0.2001053541448932,0.5943266251851159,-2.2564509771632904,13.1
,,0.034589071096234894,0.10174582248339516,0.0311457005755063,0.16748059415513636,0.3419667011119709,0.20652584420733083,0.6075081295039386,-2.28527751217653,13.2
,,0.04296333378307653,0.14076058763668575,0.048559280535424514,0.2322832019551868,0.34090010301489837,0.18496100200721885,0.6059869437474087,-1.9606947917954538,13.3
,,0.04296333378307653,0.14076058763668575,0.048559280535424514,0.2322832019551868,0.3398335049178259,0.18496100200721885,0.6059869437474087,-1.9606947917954538,13.4
,,0.04296333378307653,0.14076058763668575,0.048559280535424514,0.2322832019551868,0.3387669068207534,0.18496100200721885,0.6059869437474087,-1.9606947917954538,13.5
,,0.04296333378307653,0.14076058763668575,0.048559280535424514,0.2322832019551868,0.3377003087236809,0.18496100200721885,0.6059869437474087,-1.9606947917954538,13.6
,,0.04296333378307653,0.14076058763668575,0.048559280535424514,0.2322832019551868,0.3367555705298555,0.18496100200721885,0.6059869437474087,-1.9606947917954538,13.7
,,0.03251841906693712,0.09287726417363258,0.0331463306912338,0.1585420139318035,0.33630971833391576,0.20510915851570327,0.5858211452617444,-2.3764763975212344,13.8
,,0.03151541180709807,0.08891490392691526,0.03232010811133719,0.15275042384535054,0.33591189010521705,0.20631963574127488,0.5820926822234914,-2.420075502291902,13.9
,,0.03151541180709807,0.08891490392691526,0.03232010811133719,0.15275042384535054,0.3355140618765183,0.20631963574127488,0.5820926822234914,-2.420075502291902,14.0
,,0.03151541180709807,0.08891490392691526,0.03232010811133719,0.15275042384535054,0.3351162336478196,0.20631963574127488,0.5820926822234914,-2.420075502291902,14.1
,,0.03151541180709807,0.08891490392691526,0.03232010811133719,0.15275042384535054,0.33471840541912085,0.20631963574127488,0.5820926822234914,-2.420075502291902,14.2
,,0.03151541180709807,0.08891490392691526,0.03232010811133719,0.15275042384535054,0.3344304008381942,0.20631963574127488,0.5820926822234914,-2.420075502291902,14.3
,,0.03012821584251066,0.08216266086657921,0.030308475583400902,0.14259935229249077,0.334278454337155,0.21127877061260117,0.5761783594784664,-2.4990543274868076,14.4
,,0.029280804237964902,0.07869122565437553,0.02951116109229337,0.1374831909846338,0.3341865919794713,0.21297733947153988,0.572369793651143,-2.5422236208242346,14.5
,,0.029280804237964902,0.07869122565437553,0.02951116109229337,0.1374831909846338,0.33409472962178766,0.21297733947153988,0.572369793651143,-2.5422236208242346,14.6
,,0.029280804237964902,0.07869122565437553,0.02951116109229337,0.1374831909846338,0.33400286726410405,0.21297733947153988,0.572369793651143,-2.5422236208242346,14.7
,,0.029280804237964902,0.07869122565437553,0.02951116109229337,0.1374831909846338,0.33391100490642045,0.21297733947153988,0.572369793651143,-2.5422236208242346,14.8
,,0.03941947891259252,0.12193061182155097,0.045526243184163005,0.2068763339183065,0.33332040685270314,0.19054610146058998,0.5893888851960235,-2.104303151612736,14.9
,,0.03941947891259252,0.12193061182155097,0.045526243184163005,0.2068763339183065,0.33278838216634166,0.19054610146058998,0.5893888851960235,-2.104303151612736,15.0
,,0.027123793830049727,0.06786780787037862,0.02643923312546019,0.12143083482588854,0.3331048229821422,0.22336825625007603,0.5589009411628412,-2.690193467736396,15.1
,,0.027123793830049727,0.06786780787037862,0.02643923312546019,0.12143083482588854,0.33342126379794285,0.22336825625007603,0.5589009411628412,-2.690193467736396,15.2
,,0.027123793830049727,0.06786780787037862,0.02643923312546019,0.12143083482588854,0.33373770461374347,0.22336825625007603,0.5589009411628412,-2.690193467736396,15.3
,,0.027123793830049727,0.06786780787037862,0.02643923312546019,0.12143083482588854,0.3340541454295441,0.22336825625007603,0.5589009411628412,-2.690193467736396,15.4
,,0.03793843246262674,0.11053023339609892,0.043364186061926734,0.1918328519206524,0.33369844200522064,0.19776817204552205,0.5761798997901435,-2.202466190052899,15.5
,,0.03793843246262674,0.11053023339609892,0.043364186061926734,0.1918328519206524,0.3335637340392059,0.19776817204552205,0.5761798997901435,-2.202466190052899,15.6
,,0.025119175715292704,0.056765225990488416,0.02318226547155697,0.10506666717733809,0.33453202167090473,0.239078447904843,0.5402781635271301,-2.868831359214604,15.7
,,0.025119175715292704,0.056765225990488416,0.02318226547155697,0.10506666717733809,0.3355003093026036,0.239078447904843,0.5402781635271301,-2.868831359214604,15.8
,,0.025119175715292704,0.056765225990488416,0.02318226547155697,0.10506666717733809,0.3364685969343024,0.239078447904843,0.5402781635271301,-2.868831359214604,15.9
,,0.025119175715292704,0.056765225990488416,0.02318226547155697,0.10506666717733809,0.3374368845660013,0.239078447904843,0.5402781635271301,-2.868831359214604,16.0
,,0.023786609383746805,0.04802476182765997,0.020518057668808456,0.09232942888021523,0.3388638412261853,0.25762760229576065,0.5201457694487152,-3.036038529680575,16.1
,,0.023786609383746805,0.04802476182765997,0.020518057668808456,0.09232942888021523,0.34050031751114845,0.25762760229576065,0.5201457694487152,-3.036038529680575,16.2
,,0.023786609383746805,0.04802476182765997,0.020518057668808456,0.09232942888021523,0.3421367937961117,0.25762760229576065,0.5201457694487152,-3.036038529680575,16.3
,,0.036525099021408554,0.0956281394850753,0.040600208977107234,0.1727534474835911,0.342513830395826,0.211429060047429,0.5535527127130617,-2.347288156157896,16.4
,,0.036525099021408554,0.0956281394850753,0.040600208977107234,0.1727534474835911,0.34289086699554033,0.211429060047429,0.5535527127130617,-2.347288156157896,16.5
,,0.03643308579532124,0.08311596177256744,0.037785250660559974,0.15733429822844866,0.34389447184495364,0.23156480313288444,0.528276178229641,-2.487518516473294,16.6
,,0.03643308579532124,0.08311596177256744,0.037785250660559974,0.15733429822844866,0.3447708133728862,0.23156480313288444,0.528276178229641,-2.487518516473294,16.7
,,0.03643308579532124,0.08311596177256744,0.037785250660559974,0.15733429822844866,0.34585122178783734,0.23156480313288444,0.528276178229641,-2.487518516473294,16.8
,,0.03643308579532124,0.08311596177256744,0.037785250660559974,0.15733429822844866,0.34693163020278855,0.23156480313288444,0.528276178229641,-2.487518516473294,16.9
,,0.02260749944518483,0.036887431471523416,0.017307005717749287,0.07680193663445753,0.34995134630608443,0.29436105957570186,0.48029298593199415,-3.2998843964844173,17.0
,,0.02260749944518483,0.036887431471523416,0.017307005717749287,0.07680193663445753,0.35297106240938037,0.29436105957570186,0.48029298593199415,-3.2998843964844173,17.1
,,0.021926391501398024,0.029441327632000736,0.015012028589921818,0.06637974772332057,0.35745600762700386,0.3303174876890174,0.44352876655566725,-3.5253558899425874,17.2
,,0.021926391501398024,0.029441327632000736,0.015012028589921818,0.06637974772332057,0.3618134629433081,0.3303174876890174,0.44352876655566725,-3.5253558899425874,17.3
,,0.021926391501398024,0.029441327632000736,0.015012028589921818,0.06637974772332057,0.36636916843865847,0.3303174876890174,0.44352876655566725,-3.5253558899425874,17.4
,,0.021926391501398024,0.029441327632000736,0.015012028589921818,0.06637974772332057,0.37092487393400886,0.3303174876890174,0.44352876655566725,-3.5253558899425874,17.5
,,0.034246114866606656,0.062154373283673174,0.03218333961005099,0.1285838277603308,0.37332764680990255,0.26633298652796733,0.48337628740935895,-2.778134096909345,17.6
,,0.034246114866606656,0.062154373283673174,0.03218333961005099,0.1285838277603308,0.3757304196857962,0.26633298652796733,0.48337628740935895,-2.778134096909345,17.7
,,0.0220366218888917,0.02243797077755524,0.012988732594087896,0.05746332526053484,0.3829235054585316,0.3834901963814162,0.3904746318773408,-3.7970006312242712,17.8
,,0.0220366218888917,0.02243797077755524,0.012988732594087896,0.05746332526053484,0.39011659123126713,0.3834901963814162,0.3904746318773408,-3.7970006312242712,17.9
,,0.0220366218888917,0.02243797077755524,0.012988732594087896,0.05746332526053484,0.39737420189543793,0.3834901963814162,0.3904746318773408,-3.7970006312242712,18.0
,,0.03419586972673271,0.04679821416163337,0.028218355795280595,0.10921243968364668,0.4018384336761843,0.31311332139257353,0.4285062607995275,-3.0619102357260646,18.1
,,0.03419586972673271,0.04679821416163337,0.028218355795280595,0.10921243968364668,0.40630266545693067,0.31311332139257353,0.4285062607995275,-3.0619102357260646,18.2
,,0.03419586972673271,0.04679821416163337,0.028218355795280595,0.10921243968364668,0.4107668972376769,0.31311332139257353,0.4285062607995275,-3.0619102357260646,18.3
,,0.02102507182674719,0.015861079118670407,0.010631327022214459,0.04751747796763206,0.42184076811795657,0.44247028095786234,0.33379463298693274,-4.143887024820812,18.4
,,0.02102507182674719,0.015861079118670407,0.010631327022214459,0.04751747796763206,0.4329146389982362,0.44247028095786234,0.33379463298693274,-4.143887024820812,18.5
,,0.02102507182674719,0.015861079118670407,0.010631327022214459,0.04751747796763206,0.4439784007439054,0.44247028095786234,0.33379463298693274,-4.143887024820812,18.6
,,0.020868055808411598,0.015207162801003189,0.01047954963587928,0.046554768245294066,0.45562806251527915,0.44824744263485883,0.32665102575267113,-4.185988725219044,18.7
,,0.020868055808411598,0.015207162801003189,0.01047954963587928,0.046554768245294066,0.46727772428665304,0.44824744263485883,0.32665102575267113,-4.185988725219044,18.8
,,0.020868055808411598,0.015207162801003189,0.01047954963587928,0.046554768245294066,0.47892738605802687,0.44824744263485883,0.32665102575267113,-4.185988725219044,18.9
,,0.02035272503698068,0.01148593445847043,0.008964930176878888,0.04080358967233,0.49501835564586844,0.49879741464958427,0.28149323504886015,-4.466632082766444,19.0
,,0.02035272503698068,0.01148593445847043,0.008964930176878888,0.04080358967233,0.5111093252337101,0.49879741464958427,0.28149323504886015,-4.466632082766444,19.1
,,0.02035272503698068,0.01148593445847043,0.008964930176878888,0.04080358967233,0.527040717167335,0.49879741464958427,0.28149323504886015,-4.466632082766444,19.2
,,0.0202065750138819,0.01106038055509569,0.008927402322004398,0.04019435789098198,0.5437938654486806,0.5027216772236447,0.27517246537671897,-4.504385875243398,19.3
,,0.0202065750138819,0.01106038055509569,0.008927402322004398,0.04019435789098198,0.5605470137300261,0.5027216772236447,0.27517246537671897,-4.504385875243398,19.4
,,0.0202065750138819,0.01106038055509569,0.008927402322004398,0.04019435789098198,0.5773001620113716,0.5027216772236447,0.27517246537671897,-4.504385875243398,19.5
,,0.0202065750138819,0.01106038055509569,0.008927402322004398,0.04019435789098198,0.5940533102927171,0.5027216772236447,0.27517246537671897,-4.504385875243398,19.6
,,0.019953324533171113,0.00888380363766589,0.007892463225307065,0.03672959139614407,0.6154631349547338,0.5432492923203563,0.24187047282531235,-4.723525476113422,19.7
,,0.019953324533171113,0.00888380363766589,0.007892463225307065,0.03672959139614407,0.636872225165326,0.5432492923203563,0.24187047282531235,-4.723525476113422,19.8
,,0.020041900609549593,0.008669708752107201,0.008035872494505098,0.03674748185616189,0.6588713605480947,0.545395210697653,0.23592660814263242,-4.74792008135979,19.9
,,0.020041900609549593,0.008669708752107201,0.008035872494505098,0.03674748185616189,0.6808704959308631,0.545395210697653,0.23592660814263242,-4.74792008135979,20.0
,,0.020041900609549593,0.008669708752107201,0.008035872494505098,0.03674748185616189,0.7028696313136316,0.545395210697653,0.23592660814263242,-4.74792008135979,20.1
,,0.020041900609549593,0.008669708752107201,0.008035872494505098,0.03674748185616189,0.7248687666964001,0.545395210697653,0.23592660814263242,-4.74792008135979,20.2
,,0.019742362234262813,0.007557430244517053,0.0073116481969738535,0.03461144067575372,0.7502078574204649,0.5703998980918725,0.21835064062534804,-4.885224061321229,20.3
,,0.019742362234262813,0.007557430244517053,0.0073116481969738535,0.03461144067575372,0.7755220429821078,0.5703998980918725,0.21835064062534804,-4.885224061321229,20.4
,,0.019745852718756354,0.007360390324277971,0.0074765075905230275,0.034582750633557355,0.8016457616713927,0.5709740363913094,0.21283414966812444,-4.9116423144576205,20.5
,,0.019745852718756354,0.007360390324277971,0.0074765075905230275,0.034582750633557355,0.8277694803606774,0.5709740363913094,0.21283414966812444,-4.9116423144576205,20.6
,,0.019745852718756354,0.007360390324277971,0.0074765075905230275,0.034582750633557355,0.8538931990499623,0.5709740363913094,0.21283414966812444,-4.9116423144576205,20.7
,,0.019745852718756354,0.007360390324277971,0.0074765075905230275,0.034582750633557355,0.8800169177392472,0.5709740363913094,0.21283414966812444,-4.9116423144576205,20.8
,,0.0376720148411581,0.014248428123189485,0.018409815005037716,0.0703302579693853,0.9057097881987599,0.5356444854440416,0.20259314460913555,-4.251108685496355,20.9
,,0.0376720148411581,0.014248428123189485,0.018409815005037716,0.0703302579693853,0.9314140424737941,0.5356444854440416,0.20259314460913555,-4.251108685496355,21.0
,,0.0376720148411581,0.014248428123189485,0.018409815005037716,0.0703302579693853,0.9583090864682698,0.5356444854440416,0.20259314460913555,-4.251108685496355,21.1
,,0.01976406786186198,0.0068961882385764365,0.007316641135417138,0.033976897235855556,0.9876707869137016,0.5816913688341475,0.20296698049576295,-4.97678644921597,21.2
,,0.01976406786186198,0.0068961882385764365,0.007316641135417138,0.033976897235855556,1.0170324873591334,0.5816913688341475,0.20296698049576295,-4.97678644921597,21.3
,,0.01976406786186198,0.0068961882385764365,0.007316641135417138,0.033976897235855556,1.0463941878045653,0.5816913688341475,0.20296698049576295,-4.97678644921597,21.4
,,0.01976406786186198,0.0068961882385764365,0.007316641135417138,0.033976897235855556,1.0757558882499971,0.5816913688341475,0.20296698049576295,-4.97678644921597,21.5
,,0.01790664584606774,0.00636440056005175,0.006130837221302541,0.03040188362742203,1.1033082021541722,0.588997907679517,0.2093423104320799,-5.057035228933004,21.6
,,0.01790664584606774,0.00636440056005175,0.006130837221302541,0.03040188362742203,1.1308289916293703,0.588997907679517,0.2093423104320799,-5.057035228933004,21.7
,,0.03631147772607954,0.012676614196591711,0.01780861060083795,0.0667967025235092,1.1589151417259325,0.5436118304387805,0.18977904174431603,-4.367996384825267,21.8
,,0.03631147772607954,0.012676614196591711,0.01780861060083795,0.0667967025235092,1.1870012918224948,0.5436118304387805,0.18977904174431603,-4.367996384825267,21.9
,,0.03631147772607954,0.012676614196591711,0.01780861060083795,0.0667967025235092,1.215087441919057,0.5436118304387805,0.18977904174431603,-4.367996384825267,22.0
,,0.03631147772607954,0.012676614196591711,0.01780861060083795,0.0667967025235092,1.243173592015619,0.5436118304387805,0.18977904174431603,-4.367996384825267,22.1
,,0.020300186519171287,0.007555022505403801,0.007019676119117795,0.034874885143692885,1.269251628376876,0.5820861182919931,0.21663218313910707,-4.8855427043864506,22.2
,,0.018638378744767828,0.006646535691071136,0.006850922013532155,0.03213583644937112,1.2970183153463493,0.579987353810813,0.2068262857119814,-5.013659508766406,22.3
,,0.020569516254187868,0.007455594469105862,0.007759397731035099,0.03578450845432883,1.324281808219168,0.5748162303372253,0.20834698564104387,-4.898790592951171,22.4
,,0.020569516254187868,0.007455594469105862,0.007759397731035099,0.03578450845432883,1.3515453010919867,0.5748162303372253,0.20834698564104387,-4.898790592951171,22.5
,,0.020569516254187868,0.007455594469105862,0.007759397731035099,0.03578450845432883,1.3788087939648055,0.5748162303372253,0.20834698564104387,-4.898790592951171,22.6
,,0.020569516254187868,0.007455594469105862,0.007759397731035099,0.03578450845432883,1.4060722868376243,0.5748162303372253,0.20834698564104387,-4.898790592951171,22.7
,,0.019231114759753823,0.0074062413743509106,0.006804576890063942,0.033441933024168674,1.431033250678289,0.5750599029624092,0.22146570800791862,-4.905432205292014,22.8
,,0.019231114759753823,0.0074062413743509106,0.006804576890063942,0.033441933024168674,1.4559461905517133,0.5750599029624092,0.22146570800791862,-4.905432205292014,22.9
,,0.02585655358578785,0.009374402276068946,0.012967301523044867,0.04819825738490166,1.4826546748891063,0.5364624156284858,0.1944967055801798,-4.669772466377553,23.0
,,0.019730774121808372,0.007000327208499994,0.007568532695475876,0.03429963402578424,1.5100336262122176,0.5752473658166748,0.20409334989515054,-4.961798386947866,23.1
,,0.02585655358578785,0.009374402276068946,0.012967301523044867,0.04819825738490166,1.5367421105496106,0.5364624156284858,0.1944967055801798,-4.669772466377553,23.2
,,0.02585655358578785,0.009374402276068946,0.012967301523044867,0.04819825738490166,1.5634505948870037,0.5364624156284858,0.1944967055801798,-4.669772466377553,23.3
,,0.02585655358578785,0.009374402276068946,0.012967301523044867,0.04819825738490166,1.5900230211445094,0.5364624156284858,0.1944967055801798,-4.669772466377553,23.4
,,0.02585655358578785,0.009374402276068946,0.012967301523044867,0.04819825738490166,1.6165353632586599,0.5364624156284858,0.1944967055801798,-4.669772466377553,23.5
,,0.019945611008278553,0.0073132170224492,0.007758391768488332,0.035017219799216084,1.6427046971364367,0.5695943630774785,0.208846306599501,-4.918072016879148,23.6
,,0.019984173540389043,0.007321437260695738,0.007771732981040623,0.0350773437821254,1.6688985301020482,0.5697174125987416,0.208722681687961,-4.916948623192902,23.7
,,0.019367788448341704,0.007521853345133223,0.007597567365192356,0.034487209158667285,1.6933737717079314,0.5615933826142674,0.2181055970788184,-4.889942715915706,23.8
,,0.019367788448341704,0.007521853345133223,0.007597567365192356,0.034487209158667285,1.718391269864301,0.5615933826142674,0.2181055970788184,-4.889942715915706,23.9
,,0.019367788448341704,0.007521853345133223,0.007597567365192356,0.034487209158667285,1.743408768020671,0.5615933826142674,0.2181055970788184,-4.889942715915706,24.0
,,0.019367788448341704,0.007521853345133223,0.007597567365192356,0.034487209158667285,1.7675778006748788,0.5615933826142674,0.2181055970788184,-4.889942715915706,24.1
,,0.019922710884814846,0.007573731305133501,0.007793275175286846,0.035289717365235194,1.7923649690911878,0.5645471931277415,0.21461581079690306,-4.883069426084619,24.2
,,0.019922710884814846,0.007573731305133501,0.007793275175286846,0.035289717365235194,1.8171521375074968,0.5645471931277415,0.21461581079690306,-4.883069426084619,24.3
,,0.01948021195814509,0.00785701198778221,0.00768161849629231,0.03501884244221961,1.8402597458004724,0.5562780091971072,0.22436526851925856,-4.8463488990441395,24.4
,,0.01948021195814509,0.00785701198778221,0.00768161849629231,0.03501884244221961,1.8639941978214531,0.5562780091971072,0.22436526851925856,-4.8463488990441395,24.5
,,0.01948021195814509,0.00785701198778221,0.00768161849629231,0.03501884244221961,1.8877286498424342,0.5562780091971072,0.22436526851925856,-4.8463488990441395,24.6
,,0.01948021195814509,0.00785701198778221,0.00768161849629231,0.03501884244221961,1.9103601062657016,0.5562780091971072,0.22436526851925856,-4.8463488990441395,24.7
,,0.023674762318659334,0.00851459989884744,0.011695485491244422,0.0438848477087512,1.9363376658816844,0.5394746377105072,0.19402140700945214,-4.765972953775623,24.8
,,0.023674762318659334,0.00851459989884744,0.011695485491244422,0.0438848477087512,1.9623152254976677,0.5394746377105072,0.19402140700945214,-4.765972953775623,24.9
,,0.01965083818941715,0.008264017413882205,0.007703472636309772,0.03561832823960913,1.983819332719568,0.5517057975664496,0.23201586998382082,-4.79584443996927,25.0
,,0.01965083818941715,0.008264017413882205,0.007703472636309772,0.03561832823960913,2.004736896276779,0.5517057975664496,0.23201586998382082,-4.79584443996927,25.1
,,0.01965083818941715,0.008264017413882205,0.007703472636309772,0.03561832823960913,2.0256544598339894,0.5517057975664496,0.23201586998382082,-4.79584443996927,25.2
,,0.01965083818941715,0.008264017413882205,0.007703472636309772,0.03561832823960913,2.0465720233912004,0.5517057975664496,0.23201586998382082,-4.79584443996927,25.3
,,0.021895886255118555,0.008037590144607396,0.010585656897911444,0.04051913329763739,2.0725968699047135,0.5403838748050238,0.1983653027710752,-4.823625973978039,25.4
,,0.021895886255118555,0.008037590144607396,0.010585656897911444,0.04051913329763739,2.098621716418226,0.5403838748050238,0.1983653027710752,-4.823625973978039,25.5
,,0.0199899907491247,0.00876004544035942,0.00768603033506399,0.03643606652454811,2.1191062736935318,0.5486319643108792,0.24042236926034552,-4.737554186791649,25.6
,,0.0199899907491247,0.00876004544035942,0.00768603033506399,0.03643606652454811,2.1395908309688374,0.5486319643108792,0.24042236926034552,-4.737554186791649,25.7
,,0.0199899907491247,0.00876004544035942,0.00768603033506399,0.03643606652454811,2.160075388244143,0.5486319643108792,0.24042236926034552,-4.737554186791649,25.8
,,0.0199899907491247,0.00876004544035942,0.00768603033506399,0.03643606652454811,2.1805599455194487,0.5486319643108792,0.24042236926034552,-4.737554186791649,25.9
,,0.0199899907491247,0.00876004544035942,0.00768603033506399,0.03643606652454811,2.1991051951064096,0.5486319643108792,0.24042236926034552,-4.737554186791649,26.0
,,0.020750753995763604,0.007781647630639321,0.009709295935685288,0.038241697562088214,2.2219246304804763,0.5426211522664031,0.20348593620890504,-4.855987185496436,26.1
,,0.020750753995763604,0.007781647630639321,0.009709295935685288,0.038241697562088214,2.243278836740215,0.5426211522664031,0.20348593620890504,-4.855987185496436,26.2
,,0.020600959211713937,0.00940227332204023,0.00765356532065405,0.03765679785440822,2.259348978722768,0.5470714555008911,0.24968329379444493,-4.666803776175191,26.3
,,0.020600959211713937,0.00940227332204023,0.00765356532065405,0.03765679785440822,2.2754191207053207,0.5470714555008911,0.24968329379444493,-4.666803776175191,26.4
,,0.020600959211713937,0.00940227332204023,0.00765356532065405,0.03765679785440822,2.291489262687873,0.5470714555008911,0.24968329379444493,-4.666803776175191,26.5
,,0.020600959211713937,0.00940227332204023,0.00765356532065405,0.03765679785440822,2.309712337289883,0.5470714555008911,0.24968329379444493,-4.666803776175191,26.6
,,0.019949340974416165,0.0076550447520373835,0.00893707037068178,0.03654145609713533,2.332546266766684,0.5459372204924285,0.2094893189720894,-4.8723904037710435,26.7
,,0.019949340974416165,0.0076550447520373835,0.00893707037068178,0.03654145609713533,2.3505898833466428,0.5459372204924285,0.2094893189720894,-4.8723904037710435,26.8
,,0.018994791391603753,0.007795932745031012,0.008461723302186183,0.035252447438820944,2.366749741143965,0.538821919373637,0.22114585827155708,-4.854153124229985,26.9
,,0.018994791391603753,0.007795932745031012,0.008461723302186183,0.035252447438820944,2.3829095989412865,0.538821919373637,0.22114585827155708,-4.854153124229985,27.0
,,0.018994791391603753,0.007795932745031012,0.008461723302186183,0.035252447438820944,2.401862835622033,0.538821919373637,0.22114585827155708,-4.854153124229985,27.1
,,0.018994791391603753,0.007795932745031012,0.008461723302186183,0.035252447438820944,2.420816072302779,0.538821919373637,0.22114585827155708,-4.854153124229985,27.2
,,0.0217625567090327,0.010164258160980193,0.007359259268284369,0.03928607413829726,2.436486935818389,0.553950914831113,0.25872420148674935,-4.588877814301309,27.3
,,0.0217625567090327,0.010164258160980193,0.007359259268284369,0.03928607413829726,2.4455481602344653,0.553950914831113,0.25872420148674935,-4.588877814301309,27.4
,,0.018744138713498122,0.00786190602884434,0.007873555997038312,0.03447960073938077,2.4573103373231917,0.5436298075252814,0.2280161562272642,-4.845726204630301,27.5
,,0.018744138713498122,0.00786190602884434,0.007873555997038312,0.03447960073938077,2.469072514411918,0.5436298075252814,0.2280161562272642,-4.845726204630301,27.6
,,0.018744138713498122,0.00786190602884434,0.007873555997038312,0.03447960073938077,2.48031607623759,0.5436298075252814,0.2280161562272642,-4.845726204630301,27.7
,,0.018744138713498122,0.00786190602884434,0.007873555997038312,0.03447960073938077,2.4915596380632623,0.5436298075252814,0.2280161562272642,-4.845726204630301,27.8
,,0.018744138713498122,0.00786190602884434,0.007873555997038312,0.03447960073938077,2.502803199888934,0.5436298075252814,0.2280161562272642,-4.845726204630301,27.9
,,0.022024025847448083,0.010698502595781095,0.006999820662529466,0.03972234910575864,2.5059880755215356,0.5544492292943272,0.26933207216161614,-4.53765149162692,28.0
,,0.022024025847448083,0.010698502595781095,0.006999820662529466,0.03972234910575864,2.509172951154137,0.5544492292943272,0.26933207216161614,-4.53765149162692,28.1
,,0.02174902886838134,0.0111457827966106,0.00678249599354787,0.03967730765853981,2.511165774830829,0.5481477991287108,0.2809107637173985,-4.496694077140172,28.2
,,0.02174902886838134,0.0111457827966106,0.00678249599354787,0.03967730765853981,2.5125478916771122,0.5481477991287108,0.2809107637173985,-4.496694077140172,28.3
,,0.02174902886838134,0.0111457827966106,0.00678249599354787,0.03967730765853981,2.5139300085233955,0.5481477991287108,0.2809107637173985,-4.496694077140172,28.4
,,0.02174902886838134,0.0111457827966106,0.00678249599354787,0.03967730765853981,2.515312125369679,0.5481477991287108,0.2809107637173985,-4.496694077140172,28.5
,,0.019275632944324644,0.007947117537912196,0.007198521844694751,0.03442127232693159,2.5219627283119754,0.5599918783142473,0.2308780878995656,-4.834945989909209,28.6
,,0.019275632944324644,0.007947117537912196,0.007198521844694751,0.03442127232693159,2.5239566548736003,0.5599918783142473,0.2308780878995656,-4.834945989909209,28.7
,,0.018831197870317624,0.00825647627750965,0.006885486304003502,0.033973160451830776,2.524342711256227,0.5542963215629482,0.2430293845995337,-4.796757383255009,28.8
,,0.018831197870317624,0.00825647627750965,0.006885486304003502,0.033973160451830776,2.5239989719365847,0.5542963215629482,0.2430293845995337,-4.796757383255009,28.9
,,0.018831197870317624,0.00825647627750965,0.006885486304003502,0.033973160451830776,2.523655232616943,0.5542963215629482,0.2430293845995337,-4.796757383255009,29.0
,,0.018831197870317624,0.00825647627750965,0.006885486304003502,0.033973160451830776,2.5233114932973004,0.5542963215629482,0.2430293845995337,-4.796757383255009,29.1
,,0.02189317683717374,0.011470536514995588,0.00606823335514272,0.039431946707312045,2.518832926374159,0.5552142023237719,0.2908945023723253,-4.467973573433874,29.2
,,0.02189317683717374,0.011470536514995588,0.00606823335514272,0.039431946707312045,2.511014404109721,0.5552142023237719,0.2908945023723253,-4.467973573433874,29.3
,,0.008821522808591761,0.01190310262266101,0.005806233798983566,0.02653085923023634,2.4902232893608582,0.33250045662064964,0.4486512298514418,-4.430956188254041,29.4
,,0.008821522808591761,0.01190310262266101,0.005806233798983566,0.02653085923023634,2.468649878929021,0.33250045662064964,0.4486512298514418,-4.430956188254041,29.5
,,0.008821522808591761,0.01190310262266101,0.005806233798983566,0.02653085923023634,2.4470764684971833,0.33250045662064964,0.4486512298514418,-4.430956188254041,29.6
,,0.008821522808591761,0.01190310262266101,0.005806233798983566,0.02653085923023634,2.425503058065346,0.33250045662064964,0.4486512298514418,-4.430956188254041,29.7
,,0.02161604131888368,0.011756288161695272,0.005601795853397989,0.03897412533397694,2.4161248463749,0.5546254376115326,0.30164341241665665,-4.443367018842986,29.8
,,0.02161604131888368,0.011756288161695272,0.005601795853397989,0.03897412533397694,2.4071774829142263,0.5546254376115326,0.30164341241665665,-4.443367018842986,29.9
,,0.02161604131888368,0.011756288161695272,0.005601795853397989,0.03897412533397694,2.3982301194535527,0.5546254376115326,0.30164341241665665,-4.443367018842986,30.0
,,0.02119458875831674,0.012105608065695703,0.005312706376081523,0.038612903200093966,2.3883064043154203,0.5488991244321966,0.3135119885434111,-4.414086457247724,30.1
,,0.02119458875831674,0.012105608065695703,0.005312706376081523,0.038612903200093966,2.375916032726332,0.5488991244321966,0.3135119885434111,-4.414086457247724,30.2
,,0.02119458875831674,0.012105608065695703,0.005312706376081523,0.038612903200093966,2.3635256611372437,0.5488991244321966,0.3135119885434111,-4.414086457247724,30.3
,,0.02119458875831674,0.012105608065695703,0.005312706376081523,0.038612903200093966,2.3511352895481554,0.5488991244321966,0.3135119885434111,-4.414086457247724,30.4
,,0.020942710598884747,0.01178500405629621,0.00510441330055105,0.03783212795573201,2.339036661344187,0.5535694588311331,0.3115078292737336,-4.440927398402654,30.5
,,0.020942710598884747,0.01178500405629621,0.00510441330055105,0.03783212795573201,2.3275200028702545,0.5535694588311331,0.3115078292737336,-4.440927398402654,30.6
,,0.01941941942119792,0.009156224806940538,0.005731620107847739,0.034307264335986194,2.319823718916883,0.5660439500805127,0.2668888057429932,-4.693321324229001,30.7
,,0.01941941942119792,0.009156224806940538,0.005731620107847739,0.034307264335986194,2.3115620743421466,0.5660439500805127,0.2668888057429932,-4.693321324229001,30.8
,,0.01941941942119792,0.009156224806940538,0.005731620107847739,0.034307264335986194,2.303300429767411,0.5660439500805127,0.2668888057429932,-4.693321324229001,30.9
,,0.01941941942119792,0.009156224806940538,0.005731620107847739,0.034307264335986194,2.2950387851926752,0.5660439500805127,0.2668888057429932,-4.693321324229001,31.0
,,0.019968998860993882,0.009117179700305851,0.005746277490373734,0.03483245605167347,2.28754783476223,0.5732871328788917,0.26174380832579364,-4.69759476610901,31.1
,,0.019968998860993882,0.009117179700305851,0.005746277490373734,0.03483245605167347,2.28202874111101,0.5732871328788917,0.26174380832579364,-4.69759476610901,31.2
,,0.01928471462051312,0.01175952522844058,0.00430672110809743,0.035350960957051134,2.2690920557081946,0.5455216519840198,0.33265079392686253,-4.443091709057859,31.3
,,0.01928471462051312,0.01175952522844058,0.00430672110809743,0.035350960957051134,2.256658564402034,0.5455216519840198,0.33265079392686253,-4.443091709057859,31.4
,,0.01928471462051312,0.01175952522844058,0.00430672110809743,0.035350960957051134,2.2442250730958735,0.5455216519840198,0.33265079392686253,-4.443091709057859,31.5
,,0.01928471462051312,0.01175952522844058,0.00430672110809743,0.035350960957051134,2.2317915817897123,0.5455216519840198,0.33265079392686253,-4.443091709057859,31.6
,,0.019005000843343813,0.01139437856168813,0.004250637612418039,0.034650017017449984,2.2196692562032947,0.5484846034497693,0.3288419326302161,-4.474635153823575,31.7
,,0.019005000843343813,0.01139437856168813,0.004250637612418039,0.034650017017449984,2.209350573651145,0.5484846034497693,0.3288419326302161,-4.474635153823575,31.8
,,0.01823349811464708,0.0114395799221368,0.003939370080098384,0.033612448116882264,2.198209312977484,0.5424626629766096,0.3403375999973989,-4.470676013797622,31.9
,,0.01823349811464708,0.0114395799221368,0.003939370080098384,0.033612448116882264,2.185272507839853,0.5424626629766096,0.3403375999973989,-4.470676013797622,32.0
,,0.01823349811464708,0.0114395799221368,0.003939370080098384,0.033612448116882264,2.171665235716505,0.5424626629766096,0.3403375999973989,-4.470676013797622,32.1
,,0.01823349811464708,0.0114395799221368,0.003939370080098384,0.033612448116882264,2.1587284305788743,0.5424626629766096,0.3403375999973989,-4.470676013797622,32.2
,,0.01823349811464708,0.0114395799221368,0.003939370080098384,0.033612448116882264,2.145791625441244,0.5424626629766096,0.3403375999973989,-4.470676013797622,32.3
,,0.018215206360974283,0.011213914390947856,0.004001775391826715,0.033430896143748855,2.1331930861513686,0.5448614444151025,0.3354356503854807,-4.490599915432513,32.4
,,0.018215206360974283,0.011213914390947856,0.004001775391826715,0.033430896143748855,2.120594546861493,0.5448614444151025,0.3354356503854807,-4.490599915432513,32.5
,,0.017210922105666347,0.011066667584671664,0.003671101775237046,0.03194869146557506,2.107570837737307,0.5387050710421502,0.34638875888222453,-4.503817608775549,32.6
,,0.017210922105666347,0.011066667584671664,0.003671101775237046,0.03194869146557506,2.094522629525286,0.5387050710421502,0.34638875888222453,-4.503817608775549,32.7
,,0.017210922105666347,0.011066667584671664,0.003671101775237046,0.03194869146557506,2.0831930126729934,0.5387050710421502,0.34638875888222453,-4.503817608775549,32.8
,,0.017210922105666347,0.011066667584671664,0.003671101775237046,0.03194869146557506,2.0718633958207007,0.5387050710421502,0.34638875888222453,-4.503817608775549,32.9
,,0.01704806198175752,0.01074433098195713,0.003755914392546502,0.03154830735626115,2.060883771232567,0.5403796086186576,0.34056758927273434,-4.5333770140222684,33.0
,,0.01704806198175752,0.01074433098195713,0.003755914392546502,0.03154830735626115,2.049904146644433,0.5403796086186576,0.34056758927273434,-4.5333770140222684,33.1
,,0.016071797409112618,0.010575081864452317,0.0034548175205157895,0.030101696794080722,2.0375627971006014,0.5339166598832069,0.35131181929026106,-4.549254812760391,33.2
,,0.016071797409112618,0.010575081864452317,0.0034548175205157895,0.030101696794080722,2.025221447556769,0.5339166598832069,0.35131181929026106,-4.549254812760391,33.3
,,0.016071797409112618,0.010575081864452317,0.0034548175205157895,0.030101696794080722,2.0145596581362706,0.5339166598832069,0.35131181929026106,-4.549254812760391,33.4
,,0.016071797409112618,0.010575081864452317,0.0034548175205157895,0.030101696794080722,2.003897868715772,0.5339166598832069,0.35131181929026106,-4.549254812760391,33.5
,,0.019118550896454527,0.009491683739819706,0.005022686982490075,0.03363292161876431,1.9987301053944713,0.5684475203542235,0.28221407130221343,-4.657339259566762,33.6
,,0.019118550896454527,0.009491683739819706,0.005022686982490075,0.03363292161876431,1.99356234207317,0.5684475203542235,0.28221407130221343,-4.657339259566762,33.7
,,0.015267427371285476,0.010236214418879128,0.003376105928944497,0.028879747719109103,1.979240351042325,0.5286551503074022,0.3544426536699296,-4.581823413377699,33.8
,,0.015267427371285476,0.010236214418879128,0.003376105928944497,0.028879747719109103,1.9649183600114797,0.5286551503074022,0.3544426536699296,-4.581823413377699,33.9
,,0.015267427371285476,0.010236214418879128,0.003376105928944497,0.028879747719109103,1.9550698213747173,0.5286551503074022,0.3544426536699296,-4.581823413377699,34.0
,,0.015267427371285476,0.010236214418879128,0.003376105928944497,0.028879747719109103,1.945221282737955,0.5286551503074022,0.3544426536699296,-4.581823413377699,34.1
,,0.0178832805876814,0.009000433180357537,0.00478505713526897,0.031668770903307907,1.9408774601948564,0.564697652532307,0.28420532037185603,-4.710482571653347,34.2
,,0.0178832805876814,0.009000433180357537,0.00478505713526897,0.031668770903307907,1.9365336376517575,0.564697652532307,0.28420532037185603,-4.710482571653347,34.3
,,0.014631086371267591,0.009946910248533808,0.00338437838220857,0.02796237500200997,1.9226084402791404,0.5232419052464568,0.3557247997646413,-4.610493303820919,34.4
,,0.014631086371267591,0.009946910248533808,0.00338437838220857,0.02796237500200997,1.9086832429065235,0.5232419052464568,0.3557247997646413,-4.610493303820919,34.5
,,0.014631086371267591,0.009946910248533808,0.00338437838220857,0.02796237500200997,1.8996717665224148,0.5232419052464568,0.3557247997646413,-4.610493303820919,34.6
,,0.014631086371267591,0.009946910248533808,0.00338437838220857,0.02796237500200997,1.8906602901383063,0.5232419052464568,0.3557247997646413,-4.610493303820919,34.7
,,0.01487763036311442,0.009821464123217057,0.003657399191506994,0.02835649367783847,1.8821364813914558,0.5246639634695659,0.34635678990498225,-4.623185071678857,34.8
,,0.01487763036311442,0.009821464123217057,0.003657399191506994,0.02835649367783847,1.873612672644605,0.5246639634695659,0.34635678990498225,-4.623185071678857,34.9
,,0.013990048188104457,0.009598814270220305,0.0034295238749285123,0.027018386333253274,1.8644518518347655,0.5177973257006101,0.3552697097386021,-4.6461157016554875,35.0
,,0.013990048188104457,0.009598814270220305,0.0034295238749285123,0.027018386333253274,1.8510168452378202,0.5177973257006101,0.3552697097386021,-4.6461157016554875,35.1
,,0.013990048188104457,0.009598814270220305,0.0034295238749285123,0.027018386333253274,1.8375818386408747,0.5177973257006101,0.3552697097386021,-4.6461157016554875,35.2
,,0.013990048188104457,0.009598814270220305,0.0034295238749285123,0.027018386333253274,1.8294308963211159,0.5177973257006101,0.3552697097386021,-4.6461157016554875,35.3
,,0.014400662882714932,0.009555021033362393,0.0037553137932158473,0.02771099770929317,1.821831661975953,0.5196732010080432,0.34480970817438367,-4.65068849999851,35.4
,,0.014400662882714932,0.009555021033362393,0.0037553137932158473,0.02771099770929317,1.81423242763079,0.5196732010080432,0.34480970817438367,-4.65068849999851,35.5
,,0.013827067947677041,0.009526449698572664,0.003614638381890042,0.026968156028139748,1.8060144082491532,0.5127183309548223,0.35324809336731633,-4.6536831702253005,35.6
,,0.013827067947677041,0.009526449698572664,0.003614638381890042,0.026968156028139748,1.7931855339927245,0.5127183309548223,0.35324809336731633,-4.6536831702253005,35.7
,,0.013827067947677041,0.009526449698572664,0.003614638381890042,0.026968156028139748,1.7803566597362965,0.5127183309548223,0.35324809336731633,-4.6536831702253005,35.8
,,0.013827067947677041,0.009526449698572664,0.003614638381890042,0.026968156028139748,1.7694115442625054,0.5127183309548223,0.35324809336731633,-4.6536831702253005,35.9
,,0.014415714074463975,0.009572516149508105,0.003988182890156021,0.0279764131141281,1.7590720787322542,0.5152809981628428,0.34216381172445515,-4.648859187541058,36.0
,,0.014415714074463975,0.009572516149508105,0.003988182890156021,0.0279764131141281,1.7487326132020027,0.5152809981628428,0.34216381172445515,-4.648859187541058,36.1
,,0.014672564418024808,0.00786849695645043,0.004467776421407844,0.027008837795883082,1.7423795296315805,0.5432504918912625,0.29133045323593354,-4.844888218725179,36.2
,,0.014672564418024808,0.00786849695645043,0.004467776421407844,0.027008837795883082,1.7393088192262949,0.5432504918912625,0.29133045323593354,-4.844888218725179,36.3
,,0.014672564418024808,0.00786849695645043,0.004467776421407844,0.027008837795883082,1.7362381088210088,0.5432504918912625,0.29133045323593354,-4.844888218725179,36.4
,,0.014672564418024808,0.00786849695645043,0.004467776421407844,0.027008837795883082,1.7304664457430725,0.5432504918912625,0.29133045323593354,-4.844888218725179,36.5
,,0.015082423035334677,0.007768932786371351,0.004733146249411251,0.027584502071117276,1.7255464914959258,0.5467716254746875,0.2816412189113218,-4.857622474567386,36.6
,,0.015082423035334677,0.007768932786371351,0.004733146249411251,0.027584502071117276,1.7206265372487788,0.5467716254746875,0.2816412189113218,-4.857622474567386,36.7
,,0.015082423035334677,0.007768932786371351,0.004733146249411251,0.027584502071117276,1.7157065830016316,0.5467716254746875,0.2816412189113218,-4.857622474567386,36.8
,,0.01477196007908502,0.010072849355423921,0.004340944904616548,0.02918575433912549,1.7055103634612165,0.5061359698790516,0.34512897074311977,-4.597911657417459,36.9
,,0.01477196007908502,0.010072849355423921,0.004340944904616548,0.02918575433912549,1.6989315222974037,0.5061359698790516,0.34512897074311977,-4.597911657417459,37.0
,,0.01477196007908502,0.010072849355423921,0.004340944904616548,0.02918575433912549,1.6923526811335905,0.5061359698790516,0.34512897074311977,-4.597911657417459,37.1
,,0.015738327518717284,0.010260205491922745,0.004841206795918394,0.030839739806558422,1.6877148560376733,0.5103262095411826,0.3326942949674561,-4.579482410987571,37.2
,,0.015738327518717284,0.010260205491922745,0.004841206795918394,0.030839739806558422,1.6830770309417562,0.5103262095411826,0.3326942949674561,-4.579482410987571,37.3
,,0.015738327518717284,0.010260205491922745,0.004841206795918394,0.030839739806558422,1.678439205845839,0.5103262095411826,0.3326942949674561,-4.579482410987571,37.4
,,0.015619592519078834,0.010480214683463412,0.004811087316318951,0.0309108945188612,1.6733177060195683,0.5053102720643712,0.33904598513215456,-4.558266115235754,37.5
,,0.015619592519078834,0.010480214683463412,0.004811087316318951,0.0309108945188612,1.6629277200972843,0.5053102720643712,0.33904598513215456,-4.558266115235754,37.6
,,0.015619592519078834,0.010480214683463412,0.004811087316318951,0.0309108945188612,1.6525377341750007,0.5053102720643712,0.33904598513215456,-4.558266115235754,37.7
,,0.016758105224177346,0.010716256773749265,0.005361481069437764,0.032835843067364374,1.6445713243473645,0.5103601326695726,0.32635850865057214,-4.535993365870795,37.8
,,0.016758105224177346,0.010716256773749265,0.005361481069437764,0.032835843067364374,1.636604914519729,0.5103601326695726,0.32635850865057214,-4.535993365870795,37.9
,,0.016758105224177346,0.010716256773749265,0.005361481069437764,0.032835843067364374,1.6286385046920928,0.5103601326695726,0.32635850865057214,-4.535993365870795,38.0
,,0.016758105224177346,0.010716256773749265,0.005361481069437764,0.032835843067364374,1.6206720948644573,0.5103601326695726,0.32635850865057214,-4.535993365870795,38.1
,,0.016032715762138494,0.01052725350752639,0.0050969711232680065,0.03165694039293289,1.6163868480950823,0.5064518416226239,0.33254172313747976,-4.553787812353208,38.2
,,0.016032715762138494,0.01052725350752639,0.0050969711232680065,0.03165694039293289,1.612101601325708,0.5064518416226239,0.33254172313747976,-4.553787812353208,38.3
,,0.016489700474821102,0.010299221392176896,0.005402249556478912,0.03219117142347691,1.6216566192259803,0.512242945679051,0.3199393167986956,-4.575686979596376,38.4
,,0.016489700474821102,0.010299221392176896,0.005402249556478912,0.03219117142347691,1.6312116371262524,0.512242945679051,0.3199393167986956,-4.575686979596376,38.5
,,0.016489700474821102,0.010299221392176896,0.005402249556478912,0.03219117142347691,1.6407666550265247,0.512242945679051,0.3199393167986956,-4.575686979596376,38.6
,,0.016489700474821102,0.010299221392176896,0.005402249556478912,0.03219117142347691,1.650321672926797,0.512242945679051,0.3199393167986956,-4.575686979596376,38.7
,,0.015523406710060701,0.009930007045642791,0.004662711306090594,0.030116125061794088,1.6472617112479324,0.5154516617994126,0.329723927805048,-4.612194091394311,38.8
,,0.015523406710060701,0.009930007045642791,0.004662711306090594,0.030116125061794088,1.6442017495690673,0.5154516617994126,0.329723927805048,-4.612194091394311,38.9
,,0.01593847115780486,0.009675272078715949,0.005262969392518519,0.030876712629039328,1.6420757692916075,0.5161971531520761,0.3133517546040968,-4.638181918630597,39.0
,,0.01593847115780486,0.009675272078715949,0.005262969392518519,0.030876712629039328,1.6409261406916058,0.5161971531520761,0.3133517546040968,-4.638181918630597,39.1
,,0.01593847115780486,0.009675272078715949,0.005262969392518519,0.030876712629039328,1.6397765120916041,0.5161971531520761,0.3133517546040968,-4.638181918630597,39.2
,,0.01593847115780486,0.009675272078715949,0.005262969392518519,0.030876712629039328,1.6386268834916027,0.5161971531520761,0.3133517546040968,-4.638181918630597,39.3
,,0.01593847115780486,0.009675272078715949,0.005262969392518519,0.030876712629039328,1.6374772548916008,0.5161971531520761,0.3133517546040968,-4.638181918630597,39.4
,,0.015139542392770067,0.009372828938001301,0.004520492421090241,0.029032863751861607,1.635679413016041,0.5214622478224977,0.32283515047323946,-4.669940313890967,39.5
,,0.015139542392770067,0.009372828938001301,0.004520492421090241,0.029032863751861607,1.6338815711404815,0.5214622478224977,0.32283515047323946,-4.669940313890967,39.6
,,0.018142345125761874,0.00886272771122476,0.005811595826061806,0.03281666866304844,1.633060909731731,0.5528393302818744,0.2700678671020678,-4.725900693662743,39.7
,,0.018142345125761874,0.00886272771122476,0.005811595826061806,0.03281666866304844,1.6322402483229808,0.5528393302818744,0.2700678671020678,-4.725900693662743,39.8
,,0.018142345125761874,0.00886272771122476,0.005811595826061806,0.03281666866304844,1.6314195869142303,0.5528393302818744,0.2700678671020678,-4.725900693662743,39.9
,,0.018142345125761874,0.00886272771122476,0.005811595826061806,0.03281666866304844,1.6305989255054796,0.5528393302818744,0.2700678671020678,-4.725900693662743,40.0
,,0.016999746734248485,0.008454198476450282,0.004739646797670452,0.03019359200836922,1.6286049779973808,0.563024986544708,0.2799997586940601,-4.773092099889292,40.1
,,0.01742423236071965,0.008363315743349685,0.0052727489170386445,0.03106029702110798,1.627417772061021,0.5609808672749805,0.2692606492998485,-4.783900310500551,40.2
,,0.01742423236071965,0.008363315743349685,0.0052727489170386445,0.03106029702110798,1.6323454287922692,0.5609808672749805,0.2692606492998485,-4.783900310500551,40.3
,,0.01742423236071965,0.008363315743349685,0.0052727489170386445,0.03106029702110798,1.6372730855235176,0.5609808672749805,0.2692606492998485,-4.783900310500551,40.4
,,0.01742423236071965,0.008363315743349685,0.0052727489170386445,0.03106029702110798,1.6422007422547662,0.5609808672749805,0.2692606492998485,-4.783900310500551,40.5
,,0.01742423236071965,0.008363315743349685,0.0052727489170386445,0.03106029702110798,1.6471283989860146,0.5609808672749805,0.2692606492998485,-4.783900310500551,40.6
,,0.016506295116444563,0.00805282446320759,0.004259669435130434,0.02881878901478259,1.6513708928749142,0.5727615795367967,0.2794296616376523,-4.821732384095662,40.7
,,0.016506295116444563,0.00805282446320759,0.004259669435130434,0.02881878901478259,1.6556133867638136,0.5727615795367967,0.2794296616376523,-4.821732384095662,40.8
,,0.004991981521876713,0.00833248257308639,0.004642900243442342,0.017967364338405446,1.6445600886481286,0.27783604917535376,0.46375653190688704,-4.7875938392233435,40.9
,,0.004991981521876713,0.00833248257308639,0.004642900243442342,0.017967364338405446,1.6335067905324439,0.27783604917535376,0.46375653190688704,-4.7875938392233435,41.0
,,0.004991981521876713,0.00833248257308639,0.004642900243442342,0.017967364338405446,1.6224534924167588,0.27783604917535376,0.46375653190688704,-4.7875938392233435,41.1
,,0.004991981521876713,0.00833248257308639,0.004642900243442342,0.017967364338405446,1.6114001943010738,0.27783604917535376,0.46375653190688704,-4.7875938392233435,41.2
,,0.004991981521876713,0.00833248257308639,0.004642900243442342,0.017967364338405446,1.600346896185389,0.27783604917535376,0.46375653190688704,-4.7875938392233435,41.3
,,0.016394272136069817,0.007844053444428343,0.0038334363283657564,0.02807176190886392,1.6055211834151348,0.584012937602366,0.2794286112105956,-4.84799955725611,41.4
,,0.01536677280292662,0.008185113191784558,0.004471114956746082,0.02802300095145726,1.608333020562425,0.5483628548400529,0.29208553380714614,-4.8054382390812265,41.5
,,0.01536677280292662,0.008185113191784558,0.004471114956746082,0.02802300095145726,1.6119130357804,0.5483628548400529,0.29208553380714614,-4.8054382390812265,41.6
,,0.01536677280292662,0.008185113191784558,0.004471114956746082,0.02802300095145726,1.615493050998374,0.5483628548400529,0.29208553380714614,-4.8054382390812265,41.7
,,0.01536677280292662,0.008185113191784558,0.004471114956746082,0.02802300095145726,1.6190730662163486,0.5483628548400529,0.29208553380714614,-4.8054382390812265,41.8
,,0.01536677280292662,0.008185113191784558,0.004471114956746082,0.02802300095145726,1.6226530814343236,0.5483628548400529,0.29208553380714614,-4.8054382390812265,41.9
,,0.015029660699977233,0.008152102174711427,0.0037604702657691442,0.026942233140457805,1.6255080994752302,0.557847622415825,0.30257707786181326,-4.809479449441605,42.0
,,0.015564197263618958,0.008079798145844906,0.0042566240354309755,0.02790061944489484,1.6292815125981743,0.5578441473085947,0.2895920702335274,-4.8183883887110746,42.1
,,0.015564197263618958,0.008079798145844906,0.0042566240354309755,0.02790061944489484,1.6337985149147158,0.5578441473085947,0.2895920702335274,-4.8183883887110746,42.2
,,0.015564197263618958,0.008079798145844906,0.0042566240354309755,0.02790061944489484,1.638315517231257,0.5578441473085947,0.2895920702335274,-4.8183883887110746,42.3
,,0.015564197263618958,0.008079798145844906,0.0042566240354309755,0.02790061944489484,1.6428325195477984,0.5578441473085947,0.2895920702335274,-4.8183883887110746,42.4
,,0.015564197263618958,0.008079798145844906,0.0042566240354309755,0.02790061944489484,1.6473495218643397,0.5578441473085947,0.2895920702335274,-4.8183883887110746,42.5
,,0.015564197263618958,0.008079798145844906,0.0042566240354309755,0.02790061944489484,1.6463724980816834,0.5578441473085947,0.2895920702335274,-4.8183883887110746,42.6
,,0.01581284961948506,0.008027789308803478,0.004052693936781994,0.027893332865070536,1.6458782936845382,0.5669042740778648,0.28780315882783186,-4.8248460929361014,42.7
,,0.01581284961948506,0.008027789308803478,0.004052693936781994,0.027893332865070536,1.6511922138042214,0.5669042740778648,0.28780315882783186,-4.8248460929361014,42.8
,,0.01581284961948506,0.008027789308803478,0.004052693936781994,0.027893332865070536,1.6565061339239047,0.5669042740778648,0.28780315882783186,-4.8248460929361014,42.9
,,0.01581284961948506,0.008027789308803478,0.004052693936781994,0.027893332865070536,1.6618200540435881,0.5669042740778648,0.28780315882783186,-4.8248460929361014,43.0
,,0.01581284961948506,0.008027789308803478,0.004052693936781994,0.027893332865070536,1.6671339741632716,0.5669042740778648,0.28780315882783186,-4.8248460929361014,43.1
,,0.01581284961948506,0.008027789308803478,0.004052693936781994,0.027893332865070536,1.6669431781892912,0.5669042740778648,0.28780315882783186,-4.8248460929361014,43.2
,,0.015652128604611848,0.008158259226802385,0.0034169359765577312,0.02722732380797196,1.666183475515355,0.5748684194966315,0.29963500211554783,-4.808724462812941,43.3
,,0.016173926475545494,0.008090227586555069,0.0038865101735231222,0.028150664235623686,1.672053201200883,0.5745486621618666,0.2873902910012747,-4.817098416471203,43.4
,,0.016173926475545494,0.008090227586555069,0.0038865101735231222,0.028150664235623686,1.6779229268864106,0.5745486621618666,0.2873902910012747,-4.817098416471203,43.5
,,0.016173926475545494,0.008090227586555069,0.0038865101735231222,0.028150664235623686,1.6837926525719384,0.5745486621618666,0.2873902910012747,-4.817098416471203,43.6
,,0.016173926475545494,0.008090227586555069,0.0038865101735231222,0.028150664235623686,1.6896623782574665,0.5745486621618666,0.2873902910012747,-4.817098416471203,43.7
,,0.016173926475545494,0.008090227586555069,0.0038865101735231222,0.028150664235623686,1.695044436305736,0.5745486621618666,0.2873902910012747,-4.817098416471203,43.8
,,0.0174553208058029,0.008161693051677951,0.0024188437145521656,0.028035857572033016,1.701976446557424,0.6226069868187424,0.29111622609395743,-4.80830364970422,43.9
,,0.016609414808031037,0.008221784931152429,0.0037587508898966715,0.028589950629080138,1.708228609887389,0.5809529027705577,0.28757604508731394,-4.800967948577537,44.0
,,0.016609414808031037,0.008221784931152429,0.0037587508898966715,0.028589950629080138,1.7144807732173535,0.5809529027705577,0.28757604508731394,-4.800967948577537,44.1
,,0.016609414808031037,0.008221784931152429,0.0037587508898966715,0.028589950629080138,1.7207329365473185,0.5809529027705577,0.28757604508731394,-4.800967948577537,44.2
,,0.016609414808031037,0.008221784931152429,0.0037587508898966715,0.028589950629080138,1.726985099877283,0.5809529027705577,0.28757604508731394,-4.800967948577537,44.3
,,0.016609414808031037,0.008221784931152429,0.0037587508898966715,0.028589950629080138,1.7326855552326517,0.5809529027705577,0.28757604508731394,-4.800967948577537,44.4
,,0.016609414808031037,0.008221784931152429,0.0037587508898966715,0.028589950629080138,1.7383860105880204,0.5809529027705577,0.28757604508731394,-4.800967948577537,44.5
,,0.01700929143931352,0.008381265646032341,0.003639763518207931,0.029030320603553792,1.7448082561753773,0.5859146949011407,0.2887073057335211,-4.7817563441461886,44.6
,,0.01700929143931352,0.008381265646032341,0.003639763518207931,0.029030320603553792,1.7512305017627339,0.5859146949011407,0.2887073057335211,-4.7817563441461886,44.7
,,0.01700929143931352,0.008381265646032341,0.003639763518207931,0.029030320603553792,1.7576527473500902,0.5859146949011407,0.2887073057335211,-4.7817563441461886,44.8
,,0.01700929143931352,0.008381265646032341,0.003639763518207931,0.029030320603553792,1.7640749929374469,0.5859146949011407,0.2887073057335211,-4.7817563441461886,44.9
,,0.01700929143931352,0.008381265646032341,0.003639763518207931,0.029030320603553792,1.769891588581264,0.5859146949011407,0.2887073057335211,-4.7817563441461886,45.0
,,0.01700929143931352,0.008381265646032341,0.003639763518207931,0.029030320603553792,1.775708184225081,0.5859146949011407,0.2887073057335211,-4.7817563441461886,45.1
,,0.017426616308967417,0.008575405691394542,0.0035534026448927345,0.029555424645254694,1.7775686250927087,0.5896249679418958,0.2901465904930375,-4.758856976099461,45.2
,,0.017426616308967417,0.008575405691394542,0.0035534026448927345,0.029555424645254694,1.7794290659603365,0.5896249679418958,0.2901465904930375,-4.758856976099461,45.3
,,0.017426616308967417,0.008575405691394542,0.0035534026448927345,0.029555424645254694,1.7812895068279642,0.5896249679418958,0.2901465904930375,-4.758856976099461,45.4
,,0.017426616308967417,0.008575405691394542,0.0035534026448927345,0.029555424645254694,1.783149947695592,0.5896249679418958,0.2901465904930375,-4.758856976099461,45.5
,,0.017426616308967417,0.008575405691394542,0.0035534026448927345,0.029555424645254694,1.7841586797324307,0.5896249679418958,0.2901465904930375,-4.758856976099461,45.6
,,0.017426616308967417,0.008575405691394542,0.0035534026448927345,0.029555424645254694,1.7851674117692693,0.5896249679418958,0.2901465904930375,-4.758856976099461,45.7
,,0.017886854519830114,0.008809806599869118,0.003506261693646078,0.03020292281334531,1.786155835020415,0.5922226345566369,0.2916872202837422,-4.731889791616762,45.8
,,0.017886854519830114,0.008809806599869118,0.003506261693646078,0.03020292281334531,1.7924205235648287,0.5922226345566369,0.2916872202837422,-4.731889791616762,45.9
,,0.017886854519830114,0.008809806599869118,0.003506261693646078,0.03020292281334531,1.7986852121092425,0.5922226345566369,0.2916872202837422,-4.731889791616762,46.0
,,0.017886854519830114,0.008809806599869118,0.003506261693646078,0.03020292281334531,1.8049499006536565,0.5922226345566369,0.2916872202837422,-4.731889791616762,46.1
,,0.017886854519830114,0.008809806599869118,0.003506261693646078,0.03020292281334531,1.8104656250860844,0.5922226345566369,0.2916872202837422,-4.731889791616762,46.2
,,0.018447837975358226,0.008751677557812433,0.0037000587945205843,0.030899574327691245,1.8168434126324162,0.5970256347132213,0.2832297126491302,-4.738509876095867,46.3
,,0.01903420899080261,0.009353058857014308,0.0019009677892645148,0.030288235637081433,1.822411847872977,0.628435714079671,0.3088017066785989,-4.672051838700779,46.4
,,0.01903420899080261,0.009353058857014308,0.0019009677892645148,0.030288235637081433,1.8284639578438913,0.628435714079671,0.3088017066785989,-4.672051838700779,46.5
,,0.01903420899080261,0.009353058857014308,0.0019009677892645148,0.030288235637081433,1.8345160678148056,0.628435714079671,0.3088017066785989,-4.672051838700779,46.6
,,0.01903420899080261,0.009353058857014308,0.0019009677892645148,0.030288235637081433,1.8405681777857195,0.628435714079671,0.3088017066785989,-4.672051838700779,46.7
,,0.01903420899080261,0.009353058857014308,0.0019009677892645148,0.030288235637081433,1.8458045818409847,0.628435714079671,0.3088017066785989,-4.672051838700779,46.8
,,0.01900601549067889,0.009037898308692938,0.00371424838714327,0.0317581621865151,1.851794827521968,0.5984608107691154,0.2845850542488425,-4.706328619584016,46.9
,,0.018976919787926132,0.009400924046444934,0.003562069861828101,0.03193991369619917,1.8568483906611826,0.594144366463469,0.2943315419028086,-4.666947291724293,47.0
,,0.018976919787926132,0.009400924046444934,0.003562069861828101,0.03193991369619917,1.861901953800397,0.594144366463469,0.2943315419028086,-4.666947291724293,47.1
,,0.018976919787926132,0.009400924046444934,0.003562069861828101,0.03193991369619917,1.86740918148485,0.594144366463469,0.2943315419028086,-4.666947291724293,47.2
,,0.018976919787926132,0.009400924046444934,0.003562069861828101,0.03193991369619917,1.872916409169303,0.594144366463469,0.2943315419028086,-4.666947291724293,47.3
,,0.018976919787926132,0.009400924046444934,0.003562069861828101,0.03193991369619917,1.8775559646685338,0.594144366463469,0.2943315419028086,-4.666947291724293,47.4
,,0.019684579321748292,0.009384241852101268,0.0037874324543888463,0.03285625362823841,1.8830732736561926,0.5991121064645764,0.28561509045681194,-4.66872339514751,47.5
,,0.019608237417096868,0.009737322861392424,0.003668125314780635,0.03301368559326993,1.8876583484101963,0.5939426957253796,0.29494807036562576,-4.631789059335339,47.6
,,0.019608237417096868,0.009737322861392424,0.003668125314780635,0.03301368559326993,1.8922434231642,0.5939426957253796,0.29494807036562576,-4.631789059335339,47.7
,,0.019608237417096868,0.009737322861392424,0.003668125314780635,0.03301368559326993,1.8972482787559493,0.5939426957253796,0.29494807036562576,-4.631789059335339,47.8
,,0.019608237417096868,0.009737322861392424,0.003668125314780635,0.03301368559326993,1.9022531343476987,0.5939426957253796,0.29494807036562576,-4.631789059335339,47.9
,,0.019608237417096868,0.009737322861392424,0.003668125314780635,0.03301368559326993,1.906324008538043,0.5939426957253796,0.29494807036562576,-4.631789059335339,48.0
,,0.020462787241567665,0.009756668065751485,0.0039188567309932885,0.03413831203831244,1.9113236993680494,0.5994082899764602,0.2857981980714764,-4.629804323548633,48.1
,,0.020462787241567665,0.009756668065751485,0.0039188567309932885,0.03413831203831244,1.9163233901980559,0.5994082899764602,0.2857981980714764,-4.629804323548633,48.2
,,0.020390340450466223,0.01012439510047404,0.003841106127072606,0.034355841678012866,1.9203971705680734,0.5935043199222705,0.2946920991009653,-4.592807410937286,48.3
,,0.020390340450466223,0.01012439510047404,0.003841106127072606,0.034355841678012866,1.9244709509380913,0.5935043199222705,0.2946920991009653,-4.592807410937286,48.4
,,0.020390340450466223,0.01012439510047404,0.003841106127072606,0.034355841678012866,1.9289012011985474,0.5935043199222705,0.2946920991009653,-4.592807410937286,48.5
,,0.020390340450466223,0.01012439510047404,0.003841106127072606,0.034355841678012866,1.9333314514590032,0.5935043199222705,0.2946920991009653,-4.592807410937286,48.6
,,0.020106938264461964,0.0103914959197271,0.0019703353089469827,0.03246876949313605,1.9320859305488827,0.6192701041138194,0.3200458804551826,-4.566767507360076,48.7
,,0.020106938264461964,0.0103914959197271,0.0019703353089469827,0.03246876949313605,1.9308404096387621,0.6192701041138194,0.3200458804551826,-4.566767507360076,48.8
,,0.021362864825235264,0.01058628670939735,0.004082592467462097,0.03603174400209471,1.9305174845493447,0.5928901144500064,0.2938044494538459,-4.548195822085654,48.9
,,0.021362864825235264,0.01058628670939735,0.004082592467462097,0.03603174400209471,1.9301945594599272,0.5928901144500064,0.2938044494538459,-4.548195822085654,49.0
,,0.021362864825235264,0.01058628670939735,0.004082592467462097,0.03603174400209471,1.9302742263255674,0.5928901144500064,0.2938044494538459,-4.548195822085654,49.1
,,0.021362864825235264,0.01058628670939735,0.004082592467462097,0.03603174400209471,1.9295471516194687,0.5928901144500064,0.2938044494538459,-4.548195822085654,49.2
,,0.022586245833658033,0.010688464610295859,0.004387964981500841,0.037662675425454734,1.929877487420789,0.5996983904758096,0.28379461866567085,-4.538590192857964,49.3
,,0.022586245833658033,0.010688464610295859,0.004387964981500841,0.037662675425454734,1.9302078232221087,0.5996983904758096,0.28379461866567085,-4.538590192857964,49.4
,,0.022792398170652196,0.011213457127502673,0.004445526712788916,0.03845138201094379,1.9296431713651339,0.5927588809204613,0.2916268945628839,-4.490640692698353,49.5
,,0.022792398170652196,0.011213457127502673,0.004445526712788916,0.03845138201094379,1.9290785195081588,0.5927588809204613,0.2916268945628839,-4.490640692698353,49.6
,,0.022792398170652196,0.011213457127502673,0.004445526712788916,0.03845138201094379,1.92888786477379,0.5927588809204613,0.2916268945628839,-4.490640692698353,49.7
,,0.022792398170652196,0.011213457127502673,0.004445526712788916,0.03845138201094379,1.9286972100394213,0.5927588809204613,0.2916268945628839,-4.490640692698353,49.8
,,0.024138383114106873,0.011316274210423123,0.004764705500313273,0.040219362824843265,1.945741311350021,0.6001682129881166,0.28136383611311533,-4.4815133937382186,49.9
,,0.024138383114106873,0.011316274210423123,0.004764705500313273,0.040219362824843265,1.9627854126606215,0.6001682129881166,0.28136383611311533,-4.4815133937382186,50.0
,,0.020370136806670998,0.011818422381728333,0.0020983311404267797,0.034286890328826106,1.9752797785587193,0.5941086115221467,0.34469216275913483,-4.4380957461550805,50.1
,,0.020370136806670998,0.011818422381728333,0.0020983311404267797,0.034286890328826106,1.9877741444568169,0.5941086115221467,0.34469216275913483,-4.4380957461550805,50.2
,,0.020370136806670998,0.011818422381728333,0.0020983311404267797,0.034286890328826106,2.0002685103549145,0.5941086115221467,0.34469216275913483,-4.4380957461550805,50.3
,,0.020370136806670998,0.011818422381728333,0.0020983311404267797,0.034286890328826106,1.9961970250598269,0.5941086115221467,0.34469216275913483,-4.4380957461550805,50.4
,,0.020370136806670998,0.011818422381728333,0.0020983311404267797,0.034286890328826106,1.994487989847194,0.5941086115221467,0.34469216275913483,-4.4380957461550805,50.5
,,0.025847370210875364,0.011937420998671807,0.005196437431051184,0.042981228640598355,1.9976861455553065,0.6013641542685211,0.2777356854661012,-4.428077191109496,50.6
,,0.025847370210875364,0.011937420998671807,0.005196437431051184,0.042981228640598355,2.000884301263419,0.6013641542685211,0.2777356854661012,-4.428077191109496,50.7
,,0.02008327332285882,0.012009863181607731,0.0022626205178995777,0.03435575702236613,1.9986045968692885,0.5845679170971054,0.349573527772627,-4.422027034994458,50.8
,,0.02008327332285882,0.012009863181607731,0.0022626205178995777,0.03435575702236613,1.9963248924751573,0.5845679170971054,0.349573527772627,-4.422027034994458,50.9
,,0.02008327332285882,0.012009863181607731,0.0022626205178995777,0.03435575702236613,1.9944201929939351,0.5845679170971054,0.349573527772627,-4.422027034994458,51.0
,,0.02008327332285882,0.012009863181607731,0.0022626205178995777,0.03435575702236613,1.9915970984306761,0.5845679170971054,0.349573527772627,-4.422027034994458,51.1
,,0.02756249070689362,0.012491806130672942,0.005642357924493601,0.04569665476206016,1.9947097144545276,0.6031621100146152,0.2733636892178882,-4.3826823591603645,51.2
,,0.02756249070689362,0.012491806130672942,0.005642357924493601,0.04569665476206016,1.9978223304783795,0.6031621100146152,0.2733636892178882,-4.3826823591603645,51.3
,,0.02787538367133276,0.012985816433974081,0.0058394266454564496,0.04670062675076329,2.0002700211277546,0.596895279802153,0.2780651425360547,-4.343897560682331,51.4
,,0.02787538367133276,0.012985816433974081,0.0058394266454564496,0.04670062675076329,2.00271771177713,0.596895279802153,0.2780651425360547,-4.343897560682331,51.5
,,0.02787538367133276,0.012985816433974081,0.0058394266454564496,0.04670062675076329,2.0051654024265053,0.596895279802153,0.2780651425360547,-4.343897560682331,51.6
,,0.02787538367133276,0.012985816433974081,0.0058394266454564496,0.04670062675076329,2.00713027369037,0.596895279802153,0.2780651425360547,-4.343897560682331,51.7
,,0.029230969601770577,0.012937928331872808,0.006083519278623359,0.04825241721226674,2.0103476060249816,0.6057928553751184,0.2681301596758913,-4.347592100726991,51.8
,,0.029230969601770577,0.012937928331872808,0.006083519278623359,0.04825241721226674,2.0135649383595937,0.6057928553751184,0.2681301596758913,-4.347592100726991,51.9
,,0.029601914321460386,0.013411418731549893,0.006312431277628667,0.04932576433063894,2.0162033084841013,0.6001308793318183,0.2718947980542356,-4.31164879074845,52.0
,,0.029601914321460386,0.013411418731549893,0.006312431277628667,0.04932576433063894,2.018841678608609,0.6001308793318183,0.2718947980542356,-4.31164879074845,52.1
,,0.029601914321460386,0.013411418731549893,0.006312431277628667,0.04932576433063894,2.0214800487331166,0.6001308793318183,0.2718947980542356,-4.31164879074845,52.2
,,0.029601914321460386,0.013411418731549893,0.006312431277628667,0.04932576433063894,2.02468732555758,0.6001308793318183,0.2718947980542356,-4.31164879074845,52.3
,,0.01977658596072058,0.012147293560239709,0.0029699708838980513,0.034893850404858345,2.0205636832135125,0.5667642215250354,0.3481213285235044,-4.410648886252191,52.4
,,0.01977658596072058,0.012147293560239709,0.0029699708838980513,0.034893850404858345,2.0164400408694454,0.5667642215250354,0.3481213285235044,-4.410648886252191,52.5
,,0.01977658596072058,0.012147293560239709,0.0029699708838980513,0.034893850404858345,2.0123163985253782,0.5667642215250354,0.3481213285235044,-4.410648886252191,52.6
,,0.01662152518954914,0.013834140749061289,0.006793834322972466,0.03724950026158289,2.0034529862569026,0.44622142774601664,0.37139131134408987,-4.280615774714883,52.7
,,0.01662152518954914,0.013834140749061289,0.006793834322972466,0.03724950026158289,1.9945895739884276,0.44622142774601664,0.37139131134408987,-4.280615774714883,52.8
,,0.01662152518954914,0.013834140749061289,0.006793834322972466,0.03724950026158289,1.9841762095165343,0.44622142774601664,0.37139131134408987,-4.280615774714883,52.9
,,0.01662152518954914,0.013834140749061289,0.006793834322972466,0.03724950026158289,1.9750797040293528,0.44622142774601664,0.37139131134408987,-4.280615774714883,53.0
,,0.019470099882151305,0.012278990132649738,0.003186341417203019,0.03493543143200406,1.9702516152944016,0.5573167149816535,0.3514766994232983,-4.399865596399676,53.1
,,0.019470099882151305,0.012278990132649738,0.003186341417203019,0.03493543143200406,1.9654235265594502,0.5573167149816535,0.3514766994232983,-4.399865596399676,53.2
,,0.03353981258274919,0.014273082629491025,0.0072582215804967475,0.05507111679273697,1.9690867850543952,0.6090272821046654,0.25917547093167764,-4.249379849134488,53.3
,,0.03353981258274919,0.014273082629491025,0.0072582215804967475,0.05507111679273697,1.9727500435493406,0.6090272821046654,0.25917547093167764,-4.249379849134488,53.4
,,0.03353981258274919,0.014273082629491025,0.0072582215804967475,0.05507111679273697,1.9764133020442858,0.6090272821046654,0.25917547093167764,-4.249379849134488,53.5
,,0.03353981258274919,0.014273082629491025,0.0072582215804967475,0.05507111679273697,1.9799735553437166,0.6090272821046654,0.25917547093167764,-4.249379849134488,53.6
,,0.01918480183753968,0.012416809914973154,0.003397357604171779,0.03499896935668461,1.9745916110662374,0.5481533368032019,0.3547764446555513,-4.388704086114865,53.7
,,0.01918480183753968,0.012416809914973154,0.003397357604171779,0.03499896935668461,1.9692096667887578,0.5481533368032019,0.3547764446555513,-4.388704086114865,53.8
,,0.035631822471449505,0.014703617319018238,0.00768542447938402,0.058020864269851764,1.973586281282206,0.6141208497985813,0.25341948114789437,-4.21966173934552,53.9
,,0.035631822471449505,0.014703617319018238,0.00768542447938402,0.058020864269851764,1.9779628957756539,0.6141208497985813,0.25341948114789437,-4.21966173934552,54.0
,,0.035631822471449505,0.014703617319018238,0.00768542447938402,0.058020864269851764,1.9823395102691017,0.6141208497985813,0.25341948114789437,-4.21966173934552,54.1
,,0.035631822471449505,0.014703617319018238,0.00768542447938402,0.058020864269851764,1.98668589757891,0.6141208497985813,0.25341948114789437,-4.21966173934552,54.2
,,0.01879120366979697,0.012513449754319735,0.0035664010811125584,0.03487105450522926,1.980791655320095,0.5388768403025794,0.3588491926002186,-4.380951232780257,54.3
,,0.01879120366979697,0.012513449754319735,0.0035664010811125584,0.03487105450522926,1.9748974130612806,0.5388768403025794,0.3588491926002186,-4.380951232780257,54.4
,,0.037134651868418106,0.014859805306221828,0.007915786685180828,0.059910243859820765,1.9800844972248253,0.6198381024004265,0.24803446537442092,-4.2090953416476795,54.5
,,0.037134651868418106,0.014859805306221828,0.007915786685180828,0.059910243859820765,1.9852715813883703,0.6198381024004265,0.24803446537442092,-4.2090953416476795,54.6
,,0.037134651868418106,0.014859805306221828,0.007915786685180828,0.059910243859820765,1.9904586655519154,0.6198381024004265,0.24803446537442092,-4.2090953416476795,54.7
,,0.037134651868418106,0.014859805306221828,0.007915786685180828,0.059910243859820765,1.9956660585011532,0.6198381024004265,0.24803446537442092,-4.2090953416476795,54.8
,,0.03823942275026793,0.014655565397526814,0.007994734067148849,0.0608897222149436,2.0020979892116744,0.6280111217338283,0.2406902982048756,-4.222935125043066,54.9
,,0.03823942275026793,0.014655565397526814,0.007994734067148849,0.0608897222149436,2.0085299199221947,0.6280111217338283,0.2406902982048756,-4.222935125043066,55.0
,,0.03823942275026793,0.014655565397526814,0.007994734067148849,0.0608897222149436,2.014961850632716,0.6280111217338283,0.2406902982048756,-4.222935125043066,55.1
,,0.03803493350325195,0.01480806943668058,0.007960005151436439,0.06080300809136897,2.0209417724998886,0.6255436153108852,0.24354172435726248,-4.212583014588994,55.2
,,0.03803493350325195,0.01480806943668058,0.007960005151436439,0.06080300809136897,2.0260596312531574,0.6255436153108852,0.24354172435726248,-4.212583014588994,55.3
,,0.03803493350325195,0.01480806943668058,0.007960005151436439,0.06080300809136897,2.031986842312197,0.6255436153108852,0.24354172435726248,-4.212583014588994,55.4
,,0.03869320541094123,0.014460795454163004,0.007950602518066003,0.06110460338317023,2.0391052085920833,0.6332289757010079,0.23665639990302068,-4.236314053103207,55.5
,,0.03869320541094123,0.014460795454163004,0.007950602518066003,0.06110460338317023,2.04622357487197,0.6332289757010079,0.23665639990302068,-4.236314053103207,55.6
,,0.03869320541094123,0.014460795454163004,0.007950602518066003,0.06110460338317023,2.0533419411518565,0.6332289757010079,0.23665639990302068,-4.236314053103207,55.7
,,0.03834884826371212,0.014561726635729917,0.007828976775668177,0.060739551675110214,2.059991481858334,0.6313653493663614,0.23974043657120053,-4.22935865562574,55.8
,,0.03834884826371212,0.014561726635729917,0.007828976775668177,0.060739551675110214,2.0658871809390926,0.6313653493663614,0.23974043657120053,-4.22935865562574,55.9
,,0.03834884826371212,0.014561726635729917,0.007828976775668177,0.060739551675110214,2.0727195625616206,0.6313653493663614,0.23974043657120053,-4.22935865562574,56.0
,,0.03903607606405895,0.014231306398987677,0.007830281590300985,0.06109766405334761,2.0807678876586597,0.6389127419008112,0.2329271768321874,-4.252311065121857,56.1
,,0.03903607606405895,0.014231306398987677,0.007830281590300985,0.06109766405334761,2.0888162127556993,0.6389127419008112,0.2329271768321874,-4.252311065121857,56.2
,,0.03903607606405895,0.014231306398987677,0.007830281590300985,0.06109766405334761,2.096864537852738,0.6389127419008112,0.2329271768321874,-4.252311065121857,56.3
,,0.03903607606405895,0.014231306398987677,0.007830281590300985,0.06109766405334761,2.1049128629497775,0.6389127419008112,0.2329271768321874,-4.252311065121857,56.4
,,0.03869642741628372,0.014359960035522526,0.0076630348504491425,0.06071942230225539,2.111547575762579,0.6372990049815801,0.23649698055492094,-4.243311498407539,56.5
,,0.03869642741628372,0.014359960035522526,0.0076630348504491425,0.06071942230225539,2.1191145228090353,0.6372990049815801,0.23649698055492094,-4.243311498407539,56.6
,,0.03920386718786006,0.01398378261512953,0.007641759158495449,0.06082940896148504,2.1278901254303277,0.6444887079649667,0.2298852291000156,-4.269857005446542,56.7
,,0.03920386718786006,0.01398378261512953,0.007641759158495449,0.06082940896148504,2.13666572805162,0.6444887079649667,0.2298852291000156,-4.269857005446542,56.8
,,0.03920386718786006,0.01398378261512953,0.007641759158495449,0.06082940896148504,2.1454413306729125,0.6444887079649667,0.2298852291000156,-4.269857005446542,56.9
,,0.03920386718786006,0.01398378261512953,0.007641759158495449,0.06082940896148504,2.154216933294205,0.6444887079649667,0.2298852291000156,-4.269857005446542,57.0
,,0.03908630013634403,0.014187523441557822,0.007471267476509493,0.060745091054411345,2.1615243100410306,0.6434478812671984,0.23355835336306596,-4.255392331473488,57.1
,,0.03908630013634403,0.014187523441557822,0.007471267476509493,0.060745091054411345,2.168831686787856,0.6434478812671984,0.23355835336306596,-4.255392331473488,57.2
,,0.03953806384605827,0.013807233411883372,0.007453705465221748,0.06079900272316339,2.1782716313500523,0.6503077694561418,0.2270963797671479,-4.28256266386159,57.3
,,0.03953806384605827,0.013807233411883372,0.007453705465221748,0.06079900272316339,2.1877115759122483,0.6503077694561418,0.2270963797671479,-4.28256266386159,57.4
,,0.03953806384605827,0.013807233411883372,0.007453705465221748,0.06079900272316339,2.1971515204744443,0.6503077694561418,0.2270963797671479,-4.28256266386159,57.5
,,0.03953806384605827,0.013807233411883372,0.007453705465221748,0.06079900272316339,2.2065914650366407,0.6503077694561418,0.2270963797671479,-4.28256266386159,57.6
,,0.039528602905677036,0.01409329270715481,0.006779911343818825,0.06040180695665067,2.2162563492958403,0.6544274897942379,0.2333256804265694,-4.262056289304578,57.7
,,0.039528602905677036,0.01409329270715481,0.006779911343818825,0.06040180695665067,2.22592123355504,0.6544274897942379,0.2333256804265694,-4.262056289304578,57.8
,,0.017996485923666282,0.013335905953636876,0.0042051340319815,0.03553752590928466,2.2184934645922922,0.5064079578754371,0.3752626445543495,-4.317295185625331,57.9
,,0.017996485923666282,0.013335905953636876,0.0042051340319815,0.03553752590928466,2.2110656956295442,0.5064079578754371,0.3752626445543495,-4.317295185625331,58.0
,,0.017996485923666282,0.013335905953636876,0.0042051340319815,0.03553752590928466,2.2036379266667963,0.5064079578754371,0.3752626445543495,-4.317295185625331,58.1
,,0.017996485923666282,0.013335905953636876,0.0042051340319815,0.03553752590928466,2.1962101577040483,0.5064079578754371,0.3752626445543495,-4.317295185625331,58.2
,,0.017996485923666282,0.013335905953636876,0.0042051340319815,0.03553752590928466,2.1877249782338812,0.5064079578754371,0.3752626445543495,-4.317295185625331,58.3
,,0.040379817780408354,0.014138795064223239,0.006693916569096008,0.0612125294137276,2.19597849704454,0.6596658913975988,0.23097877509130432,-4.258832836838943,58.4
,,0.04149651649051765,0.013983635081629493,0.007280331646882772,0.06276048321902991,2.2063664120047664,0.6611886072594051,0.2228095509211989,-4.269867555830681,58.5
,,0.04149651649051765,0.013983635081629493,0.007280331646882772,0.06276048321902991,2.216754326964993,0.6611886072594051,0.2228095509211989,-4.269867555830681,58.6
,,0.04149651649051765,0.013983635081629493,0.007280331646882772,0.06276048321902991,2.22714224192522,0.6611886072594051,0.2228095509211989,-4.269867555830681,58.7
,,0.04149651649051765,0.013983635081629493,0.007280331646882772,0.06276048321902991,2.2375301568854464,0.6611886072594051,0.2228095509211989,-4.269867555830681,58.8
,,0.04149651649051765,0.013983635081629493,0.007280331646882772,0.06276048321902991,2.2468016859268003,0.6611886072594051,0.2228095509211989,-4.269867555830681,58.9
,,0.041584308614614394,0.014318602529825917,0.006659271562248778,0.06256218270668909,2.255369991717014,0.6646876246242003,0.22886993244714568,-4.2461957109110315,59.0
,,0.04237936301697031,0.01405160126057378,0.007173747436081685,0.06360471171362578,2.269729871341211,0.6662928244652597,0.22092076014493692,-4.265018920972212,59.1
,,0.04237936301697031,0.01405160126057378,0.007173747436081685,0.06360471171362578,2.284089750965409,0.6662928244652597,0.22092076014493692,-4.265018920972212,59.2
,,0.04237936301697031,0.01405160126057378,0.007173747436081685,0.06360471171362578,2.298449630589606,0.6662928244652597,0.22092076014493692,-4.265018920972212,59.3
,,0.04237936301697031,0.01405160126057378,0.007173747436081685,0.06360471171362578,2.3128095102138033,0.6662928244652597,0.22092076014493692,-4.265018920972212,59.4
,,0.04237936301697031,0.01405160126057378,0.007173747436081685,0.06360471171362578,2.327169389838001,0.6662928244652597,0.22092076014493692,-4.265018920972212,59.5
,,0.04220142115284546,0.014293131881283429,0.006527687416122003,0.0630222404502509,2.3359174715666815,0.6696274339240419,0.22679504535492162,-4.2479761451136495,59.6
,,0.04220142115284546,0.014293131881283429,0.006527687416122003,0.0630222404502509,2.3446655532953624,0.6696274339240419,0.22679504535492162,-4.2479761451136495,59.7
,,0.019837731759856495,0.014926201157682747,0.004903811940839252,0.0396677448583785,2.3408524715770014,0.5000972914059275,0.37628055769170055,-4.204637143365045,59.8
,,0.019837731759856495,0.014926201157682747,0.004903811940839252,0.0396677448583785,2.337039389858641,0.5000972914059275,0.37628055769170055,-4.204637143365045,59.9
,,0.019837731759856495,0.014926201157682747,0.004903811940839252,0.0396677448583785,2.3332263081402793,0.5000972914059275,0.37628055769170055,-4.204637143365045,60.0
,,0.019837731759856495,0.014926201157682747,0.004903811940839252,0.0396677448583785,2.3294132264219183,0.5000972914059275,0.37628055769170055,-4.204637143365045,60.1
,,0.04196492720419441,0.013968417767649783,0.006273436056269779,0.06220678102811397,2.3382779648223124,0.6746037411135068,0.22454815273815312,-4.2709563714225185,60.2
,,0.04196492720419441,0.013968417767649783,0.006273436056269779,0.06220678102811397,2.3471427032227066,0.6746037411135068,0.22454815273815312,-4.2709563714225185,60.3
,,0.04213527861208099,0.013508985996459402,0.006668847132519633,0.06231311174106002,2.3579477398340805,0.6761863985732678,0.21679203010428247,-4.304400185603361,60.4
,,0.04213527861208099,0.013508985996459402,0.006668847132519633,0.06231311174106002,2.3687527764454535,0.6761863985732678,0.21679203010428247,-4.304400185603361,60.5
,,0.04213527861208099,0.013508985996459402,0.006668847132519633,0.06231311174106002,2.3795578130568273,0.6761863985732678,0.21679203010428247,-4.304400185603361,60.6
,,0.04213527861208099,0.013508985996459402,0.006668847132519633,0.06231311174106002,2.3903628496682003,0.6761863985732678,0.21679203010428247,-4.304400185603361,60.7
,,0.020349711033339955,0.01580029997493256,0.005136291228761309,0.04128630223703383,2.3795696066324563,0.4928925559016583,0.38270077771120137,-4.1477263533742175,60.8
,,0.020349711033339955,0.01580029997493256,0.005136291228761309,0.04128630223703383,2.3687763635967127,0.4928925559016583,0.38270077771120137,-4.1477263533742175,60.9
,,0.042121599283474115,0.013275240683105,0.00648452552825568,0.06188136549483479,2.379506664547415,0.6806830933132848,0.21452727451874148,-4.321854581464442,61.0
,,0.042121599283474115,0.013275240683105,0.00648452552825568,0.06188136549483479,2.3902369654981177,0.6806830933132848,0.21452727451874148,-4.321854581464442,61.1
,,0.042121599283474115,0.013275240683105,0.00648452552825568,0.06188136549483479,2.4009672664488204,0.6806830933132848,0.21452727451874148,-4.321854581464442,61.2
,,0.042121599283474115,0.013275240683105,0.00648452552825568,0.06188136549483479,2.411697567399523,0.6806830933132848,0.21452727451874148,-4.321854581464442,61.3
,,0.041733270001219125,0.013336810375236945,0.0063200081746298264,0.061390088551085895,2.4283766121235177,0.6798046881214497,0.21724696429031357,-4.317227369390249,61.4
,,0.041733270001219125,0.013336810375236945,0.0063200081746298264,0.061390088551085895,2.4450556568475124,0.6798046881214497,0.21724696429031357,-4.317227369390249,61.5
,,0.042241634555964254,0.01306465784503201,0.006356149691946142,0.06166244209294241,2.462891323773506,0.6850464094869028,0.21187383116192424,-4.337844569022065,61.6
,,0.042241634555964254,0.01306465784503201,0.006356149691946142,0.06166244209294241,2.485466760623908,0.6850464094869028,0.21187383116192424,-4.337844569022065,61.7
,,0.042241634555964254,0.01306465784503201,0.006356149691946142,0.06166244209294241,2.50804219747431,0.6850464094869028,0.21187383116192424,-4.337844569022065,61.8
,,0.042241634555964254,0.01306465784503201,0.006356149691946142,0.06166244209294241,2.5306176343247118,0.6850464094869028,0.21187383116192424,-4.337844569022065,61.9
,,0.04184611818088508,0.013062191824139707,0.006222185936328743,0.06113049594135353,2.552863414869651,0.6845375215184053,0.21367717737266714,-4.33803334194577,62.0
,,0.04184611818088508,0.013062191824139707,0.006222185936328743,0.06113049594135353,2.57084077866236,0.6845375215184053,0.21367717737266714,-4.33803334194577,62.1
,,0.042531102528183186,0.012889983371534403,0.006280213977007671,0.061701299876725256,2.5898841488356226,0.6893064264959937,0.20890942974115065,-4.351304752060236,62.2
,,0.042531102528183186,0.012889983371534403,0.006280213977007671,0.061701299876725256,2.6004361717789894,0.6893064264959937,0.20890942974115065,-4.351304752060236,62.3
,,0.042531102528183186,0.012889983371534403,0.006280213977007671,0.061701299876725256,2.610988194722356,0.6893064264959937,0.20890942974115065,-4.351304752060236,62.4
,,0.042531102528183186,0.012889983371534403,0.006280213977007671,0.061701299876725256,2.6215402176657223,0.6893064264959937,0.20890942974115065,-4.351304752060236,62.5
,,0.04215407211841039,0.012839239582052242,0.00618214084439316,0.0611754525448558,2.631910853175145,0.6890684149414616,0.2098756780366782,-4.3552492050556495,62.6
,,0.04215407211841039,0.012839239582052242,0.00618214084439316,0.0611754525448558,2.651223686261478,0.6890684149414616,0.2098756780366782,-4.3552492050556495,62.7
,,0.04215407211841039,0.012839239582052242,0.00618214084439316,0.0611754525448558,2.6705365193478108,0.6890684149414616,0.2098756780366782,-4.3552492050556495,62.8
,,0.0430377207644703,0.012772577680169164,0.006260011724857,0.06207031016949646,2.6810498922079042,0.6933704801369037,0.2057759602826354,-4.360454774948169,62.9
,,0.0430377207644703,0.012772577680169164,0.006260011724857,0.06207031016949646,2.6915632650679977,0.6933704801369037,0.2057759602826354,-4.360454774948169,63.0
,,0.0430377207644703,0.012772577680169164,0.006260011724857,0.06207031016949646,2.702076637928092,0.6933704801369037,0.2057759602826354,-4.360454774948169,63.1
,,0.04272366849933665,0.012679318742808874,0.0062056747388397815,0.0616086619809853,2.712590175117957,0.693468533897437,0.20580415699860805,-4.367783058324217,63.2
,,0.04272366849933665,0.012679318742808874,0.0062056747388397815,0.0616086619809853,2.7333443418764456,0.693468533897437,0.20580415699860805,-4.367783058324217,63.3
,,0.04272366849933665,0.012679318742808874,0.0062056747388397815,0.0616086619809853,2.7540985086349337,0.693468533897437,0.20580415699860805,-4.367783058324217,63.4
,,0.04383075050701894,0.012709361182702864,0.006310340900137214,0.06285045258985902,2.7646507115867576,0.6973816209891712,0.20221590551845176,-4.3654164560428885,63.5
,,0.04383075050701894,0.012709361182702864,0.006310340900137214,0.06285045258985902,2.7752029145385815,0.6973816209891712,0.20221590551845176,-4.3654164560428885,63.6
,,0.04383075050701894,0.012709361182702864,0.006310340900137214,0.06285045258985902,2.7857551174904054,0.6973816209891712,0.20221590551845176,-4.3654164560428885,63.7
,,0.02311209210408828,0.01577839382427555,0.006723620829026964,0.0456141067573908,2.774263937734455,0.5066873769339669,0.3459103980309555,-4.149113754278777,63.8
,,0.02311209210408828,0.01577839382427555,0.006723620829026964,0.0456141067573908,2.7615482202172212,0.5066873769339669,0.3459103980309555,-4.149113754278777,63.9
,,0.02311209210408828,0.01577839382427555,0.006723620829026964,0.0456141067573908,2.748832502699988,0.5066873769339669,0.3459103980309555,-4.149113754278777,64.0
,,0.0450119272386781,0.012715213005143524,0.006437462118874055,0.06416460236269568,2.759174696761413,0.7015071485091497,0.19816553889432276,-4.364956127975975,64.1
,,0.0450119272386781,0.012715213005143524,0.006437462118874055,0.06416460236269568,2.7699688996661864,0.7015071485091497,0.19816553889432276,-4.364956127975975,64.2
,,0.0450119272386781,0.012715213005143524,0.006437462118874055,0.06416460236269568,2.7807631025709596,0.7015071485091497,0.19816553889432276,-4.364956127975975,64.3
,,0.044978565622109536,0.012562463555971872,0.00648551946529698,0.06402654864337838,2.7920060606198045,0.7024986755515396,0.19620710193116245,-4.377041994184215,64.4
,,0.044978565622109536,0.012562463555971872,0.00648551946529698,0.06402654864337838,2.802057863447802,0.7024986755515396,0.19620710193116245,-4.377041994184215,64.5
,,0.044978565622109536,0.012562463555971872,0.00648551946529698,0.06402654864337838,2.8121096662758,0.7024986755515396,0.19620710193116245,-4.377041994184215,64.6
,,0.04652883337964152,0.012782935199956819,0.006648173168508527,0.06595994174810686,2.822822847779607,0.7054104680281492,0.19379846102310583,-4.359644185045053,64.7
,,0.04652883337964152,0.012782935199956819,0.006648173168508527,0.06595994174810686,2.834004854856823,0.7054104680281492,0.19379846102310583,-4.359644185045053,64.8
,,0.04652883337964152,0.012782935199956819,0.006648173168508527,0.06595994174810686,2.8451868619340397,0.7054104680281492,0.19379846102310583,-4.359644185045053,64.9
,,0.04663860649094153,0.012607772125437287,0.006749700770454964,0.06599607938683379,2.857027503574863,0.706687532414932,0.191038198671428,-4.373441819837269,65.0
,,0.04663860649094153,0.012607772125437287,0.006749700770454964,0.06599607938683379,2.8676522017411754,0.706687532414932,0.191038198671428,-4.373441819837269,65.1
,,0.04663860649094153,0.012607772125437287,0.006749700770454964,0.06599607938683379,2.8782768999074873,0.706687532414932,0.191038198671428,-4.373441819837269,65.2
,,0.04841565801165522,0.012915075337041068,0.006946648257705211,0.0682773816064015,2.889452441889497,0.7091024417245066,0.18915598450292925,-4.349360019153548,65.3
,,0.04841565801165522,0.012915075337041068,0.006946648257705211,0.0682773816064015,2.900627983871508,0.7091024417245066,0.18915598450292925,-4.349360019153548,65.4
,,0.04841565801165522,0.012915075337041068,0.006946648257705211,0.0682773816064015,2.9123393846493273,0.7091024417245066,0.18915598450292925,-4.349360019153548,65.5
,,0.04880062179411761,0.01273209867699986,0.007123465127747568,0.06865618559886504,2.924985344938601,0.7107971607866944,0.18544721886224824,-4.363629019278166,65.6
,,0.04880062179411761,0.01273209867699986,0.007123465127747568,0.06865618559886504,2.936422649653039,0.7107971607866944,0.18544721886224824,-4.363629019278166,65.7
,,0.04880062179411761,0.01273209867699986,0.007123465127747568,0.06865618559886504,2.9478599543674773,0.7107971607866944,0.18544721886224824,-4.363629019278166,65.8
,,0.05042150763416107,0.013021759257817,0.007304388951628593,0.07074765584360666,2.959732983823853,0.7126950996881343,0.18405923281193426,-4.341133531681548,65.9
,,0.05042150763416107,0.013021759257817,0.007304388951628593,0.07074765584360666,2.971606013280229,0.7126950996881343,0.18405923281193426,-4.341133531681548,66.0
,,0.05042150763416107,0.013021759257817,0.007304388951628593,0.07074765584360666,2.9840184519714104,0.7126950996881343,0.18405923281193426,-4.341133531681548,66.1
,,0.05075624221563469,0.012760659925771387,0.0075157766607680775,0.07103267880217416,2.997602665984199,0.71454776972428,0.17964492035151589,-4.361388284082198,66.2
,,0.05075624221563469,0.012760659925771387,0.0075157766607680775,0.07103267880217416,3.0099802226416066,0.71454776972428,0.17964492035151589,-4.361388284082198,66.3
,,0.05075624221563469,0.012760659925771387,0.0075157766607680775,0.07103267880217416,3.0223577792990137,0.71454776972428,0.17964492035151589,-4.361388284082198,66.4
,,0.051352039066155965,0.012810279917598436,0.007560916351267724,0.07172323533502213,3.0350809182597005,0.7159749393106504,0.17860711187610404,-4.357507311821334,66.5
,,0.051352039066155965,0.012810279917598436,0.007560916351267724,0.07172323533502213,3.047804057220387,0.7159749393106504,0.17860711187610404,-4.357507311821334,66.6
,,0.051352039066155965,0.012810279917598436,0.007560916351267724,0.07172323533502213,3.0611804726672776,0.7159749393106504,0.17860711187610404,-4.357507311821334,66.7
,,0.030618407888431898,0.014565267034545882,0.008881472619549252,0.05406514754252703,3.0533734832121473,0.5663243194582573,0.26940215086047825,-4.229115554750073,66.8
,,0.030618407888431898,0.014565267034545882,0.008881472619549252,0.05406514754252703,3.061736551158263,0.5663243194582573,0.26940215086047825,-4.229115554750073,66.9
,,0.030618407888431898,0.014565267034545882,0.008881472619549252,0.05406514754252703,3.070099619104377,0.5663243194582573,0.26940215086047825,-4.229115554750073,67.0
,,0.052481692493592476,0.012627456859480014,0.007896804544349894,0.07300595389742238,3.1012849621600953,0.718868663333025,0.17296475404214737,-4.371881720022278,67.1
,,0.052481692493592476,0.012627456859480014,0.007896804544349894,0.07300595389742238,3.1324703052158145,0.718868663333025,0.17296475404214737,-4.371881720022278,67.2
,,0.052481692493592476,0.012627456859480014,0.007896804544349894,0.07300595389742238,3.1636556482715332,0.718868663333025,0.17296475404214737,-4.371881720022278,67.3
,,0.05285186175890037,0.012304359273041604,0.008186274855482538,0.07334249588742452,3.179649182517151,0.7206171690696782,0.1677657560485522,-4.397801666950613,67.4
,,0.05285186175890037,0.012304359273041604,0.008186274855482538,0.07334249588742452,3.1944033082714958,0.7206171690696782,0.1677657560485522,-4.397801666950613,67.5
,,0.05285186175890037,0.012304359273041604,0.008186274855482538,0.07334249588742452,3.20915743402584,0.7206171690696782,0.1677657560485522,-4.397801666950613,67.6
,,0.053904599154963394,0.012488533485254773,0.008326779509824111,0.07471991215004227,3.2241443419578615,0.7214221430924541,0.16713795728475986,-4.382944376850052,67.7
,,0.053904599154963394,0.012488533485254773,0.008326779509824111,0.07471991215004227,3.239131249889883,0.7214221430924541,0.16713795728475986,-4.382944376850052,67.8
,,0.053904599154963394,0.012488533485254773,0.008326779509824111,0.07471991215004227,3.254118157821904,0.7214221430924541,0.16713795728475986,-4.382944376850052,67.9
,,0.05422224594484894,0.012147846528233242,0.008639235787733235,0.07500932826081541,3.271443844766651,0.7228733705801553,0.1619511440762926,-4.410603365379159,68.0
,,0.05422224594484894,0.012147846528233242,0.008639235787733235,0.07500932826081541,3.287527693289917,0.7228733705801553,0.1619511440762926,-4.410603365379159,68.1
,,0.05422224594484894,0.012147846528233242,0.008639235787733235,0.07500932826081541,3.303611541813183,0.7228733705801553,0.1619511440762926,-4.410603365379159,68.2
,,0.05548789256121114,0.01237101961313467,0.008821674212039582,0.07668058638638539,3.3199374501785237,0.723623738107759,0.16133183372905374,-4.392398669690471,68.3
,,0.05548789256121114,0.01237101961313467,0.008821674212039582,0.07668058638638539,3.336263358543864,0.723623738107759,0.16133183372905374,-4.392398669690471,68.4
,,0.05548789256121114,0.01237101961313467,0.008821674212039582,0.07668058638638539,3.352589266909206,0.723623738107759,0.16133183372905374,-4.392398669690471,68.5
,,0.05574569004601483,0.01201376032894575,0.009167651419902716,0.07692710179486328,3.3713402326814044,0.7246560541779982,0.15617071290404383,-4.421702592066812,68.6
,,0.05574569004601483,0.01201376032894575,0.009167651419902716,0.07692710179486328,3.3900911984536024,0.7246560541779982,0.15617071290404383,-4.421702592066812,68.7
,,0.05574569004601483,0.01201376032894575,0.009167651419902716,0.07692710179486328,3.4268811877750855,0.7246560541779982,0.15617071290404383,-4.421702592066812,68.8
,,0.03442427863935966,0.01183671403013591,0.009182058475324762,0.05544305114482033,3.4444279522729473,0.6208943759145132,0.21349319320860885,-4.4365492192837195,68.9
,,0.03442427863935966,0.01183671403013591,0.009182058475324762,0.05544305114482033,3.4619747167708086,0.6208943759145132,0.21349319320860885,-4.4365492192837195,69.0
,,0.03442427863935966,0.01183671403013591,0.009182058475324762,0.05544305114482033,3.479521481268671,0.6208943759145132,0.21349319320860885,-4.4365492192837195,69.1
,,0.05475379969849834,0.011361453823790385,0.009289734731751643,0.07540498825404036,3.4996880136986155,0.726129676116812,0.1506724433868155,-4.47752889643121,69.2
,,0.05475379969849834,0.011361453823790385,0.009289734731751643,0.07540498825404036,3.519854546128559,0.726129676116812,0.1506724433868155,-4.47752889643121,69.3
,,0.05475379969849834,0.011361453823790385,0.009289734731751643,0.07540498825404036,3.5387457057219995,0.726129676116812,0.1506724433868155,-4.47752889643121,69.4
,,0.034292955378496255,0.01073679707680583,0.008908762422871763,0.053938514878173846,3.539578033581306,0.6357786352840956,0.19905622357337951,-4.534078458140063,69.5
,,0.034292955378496255,0.01073679707680583,0.008908762422871763,0.053938514878173846,3.5404103614406117,0.6357786352840956,0.19905622357337951,-4.534078458140063,69.6
,,0.034292955378496255,0.01073679707680583,0.008908762422871763,0.053938514878173846,3.541242689299918,0.6357786352840956,0.19905622357337951,-4.534078458140063,69.7
,,0.034292955378496255,0.01073679707680583,0.008908762422871763,0.053938514878173846,3.5624208357355944,0.6357786352840956,0.19905622357337951,-4.534078458140063,69.8
,,0.053642208781057826,0.01070888208422728,0.009391036808791728,0.07374212767407684,3.603767508075835,0.7274296317858361,0.14522068215278605,-4.536681780528186,69.9
,,0.053642208781057826,0.01070888208422728,0.009391036808791728,0.07374212767407684,3.624169598639734,0.7274296317858361,0.14522068215278605,-4.536681780528186,70.0
,,0.052639387215802844,0.01038329810549431,0.009179799032414815,0.07220248435371196,3.6452437853401825,0.7290522990584136,0.1438080448122489,-4.56755671515182,70.1
,,0.052639387215802844,0.01038329810549431,0.009179799032414815,0.07220248435371196,3.66631797204063,0.7290522990584136,0.1438080448122489,-4.56755671515182,70.2
,,0.052639387215802844,0.01038329810549431,0.009179799032414815,0.07220248435371196,3.687392158741078,0.7290522990584136,0.1438080448122489,-4.56755671515182,70.3
,,0.052639387215802844,0.01038329810549431,0.009179799032414815,0.07220248435371196,3.7089526240357658,0.7290522990584136,0.1438080448122489,-4.56755671515182,70.4
,,0.05287534713533519,0.010151692125158054,0.009532762634809311,0.07255980189530256,3.732056471313936,0.72871405039983,0.13990793607466095,-4.590114875550983,70.5
,,0.05287534713533519,0.010151692125158054,0.009532762634809311,0.07255980189530256,3.7540036963901064,0.72871405039983,0.13990793607466095,-4.590114875550983,70.6
,,0.035187478317739856,0.009182964765211837,0.00859801112089835,0.052968454203850046,3.7606542062986823,0.6643100850615767,0.17336667462242775,-4.690405167316423,70.7
,,0.035187478317739856,0.009182964765211837,0.00859801112089835,0.052968454203850046,3.7673047162072586,0.6643100850615767,0.17336667462242775,-4.690405167316423,70.8
,,0.035187478317739856,0.009182964765211837,0.00859801112089835,0.052968454203850046,3.773955226115835,0.6643100850615767,0.17336667462242775,-4.690405167316423,70.9
,,0.035187478317739856,0.009182964765211837,0.00859801112089835,0.052968454203850046,3.780935392329874,0.6643100850615767,0.17336667462242775,-4.690405167316423,71.0
,,0.0524851587163683,0.009698399234770512,0.009708617200280815,0.07189217515141963,3.805470148215026,0.7300538425193538,0.1349020142226007,-4.6357944344345565,71.1
,,0.0524851587163683,0.009698399234770512,0.009708617200280815,0.07189217515141963,3.8289388977196244,0.7300538425193538,0.1349020142226007,-4.6357944344345565,71.2
,,0.05195434179595752,0.009422593838865836,0.009525230061006138,0.0709021656958295,3.853541763543802,0.7327609994149094,0.13289571265409286,-4.664644873852587,71.3
,,0.05195434179595752,0.009422593838865836,0.009525230061006138,0.0709021656958295,3.878144629367979,0.7327609994149094,0.13289571265409286,-4.664644873852587,71.4
,,0.05195434179595752,0.009422593838865836,0.009525230061006138,0.0709021656958295,3.9027474951921564,0.7327609994149094,0.13289571265409286,-4.664644873852587,71.5
,,0.05195434179595752,0.009422593838865836,0.009525230061006138,0.0709021656958295,3.9275317484502783,0.7327609994149094,0.13289571265409286,-4.664644873852587,71.6
,,0.052504527401611045,0.009366270123360186,0.009926412239244007,0.07179720976421523,3.953337093063287,0.7312892461146876,0.1304545142369651,-4.670640327791045,71.7
,,0.052504527401611045,0.009366270123360186,0.009926412239244007,0.07179720976421523,3.979142437676296,0.7312892461146876,0.1304545142369651,-4.670640327791045,71.8
,,0.05213162003362458,0.009077057949557597,0.00972449253250502,0.0709331705156872,4.005516748790522,0.7349399393066101,0.12796633625096684,-4.702005153238835,71.9
,,0.05213162003362458,0.009077057949557597,0.00972449253250502,0.0709331705156872,4.031891059904748,0.7349399393066101,0.12796633625096684,-4.702005153238835,72.0
,,0.05213162003362458,0.009077057949557597,0.00972449253250502,0.0709331705156872,4.058265371018974,0.7349399393066101,0.12796633625096684,-4.702005153238835,72.1
,,0.05213162003362458,0.009077057949557597,0.00972449253250502,0.0709331705156872,4.084639517803429,0.7349399393066101,0.12796633625096684,-4.702005153238835,72.2
,,0.05281163119458242,0.009098444240159908,0.010151735319300251,0.07206181075404258,4.111694104241514,0.732865725159699,0.1262588900411373,-4.699651842694897,72.3
,,0.05281163119458242,0.009098444240159908,0.010151735319300251,0.07206181075404258,4.1387486906796,0.732865725159699,0.1262588900411373,-4.699651842694897,72.4
