time,ecg,hr,rr,marker,norm_time
1715158324191962260,0.709,102.0,544.0,,0.0
1715158324199657255,0.659,,545.0,,0.007694995
1715158324207352250,0.594,,,,0.01538999
1715158324215047245,0.529,,,,0.023084985
1715158324222742240,0.479,,,,0.03077998
1715158324230437235,0.436,,,,0.038474975
1715158324238132230,0.405,,,,0.04616997
1715158324245827225,0.393,,,,0.053864965
1715158324253522220,0.385,,,,0.06155996
1715158324261217215,0.388,,,,0.069254955
1715158324268912210,0.402,,,,0.07694995
1715158324276607205,0.412,,,,0.084644945
1715158324284302200,0.412,,,,0.09233994
1715158324291997195,0.417,,,,0.100034935
1715158324299692190,0.424,,,,0.10772993
1715158324307387185,0.426,,,,0.115424925
1715158324315082180,0.426,,,,0.12311992
1715158324322777175,0.421,,,,0.130814915
1715158324330472170,0.412,,,,0.13850991
1715158324338167165,0.414,,,,0.146204905
1715158324345862160,0.417,,,,0.1538999
1715158324353557155,0.407,,,,0.161594895
1715158324361252150,0.397,,,,0.16928989
1715158324368947145,0.388,,,,0.176984885
1715158324376642140,0.383,,,,0.18467988
1715158324384337135,0.378,,,,0.192374875
1715158324392032130,0.371,,,,0.20006987
1715158324399727125,0.359,,,,0.207764865
1715158324407422120,0.354,,,,0.21545986
1715158324415117115,0.349,,,,0.223154855
1715158324422812110,0.337,,,,0.23084985
1715158324430507105,0.318,,,,0.238544845
1715158324438202100,0.301,,,,0.24623984
1715158324445897095,0.289,,,,0.253934835
1715158324453592090,0.278,,,,0.26162983
1715158324461287085,0.285,,,,0.269324825
1715158324468982080,0.316,,,,0.27701982
1715158324476677075,0.335,,,,0.284714815
1715158324484372070,0.325,,,,0.29240981
1715158324492067065,0.304,,,,0.300104805
1715158324499762060,0.285,,,,0.3077998
1715158324507457055,0.268,,,,0.315494795
1715158324515152050,0.261,,,,0.32318979
1715158324522847045,0.266,,,,0.330884785
1715158324530542040,0.27,,,,0.33857978
1715158324538237035,0.27,,,,0.346274775
1715158324545932030,0.261,,,,0.35396977
1715158324553627025,0.349,,,,0.361664765
1715158324561322020,0.853,,,,0.36935976
1715158324569017015,1.596,,,,0.377054755
1715158324576712010,1.291,,,,0.38474975
1715158324584407005,-0.462,,,,0.392444745
1715158324592102000,-1.581,,,,0.40013974
1715158324599796995,-0.953,,,,0.407834735
1715158324607491990,-0.182,,,,0.41552973
1715158324615186985,-0.007,,,,0.423224725
1715158324622881980,0.203,,,,0.43091972
1715158324630576975,0.385,,,,0.438614715
1715158324638271970,0.333,,,,0.44630971
1715158324645966965,0.321,,,,0.454004705
1715158324653661960,0.393,,,,0.4616997
1715158324661356955,0.395,,,,0.469394695
1715158324669051950,0.376,,,,0.47708969
1715158324676746945,0.397,,,,0.484784685
1715158324684441940,0.412,,,,0.49247968
1715158324692136935,0.412,,,,0.500174675
1715158324699831930,0.417,,,,0.50786967
1715158324707526925,0.428,,,,0.515564665
1715158324715221920,0.448,,,,0.52325966
1715158324722916915,0.467,,,,0.530954655
1715158324730611910,0.491,,,,0.53864965
1715158324738306905,0.524,,,,0.546344645
1715158324746001900,0.553,,,,0.55403964
1715158324753696912,0.5700000000000001,103.0,549.0,,0.561734652
1715158324761391698,0.579,,,,0.569429438
1715158324769086484,0.577,,,,0.577124224
1715158324776781270,0.5750000000000001,,,,0.58481901
1715158324784476056,0.5630000000000001,,,,0.592513796
1715158324792170842,0.52,,,,0.600208582
1715158324799865628,0.455,,,,0.607903368
1715158324807560414,0.395,,,,0.615598154
1715158324815255200,0.337,,,,0.62329294
1715158324822949986,0.289,,,,0.630987726
1715158324830644772,0.256,,,,0.638682512
1715158324838339558,0.244,,,,0.646377298
1715158324846034344,0.239,,,,0.654072084
1715158324853729130,0.244,,,,0.66176687
1715158324861423916,0.256,,,,0.669461656
1715158324869118702,0.266,,,,0.677156442
1715158324876813488,0.273,,,,0.684851228
1715158324884508274,0.278,,,,0.692546014
1715158324892203060,0.28,,,,0.7002408
1715158324899897846,0.287,,,,0.707935586
1715158324907592632,0.289,,,,0.715630372
1715158324915287418,0.285,,,,0.723325158
1715158324922982204,0.278,,,,0.731019944
1715158324930676990,0.28,,,,0.73871473
1715158324938371776,0.278,,,,0.746409516
1715158324946066562,0.263,,,,0.754104302
1715158324953761348,0.258,,,,0.761799088
1715158324961456134,0.261,,,,0.769493874
1715158324969150920,0.254,,,,0.77718866
1715158324976845706,0.244,,,,0.784883446
1715158324984540492,0.244,,,,0.792578232
1715158324992235278,0.246,,,,0.800273018
1715158324999930064,0.244,,,,0.807967804
1715158325007624850,0.244,,,,0.81566259
1715158325015319636,0.244,,,,0.823357376
1715158325023014422,0.239,,,,0.831052162
1715158325030709208,0.227,,,,0.838746948
1715158325038403994,0.22,,,,0.846441734
1715158325046098780,0.225,,,,0.85413652
1715158325053793566,0.244,,,,0.861831306
1715158325061488352,0.273,,,,0.869526092
1715158325069183138,0.292,,,,0.877220878
1715158325076877924,0.282,,,,0.884915664
1715158325084572710,0.256,,,,0.89261045
1715158325092267496,0.232,,,,0.900305236
1715158325099962282,0.227,,,,0.908000022
1715158325107657068,0.23,,,,0.915694808
1715158325115351854,0.23,,,,0.923389594
1715158325123046640,0.237,,,,0.93108438
1715158325130741426,0.246,,,,0.938779166
1715158325138436212,0.246,,,,0.946473952
1715158325146130998,0.337,,,,0.954168738
1715158325153825784,0.834,,,,0.961863524
1715158325161520570,1.56,,,,0.96955831
1715158325169215356,1.27,,,,0.977253096
1715158325176910142,-0.44,,,,0.984947882
1715158325184604928,-1.553,,,,0.992642668
1715158325192299714,-0.941,,,,1.000337454
1715158325199994500,-0.158,,,,1.00803224
1715158325207689286,0.016,,,,1.015727026
1715158325215384072,0.215,,,,1.023421812
1715158325223078858,0.405,,,,1.031116598
1715158325230773644,0.371,,,,1.038811384
1715158325238468430,0.361,,,,1.04650617
1715158325246163216,0.426,,,,1.054200956
1715158325253858002,0.428,,,,1.061895742
1715158325261552788,0.417,,,,1.069590528
1715158325269247574,0.431,,,,1.077285314
1715158325276942360,0.44,,,,1.0849801
1715158325284637146,0.445,,,,1.092674886
1715158325292331932,0.467,,,,1.100369672
1715158325300026718,0.484,,,,1.108064458
1715158325307721504,0.5,,,,1.115759244
1715158325315416306,0.532,,,,1.123454046
1715158325323111092,0.558,,,,1.131148832
1715158325330805878,0.577,,,,1.138843618
1715158325338500664,0.599,,,,1.146538404
1715158325346195450,0.615,,,,1.15423319
1715158325353890236,0.608,,,,1.161927976
1715158325361585022,0.587,,,,1.169622762
1715158325369279808,0.5630000000000001,,,,1.177317548
1715158325376974594,0.539,,,,1.185012334
1715158325384669380,0.496,,,,1.19270712
1715158325392364166,0.426,,,,1.200401906
1715158325400058952,0.357,,,,1.208096692
1715158325407753738,0.297,,,,1.215791478
1715158325415448524,0.246,,,,1.223486264
1715158325423143310,0.206,,,,1.23118105
1715158325430838096,0.179,,,,1.238875836
1715158325438532882,0.165,,,,1.246570622
1715158325446227668,0.158,,,,1.254265408
1715158325453922454,0.165,,,,1.261960194
1715158325461617240,0.174,,,,1.26965498
1715158325469312026,0.182,,,,1.277349766
1715158325477006812,0.191,,,,1.285044552
1715158325484701598,0.189,,,,1.292739338
1715158325492396384,0.186,,,,1.300434124
1715158325500091170,0.194,,,,1.30812891
1715158325507785956,0.196,,,,1.315823696
1715158325515480742,0.191,,,,1.323518482
1715158325523175528,0.191,,,,1.331213268
1715158325530870314,0.191,,,,1.338908054
1715158325538565100,0.186,,,,1.34660284
1715158325546259886,0.184,,,,1.354297626
1715158325553954672,0.189,,,,1.361992412
1715158325561649458,0.196,,,,1.369687198
1715158325569344244,0.194,,,,1.377381984
1715158325577039030,0.189,,,,1.38507677
1715158325584733816,0.186,,,,1.392771556
1715158325592428602,0.196,,,,1.400466342
1715158325600123388,0.198,,,,1.408161128
1715158325607818174,0.182,,,,1.415855914
1715158325615512960,0.177,,,,1.4235507
1715158325623207746,0.179,,,,1.431245486
1715158325630902532,0.191,,,,1.438940272
1715158325638597318,0.225,,,,1.446635058
1715158325646292104,0.27,,,,1.454329844
1715158325653986890,0.297,,,,1.46202463
1715158325661681676,0.289,,,,1.469719416
1715158325669376462,0.273,,,,1.477414202
1715158325677071248,0.261,,,,1.485108988
1715158325684766034,0.254,,,,1.492803774
1715158325692460820,0.258,,,,1.50049856
1715158325700155606,0.278,,,,1.508193346
1715158325707850392,0.292,,,,1.515888132
1715158325715545178,0.278,,,,1.523582918
1715158325723239964,0.337,,,,1.531277704
1715158325730934750,0.795,,,,1.53897249
1715158325738629536,1.56,,,,1.546667276
1715158325746324322,1.411,,,,1.554362062
1715158325754019108,-0.251,,,,1.562056848
1715158325761713894,-1.514,,,,1.569751634
1715158325769408680,-1.004,,,,1.57744642
1715158325777103466,-0.165,,,,1.585141206
1715158325784798252,0.045,,,,1.592835992
1715158325792493038,0.242,,,,1.600530778
1715158325800187824,0.44,,,,1.608225564
1715158325807882610,0.39,,,,1.61592035
1715158325815577396,0.359,,,,1.623615136
1715158325823272182,0.431,,,,1.631309922
1715158325830966968,0.448,,,,1.639004708
1715158325838661754,0.44,,,,1.646699494
1715158325846356540,0.467,,,,1.65439428
1715158325854051326,0.481,,,,1.662089066
1715158325861746112,0.486,,,,1.669783852
1715158325869440898,0.498,,,,1.677478638
1715158325877135700,0.512,105.0,566.0,,1.68517344
1715158325884830486,0.522,,594.0,,1.692868226
1715158325892525272,0.536,,,,1.700563012
1715158325900220058,0.548,,,,1.708257798
1715158325907914844,0.5630000000000001,,,,1.715952584
1715158325915609630,0.596,,,,1.72364737
1715158325923304416,0.625,,,,1.731342156
1715158325930999202,0.627,,,,1.739036942
1715158325938693988,0.613,,,,1.746731728
1715158325946388774,0.603,,,,1.754426514
1715158325954083560,0.579,,,,1.7621213
1715158325961778346,0.527,,,,1.769816086
1715158325969473132,0.455,,,,1.777510872
1715158325977167918,0.388,,,,1.785205658
1715158325984862704,0.325,,,,1.792900444
1715158325992557490,0.268,,,,1.80059523
1715158326000252276,0.232,,,,1.808290016
1715158326007947062,0.218,,,,1.815984802
1715158326015641848,0.218,,,,1.823679588
1715158326023336634,0.22,,,,1.831374374
1715158326031031420,0.225,,,,1.83906916
1715158326038726206,0.232,,,,1.846763946
1715158326046420992,0.239,,,,1.854458732
1715158326054115778,0.244,,,,1.862153518
1715158326061810564,0.251,,,,1.869848304
1715158326069505350,0.263,,,,1.87754309
1715158326077200136,0.266,,,,1.885237876
1715158326084894922,0.249,,,,1.892932662
1715158326092589708,0.23,,,,1.900627448
1715158326100284494,0.232,,,,1.908322234
1715158326107979280,0.237,,,,1.91601702
1715158326115674066,0.227,,,,1.923711806
1715158326123368852,0.222,,,,1.931406592
1715158326131063638,0.22,,,,1.939101378
1715158326138758424,0.21,,,,1.946796164
1715158326146453210,0.203,,,,1.95449095
1715158326154147996,0.206,,,,1.962185736
1715158326161842782,0.208,,,,1.969880522
1715158326169537568,0.194,,,,1.977575308
1715158326177232354,0.17,,,,1.985270094
1715158326184927140,0.162,,,,1.99296488
1715158326192621926,0.17,,,,2.000659666
1715158326200316712,0.172,,,,2.008354452
1715158326208011498,0.189,,,,2.016049238
1715158326215706284,0.225,,,,2.023744024
1715158326223401070,0.244,,,,2.03143881
1715158326231095856,0.222,,,,2.039133596
1715158326238790642,0.194,,,,2.046828382
1715158326246485428,0.184,,,,2.054523168
1715158326254180214,0.182,,,,2.062217954
1715158326261875000,0.179,,,,2.06991274
1715158326269569786,0.184,,,,2.077607526
1715158326277264572,0.196,,,,2.085302312
1715158326284959358,0.196,,,,2.092997098
1715158326292654144,0.242,,,,2.100691884
1715158326300348930,0.644,,,,2.10838667
1715158326308043716,1.392,,,,2.116081456
1715158326315738502,1.33,,,,2.123776242
1715158326323433288,-0.299,,,,2.131471028
1715158326331128074,-1.711,,,,2.139165814
1715158326338822860,-1.286,,,,2.1468606
1715158326346517646,-0.369,,,,2.154555386
1715158326354212432,-0.103,,,,2.162250172
1715158326361907218,0.088,,,,2.169944958
1715158326369602004,0.311,,,,2.177639744
1715158326377296790,0.278,,,,2.18533453
1715158326384991576,0.239,,,,2.193029316
1715158326392686362,0.313,,,,2.200724102
1715158326400381148,0.323,,,,2.208418888
1715158326408075934,0.292,,,,2.216113674
1715158326415770720,0.304,,,,2.22380846
1715158326423465506,0.316,,,,2.231503246
1715158326431160292,0.309,,,,2.239198032
1715158326438855096,0.318,,,,2.246892836
1715158326446550300,0.333,,,,2.25458804
1715158326454245504,0.352,,,,2.262283244
1715158326461940708,0.371,,,,2.269978448
1715158326469635912,0.385,,,,2.277673652
1715158326477331116,0.409,,,,2.285368856
1715158326485026320,0.438,,,,2.29306406
1715158326492721524,0.452,,,,2.300759264
1715158326500416728,0.448,,,,2.308454468
1715158326508111932,0.431,,,,2.316149672
1715158326515807136,0.414,,,,2.323844876
1715158326523502340,0.381,,,,2.33154008
1715158326531197544,0.313,,,,2.339235284
1715158326538892748,0.22,,,,2.346930488
1715158326546587952,0.127,,,,2.354625692
1715158326554283156,0.05,,,,2.362320896
1715158326561978360,-0.014,,,,2.3700161
1715158326569673564,-0.064,,,,2.377711304
1715158326577368768,-0.088,,,,2.385406508
1715158326585063972,-0.1,,,,2.393101712
1715158326592759176,-0.095,,,,2.400796916
1715158326600454380,-0.081,,,,2.40849212
1715158326608149584,-0.083,,,,2.416187324
1715158326615844788,-0.093,,,,2.423882528
1715158326623539992,-0.093,,,,2.431577732
1715158326631235196,-0.103,,,,2.439272936
1715158326638930400,-0.115,,,,2.44696814
1715158326646625604,-0.115,,,,2.454663344
1715158326654320808,-0.112,,,,2.462358548
1715158326662016012,-0.129,,,,2.470053752
1715158326669711216,-0.148,,,,2.477748956
1715158326677406420,-0.16,,,,2.48544416
1715158326685101624,-0.158,,,,2.493139364
1715158326692796828,-0.148,,,,2.500834568
1715158326700492032,-0.153,,,,2.508529772
1715158326708187236,-0.162,,,,2.516224976
1715158326715882440,-0.155,,,,2.52392018
1715158326723577644,-0.155,,,,2.531615384
1715158326731272848,-0.174,,,,2.539310588
1715158326738968052,-0.179,,,,2.547005792
1715158326746663256,-0.177,,,,2.554700996
1715158326754358460,-0.186,,,,2.5623962
1715158326762053664,-0.186,,,,2.570091404
1715158326769748868,-0.162,,,,2.577786608
1715158326777444072,-0.127,,,,2.585481812
1715158326785139276,-0.124,,,,2.593177016
1715158326792834480,-0.16,,,,2.60087222
1715158326800529684,-0.179,,,,2.608567424
1715158326808224888,-0.179,,,,2.616262628
1715158326815920092,-0.191,,,,2.623957832
1715158326823615296,-0.208,,,,2.631653036
1715158326831310500,-0.198,,,,2.63934824
1715158326839005704,-0.177,,,,2.647043444
1715158326846700908,-0.179,,,,2.654738648
1715158326854396112,-0.033,,,,2.662433852
1715158326862091316,0.532,,,,2.670129056
1715158326869786520,1.035,,,,2.67782426
1715158326877481724,0.184,,,,2.685519464
1715158326885176928,-1.61,,,,2.693214668
1715158326892872132,-2.101,,,,2.700909872
1715158326900567336,-1.222,,,,2.708605076
1715158326908262540,-0.661,,,,2.71630028
1715158326915957744,-0.457,,,,2.723995484
1715158326923652948,-0.143,,,,2.731690688
1715158326931348152,-0.043,,,,2.739385892
1715158326939043356,-0.122,,,,2.747081096
1715158326946738560,-0.086,,,,2.7547763
1715158326954433764,-0.033,,,,2.762471504
1715158326962128968,-0.059,,,,2.770166708
1715158326969824172,-0.064,,,,2.777861912
1715158326977519376,-0.031,,,,2.785557116
1715158326985214580,-0.007,,,,2.79325232
1715158326992909784,0.004,,,,2.800947524
1715158327000605008,0.023,104.0,593.0,,2.808642748
1715158327008299794,0.047,,578.0,,2.816337534
1715158327015994580,0.069,,,,2.82403232
1715158327023689366,0.1,,,,2.831727106
1715158327031384152,0.136,,,,2.839421892
1715158327039078938,0.165,,,,2.847116678
1715158327046773724,0.182,,,,2.854811464
1715158327054468510,0.194,,,,2.86250625
1715158327062163296,0.191,,,,2.870201036
1715158327069858082,0.16,,,,2.877895822
1715158327077552868,0.119,,,,2.885590608
1715158327085247654,0.074,,,,2.893285394
1715158327092942440,-0.014,,,,2.90098018
1715158327100637226,-0.124,,,,2.908674966
1715158327108332012,-0.206,,,,2.916369752
1715158327116026798,-0.258,,,,2.924064538
1715158327123721584,-0.313,,,,2.931759324
1715158327131416370,-0.349,,,,2.93945411
1715158327139111156,-0.357,,,,2.947148896
1715158327146805942,-0.354,,,,2.954843682
1715158327154500728,-0.349,,,,2.962538468
1715158327162195514,-0.347,,,,2.970233254
1715158327169890300,-0.347,,,,2.97792804
1715158327177585086,-0.337,,,,2.985622826
1715158327185279872,-0.335,,,,2.993317612
1715158327192974658,-0.33,,,,3.001012398
1715158327200669444,-0.325,,,,3.008707184
1715158327208364230,-0.318,,,,3.01640197
1715158327216059016,-0.313,,,,3.024096756
1715158327223753802,-0.316,,,,3.031791542
1715158327231448588,-0.304,,,,3.039486328
1715158327239143374,-0.292,,,,3.047181114
1715158327246838160,-0.299,,,,3.0548759
1715158327254532946,-0.299,,,,3.062570686
1715158327262227732,-0.297,,,,3.070265472
1715158327269922518,-0.304,,,,3.077960258
1715158327277617304,-0.313,,,,3.085655044
1715158327285312090,-0.335,,,,3.09334983
1715158327293006876,-0.352,,,,3.101044616
1715158327300701662,-0.357,,,,3.108739402
1715158327308396448,-0.354,,,,3.116434188
1715158327316091234,-0.337,,,,3.124128974
1715158327323786020,-0.301,,,,3.13182376
1715158327331480806,-0.273,,,,3.139518546
1715158327339175592,-0.287,,,,3.147213332
1715158327346870378,-0.328,,,,3.154908118
1715158327354565164,-0.345,,,,3.162602904
1715158327362259950,-0.337,,,,3.17029769
1715158327369954736,-0.337,,,,3.177992476
1715158327377649522,-0.34,,,,3.185687262
1715158327385344308,-0.328,,,,3.193382048
1715158327393039094,-0.311,,,,3.201076834
1715158327400733880,-0.258,,,,3.20877162
1715158327408428666,0.064,,,,3.216466406
1715158327416123452,0.6900000000000001,,,,3.224161192
1715158327423818238,0.591,,,,3.231855978
1715158327431513024,-0.927,,,,3.239550764
1715158327439207810,-2.19,,,,3.24724555
1715158327446902596,-1.768,,,,3.254940336
1715158327454597382,-0.917,,,,3.262635122
1715158327462292168,-0.603,,,,3.270329908
1715158327469986954,-0.335,,,,3.278024694
1715158327477681740,-0.119,,,,3.28571948
1715158327485376526,-0.167,,,,3.293414266
1715158327493071312,-0.186,,,,3.301109052
1715158327500766098,-0.098,,,,3.308803838
1715158327508460884,-0.081,,,,3.316498624
1715158327516155670,-0.093,,,,3.32419341
1715158327523850456,-0.064,,,,3.331888196
1715158327531545242,-0.045,,,,3.339582982
1715158327539240028,-0.04,,,,3.347277768
1715158327546934814,-0.023,,,,3.354972554
1715158327554629600,-0.007,,,,3.36266734
1715158327562324402,0.016,,,,3.370362142
1715158327570019188,0.055,,,,3.378056928
1715158327577713974,0.091,,,,3.385751714
1715158327585408760,0.117,,,,3.3934465
1715158327593103546,0.15,,,,3.401141286
1715158327600798332,0.165,,,,3.408836072
1715158327608493118,0.15,,,,3.416530858
1715158327616187904,0.139,,,,3.424225644
1715158327623882690,0.134,,,,3.43192043
1715158327631577476,0.093,,,,3.439615216
1715158327639272262,0.019,,,,3.447310002
1715158327646967048,-0.076,,,,3.455004788
1715158327654661834,-0.165,,,,3.462699574
1715158327662356620,-0.23,,,,3.47039436
1715158327670051406,-0.263,,,,3.478089146
1715158327677746192,-0.28,,,,3.485783932
1715158327685440978,-0.297,,,,3.493478718
1715158327693135764,-0.323,,,,3.501173504
1715158327700830550,-0.323,,,,3.50886829
1715158327708525336,-0.297,,,,3.516563076
1715158327716220122,-0.278,,,,3.524257862
1715158327723914908,-0.28,,,,3.531952648
1715158327731609694,-0.28,,,,3.539647434
1715158327739304480,-0.258,,,,3.54734222
1715158327746999266,-0.237,,,,3.555037006
1715158327754694052,-0.232,,,,3.562731792
1715158327762388838,-0.237,,,,3.570426578
1715158327770083624,-0.232,,,,3.578121364
1715158327777778410,-0.222,,,,3.58581615
1715158327785473196,-0.222,,,,3.593510936
1715158327793167982,-0.215,,,,3.601205722
1715158327800862768,-0.21,,,,3.608900508
1715158327808557554,-0.227,,,,3.616595294
1715158327816252340,-0.232,,,,3.62429008
1715158327823947126,-0.227,,,,3.631984866
1715158327831641912,-0.239,,,,3.639679652
1715158327839336698,-0.254,,,,3.647374438
1715158327847031484,-0.263,,,,3.655069224
1715158327854726270,-0.237,,,,3.66276401
1715158327862421056,-0.186,,,,3.670458796
1715158327870115842,-0.16,,,,3.678153582
1715158327877810628,-0.172,,,,3.685848368
1715158327885505414,-0.203,,,,3.693543154
1715158327893200200,-0.22,,,,3.70123794
1715158327900894986,-0.215,,,,3.708932726
1715158327908589772,-0.232,,,,3.716627512
1715158327916284558,-0.227,,,,3.724322298
1715158327923979344,-0.203,,,,3.732017084
1715158327931674130,-0.198,,,,3.73971187
1715158327939368916,-0.17,,,,3.747406656
1715158327947063702,0.009,,,,3.755101442
1715158327954758488,0.517,,,,3.762796228
1715158327962453274,0.86,,,,3.770491014
1715158327970148060,-0.076,,,,3.7781858
1715158327977842846,-1.684,,,,3.785880586
1715158327985537632,-1.955,,,,3.793575372
1715158327993232418,-1.095,,,,3.801270158
1715158328000927204,-0.5750000000000001,,,,3.808964944
1715158328008621990,-0.335,,,,3.81665973
1715158328016316776,-0.043,,,,3.824354516
1715158328024011562,0.031,,,,3.832049302
1715158328031706348,-0.033,,,,3.839744088
1715158328039401134,0.004,,,,3.847438874
1715158328047095920,0.05,,,,3.85513366
1715158328054790706,0.026,,,,3.862828446
1715158328062485492,0.031,,,,3.870523232
1715158328070180278,0.05,,,,3.878218018
1715158328077875064,0.052,,,,3.885912804
1715158328085569850,0.067,,,,3.89360759
1715158328093264636,0.091,,,,3.901302376
1715158328100959422,0.098,,,,3.908997162
1715158328108654208,0.107,,,,3.916691948
1715158328116348994,0.134,,,,3.924386734
1715158328124043796,0.167,104.0,570.0,,3.932081536
1715158328131738582,0.206,,558.0,,3.939776322
1715158328139433368,0.234,,,,3.947471108
1715158328147128154,0.232,,,,3.955165894
1715158328154822940,0.22,,,,3.96286068
1715158328162517726,0.203,,,,3.970555466
1715158328170212512,0.16,,,,3.978250252
1715158328177907298,0.095,,,,3.985945038
1715158328185602084,0.014,,,,3.993639824
1715158328193296870,-0.067,,,,4.00133461
1715158328200991656,-0.136,,,,4.009029396
1715158328208686442,-0.191,,,,4.016724182
1715158328216381228,-0.222,,,,4.024418968
1715158328224076014,-0.232,,,,4.032113754
1715158328231770800,-0.242,,,,4.03980854
1715158328239465586,-0.242,,,,4.047503326
1715158328247160372,-0.232,,,,4.055198112
1715158328254855158,-0.218,,,,4.062892898
1715158328262549944,-0.201,,,,4.070587684
1715158328270244730,-0.186,,,,4.07828247
1715158328277939516,-0.167,,,,4.085977256
1715158328285634302,-0.155,,,,4.093672042
1715158328293329088,-0.143,,,,4.101366828
1715158328301023874,-0.127,,,,4.109061614
1715158328308718660,-0.115,,,,4.1167564
1715158328316413446,-0.107,,,,4.124451186
1715158328324108232,-0.107,,,,4.132145972
1715158328331803018,-0.105,,,,4.139840758
1715158328339497804,-0.1,,,,4.147535544
1715158328347192590,-0.103,,,,4.15523033
1715158328354887376,-0.11,,,,4.162925116
1715158328362582162,-0.115,,,,4.170619902
1715158328370276948,-0.124,,,,4.178314688
1715158328377971734,-0.134,,,,4.186009474
1715158328385666520,-0.134,,,,4.19370426
1715158328393361306,-0.105,,,,4.201399046
1715158328401056092,-0.069,,,,4.209093832
1715158328408750878,-0.067,,,,4.216788618
1715158328416445664,-0.091,,,,4.224483404
1715158328424140450,-0.103,,,,4.23217819
1715158328431835236,-0.105,,,,4.239872976
1715158328439530022,-0.107,,,,4.247567762
1715158328447224808,-0.103,,,,4.255262548
1715158328454919594,-0.088,,,,4.262957334
1715158328462614380,-0.079,,,,4.27065212
1715158328470309166,-0.088,,,,4.278346906
1715158328478003952,0.035,,,,4.286041692
1715158328485698738,0.551,,,,4.293736478
1715158328493393524,1.008,,,,4.301431264
1715158328501088310,0.201,,,,4.30912605
1715158328508783096,-1.483,,,,4.316820836
1715158328516477882,-1.9,,,,4.324515622
1715158328524172668,-0.97,,,,4.332210408
1715158328531867454,-0.352,,,,4.339905194
1715158328539562240,-0.177,,,,4.34759998
1715158328547257026,0.067,,,,4.355294766
1715158328554951812,0.16,,,,4.362989552
1715158328562646598,0.093,,,,4.370684338
1715158328570341384,0.131,,,,4.378379124
1715158328578036170,0.194,,,,4.38607391
1715158328585730956,0.177,,,,4.393768696
1715158328593425742,0.179,,,,4.401463482
1715158328601120528,0.208,,,,4.409158268
1715158328608815314,0.208,,,,4.416853054
1715158328616510100,0.215,,,,4.42454784
1715158328624204886,0.242,,,,4.432242626
1715158328631899672,0.258,,,,4.439937412
1715158328639594458,0.268,,,,4.447632198
1715158328647289244,0.292,,,,4.455326984
1715158328654984030,0.328,,,,4.46302177
1715158328662678816,0.337,,,,4.470716556
1715158328670373602,0.352,,,,4.478411342
1715158328678068388,0.385,,,,4.486106128
1715158328685763190,0.393,,,,4.49380093
1715158328693458394,0.378,,,,4.501496134
1715158328701153598,0.364,,,,4.509191338
1715158328708848802,0.33,,,,4.516886542
1715158328716544006,0.261,,,,4.524581746
1715158328724239210,0.177,,,,4.53227695
1715158328731934414,0.127,,,,4.539972154
1715158328739629618,0.107,,,,4.547667358
1715158328747324822,0.091,,,,4.555362562
1715158328755020026,0.079,,,,4.563057766
1715158328762715230,0.083,,,,4.57075297
1715158328770410434,0.1,,,,4.578448174
1715158328778105638,0.115,,,,4.586143378
1715158328785800842,0.127,,,,4.593838582
1715158328793496046,0.146,,,,4.601533786
1715158328801191250,0.16,,,,4.60922899
1715158328808886454,0.162,,,,4.616924194
1715158328816581658,0.172,,,,4.624619398
1715158328824276862,0.184,,,,4.632314602
1715158328831972066,0.191,,,,4.640009806
1715158328839667270,0.189,,,,4.64770501
1715158328847362474,0.184,,,,4.655400214
1715158328855057678,0.189,,,,4.663095418
1715158328862752882,0.189,,,,4.670790622
1715158328870448086,0.179,,,,4.678485826
1715158328878143290,0.174,,,,4.68618103
1715158328885838494,0.165,,,,4.693876234
1715158328893533698,0.15,,,,4.701571438
1715158328901228902,0.141,,,,4.709266642
1715158328908924106,0.143,,,,4.716961846
1715158328916619310,0.174,,,,4.72465705
1715158328924314514,0.218,,,,4.732352254
1715158328932009718,0.232,,,,4.740047458
1715158328939704922,0.215,,,,4.747742662
1715158328947400126,0.198,,,,4.755437866
1715158328955095330,0.194,,,,4.76313307
1715158328962790534,0.191,,,,4.770828274
1715158328970485738,0.194,,,,4.778523478
1715158328978180942,0.203,,,,4.786218682
1715158328985876146,0.194,,,,4.793913886
1715158328993571350,0.153,,,,4.80160909
1715158329001266554,0.134,,,,4.809304294
1715158329008961758,0.448,,,,4.816999498
1715158329016656962,1.179,,,,4.824694702
1715158329024352166,1.243,,,,4.832389906
1715158329032047370,-0.23,,,,4.84008511
1715158329039742574,-1.603,,,,4.847780314
1715158329047437778,-1.191,,,,4.855475518
1715158329055132982,-0.258,,,,4.863170722
1715158329062828186,-0.011,,,,4.870865926
1715158329070523390,0.153,,,,4.87856113
1715158329078218594,0.383,,,,4.886256334
1715158329085913798,0.357,,,,4.893951538
1715158329093609002,0.316,,,,4.901646742
1715158329101304206,0.405,,,,4.909341946
1715158329108999410,0.426,,,,4.91703715
1715158329116694614,0.397,,,,4.924732354
1715158329124389818,0.402,,,,4.932427558
1715158329132085022,0.405,,,,4.940122762
1715158329139780226,0.393,,,,4.947817966
1715158329147475430,0.405,,,,4.95551317
1715158329155170634,0.433,,,,4.963208374
1715158329162865838,0.46,,,,4.970903578
1715158329170561042,0.474,,,,4.978598782
1715158329178256246,0.491,,,,4.986293986
1715158329185951450,0.52,,,,4.99398919
1715158329193646654,0.553,,,,5.001684394
1715158329201341858,0.5720000000000001,,,,5.009379598
1715158329209037062,0.5750000000000001,,,,5.017074802
1715158329216732266,0.5630000000000001,,,,5.024770006
1715158329224427470,0.534,,,,5.03246521
1715158329232122674,0.493,,,,5.040160414
1715158329239817878,0.44,,,,5.047855618
1715158329247513102,0.364,105.0,550.0,,5.055550842
1715158329255207888,0.297,,542.0,,5.063245628
1715158329262902674,0.251,,,,5.070940414
1715158329270597460,0.213,,,,5.0786352
1715158329278292246,0.186,,,,5.086329986
1715158329285987032,0.167,,,,5.094024772
1715158329293681818,0.155,,,,5.101719558
1715158329301376604,0.16,,,,5.109414344
1715158329309071390,0.174,,,,5.11710913
1715158329316766176,0.184,,,,5.124803916
1715158329324460962,0.203,,,,5.132498702
1715158329332155748,0.232,,,,5.140193488
1715158329339850534,0.246,,,,5.147888274
1715158329347545320,0.249,,,,5.15558306
1715158329355240106,0.261,,,,5.163277846
1715158329362934892,0.278,,,,5.170972632
1715158329370629678,0.282,,,,5.178667418
1715158329378324464,0.278,,,,5.186362204
1715158329386019250,0.273,,,,5.19405699
1715158329393714036,0.273,,,,5.201751776
1715158329401408822,0.263,,,,5.209446562
1715158329409103608,0.244,,,,5.217141348
1715158329416798394,0.23,,,,5.224836134
1715158329424493180,0.225,,,,5.23253092
1715158329432187966,0.227,,,,5.240225706
1715158329439882752,0.249,,,,5.247920492
1715158329447577538,0.28,,,,5.255615278
1715158329455272324,0.304,,,,5.263310064
1715158329462967110,0.301,,,,5.27100485
1715158329470661896,0.278,,,,5.278699636
1715158329478356682,0.27,,,,5.286394422
1715158329486051468,0.282,,,,5.294089208
1715158329493746254,0.292,,,,5.301783994
1715158329501441040,0.301,,,,5.30947878
1715158329509135826,0.313,,,,5.317173566
1715158329516830612,0.297,,,,5.324868352
1715158329524525398,0.263,,,,5.332563138
1715158329532220184,0.541,,,,5.340257924
1715158329539914970,1.339,,,,5.34795271
1715158329547609756,1.675,,,,5.355647496
1715158329555304542,0.385,,,,5.363342282
1715158329562999328,-1.195,,,,5.371037068
1715158329570694114,-1.04,,,,5.378731854
1715158329578388900,-0.112,,,,5.38642664
1715158329586083686,0.17,,,,5.394121426
1715158329593778472,0.333,,,,5.401816212
1715158329601473258,0.618,,,,5.409510998
1715158329609168044,0.635,,,,5.417205784
1715158329616862830,0.5700000000000001,,,,5.42490057
1715158329624557616,0.625,,,,5.432595356
1715158329632252402,0.637,,,,5.440290142
1715158329639947188,0.615,,,,5.447984928
1715158329647641974,0.647,,,,5.455679714
1715158329655336760,0.673,,,,5.4633745
1715158329663031546,0.673,,,,5.471069286
1715158329670726332,0.6920000000000001,,,,5.478764072
1715158329678421118,0.721,,,,5.486458858
1715158329686115904,0.738,,,,5.494153644
1715158329693810690,0.766,,,,5.50184843
1715158329701505476,0.81,,,,5.509543216
1715158329709200262,0.85,,,,5.517238002
1715158329716895048,0.891,,,,5.524932788
1715158329724589834,0.922,,,,5.532627574
1715158329732284620,0.934,,,,5.54032236
1715158329739979406,0.925,,,,5.548017146
1715158329747674192,0.901,,,,5.555711932
1715158329755368978,0.86,,,,5.563406718
1715158329763063764,0.798,,,,5.571101504
1715158329770758550,0.714,,,,5.57879629
1715158329778453336,0.632,,,,5.586491076
1715158329786148122,0.5680000000000001,,,,5.594185862
1715158329793842908,0.515,,,,5.601880648
1715158329801537694,0.472,,,,5.609575434
1715158329809232498,0.44,106.0,531.0,,5.617270238
1715158329816927284,0.428,,,,5.624965024
1715158329824622070,0.421,,,,5.63265981
1715158329832316856,0.414,,,,5.640354596
1715158329840011642,0.417,,,,5.648049382
1715158329847706428,0.428,,,,5.655744168
1715158329855401214,0.436,,,,5.663438954
1715158329863096000,0.438,,,,5.67113374
1715158329870790786,0.438,,,,5.678828526
1715158329878485572,0.428,,,,5.686523312
1715158329886180358,0.414,,,,5.694218098
1715158329893875144,0.402,,,,5.701912884
1715158329901569930,0.39,,,,5.70960767
1715158329909264716,0.383,,,,5.717302456
1715158329916959502,0.378,,,,5.724997242
1715158329924654288,0.359,,,,5.732692028
1715158329932349074,0.337,,,,5.740386814
1715158329940043860,0.323,,,,5.7480816
1715158329947738646,0.309,,,,5.755776386
1715158329955433432,0.309,,,,5.763471172
1715158329963128218,0.335,,,,5.771165958
1715158329970823004,0.359,,,,5.778860744
1715158329978517790,0.357,,,,5.78655553
1715158329986212576,0.33,,,,5.794250316
1715158329993907362,0.301,,,,5.801945102
1715158330001602148,0.292,,,,5.809639888
1715158330009296934,0.285,,,,5.817334674
1715158330016991720,0.278,,,,5.82502946
1715158330024686506,0.287,,,,5.832724246
1715158330032381292,0.289,,,,5.840419032
1715158330040076078,0.215,,,,5.848113818
1715158330047770864,0.249,,,,5.855808604
1715158330055465650,0.8190000000000001,,,,5.86350339
1715158330063160436,1.579,,,,5.871198176
1715158330070855222,1.071,,,,5.878892962
1715158330078550008,-0.757,,,,5.886587748
1715158330086244794,-1.579,,,,5.894282534
1715158330093939580,-0.728,,,,5.90197732
1715158330101634366,-0.033,,,,5.909672106
1715158330109329152,0.076,,,,5.917366892
1715158330117023938,0.306,,,,5.925061678
1715158330124718724,0.445,,,,5.932756464
1715158330132413510,0.359,,,,5.94045125
1715158330140108296,0.366,,,,5.948146036
1715158330147803082,0.436,,,,5.955840822
1715158330155497868,0.424,,,,5.963535608
1715158330163192654,0.414,,,,5.971230394
1715158330170887440,0.44,,,,5.97892518
1715158330178582226,0.45,,,,5.986619966
1715158330186277012,0.452,,,,5.994314752
1715158330193971798,0.464,,,,6.002009538
1715158330201666584,0.486,,,,6.009704324
1715158330209361370,0.512,,,,6.01739911
1715158330217056156,0.541,,,,6.025093896
1715158330224750942,0.5700000000000001,,,,6.032788682
1715158330232445728,0.599,,,,6.040483468
1715158330240140514,0.625,,,,6.048178254
1715158330247835300,0.63,,,,6.05587304
1715158330255530086,0.625,,,,6.063567826
1715158330263224872,0.613,,,,6.071262612
1715158330270919658,0.584,,,,6.078957398
1715158330278614444,0.536,,,,6.086652184
1715158330286309230,0.46,,,,6.09434697
1715158330294004016,0.383,,,,6.102041756
1715158330301698802,0.323,,,,6.109736542
1715158330309393588,0.268,,,,6.117431328
1715158330317088374,0.225,,,,6.125126114
1715158330324783160,0.201,,,,6.1328209
1715158330332477946,0.189,,,,6.140515686
1715158330340172732,0.186,,,,6.148210472
1715158330347867518,0.189,,,,6.155905258
1715158330355562304,0.196,,,,6.163600044
1715158330363257090,0.196,,,,6.17129483
1715158330370951892,0.191,,,,6.178989632
1715158330378646678,0.198,,,,6.186684418
1715158330386341464,0.208,,,,6.194379204
1715158330394036250,0.213,,,,6.20207399
1715158330401731036,0.218,,,,6.209768776
1715158330409425822,0.22,,,,6.217463562
1715158330417120608,0.22,,,,6.225158348
1715158330424815394,0.213,,,,6.232853134
1715158330432510180,0.201,,,,6.24054792
1715158330440204966,0.196,,,,6.248242706
1715158330447899752,0.184,,,,6.255937492
1715158330455594538,0.167,,,,6.263632278
1715158330463289324,0.148,,,,6.271327064
1715158330470984110,0.143,,,,6.27902185
1715158330478678896,0.167,,,,6.286716636
1715158330486373682,0.198,,,,6.294411422
1715158330494068468,0.215,,,,6.302106208
1715158330501763254,0.203,,,,6.309800994
1715158330509458040,0.172,,,,6.31749578
1715158330517152826,0.143,,,,6.325190566
1715158330524847612,0.134,,,,6.332885352
1715158330532542398,0.143,,,,6.340580138
1715158330540237184,0.153,,,,6.348274924
1715158330547931970,0.153,,,,6.35596971
1715158330555626756,0.107,,,,6.363664496
1715158330563321542,0.086,,,,6.371359282
1715158330571016328,0.45,,,,6.379054068
1715158330578711114,1.207,,,,6.386748854
1715158330586405900,1.147,,,,6.39444364
1715158330594100686,-0.486,,,,6.402138426
1715158330601795472,-1.852,,,,6.409833212
1715158330609490258,-1.342,,,,6.417527998
1715158330617185044,-0.366,,,,6.425222784
1715158330624879830,-0.115,,,,6.43291757
1715158330632574616,0.052,,,,6.440612356
1715158330640269402,0.254,,,,6.448307142
1715158330647964188,0.198,,,,6.456001928
1715158330655658974,0.155,,,,6.463696714
1715158330663353760,0.218,,,,6.4713915
1715158330671048546,0.21,,,,6.479086286
1715158330678743332,0.186,,,,6.486781072
1715158330686438118,0.198,,,,6.494475858
1715158330694132904,0.194,,,,6.502170644
1715158330701827690,0.184,,,,6.50986543
1715158330709522476,0.196,,,,6.517560216
1715158330717217262,0.206,,,,6.525255002
1715158330724912048,0.208,,,,6.532949788
1715158330732606834,0.225,,,,6.540644574
1715158330740301620,0.249,,,,6.54833936
1715158330747996406,0.27,,,,6.556034146
1715158330755691192,0.297,,,,6.563728932
1715158330763385978,0.304,,,,6.571423718
1715158330771080764,0.282,,,,6.579118504
1715158330778775550,0.256,,,,6.58681329
1715158330786470336,0.213,,,,6.594508076
1715158330794165122,0.148,,,,6.602202862
1715158330801859908,0.076,,,,6.609897648
1715158330809554694,0.002,,,,6.617592434
1715158330817249480,-0.081,,,,6.62528722
1715158330824944266,-0.153,,,,6.632982006
1715158330832639052,-0.196,,,,6.640676792
1715158330840333838,-0.215,,,,6.648371578
1715158330848028624,-0.242,,,,6.656066364
1715158330855723410,-0.27,,,,6.66376115
1715158330863418196,-0.275,,,,6.671455936
1715158330871112982,-0.258,,,,6.679150722
1715158330878807768,-0.251,,,,6.686845508
1715158330886502554,-0.251,,,,6.694540294
1715158330894197340,-0.249,,,,6.70223508
1715158330901892126,-0.251,,,,6.709929866
1715158330909586912,-0.258,,,,6.717624652
1715158330917281698,-0.263,,,,6.725319438
1715158330924976484,-0.27,,,,6.733014224
1715158330932671286,-0.27,108.0,527.0,,6.740709026
1715158330940366490,-0.256,,524.0,,6.74840423
1715158330948061694,-0.254,,,,6.756099434
1715158330955756898,-0.258,,,,6.763794638
1715158330963452102,-0.258,,,,6.771489842
1715158330971147306,-0.266,,,,6.779185046
1715158330978842510,-0.299,,,,6.78688025
1715158330986537714,-0.321,,,,6.794575454
1715158330994232918,-0.311,,,,6.802270658
1715158331001928122,-0.304,,,,6.809965862
1715158331009623326,-0.282,,,,6.817661066
1715158331017318530,-0.239,,,,6.82535627
1715158331025013734,-0.242,,,,6.833051474
1715158331032708938,-0.28,,,,6.840746678
1715158331040404142,-0.282,,,,6.848441882
1715158331048099346,-0.27,,,,6.856137086
1715158331055794550,-0.275,,,,6.86383229
1715158331063489754,-0.263,,,,6.871527494
1715158331071184958,-0.246,,,,6.879222698
1715158331078880162,-0.268,,,,6.886917902
1715158331086575366,-0.275,,,,6.894613106
1715158331094270570,0.035,,,,6.90230831
1715158331101965774,0.735,,,,6.910003514
1715158331109660978,0.776,,,,6.917698718
1715158331117356182,-0.707,,,,6.925393922
1715158331125051386,-2.094,,,,6.933089126
1715158331132746590,-1.708,,,,6.94078433
1715158331140441794,-0.798,,,,6.948479534
1715158331148136998,-0.486,,,,6.956174738
1715158331155832202,-0.237,,,,6.963869942
1715158331163527406,0.004,,,,6.971565146
1715158331171222610,-0.019,,,,6.97926035
1715158331178917814,-0.033,,,,6.986955554
1715158331186613018,0.045,,,,6.994650758
1715158331194308222,0.062,,,,7.002345962
1715158331202003426,0.055,,,,7.010041166
1715158331209698630,0.081,,,,7.01773637
1715158331217393834,0.095,,,,7.025431574
1715158331225089038,0.103,,,,7.033126778
1715158331232784242,0.134,,,,7.040821982
1715158331240479446,0.167,,,,7.048517186
1715158331248174650,0.189,,,,7.05621239
1715158331255869854,0.215,,,,7.063907594
1715158331263565058,0.249,,,,7.071602798
1715158331271260262,0.285,,,,7.079298002
1715158331278955466,0.313,,,,7.086993206
1715158331286650670,0.33,,,,7.09468841
1715158331294345874,0.328,,,,7.102383614
1715158331302041078,0.306,,,,7.110078818
1715158331309736282,0.278,,,,7.117774022
1715158331317431486,0.246,,,,7.125469226
1715158331325126690,0.177,,,,7.13316443
1715158331332821894,0.081,,,,7.140859634
1715158331340517098,0.009,,,,7.148554838
1715158331348212302,-0.045,,,,7.156250042
1715158331355907506,-0.083,,,,7.163945246
1715158331363602710,-0.095,,,,7.17164045
1715158331371297914,-0.107,,,,7.179335654
1715158331378993118,-0.115,,,,7.187030858
1715158331386688322,-0.105,,,,7.194726062
1715158331394383526,-0.088,,,,7.202421266
1715158331402078730,-0.081,,,,7.21011647
1715158331409773934,-0.074,,,,7.217811674
1715158331417469138,-0.052,,,,7.225506878
1715158331425164342,-0.028,,,,7.233202082
1715158331432859546,-0.016,,,,7.240897286
1715158331440554750,-0.011,,,,7.24859249
1715158331448249954,-0.007,,,,7.256287694
1715158331455945158,0.004,,,,7.263982898
1715158331463640362,0.011,,,,7.271678102
1715158331471335566,0.016,,,,7.279373306
1715158331479030770,0.021,,,,7.28706851
1715158331486725974,0.026,,,,7.294763714
1715158331494421198,0.026,,,,7.302458938
1715158331502115984,0.023,,,,7.310153724
1715158331509810770,0.021,,,,7.31784851
1715158331517505556,0.026,,,,7.325543296
1715158331525200342,0.047,,,,7.333238082
1715158331532895128,0.076,,,,7.340932868
1715158331540589914,0.095,,,,7.348627654
1715158331548284700,0.093,,,,7.35632244
1715158331555979486,0.074,,,,7.364017226
1715158331563674272,0.062,,,,7.371712012
1715158331571369058,0.062,,,,7.379406798
1715158331579063844,0.071,,,,7.387101584
1715158331586758630,0.079,,,,7.39479637
1715158331594453416,0.076,,,,7.402491156
1715158331602148202,0.059,,,,7.410185942
1715158331609842988,0.071,,,,7.417880728
1715158331617537774,0.349,,,,7.425575514
1715158331625232560,0.987,,,,7.4332703
1715158331632927346,1.083,,,,7.440965086
1715158331640622132,-0.28,,,,7.448659872
1715158331648316918,-1.699,,,,7.456354658
1715158331656011704,-1.404,,,,7.464049444
1715158331663706490,-0.455,,,,7.47174423
1715158331671401276,-0.124,,,,7.479439016
1715158331679096062,0.067,,,,7.487133802
1715158331686790848,0.301,,,,7.494828588
1715158331694485634,0.294,,,,7.502523374
1715158331702180420,0.246,,,,7.51021816
1715158331709875206,0.313,,,,7.517912946
1715158331717569992,0.337,,,,7.525607732
1715158331725264778,0.313,,,,7.533302518
1715158331732959564,0.33,,,,7.540997304
1715158331740654350,0.352,,,,7.54869209
1715158331748349136,0.349,,,,7.556386876
1715158331756043922,0.364,,,,7.564081662
1715158331763738708,0.39,,,,7.571776448
1715158331771433494,0.409,,,,7.579471234
1715158331779128280,0.431,,,,7.58716602
1715158331786823066,0.462,,,,7.594860806
1715158331794517852,0.503,,,,7.602555592
1715158331802212638,0.527,,,,7.610250378
1715158331809907424,0.536,,,,7.617945164
1715158331817602210,0.544,,,,7.62563995
1715158331825296996,0.539,,,,7.633334736
1715158331832991782,0.522,,,,7.641029522
1715158331840686568,0.491,,,,7.648724308
1715158331848381354,0.436,,,,7.656419094
1715158331856076140,0.376,,,,7.66411388
1715158331863770926,0.321,,,,7.671808666
1715158331871465712,0.27,,,,7.679503452
1715158331879160498,0.237,,,,7.687198238
1715158331886855284,0.22,,,,7.694893024
1715158331894550070,0.213,,,,7.70258781
1715158331902244856,0.206,,,,7.710282596
1715158331909939642,0.215,,,,7.717977382
1715158331917634428,0.239,,,,7.725672168
1715158331925329214,0.254,,,,7.733366954
1715158331933024000,0.258,,,,7.74106174
1715158331940718786,0.263,,,,7.748756526
1715158331948413572,0.27,,,,7.756451312
1715158331956108358,0.278,,,,7.764146098
1715158331963803144,0.28,,,,7.771840884
1715158331971497930,0.28,,,,7.77953567
1715158331979192716,0.282,,,,7.787230456
1715158331986887502,0.278,,,,7.794925242
1715158331994582288,0.263,,,,7.802620028
1715158332002277074,0.256,,,,7.810314814
1715158332009971860,0.251,,,,7.8180096
1715158332017666646,0.242,,,,7.825704386
1715158332025361432,0.227,,,,7.833399172
1715158332033056218,0.22,,,,7.841093958
1715158332040751004,0.213,,,,7.848788744
1715158332048445790,0.215,,,,7.85648353
1715158332056140592,0.239,111.0,520.0,,7.864178332
1715158332063835378,0.268,,518.0,,7.871873118
1715158332071530164,0.282,,,,7.879567904
1715158332079224950,0.27,,,,7.88726269
1715158332086919736,0.246,,,,7.894957476
1715158332094614522,0.242,,,,7.902652262
1715158332102309308,0.254,,,,7.910347048
1715158332110004094,0.258,,,,7.918041834
1715158332117698880,0.266,,,,7.92573662
1715158332125393666,0.263,,,,7.933431406
1715158332133088452,0.249,,,,7.941126192
1715158332140783238,0.445,,,,7.948820978
1715158332148478024,1.083,,,,7.956515764
1715158332156172810,1.454,,,,7.96421055
1715158332163867596,0.383,,,,7.971905336
1715158332171562382,-1.263,,,,7.979600122
1715158332179257168,-1.354,,,,7.987294908
1715158332186951954,-0.361,,,,7.994989694
1715158332194646740,0.076,,,,8.00268448
1715158332202341526,0.203,,,,8.010379266
1715158332210036312,0.46,,,,8.018074052
1715158332217731098,0.508,,,,8.025768838
1715158332225425884,0.428,,,,8.033463624
1715158332233120670,0.476,,,,8.04115841
1715158332240815456,0.512,,,,8.048853196
1715158332248510242,0.481,,,,8.056547982
1715158332256205028,0.481,,,,8.064242768
1715158332263899814,0.493,,,,8.071937554
1715158332271594600,0.488,,,,8.07963234
1715158332279289386,0.498,,,,8.087327126
1715158332286984172,0.515,,,,8.095021912
1715158332294678958,0.532,,,,8.102716698
1715158332302373744,0.551,,,,8.110411484
1715158332310068530,0.5750000000000001,,,,8.11810627
1715158332317763316,0.599,,,,8.125801056
1715158332325458102,0.623,,,,8.133495842
1715158332333152888,0.642,,,,8.141190628
1715158332340847674,0.637,,,,8.148885414
1715158332348542460,0.62,,,,8.1565802
1715158332356237246,0.603,,,,8.164274986
1715158332363932032,0.579,,,,8.171969772
1715158332371626818,0.532,,,,8.179664558
1715158332379321604,0.464,,,,8.187359344
1715158332387016390,0.39,,,,8.19505413
1715158332394711176,0.33,,,,8.202748916
1715158332402405962,0.289,,,,8.210443702
1715158332410100748,0.258,,,,8.218138488
1715158332417795534,0.244,,,,8.225833274
1715158332425490320,0.242,,,,8.23352806
1715158332433185106,0.244,,,,8.241222846
1715158332440879892,0.244,,,,8.248917632
1715158332448574678,0.249,,,,8.256612418
1715158332456269464,0.249,,,,8.264307204
1715158332463964250,0.246,,,,8.27200199
1715158332471659036,0.249,,,,8.279696776
1715158332479353822,0.256,,,,8.287391562
1715158332487048608,0.261,,,,8.295086348
1715158332494743394,0.261,,,,8.302781134
1715158332502438180,0.256,,,,8.31047592
1715158332510132966,0.254,,,,8.318170706
1715158332517827752,0.256,,,,8.325865492
1715158332525522538,0.256,,,,8.333560278
1715158332533217324,0.256,,,,8.341255064
1715158332540912110,0.254,,,,8.34894985
1715158332548606896,0.244,,,,8.356644636
1715158332556301682,0.234,,,,8.364339422
1715158332563996468,0.232,,,,8.372034208
1715158332571691254,0.239,,,,8.379728994
1715158332579386040,0.258,,,,8.38742378
1715158332587080826,0.275,,,,8.395118566
1715158332594775612,0.278,,,,8.402813352
1715158332602470398,0.263,,,,8.410508138
1715158332610165184,0.251,,,,8.418202924
1715158332617859986,0.251,,,,8.425897726
1715158332625555190,0.254,,,,8.43359293
1715158332633250394,0.268,,,,8.441288134
1715158332640945598,0.282,,,,8.448983338
1715158332648640802,0.258,,,,8.456678542
1715158332656336006,0.194,,,,8.464373746
1715158332664031210,0.342,,,,8.47206895
1715158332671726414,1.001,,,,8.479764154
1715158332679421618,1.531,,,,8.487459358
1715158332687116822,0.606,,,,8.495154562
1715158332694812026,-1.147,,,,8.502849766
1715158332702507230,-1.461,,,,8.51054497
1715158332710202434,-0.488,,,,8.518240174
1715158332717897638,0.019,,,,8.525935378
1715158332725592842,0.127,,,,8.533630582
1715158332733288046,0.376,,,,8.541325786
1715158332740983250,0.45,,,,8.54902099
1715158332748678454,0.378,,,,8.556716194
1715158332756373658,0.431,,,,8.564411398
1715158332764068862,0.486,,,,8.572106602
1715158332771764066,0.462,,,,8.579801806
1715158332779459270,0.464,,,,8.58749701
1715158332787154474,0.486,,,,8.595192214
1715158332794849678,0.488,,,,8.602887418
1715158332802544882,0.491,,,,8.610582622
1715158332810240086,0.51,,,,8.618277826
1715158332817935290,0.527,,,,8.62597303
1715158332825630494,0.536,,,,8.633668234
1715158332833325698,0.556,,,,8.641363438
1715158332841020902,0.589,,,,8.649058642
1715158332848716106,0.62,,,,8.656753846
1715158332856411310,0.642,,,,8.66444905
1715158332864106514,0.649,,,,8.672144254
1715158332871801718,0.644,,,,8.679839458
1715158332879496922,0.625,,,,8.687534662
1715158332887192126,0.601,,,,8.695229866
1715158332894887330,0.56,,,,8.70292507
1715158332902582534,0.498,,,,8.710620274
1715158332910277738,0.428,,,,8.718315478
1715158332917972942,0.371,,,,8.726010682
1715158332925668146,0.328,,,,8.733705886
1715158332933363350,0.297,,,,8.74140109
1715158332941058554,0.275,,,,8.749096294
1715158332948753758,0.27,,,,8.756791498
1715158332956448962,0.282,,,,8.764486702
1715158332964144166,0.294,,,,8.772181906
1715158332971839370,0.301,,,,8.77987711
1715158332979534574,0.304,,,,8.787572314
1715158332987229778,0.301,,,,8.795267518
1715158332994924982,0.304,,,,8.802962722
1715158333002620186,0.311,,,,8.810657926
1715158333010315390,0.311,,,,8.81835313
1715158333018010594,0.309,,,,8.826048334
1715158333025705798,0.304,,,,8.833743538
1715158333033401002,0.297,,,,8.841438742
1715158333041096206,0.285,,,,8.849133946
1715158333048791410,0.27,,,,8.85682915
1715158333056486614,0.261,,,,8.864524354
1715158333064181818,0.251,,,,8.872219558
1715158333071877022,0.232,,,,8.879914762
1715158333079572226,0.215,,,,8.887609966
1715158333087267430,0.208,,,,8.89530517
1715158333094962634,0.21,,,,8.903000374
1715158333102657838,0.222,,,,8.910695578
1715158333110353042,0.251,,,,8.918390782
1715158333118048246,0.278,,,,8.926085986
1715158333125743450,0.27,,,,8.93378119
1715158333133438654,0.244,,,,8.941476394
1715158333141133858,0.225,,,,8.949171598
1715158333148829062,0.218,,,,8.956866802
1715158333156524266,0.21,,,,8.964562006
1715158333164219470,0.203,,,,8.97225721
1715158333171914674,0.208,,,,8.979952414
1715158333179609900,0.179,112.0,523.0,,8.98764764
1715158333187304686,0.174,,523.0,,8.995342426
1715158333194999472,0.5630000000000001,,,,9.003037212
1715158333202694258,1.32,,,,9.010731998
1715158333210389044,1.241,,,,9.018426784
1715158333218083830,-0.352,,,,9.02612157
1715158333225778616,-1.612,,,,9.033816356
1715158333233473402,-1.08,,,,9.041511142
1715158333241168188,-0.22,,,,9.049205928
1715158333248862974,-0.035,,,,9.056900714
1715158333256557760,0.155,,,,9.0645955
1715158333264252546,0.378,,,,9.072290286
1715158333271947332,0.337,,,,9.079985072
1715158333279642118,0.301,,,,9.087679858
1715158333287336904,0.369,,,,9.095374644
1715158333295031690,0.376,,,,9.10306943
1715158333302726476,0.357,,,,9.110764216
1715158333310421262,0.381,,,,9.118459002
1715158333318116048,0.393,,,,9.126153788
1715158333325810834,0.385,,,,9.133848574
1715158333333505620,0.402,,,,9.14154336
1715158333341200406,0.424,,,,9.149238146
1715158333348895192,0.438,,,,9.156932932
1715158333356589978,0.467,,,,9.164627718
1715158333364284764,0.5,,,,9.172322504
1715158333371979550,0.524,,,,9.18001729
1715158333379674336,0.539,,,,9.187712076
1715158333387369122,0.548,,,,9.195406862
1715158333395063908,0.548,,,,9.203101648
1715158333402758694,0.534,,,,9.210796434
1715158333410453480,0.515,,,,9.21849122
1715158333418148266,0.484,,,,9.226186006
1715158333425843052,0.424,,,,9.233880792
1715158333433537838,0.349,,,,9.241575578
1715158333441232624,0.285,,,,9.249270364
1715158333448927410,0.232,,,,9.25696515
1715158333456622196,0.191,,,,9.264659936
1715158333464316982,0.16,,,,9.272354722
1715158333472011768,0.148,,,,9.280049508
1715158333479706554,0.15,,,,9.287744294
1715158333487401340,0.155,,,,9.29543908
1715158333495096126,0.165,,,,9.303133866
1715158333502790912,0.17,,,,9.310828652
1715158333510485698,0.172,,,,9.318523438
1715158333518180484,0.177,,,,9.326218224
1715158333525875270,0.182,,,,9.33391301
1715158333533570056,0.189,,,,9.341607796
1715158333541264842,0.189,,,,9.349302582
1715158333548959628,0.179,,,,9.356997368
1715158333556654414,0.174,,,,9.364692154
1715158333564349200,0.162,,,,9.37238694
1715158333572043986,0.153,,,,9.380081726
1715158333579738772,0.155,,,,9.387776512
1715158333587433558,0.15,,,,9.395471298
1715158333595128344,0.148,,,,9.403166084
1715158333602823130,0.141,,,,9.41086087
1715158333610517916,0.134,,,,9.418555656
1715158333618212702,0.129,,,,9.426250442
1715158333625907488,0.119,,,,9.433945228
1715158333633602274,0.115,,,,9.441640014
1715158333641297060,0.124,,,,9.4493348
1715158333648991846,0.148,,,,9.457029586
1715158333656686632,0.17,,,,9.464724372
1715158333664381418,0.162,,,,9.472419158
1715158333672076204,0.136,,,,9.480113944
1715158333679770990,0.117,,,,9.48780873
1715158333687465776,0.112,,,,9.495503516
1715158333695160562,0.112,,,,9.503198302
1715158333702855348,0.112,,,,9.510893088
1715158333710550134,0.122,,,,9.518587874
1715158333718244920,0.124,,,,9.52628266
1715158333725939706,0.105,,,,9.533977446
1715158333733634492,0.246,,,,9.541672232
1715158333741329294,0.855,113.0,525.0,,9.549367034
1715158333749024080,1.437,,524.0,,9.55706182
1715158333756718866,0.668,,,,9.564756606
1715158333764413652,-1.124,,,,9.572451392
1715158333772108438,-1.663,,,,9.580146178
1715158333779803224,-0.762,,,,9.587840964
1715158333787498010,-0.177,,,,9.59553575
1715158333795192796,-0.047,,,,9.603230536
1715158333802887582,0.213,,,,9.610925322
1715158333810582368,0.318,,,,9.618620108
1715158333818277154,0.23,,,,9.626314894
1715158333825971940,0.254,,,,9.63400968
1715158333833666726,0.318,,,,9.641704466
1715158333841361512,0.306,,,,9.649399252
1715158333849056298,0.304,,,,9.657094038
1715158333856751084,0.333,,,,9.664788824
1715158333864445870,0.34,,,,9.67248361
1715158333872140656,0.345,,,,9.680178396
1715158333879835442,0.359,,,,9.687873182
1715158333887530228,0.373,,,,9.695567968
1715158333895225014,0.4,,,,9.703262754
1715158333902919800,0.428,,,,9.71095754
1715158333910614586,0.455,,,,9.718652326
1715158333918309372,0.474,,,,9.726347112
1715158333926004158,0.484,,,,9.734041898
1715158333933698944,0.488,,,,9.741736684
1715158333941393730,0.481,,,,9.74943147
1715158333949088516,0.467,,,,9.757126256
1715158333956783302,0.445,,,,9.764821042
1715158333964478088,0.405,,,,9.772515828
1715158333972172874,0.345,,,,9.780210614
1715158333979867660,0.275,,,,9.7879054
1715158333987562446,0.203,,,,9.795600186
1715158333995257232,0.139,,,,9.803294972
1715158334002952018,0.091,,,,9.810989758
1715158334010646804,0.071,,,,9.818684544
1715158334018341590,0.059,,,,9.82637933
1715158334026036376,0.04,,,,9.834074116
1715158334033731162,0.04,,,,9.841768902
1715158334041425948,0.062,,,,9.849463688
1715158334049120734,0.081,,,,9.857158474
1715158334056815520,0.086,,,,9.86485326
1715158334064510306,0.091,,,,9.872548046
1715158334072205092,0.105,,,,9.880242832
1715158334079899878,0.105,,,,9.887937618
1715158334087594664,0.095,,,,9.895632404
1715158334095289450,0.103,,,,9.90332719
1715158334102984236,0.112,,,,9.911021976
1715158334110679022,0.107,,,,9.918716762
1715158334118373808,0.093,,,,9.926411548
1715158334126068594,0.083,,,,9.934106334
1715158334133763380,0.088,,,,9.94180112
1715158334141458166,0.088,,,,9.949495906
1715158334149152952,0.086,,,,9.957190692
1715158334156847738,0.086,,,,9.964885478
1715158334164542524,0.079,,,,9.972580264
1715158334172237310,0.059,,,,9.98027505
1715158334179932096,0.05,,,,9.987969836
1715158334187626882,0.047,,,,9.995664622
1715158334195321668,0.047,,,,10.003359408
1715158334203016454,0.064,,,,10.011054194
1715158334210711240,0.105,,,,10.01874898
1715158334218406026,0.134,,,,10.026443766
1715158334226100812,0.124,,,,10.034138552
1715158334233795598,0.103,,,,10.041833338
1715158334241490384,0.088,,,,10.049528124
1715158334249185170,0.081,,,,10.05722291
1715158334256879956,0.083,,,,10.064917696
1715158334264574742,0.091,,,,10.072612482
1715158334272269528,0.107,,,,10.080307268
1715158334279964314,0.127,,,,10.088002054
1715158334287659100,0.155,,,,10.09569684
1715158334295353886,0.414,,,,10.103391626
1715158334303048688,1.095,,,,10.111086428
1715158334310743474,1.399,,,,10.118781214
1715158334318438260,0.184,,,,10.126476
1715158334326133046,-1.447,,,,10.134170786
1715158334333827832,-1.44,,,,10.141865572
1715158334341522618,-0.534,,,,10.149560358
1715158334349217404,-0.194,,,,10.157255144
1715158334356912190,-0.019,,,,10.16494993
1715158334364606976,0.266,,,,10.172644716
1715158334372301762,0.306,,,,10.180339502
1715158334379996548,0.244,,,,10.188034288
1715158334387691334,0.299,,,,10.195729074
1715158334395386120,0.33,,,,10.20342386
1715158334403080906,0.306,,,,10.211118646
1715158334410775692,0.313,,,,10.218813432
1715158334418470478,0.337,,,,10.226508218
1715158334426165264,0.345,,,,10.234203004
1715158334433860050,0.361,,,,10.24189779
1715158334441554836,0.385,,,,10.249592576
1715158334449249622,0.4,,,,10.257287362
1715158334456944408,0.417,,,,10.264982148
1715158334464639194,0.45,,,,10.272676934
1715158334472333980,0.486,,,,10.28037172
1715158334480028766,0.5,,,,10.288066506
1715158334487723552,0.496,,,,10.295761292
1715158334495418338,0.486,,,,10.303456078
1715158334503113124,0.467,,,,10.311150864
1715158334510807910,0.455,,,,10.31884565
1715158334518502696,0.445,,,,10.326540436
1715158334526197482,0.407,,,,10.334235222
1715158334533892268,0.335,,,,10.341930008
1715158334541587054,0.244,,,,10.349624794
1715158334549281840,0.16,,,,10.35731958
1715158334556976626,0.115,,,,10.365014366
1715158334564671412,0.086,,,,10.372709152
1715158334572366198,0.047,,,,10.380403938
1715158334580060984,0.033,,,,10.388098724
1715158334587755770,0.05,,,,10.39579351
1715158334595450556,0.064,,,,10.403488296
1715158334603145342,0.062,,,,10.411183082
1715158334610840128,0.069,,,,10.418877868
1715158334618534914,0.091,,,,10.426572654
1715158334626229700,0.105,,,,10.43426744
1715158334633924486,0.119,,,,10.441962226
1715158334641619272,0.131,,,,10.449657012
1715158334649314058,0.155,,,,10.457351798
1715158334657008844,0.179,,,,10.465046584
1715158334664703630,0.167,,,,10.47274137
1715158334672398416,0.129,,,,10.480436156
1715158334680093202,0.11,,,,10.488130942
1715158334687787988,0.119,,,,10.495825728
1715158334695482774,0.127,,,,10.503520514
1715158334703177560,0.119,,,,10.5112153
1715158334710872346,0.107,,,,10.518910086
1715158334718567132,0.103,,,,10.526604872
1715158334726261918,0.107,,,,10.534299658
1715158334733956704,0.115,,,,10.541994444
1715158334741651490,0.112,,,,10.54968923
1715158334749346276,0.105,,,,10.557384016
1715158334757041062,0.098,,,,10.565078802
1715158334764735848,0.093,,,,10.572773588
1715158334772430634,0.11,,,,10.580468374
1715158334780125420,0.143,,,,10.58816316
1715158334787820206,0.167,,,,10.595857946
1715158334795514992,0.167,,,,10.603552732
1715158334803209778,0.143,,,,10.611247518
1715158334810904564,0.117,,,,10.618942304
1715158334818599350,0.112,,,,10.62663709
1715158334826294136,0.119,,,,10.634331876
1715158334833988922,0.127,,,,10.642026662
1715158334841683708,0.134,,,,10.649721448
1715158334849378494,0.141,,,,10.657416234
1715158334857073280,0.15,,,,10.66511102
1715158334864768082,0.328,114.0,527.0,,10.672805822
1715158334872463286,0.917,,543.0,,10.680501026
1715158334880158490,1.43,,,,10.68819623
1715158334887853694,0.615,,,,10.695891434
1715158334895548898,-1.124,,,,10.703586638
1715158334903244102,-1.591,,,,10.711281842
1715158334910939306,-0.766,,,,10.718977046
1715158334918634510,-0.282,,,,10.72667225
1715158334926329714,-0.115,,,,10.734367454
1715158334934024918,0.203,,,,10.742062658
1715158334941720122,0.313,,,,10.749757862
1715158334949415326,0.234,,,,10.757453066
1715158334957110530,0.27,,,,10.76514827
1715158334964805734,0.328,,,,10.772843474
1715158334972500938,0.306,,,,10.780538678
1715158334980196142,0.309,,,,10.788233882
1715158334987891346,0.335,,,,10.795929086
1715158334995586550,0.342,,,,10.80362429
1715158335003281754,0.345,,,,10.811319494
1715158335010976958,0.364,,,,10.819014698
1715158335018672162,0.383,,,,10.826709902
1715158335026367366,0.402,,,,10.834405106
1715158335034062570,0.426,,,,10.84210031
1715158335041757774,0.448,,,,10.849795514
1715158335049452978,0.457,,,,10.857490718
1715158335057148182,0.469,,,,10.865185922
1715158335064843386,0.481,,,,10.872881126
1715158335072538590,0.469,,,,10.88057633
1715158335080233794,0.44,,,,10.888271534
1715158335087928998,0.412,,,,10.895966738
1715158335095624202,0.381,,,,10.903661942
1715158335103319406,0.325,,,,10.911357146
1715158335111014610,0.242,,,,10.91905235
1715158335118709814,0.167,,,,10.926747554
1715158335126405018,0.112,,,,10.934442758
1715158335134100222,0.069,,,,10.942137962
1715158335141795426,0.038,,,,10.949833166
1715158335149490630,0.026,,,,10.95752837
1715158335157185834,0.023,,,,10.965223574
1715158335164881038,0.028,,,,10.972918778
1715158335172576242,0.035,,,,10.980613982
1715158335180271446,0.033,,,,10.988309186
1715158335187966650,0.038,,,,10.99600439
1715158335195661854,0.055,,,,11.003699594
1715158335203357058,0.062,,,,11.011394798
1715158335211052262,0.069,,,,11.019090002
1715158335218747466,0.081,,,,11.026785206
1715158335226442670,0.086,,,,11.03448041
1715158335234137874,0.088,,,,11.042175614
1715158335241833078,0.095,,,,11.049870818
1715158335249528282,0.107,,,,11.057566022
1715158335257223486,0.115,,,,11.065261226
1715158335264918690,0.107,,,,11.07295643
1715158335272613894,0.107,,,,11.080651634
1715158335280309098,0.112,,,,11.088346838
1715158335288004302,0.112,,,,11.096042042
1715158335295699506,0.11,,,,11.103737246
1715158335303394710,0.105,,,,11.11143245
1715158335311089914,0.095,,,,11.119127654
1715158335318785118,0.081,,,,11.126822858
1715158335326480322,0.067,,,,11.134518062
1715158335334175526,0.071,,,,11.142213266
1715158335341870730,0.103,,,,11.14990847
1715158335349565934,0.139,,,,11.157603674
1715158335357261138,0.153,,,,11.165298878
1715158335364956342,0.136,,,,11.172994082
1715158335372651546,0.112,,,,11.180689286
1715158335380346750,0.095,,,,11.18838449
1715158335388041954,0.088,,,,11.196079694
1715158335395737158,0.095,,,,11.203774898
1715158335403432362,0.107,,,,11.211470102
1715158335411127566,0.115,,,,11.219165306
1715158335418822770,0.117,,,,11.22686051
1715158335426517994,0.191,,,,11.234555734
1715158335434212780,0.596,,,,11.24225052
1715158335441907566,1.291,,,,11.249945306
1715158335449602352,1.195,,,,11.257640092
1715158335457297138,-0.383,,,,11.265334878
1715158335464991924,-1.713,,,,11.273029664
1715158335472686710,-1.289,,,,11.28072445
1715158335480381496,-0.443,,,,11.288419236
1715158335488076282,-0.203,,,,11.296114022
1715158335495771068,0.002,,,,11.303808808
1715158335503465854,0.225,,,,11.311503594
1715158335511160640,0.201,,,,11.31919838
1715158335518855426,0.179,,,,11.326893166
1715158335526550212,0.258,,,,11.334587952
1715158335534244998,0.268,,,,11.342282738
1715158335541939784,0.246,,,,11.349977524
1715158335549634570,0.268,,,,11.35767231
1715158335557329356,0.282,,,,11.365367096
1715158335565024142,0.273,,,,11.373061882
1715158335572718928,0.285,,,,11.380756668
1715158335580413714,0.311,,,,11.388451454
1715158335588108500,0.33,,,,11.39614624
1715158335595803286,0.345,,,,11.403841026
1715158335603498072,0.369,,,,11.411535812
1715158335611192858,0.395,,,,11.419230598
1715158335618887644,0.405,,,,11.426925384
1715158335626582430,0.405,,,,11.43462017
1715158335634277216,0.405,,,,11.442314956
1715158335641972002,0.385,,,,11.450009742
1715158335649666788,0.354,,,,11.457704528
1715158335657361574,0.316,,,,11.465399314
1715158335665056360,0.263,,,,11.4730941
1715158335672751146,0.191,,,,11.480788886
1715158335680445932,0.11,,,,11.488483672
1715158335688140718,0.047,,,,11.496178458
1715158335695835504,0.011,,,,11.503873244
1715158335703530290,-0.016,,,,11.51156803
1715158335711225076,-0.031,,,,11.519262816
1715158335718919862,-0.033,,,,11.526957602
1715158335726614648,-0.031,,,,11.534652388
1715158335734309434,-0.026,,,,11.542347174
1715158335742004220,-0.016,,,,11.55004196
1715158335749699006,0.0,,,,11.557736746
1715158335757393792,0.014,,,,11.565431532
1715158335765088578,0.023,,,,11.573126318
1715158335772783364,0.026,,,,11.580821104
1715158335780478150,0.023,,,,11.58851589
1715158335788172936,0.031,,,,11.596210676
1715158335795867722,0.04,,,,11.603905462
1715158335803562508,0.043,,,,11.611600248
1715158335811257294,0.043,,,,11.619295034
1715158335818952080,0.043,,,,11.62698982
1715158335826646866,0.04,,,,11.634684606
1715158335834341652,0.04,,,,11.642379392
1715158335842036438,0.043,,,,11.650074178
1715158335849731224,0.043,,,,11.657768964
1715158335857426010,0.04,,,,11.66546375
1715158335865120796,0.04,,,,11.673158536
1715158335872815582,0.04,,,,11.680853322
1715158335880510368,0.033,,,,11.688548108
1715158335888205154,0.023,,,,11.696242894
1715158335895899940,0.021,,,,11.70393768
1715158335903594726,0.026,,,,11.711632466
1715158335911289512,0.052,,,,11.719327252
1715158335918984298,0.083,,,,11.727022038
1715158335926679084,0.095,,,,11.734716824
1715158335934373870,0.086,,,,11.74241161
1715158335942068656,0.069,,,,11.750106396
1715158335949763442,0.059,,,,11.757801182
1715158335957458228,0.059,,,,11.765495968
1715158335965153014,0.062,,,,11.773190754
1715158335972847800,0.071,,,,11.78088554
1715158335980542586,0.081,,,,11.788580326
1715158335988237388,0.081,112.0,560.0,,11.796275128
1715158335995932174,0.155,,571.0,,11.803969914
1715158336003626960,0.5750000000000001,,,,11.8116647
1715158336011321746,1.231,,,,11.819359486
1715158336019016532,1.008,,,,11.827054272
1715158336026711318,-0.601,,,,11.834749058
1715158336034406104,-1.773,,,,11.842443844
1715158336042100890,-1.222,,,,11.85013863
1715158336049795676,-0.371,,,,11.857833416
1715158336057490462,-0.146,,,,11.865528202
1715158336065185248,0.057,,,,11.873222988
1715158336072880034,0.251,,,,11.880917774
1715158336080574820,0.203,,,,11.88861256
1715158336088269606,0.186,,,,11.896307346
1715158336095964392,0.258,,,,11.904002132
1715158336103659178,0.256,,,,11.911696918
1715158336111353964,0.239,,,,11.919391704
1715158336119048750,0.263,,,,11.92708649
1715158336126743536,0.268,,,,11.934781276
1715158336134438322,0.266,,,,11.942476062
1715158336142133108,0.28,,,,11.950170848
1715158336149827894,0.292,,,,11.957865634
1715158336157522680,0.301,,,,11.96556042
1715158336165217466,0.321,,,,11.973255206
1715158336172912252,0.345,,,,11.980949992
1715158336180607038,0.352,,,,11.988644778
1715158336188301824,0.357,,,,11.996339564
1715158336195996610,0.366,,,,12.00403435
1715158336203691396,0.369,,,,12.011729136
1715158336211386182,0.357,,,,12.019423922
1715158336219080968,0.335,,,,12.027118708
1715158336226775754,0.299,,,,12.034813494
1715158336234470540,0.249,,,,12.04250828
1715158336242165326,0.179,,,,12.050203066
1715158336249860112,0.115,,,,12.057897852
1715158336257554898,0.067,,,,12.065592638
1715158336265249684,0.031,,,,12.073287424
1715158336272944470,0.0,,,,12.08098221
1715158336280639256,-0.021,,,,12.088676996
1715158336288334042,-0.026,,,,12.096371782
1715158336296028828,-0.019,,,,12.104066568
1715158336303723614,-0.011,,,,12.111761354
1715158336311418400,-0.002,,,,12.11945614
1715158336319113186,0.011,,,,12.127150926
1715158336326807972,0.021,,,,12.134845712
1715158336334502758,0.028,,,,12.142540498
1715158336342197544,0.033,,,,12.150235284
1715158336349892330,0.04,,,,12.15793007
1715158336357587116,0.052,,,,12.165624856
1715158336365281902,0.057,,,,12.173319642
1715158336372976688,0.059,,,,12.181014428
1715158336380671474,0.059,,,,12.188709214
1715158336388366260,0.064,,,,12.196404
1715158336396061046,0.064,,,,12.204098786
1715158336403755832,0.062,,,,12.211793572
1715158336411450618,0.064,,,,12.219488358
1715158336419145404,0.062,,,,12.227183144
1715158336426840190,0.05,,,,12.23487793
1715158336434534976,0.038,,,,12.242572716
1715158336442229762,0.038,,,,12.250267502
1715158336449924548,0.045,,,,12.257962288
1715158336457619334,0.059,,,,12.265657074
1715158336465314120,0.083,,,,12.27335186
1715158336473008906,0.107,,,,12.281046646
1715158336480703692,0.105,,,,12.288741432
1715158336488398478,0.083,,,,12.296436218
1715158336496093264,0.069,,,,12.304131004
1715158336503788050,0.069,,,,12.31182579
1715158336511482836,0.071,,,,12.319520576
1715158336519177622,0.074,,,,12.327215362
1715158336526872408,0.076,,,,12.334910148
1715158336534567194,0.064,,,,12.342604934
1715158336542261980,0.088,,,,12.35029972
1715158336549956784,0.455,,,,12.357994524
1715158336557651570,1.176,,,,12.36568931
1715158336565346356,1.159,,,,12.373384096
1715158336573041142,-0.369,,,,12.381078882
1715158336580735928,-1.744,,,,12.388773668
1715158336588430714,-1.31,,,,12.396468454
1715158336596125500,-0.333,,,,12.40416324
1715158336603820286,-0.076,,,,12.411858026
1715158336611515072,0.047,,,,12.419552812
1715158336619209858,0.249,,,,12.427247598
1715158336626904644,0.234,,,,12.434942384
1715158336634599430,0.201,,,,12.44263717
1715158336642294216,0.261,,,,12.450331956
1715158336649989002,0.268,,,,12.458026742
1715158336657683788,0.251,,,,12.465721528
1715158336665378574,0.27,,,,12.473416314
1715158336673073360,0.285,,,,12.4811111
1715158336680768146,0.278,,,,12.488805886
1715158336688462932,0.28,,,,12.496500672
1715158336696157718,0.285,,,,12.504195458
1715158336703852504,0.297,,,,12.511890244
1715158336711547290,0.323,,,,12.51958503
1715158336719242076,0.352,,,,12.527279816
1715158336726936862,0.381,,,,12.534974602
1715158336734631648,0.409,,,,12.542669388
1715158336742326434,0.424,,,,12.550364174
1715158336750021220,0.426,,,,12.55805896
1715158336757716006,0.424,,,,12.565753746
1715158336765410792,0.402,,,,12.573448532
1715158336773105578,0.361,,,,12.581143318
1715158336780800364,0.311,,,,12.588838104
1715158336788495150,0.242,,,,12.59653289
1715158336796189936,0.162,,,,12.604227676
1715158336803884722,0.103,,,,12.611922462
1715158336811579508,0.059,,,,12.619617248
1715158336819274294,0.023,,,,12.627312034
1715158336826969080,0.0,,,,12.63500682
1715158336834663866,0.0,,,,12.642701606
1715158336842358652,0.002,,,,12.650396392
1715158336850053438,0.002,,,,12.658091178
1715158336857748224,0.011,,,,12.665785964
1715158336865443010,0.021,,,,12.67348075
1715158336873137796,0.031,,,,12.681175536
1715158336880832582,0.038,,,,12.688870322
1715158336888527368,0.043,,,,12.696565108
1715158336896222154,0.052,,,,12.704259894
1715158336903916940,0.059,,,,12.71195468
1715158336911611726,0.064,,,,12.719649466
1715158336919306512,0.067,,,,12.727344252
1715158336927001298,0.067,,,,12.735039038
1715158336934696084,0.064,,,,12.742733824
1715158336942390870,0.064,,,,12.75042861
1715158336950085656,0.074,,,,12.758123396
1715158336957780442,0.076,,,,12.765818182
1715158336965475228,0.067,,,,12.773512968
1715158336973170014,0.055,,,,12.781207754
1715158336980864800,0.052,,,,12.78890254
1715158336988559586,0.062,,,,12.796597326
1715158336996254372,0.091,,,,12.804292112
1715158337003949158,0.119,,,,12.811986898
1715158337011643944,0.129,,,,12.819681684
1715158337019338730,0.107,,,,12.82737647
1715158337027033516,0.079,,,,12.835071256
1715158337034728302,0.074,,,,12.842766042
1715158337042423088,0.079,,,,12.850460828
1715158337050117874,0.083,,,,12.858155614
1715158337057812660,0.093,,,,12.8658504
1715158337065507446,0.093,,,,12.873545186
1715158337073202232,0.05,,,,12.881239972
1715158337080897018,0.103,,,,12.888934758
1715158337088591804,0.611,,,,12.896629544
1715158337096286590,1.32,,,,12.90432433
1715158337103981376,0.913,,,,12.912019116
1715158337111676178,-0.8140000000000001,111.0,565.0,,12.919713918
1715158337119370964,-1.735,,,,12.927408704
1715158337127065750,-0.963,,,,12.93510349
1715158337134760536,-0.208,,,,12.942798276
1715158337142455322,-0.071,,,,12.950493062
1715158337150150108,0.148,,,,12.958187848
1715158337157844894,0.321,,,,12.965882634
1715158337165539680,0.256,,,,12.97357742
1715158337173234466,0.256,,,,12.981272206
1715158337180929252,0.313,,,,12.988966992
1715158337188624038,0.289,,,,12.996661778
1715158337196318824,0.27,,,,13.004356564
1715158337204013610,0.294,,,,13.01205135
1715158337211708396,0.301,,,,13.019746136
1715158337219403182,0.299,,,,13.027440922
1715158337227097968,0.321,,,,13.035135708
1715158337234792754,0.347,,,,13.042830494
1715158337242487540,0.364,,,,13.05052528
1715158337250182326,0.383,,,,13.058220066
1715158337257877112,0.405,,,,13.065914852
1715158337265571898,0.421,,,,13.073609638
1715158337273266684,0.44,,,,13.081304424
1715158337280961470,0.452,,,,13.08899921
1715158337288656256,0.45,,,,13.096693996
1715158337296351042,0.44,,,,13.104388782
1715158337304045828,0.419,,,,13.112083568
1715158337311740614,0.378,,,,13.119778354
1715158337319435400,0.311,,,,13.12747314
1715158337327130186,0.23,,,,13.135167926
1715158337334824972,0.16,,,,13.142862712
1715158337342519758,0.107,,,,13.150557498
1715158337350214544,0.067,,,,13.158252284
1715158337357909330,0.035,,,,13.16594707
1715158337365604116,0.028,,,,13.173641856
1715158337373298902,0.033,,,,13.181336642
1715158337380993688,0.04,,,,13.189031428
1715158337388688474,0.045,,,,13.196726214
1715158337396383260,0.055,,,,13.204421
1715158337404078046,0.064,,,,13.212115786
1715158337411772832,0.079,,,,13.219810572
1715158337419467618,0.088,,,,13.227505358
1715158337427162404,0.093,,,,13.235200144
1715158337434857190,0.1,,,,13.24289493
1715158337442551976,0.105,,,,13.250589716
1715158337450246762,0.105,,,,13.258284502
1715158337457941548,0.105,,,,13.265979288
1715158337465636334,0.11,,,,13.273674074
1715158337473331120,0.115,,,,13.28136886
1715158337481025906,0.107,,,,13.289063646
1715158337488720692,0.1,,,,13.296758432
1715158337496415478,0.098,,,,13.304453218
1715158337504110264,0.083,,,,13.312148004
1715158337511805050,0.064,,,,13.31984279
1715158337519499836,0.059,,,,13.327537576
1715158337527194622,0.069,,,,13.335232362
1715158337534889408,0.086,,,,13.342927148
1715158337542584194,0.11,,,,13.350621934
1715158337550278980,0.134,,,,13.35831672
1715158337557973766,0.134,,,,13.366011506
1715158337565668552,0.107,,,,13.373706292
1715158337573363338,0.086,,,,13.381401078
1715158337581058124,0.083,,,,13.389095864
1715158337588752910,0.095,,,,13.39679065
1715158337596447696,0.105,,,,13.404485436
1715158337604142482,0.11,,,,13.412180222
1715158337611837268,0.095,,,,13.419875008
1715158337619532054,0.091,,,,13.427569794
1715158337627226840,0.414,,,,13.43526458
1715158337634921626,1.159,,,,13.442959366
1715158337642616412,1.26,,,,13.450654152
1715158337650311198,-0.194,,,,13.458348938
1715158337658005984,-1.639,,,,13.466043724
1715158337665700770,-1.318,,,,13.47373851
1715158337673395572,-0.385,,,,13.481433312
1715158337681090358,-0.107,,,,13.489128098
1715158337688785144,0.062,,,,13.496822884
1715158337696479930,0.289,,,,13.50451767
1715158337704174716,0.263,,,,13.512212456
1715158337711869502,0.21,,,,13.519907242
1715158337719564288,0.27,,,,13.527602028
1715158337727259074,0.282,,,,13.535296814
1715158337734953860,0.268,,,,13.5429916
1715158337742648646,0.289,,,,13.550686386
1715158337750343432,0.294,,,,13.558381172
1715158337758038218,0.287,,,,13.566075958
1715158337765733004,0.306,,,,13.573770744
1715158337773427790,0.333,,,,13.58146553
1715158337781122576,0.342,,,,13.589160316
1715158337788817362,0.359,,,,13.596855102
1715158337796512148,0.388,,,,13.604549888
1715158337804206934,0.409,,,,13.612244674
1715158337811901720,0.424,,,,13.61993946
1715158337819596506,0.438,,,,13.627634246
1715158337827291292,0.443,,,,13.635329032
1715158337834986078,0.436,,,,13.643023818
1715158337842680864,0.421,,,,13.650718604
1715158337850375650,0.397,,,,13.65841339
1715158337858070436,0.345,,,,13.666108176
1715158337865765222,0.266,,,,13.673802962
1715158337873460008,0.189,,,,13.681497748
1715158337881154794,0.131,,,,13.689192534
1715158337888849580,0.086,,,,13.69688732
1715158337896544366,0.05,,,,13.704582106
1715158337904239152,0.028,,,,13.712276892
1715158337911933938,0.031,,,,13.719971678
1715158337919628724,0.043,,,,13.727666464
1715158337927323510,0.047,,,,13.73536125
1715158337935018296,0.055,,,,13.743056036
1715158337942713082,0.067,,,,13.750750822
1715158337950407868,0.079,,,,13.758445608
1715158337958102654,0.086,,,,13.766140394
1715158337965797440,0.088,,,,13.77383518
1715158337973492226,0.098,,,,13.781529966
1715158337981187012,0.107,,,,13.789224752
1715158337988881798,0.11,,,,13.796919538
1715158337996576584,0.107,,,,13.804614324
1715158338004271370,0.103,,,,13.81230911
1715158338011966156,0.105,,,,13.820003896
1715158338019660942,0.1,,,,13.827698682
1715158338027355728,0.093,,,,13.835393468
1715158338035050514,0.095,,,,13.843088254
1715158338042745300,0.098,,,,13.85078304
1715158338050440086,0.091,,,,13.858477826
1715158338058134872,0.079,,,,13.866172612
1715158338065829658,0.074,,,,13.873867398
1715158338073524444,0.069,,,,13.881562184
1715158338081219230,0.062,,,,13.88925697
1715158338088914016,0.081,,,,13.896951756
1715158338096608802,0.129,,,,13.904646542
1715158338104303588,0.146,,,,13.912341328
1715158338111998374,0.122,,,,13.920036114
1715158338119693160,0.11,,,,13.9277309
1715158338127387946,0.122,,,,13.935425686
1715158338135082732,0.115,,,,13.943120472
1715158338142777518,0.098,,,,13.950815258
1715158338150472304,0.105,,,,13.958510044
1715158338158167090,0.117,,,,13.96620483
1715158338165861876,0.093,,,,13.973899616
1715158338173556662,0.086,,,,13.981594402
1715158338181251448,0.4,,,,13.989289188
1715158338188946234,1.136,,,,13.996983974
1715158338196641020,1.313,,,,14.00467876
1715158338204335806,-0.076,,,,14.012373546
1715158338212030592,-1.622,,,,14.020068332
1715158338219725378,-1.418,,,,14.027763118
1715158338227420164,-0.481,,,,14.035457904
1715158338235114966,-0.174,109.0,568.0,,14.043152706
1715158338242809821,0.002,,547.0,,14.050847561
1715158338250504676,0.266,,,,14.058542416
1715158338258199531,0.261,,,,14.066237271
1715158338265894386,0.198,,,,14.073932126
1715158338273589241,0.27,,,,14.081626981
1715158338281284096,0.301,,,,14.089321836
1715158338288978951,0.278,,,,14.097016691
1715158338296673806,0.285,,,,14.104711546
1715158338304368661,0.301,,,,14.112406401
1715158338312063516,0.301,,,,14.120101256
1715158338319758371,0.306,,,,14.127796111
1715158338327453226,0.328,,,,14.135490966
1715158338335148081,0.357,,,,14.143185821
1715158338342842936,0.381,,,,14.150880676
1715158338350537791,0.395,,,,14.158575531
1715158338358232646,0.414,,,,14.166270386
1715158338365927501,0.445,,,,14.173965241
1715158338373622356,0.46,,,,14.181660096
1715158338381317211,0.448,,,,14.189354951
1715158338389012066,0.431,,,,14.197049806
1715158338396706921,0.421,,,,14.204744661
1715158338404401776,0.4,,,,14.212439516
1715158338412096631,0.359,,,,14.220134371
1715158338419791486,0.301,,,,14.227829226
1715158338427486341,0.227,,,,14.235524081
1715158338435181196,0.155,,,,14.243218936
1715158338442876051,0.119,,,,14.250913791
1715158338450570906,0.112,,,,14.258608646
1715158338458265761,0.105,,,,14.266303501
1715158338465960616,0.103,,,,14.273998356
1715158338473655471,0.11,,,,14.281693211
1715158338481350326,0.148,,,,14.289388066
1715158338489045181,0.206,,,,14.297082921
1715158338496740036,0.218,,,,14.304777776
1715158338504434891,0.213,,,,14.312472631
1715158338512129746,0.258,,,,14.320167486
1715158338519824601,0.316,,,,14.327862341
1715158338527519456,0.328,,,,14.335557196
1715158338535214311,0.321,,,,14.343252051
1715158338542909166,0.316,,,,14.350946906
1715158338550604021,0.299,,,,14.358641761
1715158338558298876,0.268,,,,14.366336616
1715158338565993731,0.237,,,,14.374031471
1715158338573688586,0.227,,,,14.381726326
1715158338581383441,0.232,,,,14.389421181
1715158338589078296,0.215,,,,14.397116036
1715158338596773151,0.167,,,,14.404810891
1715158338604468006,0.136,,,,14.412505746
1715158338612162861,0.136,,,,14.420200601
1715158338619857716,0.119,,,,14.427895456
1715158338627552571,0.091,,,,14.435590311
1715158338635247426,0.083,,,,14.443285166
1715158338642942281,0.091,,,,14.450980021
1715158338650637136,0.11,,,,14.458674876
1715158338658331991,0.143,,,,14.466369731
1715158338666026846,0.162,,,,14.474064586
1715158338673721701,0.134,,,,14.481759441
1715158338681416556,0.095,,,,14.489454296
1715158338689111411,0.107,,,,14.497149151
1715158338696806266,0.146,,,,14.504844006
1715158338704501121,0.141,,,,14.512538861
1715158338712195976,0.103,,,,14.520233716
1715158338719890831,0.091,,,,14.527928571
1715158338727585686,0.11,,,,14.535623426
1715158338735280541,0.215,,,,14.543318281
1715158338742975396,0.661,,,,14.551013136
1715158338750670251,1.282,,,,14.558707991
1715158338758365106,0.8220000000000001,,,,14.566402846
1715158338766059961,-0.937,,,,14.574097701
1715158338773754816,-1.78,,,,14.581792556
1715158338781449671,-1.042,,,,14.589487411
1715158338789144526,-0.481,,,,14.597182266
1715158338796839448,-0.335,109.0,536.0,,14.604877188
1715158338804534582,0.035,,541.0,,14.612572322
1715158338812229716,0.254,,,,14.620267456
1715158338819924850,0.17,,,,14.62796259
1715158338827619984,0.162,,,,14.635657724
1715158338835315118,0.234,,,,14.643352858
1715158338843010252,0.234,,,,14.651047992
1715158338850705386,0.23,,,,14.658743126
1715158338858400520,0.258,,,,14.66643826
1715158338866095654,0.278,,,,14.674133394
1715158338873790788,0.304,,,,14.681828528
1715158338881485922,0.333,,,,14.689523662
1715158338889181056,0.347,,,,14.697218796
1715158338896876190,0.352,,,,14.70491393
1715158338904571324,0.376,,,,14.712609064
1715158338912266458,0.417,,,,14.720304198
1715158338919961592,0.438,,,,14.727999332
1715158338927656726,0.44,,,,14.735694466
1715158338935351860,0.436,,,,14.7433896
1715158338943046994,0.421,,,,14.751084734
1715158338950742128,0.414,,,,14.758779868
1715158338958437262,0.402,,,,14.766475002
1715158338966132396,0.352,,,,14.774170136
1715158338973827530,0.27,,,,14.78186527
1715158338981522664,0.184,,,,14.789560404
1715158338989217798,0.112,,,,14.797255538
1715158338996912932,0.05,,,,14.804950672
1715158339004608066,-0.002,,,,14.812645806
1715158339012303200,-0.038,,,,14.82034094
1715158339019998334,-0.05,,,,14.828036074
1715158339027693468,-0.05,,,,14.835731208
1715158339035388602,-0.055,,,,14.843426342
1715158339043083736,-0.055,,,,14.851121476
1715158339050778870,-0.045,,,,14.85881661
1715158339058474004,-0.045,,,,14.866511744
1715158339066169138,-0.043,,,,14.874206878
1715158339073864272,-0.038,,,,14.881902012
1715158339081559406,-0.028,,,,14.889597146
1715158339089254540,-0.019,,,,14.89729228
1715158339096949674,-0.016,,,,14.904987414
1715158339104644808,-0.014,,,,14.912682548
1715158339112339942,0.004,,,,14.920377682
1715158339120035076,0.021,,,,14.928072816
1715158339127730210,0.019,,,,14.93576795
1715158339135425344,0.019,,,,14.943463084
1715158339143120478,0.026,,,,14.951158218
1715158339150815612,0.031,,,,14.958853352
1715158339158510746,0.021,,,,14.966548486
1715158339166205880,0.002,,,,14.97424362
1715158339173901014,-0.004,,,,14.981938754
1715158339181596148,-0.002,,,,14.989633888
1715158339189291282,-0.002,,,,14.997329022
1715158339196986416,0.004,,,,15.005024156
1715158339204681550,0.028,,,,15.01271929
1715158339212376684,0.031,,,,15.020414424
1715158339220071818,-0.011,,,,15.028109558
1715158339227766952,-0.069,,,,15.035804692
1715158339235462086,-0.115,,,,15.043499826
1715158339243157220,-0.162,,,,15.05119496
1715158339250852354,-0.23,,,,15.058890094
1715158339258547488,-0.263,,,,15.066585228
1715158339266242622,-0.266,,,,15.074280362
1715158339273937756,-0.309,,,,15.081975496
1715158339281632890,-0.321,,,,15.08967063
1715158339289328024,0.047,,,,15.097365764
1715158339297023158,0.728,,,,15.105060898
1715158339304718292,0.553,,,,15.112756032
1715158339312413426,-1.083,,,,15.120451166
1715158339320108560,-2.348,,,,15.1281463
1715158339327803694,-1.838,,,,15.135841434
1715158339335498828,-1.006,,,,15.143536568
1715158339343193962,-0.838,,,,15.151231702
1715158339350889096,-0.666,,,,15.158926836
1715158339358584272,-0.467,,,,15.166622012
1715158339366279058,-0.512,,,,15.174316798
1715158339373973844,-0.529,,,,15.182011584
1715158339381668630,-0.438,,,,15.18970637
1715158339389363416,-0.414,,,,15.197401156
1715158339397058202,-0.419,,,,15.205095942
1715158339404752988,-0.388,,,,15.212790728
1715158339412447774,-0.357,,,,15.220485514
1715158339420142560,-0.34,,,,15.2281803
1715158339427837346,-0.311,,,,15.235875086
1715158339435532132,-0.27,,,,15.243569872
1715158339443226918,-0.23,,,,15.251264658
1715158339450921704,-0.196,,,,15.258959444
1715158339458616490,-0.167,,,,15.26665423
1715158339466311276,-0.136,,,,15.274349016
1715158339474006062,-0.107,,,,15.282043802
1715158339481700848,-0.095,,,,15.289738588
1715158339489395634,-0.098,,,,15.297433374
1715158339497090420,-0.107,,,,15.30512816
1715158339504785206,-0.124,,,,15.312822946
1715158339512479992,-0.153,,,,15.320517732
1715158339520174778,-0.203,,,,15.328212518
1715158339527869564,-0.263,,,,15.335907304
1715158339535564350,-0.318,,,,15.34360209
1715158339543259136,-0.364,,,,15.351296876
1715158339550953922,-0.397,,,,15.358991662
1715158339558648708,-0.417,,,,15.366686448
1715158339566343494,-0.419,,,,15.374381234
1715158339574038280,-0.409,,,,15.38207602
1715158339581733066,-0.385,,,,15.389770806
1715158339589427852,-0.349,,,,15.397465592
1715158339597122638,-0.313,,,,15.405160378
1715158339604817424,-0.287,,,,15.412855164
1715158339612512210,-0.268,,,,15.42054995
1715158339620206996,-0.251,,,,15.428244736
1715158339627901782,-0.227,,,,15.435939522
1715158339635596568,-0.201,,,,15.443634308
1715158339643291354,-0.182,,,,15.451329094
1715158339650986140,-0.162,,,,15.45902388
1715158339658680926,-0.146,,,,15.466718666
1715158339666375712,-0.127,,,,15.474413452
1715158339674070498,-0.107,,,,15.482108238
1715158339681765284,-0.088,,,,15.489803024
1715158339689460070,-0.081,,,,15.49749781
1715158339697154856,-0.091,,,,15.505192596
1715158339704849642,-0.091,,,,15.512887382
1715158339712544428,-0.095,,,,15.520582168
1715158339720239214,-0.124,,,,15.528276954
1715158339727934000,-0.134,,,,15.53597174
1715158339735628786,-0.117,,,,15.543666526
1715158339743323572,-0.093,,,,15.551361312
1715158339751018358,-0.057,,,,15.559056098
1715158339758713144,-0.038,,,,15.566750884
1715158339766407930,-0.05,,,,15.57444567
1715158339774102716,-0.071,,,,15.582140456
1715158339781797502,-0.088,,,,15.589835242
1715158339789492288,-0.095,,,,15.597530028
1715158339797187074,-0.098,,,,15.605224814
1715158339804881860,-0.081,,,,15.6129196
1715158339812576646,-0.045,,,,15.620614386
1715158339820271432,-0.035,,,,15.628309172
1715158339827966218,-0.062,,,,15.636003958
1715158339835661004,0.11,,,,15.643698744
1715158339843355790,0.764,,,,15.65139353
1715158339851050576,1.291,,,,15.659088316
1715158339858745362,0.378,,,,15.666783102
1715158339866440148,-1.342,,,,15.674477888
1715158339874134934,-1.663,,,,15.682172674
1715158339881829720,-0.812,,,,15.68986746
1715158339889524506,-0.395,,,,15.697562246
1715158339897219292,-0.261,,,,15.705257032
1715158339904914078,0.009,,,,15.712951818
1715158339912608864,0.074,,,,15.720646604
1715158339920303668,0.004,110.0,555.0,,15.728341408
1715158339927998454,0.055,,559.0,,15.736036194
1715158339935693240,0.098,,,,15.74373098
1715158339943388026,0.079,,,,15.751425766
1715158339951082812,0.095,,,,15.759120552
1715158339958777598,0.127,,,,15.766815338
1715158339966472384,0.131,,,,15.774510124
1715158339974167170,0.136,,,,15.78220491
1715158339981861956,0.155,,,,15.789899696
1715158339989556742,0.179,,,,15.797594482
1715158339997251528,0.203,,,,15.805289268
1715158340004946314,0.222,,,,15.812984054
1715158340012641100,0.246,,,,15.82067884
1715158340020335886,0.275,,,,15.828373626
1715158340028030672,0.287,,,,15.836068412
1715158340035725458,0.282,,,,15.843763198
1715158340043420244,0.278,,,,15.851457984
1715158340051115030,0.268,,,,15.85915277
1715158340058809816,0.234,,,,15.866847556
1715158340066504602,0.186,,,,15.874542342
1715158340074199388,0.129,,,,15.882237128
1715158340081894174,0.059,,,,15.889931914
1715158340089588960,-0.002,,,,15.8976267
1715158340097283746,-0.045,,,,15.905321486
1715158340104978532,-0.074,,,,15.913016272
1715158340112673318,-0.1,,,,15.920711058
1715158340120368104,-0.119,,,,15.928405844
1715158340128062890,-0.117,,,,15.93610063
1715158340135757676,-0.107,,,,15.943795416
1715158340143452462,-0.11,,,,15.951490202
1715158340151147248,-0.098,,,,15.959184988
1715158340158842034,-0.076,,,,15.966879774
1715158340166536820,-0.064,,,,15.97457456
1715158340174231606,-0.052,,,,15.982269346
1715158340181926392,-0.04,,,,15.989964132
1715158340189621178,-0.038,,,,15.997658918
1715158340197315964,-0.038,,,,16.005353704
1715158340205010750,-0.028,,,,16.01304849
1715158340212705536,-0.033,,,,16.020743276
1715158340220400322,-0.057,,,,16.028438062
1715158340228095108,-0.064,,,,16.036132848
1715158340235789894,-0.055,,,,16.043827634
1715158340243484680,-0.055,,,,16.05152242
1715158340251179466,-0.057,,,,16.059217206
1715158340258874252,-0.059,,,,16.066911992
1715158340266569038,-0.067,,,,16.074606778
1715158340274263824,-0.071,,,,16.082301564
1715158340281958610,-0.071,,,,16.08999635
1715158340289653396,-0.059,,,,16.097691136
1715158340297348182,-0.043,,,,16.105385922
1715158340305042968,-0.016,,,,16.113080708
1715158340312737754,0.011,,,,16.120775494
1715158340320432540,0.007,,,,16.12847028
1715158340328127326,-0.023,,,,16.136165066
1715158340335822112,-0.043,,,,16.143859852
1715158340343516898,-0.045,,,,16.151554638
1715158340351211684,-0.028,,,,16.159249424
1715158340358906470,-0.019,,,,16.16694421
1715158340366601256,-0.023,,,,16.174638996
1715158340374296042,-0.05,,,,16.182333782
1715158340381990828,-0.028,,,,16.190028568
1715158340389685614,0.359,,,,16.197723354
1715158340397380400,1.145,,,,16.20541814
1715158340405075186,1.21,,,,16.213112926
1715158340412769972,-0.273,,,,16.220807712
1715158340420464758,-1.622,,,,16.228502498
1715158340428159544,-1.263,,,,16.236197284
1715158340435854330,-0.488,,,,16.24389207
1715158340443549116,-0.299,,,,16.251586856
1715158340451243902,-0.088,,,,16.259281642
1715158340458938688,0.146,,,,16.266976428
1715158340466633474,0.117,,,,16.274671214
1715158340474328260,0.093,,,,16.282366
1715158340482023062,0.167,,,,16.290060802
1715158340489717848,0.17,,,,16.297755588
1715158340497412634,0.153,,,,16.305450374
1715158340505107420,0.186,,,,16.31314516
1715158340512802206,0.206,,,,16.320839946
1715158340520496992,0.201,,,,16.328534732
1715158340528191778,0.21,,,,16.336229518
1715158340535886564,0.227,,,,16.343924304
1715158340543581350,0.237,,,,16.35161909
1715158340551276136,0.258,,,,16.359313876
1715158340558970922,0.292,,,,16.367008662
1715158340566665708,0.321,,,,16.374703448
1715158340574360494,0.335,,,,16.382398234
1715158340582055280,0.345,,,,16.39009302
1715158340589750066,0.34,,,,16.397787806
1715158340597444852,0.318,,,,16.405482592
1715158340605139638,0.301,,,,16.413177378
1715158340612834424,0.282,,,,16.420872164
1715158340620529210,0.234,,,,16.42856695
1715158340628223996,0.16,,,,16.436261736
1715158340635918782,0.086,,,,16.443956522
1715158340643613568,0.035,,,,16.451651308
1715158340651308354,-0.002,,,,16.459346094
1715158340659003140,-0.035,,,,16.46704088
1715158340666697926,-0.057,,,,16.474735666
1715158340674392712,-0.064,,,,16.482430452
1715158340682087498,-0.064,,,,16.490125238
1715158340689782284,-0.055,,,,16.497820024
1715158340697477070,-0.047,,,,16.50551481
1715158340705171856,-0.043,,,,16.513209596
1715158340712866642,-0.035,,,,16.520904382
1715158340720561428,-0.035,,,,16.528599168
1715158340728256214,-0.035,,,,16.536293954
1715158340735951000,-0.021,,,,16.54398874
1715158340743645786,-0.011,,,,16.551683526
1715158340751340572,-0.007,,,,16.559378312
1715158340759035358,0.0,,,,16.567073098
1715158340766730144,0.0,,,,16.574767884
1715158340774424930,-0.002,,,,16.58246267
1715158340782119716,0.0,,,,16.590157456
1715158340789814502,0.002,,,,16.597852242
1715158340797509288,0.002,,,,16.605547028
1715158340805204074,-0.002,,,,16.613241814
1715158340812898860,-0.009,,,,16.6209366
1715158340820593646,-0.009,,,,16.628631386
1715158340828288432,-0.011,,,,16.636326172
1715158340835983218,-0.026,,,,16.644020958
1715158340843678004,-0.033,,,,16.651715744
1715158340851372790,-0.016,,,,16.65941053
1715158340859067576,0.014,,,,16.667105316
1715158340866762362,0.04,,,,16.674800102
1715158340874457148,0.05,,,,16.682494888
1715158340882151934,0.043,,,,16.690189674
1715158340889846720,0.021,,,,16.69788446
1715158340897541506,0.004,,,,16.705579246
1715158340905236292,0.002,,,,16.713274032
1715158340912931078,0.011,,,,16.720968818
1715158340920625864,0.019,,,,16.728663604
1715158340928320650,0.021,,,,16.73635839
1715158340936015436,0.0,,,,16.744053176
1715158340943710222,0.052,,,,16.751747962
1715158340951405008,0.534,,,,16.759442748
1715158340959099794,1.32,,,,16.767137534
1715158340966794580,1.133,,,,16.77483232
1715158340974489366,-0.508,,,,16.782527106
1715158340982184152,-1.603,,,,16.790221892
1715158340989878938,-1.059,,,,16.797916678
1715158340997573724,-0.414,,,,16.805611464
1715158341005268510,-0.27,,,,16.81330625
1715158341012963296,-0.011,,,,16.821001036
1715158341020658082,0.189,,,,16.828695822
1715158341028352868,0.136,,,,16.836390608
1715158341036047654,0.131,,,,16.844085394
1715158341043742456,0.198,109.0,548.0,,16.851780196
1715158341051437242,0.191,,551.0,,16.859474982
1715158341059132028,0.177,,,,16.867169768
1715158341066826814,0.213,,,,16.874864554
1715158341074521600,0.237,,,,16.88255934
1715158341082216386,0.21,,,,16.890254126
1715158341089911172,0.196,,,,16.897948912
1715158341097605958,0.23,,,,16.905643698
1715158341105300744,0.261,,,,16.913338484
1715158341112995530,0.273,,,,16.92103327
1715158341120690316,0.299,,,,16.928728056
1715158341128385102,0.337,,,,16.936422842
1715158341136079888,0.354,,,,16.944117628
1715158341143774674,0.354,,,,16.951812414
1715158341151469460,0.357,,,,16.9595072
1715158341159164246,0.349,,,,16.967201986
1715158341166859032,0.328,,,,16.974896772
1715158341174553818,0.292,,,,16.982591558
1715158341182248604,0.239,,,,16.990286344
1715158341189943390,0.174,,,,16.99798113
1715158341197638176,0.107,,,,17.005675916
1715158341205332962,0.052,,,,17.013370702
1715158341213027748,0.014,,,,17.021065488
1715158341220722534,-0.023,,,,17.028760274
1715158341228417320,-0.055,,,,17.03645506
1715158341236112106,-0.062,,,,17.044149846
1715158341243806892,-0.052,,,,17.051844632
1715158341251501678,-0.043,,,,17.059539418
1715158341259196464,-0.038,,,,17.067234204
1715158341266891250,-0.031,,,,17.07492899
1715158341274586036,-0.016,,,,17.082623776
1715158341282280822,-0.002,,,,17.090318562
1715158341289975608,0.009,,,,17.098013348
1715158341297670394,0.019,,,,17.105708134
1715158341305365180,0.031,,,,17.11340292
1715158341313059966,0.04,,,,17.121097706
1715158341320754752,0.038,,,,17.128792492
1715158341328449538,0.038,,,,17.136487278
1715158341336144324,0.045,,,,17.144182064
1715158341343839110,0.05,,,,17.15187685
1715158341351533896,0.043,,,,17.159571636
1715158341359228682,0.035,,,,17.167266422
1715158341366923468,0.035,,,,17.174961208
1715158341374618254,0.043,,,,17.182655994
1715158341382313040,0.043,,,,17.19035078
1715158341390007826,0.043,,,,17.198045566
1715158341397702612,0.04,,,,17.205740352
1715158341405397398,0.031,,,,17.213435138
1715158341413092184,0.016,,,,17.221129924
1715158341420786970,0.014,,,,17.22882471
1715158341428481756,0.033,,,,17.236519496
1715158341436176542,0.064,,,,17.244214282
1715158341443871328,0.091,,,,17.251909068
1715158341451566114,0.098,,,,17.259603854
1715158341459260900,0.079,,,,17.26729864
1715158341466955686,0.052,,,,17.274993426
1715158341474650472,0.043,,,,17.282688212
1715158341482345258,0.045,,,,17.290382998
1715158341490040044,0.055,,,,17.298077784
1715158341497734830,0.059,,,,17.30577257
1715158341505429616,0.062,,,,17.313467356
1715158341513124402,0.045,,,,17.321162142
1715158341520819188,0.124,,,,17.328856928
1715158341528513974,0.661,,,,17.336551714
1715158341536208760,1.449,,,,17.3442465
1715158341543903546,1.128,,,,17.351941286
1715158341551598332,-0.599,,,,17.359636072
1715158341559293118,-1.584,,,,17.367330858
1715158341566987904,-0.956,,,,17.375025644
1715158341574682690,-0.333,,,,17.38272043
1715158341582377476,-0.21,,,,17.390415216
1715158341590072262,0.035,,,,17.398110002
1715158341597767048,0.215,,,,17.405804788
1715158341605461850,0.158,,,,17.41349959
1715158341613156705,0.16,,,,17.421194445
1715158341620851560,0.227,,,,17.4288893
1715158341628546415,0.222,,,,17.436584155
1715158341636241270,0.21,,,,17.44427901
1715158341643936125,0.225,,,,17.451973865
1715158341651630980,0.227,,,,17.45966872
1715158341659325835,0.225,,,,17.467363575
1715158341667020690,0.242,,,,17.47505843
1715158341674715545,0.258,,,,17.482753285
1715158341682410400,0.268,,,,17.49044814
1715158341690105255,0.287,,,,17.498142995
1715158341697800110,0.311,,,,17.50583785
1715158341705494965,0.342,,,,17.513532705
1715158341713189820,0.371,,,,17.52122756
1715158341720884675,0.383,,,,17.528922415
1715158341728579530,0.373,,,,17.53661727
1715158341736274385,0.345,,,,17.544312125
1715158341743969240,0.316,,,,17.55200698
1715158341751664095,0.292,,,,17.559701835
1715158341759358950,0.242,,,,17.56739669
1715158341767053805,0.162,,,,17.575091545
1715158341774748660,0.093,,,,17.5827864
1715158341782443515,0.052,,,,17.590481255
1715158341790138370,0.014,,,,17.59817611
1715158341797833225,-0.019,,,,17.605870965
1715158341805528080,-0.026,,,,17.61356582
1715158341813222935,-0.021,,,,17.621260675
1715158341820917790,-0.031,,,,17.62895553
1715158341828612645,-0.031,,,,17.636650385
1715158341836307500,-0.014,,,,17.64434524
1715158341844002355,0.0,,,,17.652040095
1715158341851697210,0.007,,,,17.65973495
1715158341859392065,0.014,,,,17.667429805
1715158341867086920,0.031,,,,17.67512466
1715158341874781775,0.052,,,,17.682819515
1715158341882476630,0.062,,,,17.69051437
1715158341890171485,0.064,,,,17.698209225
1715158341897866340,0.074,,,,17.70590408
1715158341905561195,0.083,,,,17.713598935
1715158341913256050,0.081,,,,17.72129379
1715158341920950905,0.071,,,,17.728988645
1715158341928645760,0.067,,,,17.7366835
1715158341936340615,0.067,,,,17.744378355
1715158341944035470,0.062,,,,17.75207321
1715158341951730325,0.055,,,,17.759768065
1715158341959425180,0.057,,,,17.76746292
1715158341967120035,0.064,,,,17.775157775
1715158341974814890,0.064,,,,17.78285263
1715158341982509745,0.05,,,,17.790547485
1715158341990204600,0.04,,,,17.79824234
1715158341997899455,0.045,,,,17.805937195
1715158342005594310,0.05,,,,17.81363205
1715158342013289165,0.05,,,,17.821326905
1715158342020984020,0.074,,,,17.82902176
1715158342028678875,0.11,,,,17.836716615
1715158342036373730,0.098,,,,17.84441147
1715158342044068585,0.067,,,,17.852106325
1715158342051763440,0.055,,,,17.85980118
1715158342059458295,0.038,,,,17.867496035
1715158342067153150,0.023,,,,17.87519089
1715158342074848005,0.033,,,,17.882885745
1715158342082542860,0.047,,,,17.8905806
1715158342090237715,0.04,,,,17.898275455
1715158342097932570,0.019,,,,17.90597031
1715158342105627425,0.186,,,,17.913665165
1715158342113322280,0.846,,,,17.92136002
1715158342121017135,1.473,,,,17.929054875
1715158342128711990,0.687,,,,17.93674973
1715158342136406845,-1.112,,,,17.944444585
1715158342144101700,-1.615,,,,17.95213944
1715158342151796555,-0.8,,,,17.959834295
1715158342159491410,-0.347,,,,17.96752915
1715158342167186332,-0.208,109.0,551.0,,17.975224072
1715158342174881466,0.091,,,,17.982919206
1715158342182576600,0.191,,,,17.99061434
1715158342190271734,0.112,,,,17.998309474
1715158342197966868,0.139,,,,18.006004608
1715158342205662002,0.189,,,,18.013699742
1715158342213357136,0.17,,,,18.021394876
1715158342221052270,0.167,,,,18.02909001
1715158342228747404,0.182,,,,18.036785144
1715158342236442538,0.17,,,,18.044480278
1715158342244137672,0.16,,,,18.052175412
1715158342251832806,0.174,,,,18.059870546
1715158342259527940,0.189,,,,18.06756568
1715158342267223074,0.215,,,,18.075260814
1715158342274918208,0.261,,,,18.082955948
1715158342282613342,0.301,,,,18.090651082
1715158342290308476,0.328,,,,18.098346216
1715158342298003610,0.352,,,,18.10604135
1715158342305698744,0.369,,,,18.113736484
1715158342313393878,0.354,,,,18.121431618
1715158342321089012,0.325,,,,18.129126752
1715158342328784146,0.299,,,,18.136821886
1715158342336479280,0.254,,,,18.14451702
1715158342344174414,0.182,,,,18.152212154
1715158342351869548,0.103,,,,18.159907288
1715158342359564682,0.033,,,,18.167602422
1715158342367259816,-0.007,,,,18.175297556
1715158342374954950,-0.043,,,,18.18299269
1715158342382650084,-0.074,,,,18.190687824
1715158342390345218,-0.074,,,,18.198382958
1715158342398040352,-0.069,,,,18.206078092
1715158342405735486,-0.086,,,,18.213773226
1715158342413430620,-0.093,,,,18.22146836
1715158342421125754,-0.067,,,,18.229163494
1715158342428820888,-0.05,,,,18.236858628
1715158342436516022,-0.067,,,,18.244553762
1715158342444211156,-0.067,,,,18.252248896
1715158342451906290,-0.043,,,,18.25994403
1715158342459601424,-0.028,,,,18.267639164
1715158342467296558,-0.026,,,,18.275334298
1715158342474991692,-0.026,,,,18.283029432
1715158342482686826,-0.023,,,,18.290724566
1715158342490381960,-0.011,,,,18.2984197
1715158342498077094,-0.009,,,,18.306114834
1715158342505772228,-0.026,,,,18.313809968
1715158342513467362,-0.031,,,,18.321505102
1715158342521162496,-0.014,,,,18.329200236
1715158342528857630,0.002,,,,18.33689537
1715158342536552764,-0.007,,,,18.344590504
1715158342544247898,-0.023,,,,18.352285638
1715158342551943032,-0.023,,,,18.359980772
1715158342559638166,-0.021,,,,18.367675906
1715158342567333300,-0.031,,,,18.37537104
1715158342575028434,-0.055,,,,18.383066174
1715158342582723568,-0.071,,,,18.390761308
1715158342590418702,-0.057,,,,18.398456442
1715158342598113836,-0.023,,,,18.406151576
1715158342605808970,-0.007,,,,18.41384671
1715158342613504104,0.0,,,,18.421541844
1715158342621199238,0.002,,,,18.429236978
1715158342628894372,-0.014,,,,18.436932112
1715158342636589506,-0.05,,,,18.444627246
1715158342644284640,-0.059,,,,18.45232238
1715158342651979774,-0.05,,,,18.460017514
1715158342659674908,-0.05,,,,18.467712648
1715158342667370042,-0.045,,,,18.475407782
1715158342675065176,-0.047,,,,18.483102916
1715158342682760310,-0.05,,,,18.49079805
1715158342690455444,0.186,,,,18.498493184
1715158342698150578,0.889,,,,18.506188318
1715158342705845712,1.313,,,,18.513883452
1715158342713540846,0.186,,,,18.521578586
1715158342721235980,-1.543,,,,18.52927372
1715158342728931156,-1.68,109.0,561.0,,18.536968896
1715158342736625942,-0.85,,576.0,,18.544663682
1715158342744320728,-0.532,,,,18.552358468
1715158342752015514,-0.335,,,,18.560053254
1715158342759710300,-0.016,,,,18.56774804
1715158342767405086,0.035,,,,18.575442826
1715158342775099872,-0.021,,,,18.583137612
1715158342782794658,0.035,,,,18.590832398
1715158342790489444,0.069,,,,18.598527184
1715158342798184230,0.04,,,,18.60622197
1715158342805879016,0.055,,,,18.613916756
1715158342813573802,0.083,,,,18.621611542
1715158342821268588,0.091,,,,18.629306328
1715158342828963374,0.105,,,,18.637001114
1715158342836658160,0.136,,,,18.6446959
1715158342844352946,0.158,,,,18.652390686
1715158342852047732,0.182,,,,18.660085472
1715158342859742518,0.22,,,,18.667780258
1715158342867437304,0.268,,,,18.675475044
1715158342875132090,0.306,,,,18.68316983
1715158342882826876,0.325,,,,18.690864616
1715158342890521662,0.335,,,,18.698559402
1715158342898216448,0.333,,,,18.706254188
1715158342905911234,0.306,,,,18.713948974
1715158342913606020,0.261,,,,18.72164376
1715158342921300806,0.201,,,,18.729338546
1715158342928995592,0.117,,,,18.737033332
1715158342936690378,0.031,,,,18.744728118
1715158342944385164,-0.028,,,,18.752422904
1715158342952079950,-0.064,,,,18.76011769
1715158342959774736,-0.083,,,,18.767812476
1715158342967469522,-0.098,,,,18.775507262
1715158342975164308,-0.1,,,,18.783202048
1715158342982859094,-0.103,,,,18.790896834
1715158342990553880,-0.1,,,,18.79859162
1715158342998248666,-0.088,,,,18.806286406
1715158343005943452,-0.071,,,,18.813981192
1715158343013638238,-0.057,,,,18.821675978
1715158343021333024,-0.047,,,,18.829370764
1715158343029027810,-0.033,,,,18.83706555
1715158343036722596,-0.016,,,,18.844760336
1715158343044417382,-0.002,,,,18.852455122
1715158343052112168,0.011,,,,18.860149908
1715158343059806954,0.021,,,,18.867844694
1715158343067501740,0.026,,,,18.87553948
1715158343075196526,0.031,,,,18.883234266
1715158343082891312,0.038,,,,18.890929052
1715158343090586098,0.04,,,,18.898623838
1715158343098280884,0.04,,,,18.906318624
1715158343105975670,0.04,,,,18.91401341
1715158343113670456,0.038,,,,18.921708196
1715158343121365242,0.028,,,,18.929402982
1715158343129060028,0.028,,,,18.937097768
1715158343136754814,0.033,,,,18.944792554
1715158343144449600,0.031,,,,18.95248734
1715158343152144386,0.028,,,,18.960182126
1715158343159839172,0.019,,,,18.967876912
1715158343167533958,0.002,,,,18.975571698
1715158343175228744,-0.009,,,,18.983266484
1715158343182923530,-0.002,,,,18.99096127
1715158343190618316,0.023,,,,18.998656056
1715158343198313102,0.055,,,,19.006350842
1715158343206007888,0.069,,,,19.014045628
1715158343213702674,0.064,,,,19.021740414
1715158343221397460,0.052,,,,19.0294352
1715158343229092246,0.043,,,,19.037129986
1715158343236787032,0.023,,,,19.044824772
1715158343244481818,0.014,,,,19.052519558
1715158343252176604,0.026,,,,19.060214344
1715158343259871390,0.04,,,,19.06790913
1715158343267566176,0.04,,,,19.075603916
1715158343275260962,0.057,,,,19.083298702
1715158343282955748,0.282,,,,19.090993488
1715158343290650552,0.932,,,,19.098688292
1715158343298345338,1.404,,,,19.106383078
1715158343306040124,0.467,,,,19.114077864
1715158343313734910,-1.284,,,,19.12177265
1715158343321429696,-1.644,,,,19.129467436
1715158343329124482,-0.754,,,,19.137162222
1715158343336819268,-0.28,,,,19.144857008
1715158343344514054,-0.162,,,,19.152551794
1715158343352208840,0.088,,,,19.16024658
1715158343359903626,0.158,,,,19.167941366
1715158343367598412,0.079,,,,19.175636152
1715158343375293198,0.129,,,,19.183330938
1715158343382987984,0.186,,,,19.191025724
1715158343390682770,0.155,,,,19.19872051
1715158343398377556,0.153,,,,19.206415296
1715158343406072342,0.182,,,,19.214110082
1715158343413767128,0.182,,,,19.221804868
1715158343421461914,0.177,,,,19.229499654
1715158343429156700,0.201,,,,19.23719444
1715158343436851486,0.222,,,,19.244889226
1715158343444546272,0.242,,,,19.252584012
1715158343452241058,0.27,,,,19.260278798
1715158343459935844,0.306,,,,19.267973584
1715158343467630630,0.345,,,,19.27566837
1715158343475325416,0.373,,,,19.283363156
1715158343483020202,0.381,,,,19.291057942
1715158343490714988,0.376,,,,19.298752728
1715158343498409774,0.364,,,,19.306447514
1715158343506104560,0.333,,,,19.3141423
1715158343513799346,0.282,,,,19.321837086
1715158343521494132,0.215,,,,19.329531872
1715158343529188918,0.143,,,,19.337226658
1715158343536883704,0.074,,,,19.344921444
1715158343544578490,0.026,,,,19.35261623
1715158343552273276,0.0,,,,19.360311016
1715158343559968062,-0.014,,,,19.368005802
1715158343567662848,-0.021,,,,19.375700588
1715158343575357634,-0.023,,,,19.383395374
1715158343583052420,-0.023,,,,19.39109016
1715158343590747206,-0.014,,,,19.398784946
1715158343598441992,-0.002,,,,19.406479732
1715158343606136778,0.004,,,,19.414174518
1715158343613831564,0.014,,,,19.421869304
1715158343621526350,0.021,,,,19.42956409
1715158343629221136,0.028,,,,19.437258876
1715158343636915922,0.033,,,,19.444953662
1715158343644610708,0.04,,,,19.452648448
1715158343652305494,0.047,,,,19.460343234
1715158343660000280,0.045,,,,19.46803802
1715158343667695066,0.045,,,,19.475732806
1715158343675389852,0.052,,,,19.483427592
1715158343683084638,0.052,,,,19.491122378
1715158343690779424,0.05,,,,19.498817164
1715158343698474210,0.05,,,,19.50651195
1715158343706168996,0.052,,,,19.514206736
1715158343713863782,0.052,,,,19.521901522
1715158343721558568,0.047,,,,19.529596308
1715158343729253354,0.05,,,,19.537291094
1715158343736948140,0.05,,,,19.54498588
1715158343744642926,0.043,,,,19.552680666
1715158343752337712,0.033,,,,19.560375452
1715158343760032498,0.035,,,,19.568070238
1715158343767727284,0.04,,,,19.575765024
1715158343775422070,0.04,,,,19.58345981
1715158343783116856,0.031,,,,19.591154596
1715158343790811642,0.023,,,,19.598849382
1715158343798506428,0.026,,,,19.606544168
1715158343806201214,0.035,,,,19.614238954
1715158343813896000,0.057,,,,19.62193374
1715158343821590786,0.088,,,,19.629628526
1715158343829285572,0.107,,,,19.637323312
1715158343836980358,0.095,,,,19.645018098
1715158343844675144,0.071,,,,19.652712884
1715158343852369946,0.059,107.0,582.0,,19.660407686
1715158343860064732,0.052,,583.0,,19.668102472
1715158343867759518,0.05,,,,19.675797258
1715158343875454304,0.057,,,,19.683492044
1715158343883149090,0.064,,,,19.69118683
1715158343890843876,0.059,,,,19.698881616
1715158343898538662,0.093,,,,19.706576402
1715158343906233448,0.426,,,,19.714271188
1715158343913928234,1.157,,,,19.721965974
1715158343921623020,1.358,,,,19.72966076
1715158343929317806,0.002,,,,19.737355546
1715158343937012592,-1.567,,,,19.745050332
1715158343944707378,-1.399,,,,19.752745118
1715158343952402164,-0.476,,,,19.760439904
1715158343960096950,-0.206,,,,19.76813469
1715158343967791736,-0.086,,,,19.775829476
1715158343975486522,0.148,,,,19.783524262
1715158343983181308,0.155,,,,19.791219048
1715158343990876094,0.107,,,,19.798913834
1715158343998570880,0.172,,,,19.80660862
1715158344006265666,0.201,,,,19.814303406
1715158344013960452,0.182,,,,19.821998192
1715158344021655238,0.194,,,,19.829692978
1715158344029350024,0.215,,,,19.837387764
1715158344037044810,0.218,,,,19.84508255
1715158344044739596,0.225,,,,19.852777336
1715158344052434382,0.244,,,,19.860472122
1715158344060129168,0.266,,,,19.868166908
1715158344067823954,0.289,,,,19.875861694
1715158344075518740,0.318,,,,19.88355648
1715158344083213526,0.349,,,,19.891251266
1715158344090908312,0.378,,,,19.898946052
1715158344098603098,0.397,,,,19.906640838
1715158344106297884,0.405,,,,19.914335624
1715158344113992670,0.395,,,,19.92203041
1715158344121687456,0.378,,,,19.929725196
1715158344129382242,0.349,,,,19.937419982
1715158344137077028,0.299,,,,19.945114768
1715158344144771814,0.227,,,,19.952809554
1715158344152466600,0.155,,,,19.96050434
1715158344160161386,0.093,,,,19.968199126
1715158344167856172,0.052,,,,19.975893912
1715158344175550958,0.021,,,,19.983588698
1715158344183245744,0.002,,,,19.991283484
1715158344190940530,-0.002,,,,19.99897827
1715158344198635316,-0.004,,,,20.006673056
1715158344206330102,-0.004,,,,20.014367842
1715158344214024888,0.007,,,,20.022062628
1715158344221719674,0.016,,,,20.029757414
1715158344229414460,0.019,,,,20.0374522
1715158344237109246,0.023,,,,20.045146986
1715158344244804032,0.028,,,,20.052841772
1715158344252498818,0.028,,,,20.060536558
1715158344260193604,0.031,,,,20.068231344
1715158344267888390,0.038,,,,20.07592613
1715158344275583176,0.043,,,,20.083620916
1715158344283277962,0.045,,,,20.091315702
1715158344290972748,0.052,,,,20.099010488
1715158344298667534,0.055,,,,20.106705274
1715158344306362320,0.057,,,,20.11440006
1715158344314057106,0.055,,,,20.122094846
1715158344321751892,0.05,,,,20.129789632
1715158344329446678,0.052,,,,20.137484418
1715158344337141464,0.055,,,,20.145179204
1715158344344836250,0.055,,,,20.15287399
1715158344352531036,0.052,,,,20.160568776
1715158344360225822,0.052,,,,20.168263562
1715158344367920608,0.052,,,,20.175958348
1715158344375615394,0.055,,,,20.183653134
1715158344383310180,0.057,,,,20.19134792
1715158344391004966,0.057,,,,20.199042706
1715158344398699752,0.05,,,,20.206737492
1715158344406394538,0.04,,,,20.214432278
1715158344414089340,0.038,,,,20.22212708
1715158344421784126,0.045,,,,20.229821866
1715158344429478912,0.05,,,,20.237516652
1715158344437173698,0.045,,,,20.245211438
1715158344444868484,0.033,,,,20.252906224
1715158344452563270,0.026,,,,20.26060101
1715158344460258056,0.011,,,,20.268295796
1715158344467952842,0.0,,,,20.275990582
1715158344475647628,0.009,,,,20.283685368
1715158344483342414,0.04,,,,20.291380154
1715158344491037200,0.074,,,,20.29907494
1715158344498731986,0.074,,,,20.306769726
1715158344506426772,0.055,,,,20.314464512
1715158344514121558,0.045,,,,20.322159298
1715158344521816344,0.035,,,,20.329854084
1715158344529511130,0.031,,,,20.33754887
1715158344537205916,0.035,,,,20.345243656
1715158344544900702,0.045,,,,20.352938442
1715158344552595488,0.05,,,,20.360633228
1715158344560290274,0.04,,,,20.368328014
1715158344567985060,0.146,,,,20.3760228
1715158344575679846,0.666,,,,20.383717586
1715158344583374632,1.375,,,,20.391412372
1715158344591069418,1.028,,,,20.399107158
1715158344598764204,-0.668,,,,20.406801944
1715158344606458990,-1.641,,,,20.41449673
1715158344614153776,-0.973,,,,20.422191516
1715158344621848562,-0.287,,,,20.429886302
1715158344629543348,-0.17,,,,20.437581088
1715158344637238134,0.031,,,,20.445275874
1715158344644932920,0.191,,,,20.45297066
1715158344652627706,0.129,,,,20.460665446
1715158344660322492,0.131,,,,20.468360232
1715158344668017278,0.203,,,,20.476055018
1715158344675712064,0.196,,,,20.483749804
1715158344683406850,0.184,,,,20.49144459
1715158344691101636,0.21,,,,20.499139376
1715158344698796422,0.22,,,,20.506834162
1715158344706491208,0.222,,,,20.514528948
1715158344714185994,0.234,,,,20.522223734
1715158344721880780,0.254,,,,20.52991852
1715158344729575566,0.278,,,,20.537613306
1715158344737270352,0.297,,,,20.545308092
1715158344744965138,0.313,,,,20.553002878
1715158344752659924,0.333,,,,20.560697664
1715158344760354710,0.354,,,,20.56839245
1715158344768049496,0.371,,,,20.576087236
1715158344775744282,0.373,,,,20.583782022
1715158344783439068,0.359,,,,20.591476808
1715158344791133854,0.34,,,,20.599171594
1715158344798828640,0.311,,,,20.60686638
1715158344806523426,0.266,,,,20.614561166
1715158344814218212,0.21,,,,20.622255952
1715158344821912998,0.146,,,,20.629950738
1715158344829607784,0.093,,,,20.637645524
1715158344837302570,0.059,,,,20.64534031
1715158344844997356,0.035,,,,20.653035096
1715158344852692142,0.019,,,,20.660729882
1715158344860386928,0.007,,,,20.668424668
1715158344868081714,0.004,,,,20.676119454
1715158344875776500,0.009,,,,20.68381424
1715158344883471286,0.016,,,,20.691509026
1715158344891166072,0.021,,,,20.699203812
1715158344898860858,0.026,,,,20.706898598
1715158344906555644,0.04,,,,20.714593384
1715158344914250430,0.05,,,,20.72228817
1715158344921945216,0.047,,,,20.729982956
1715158344929640002,0.057,,,,20.737677742
1715158344937334788,0.067,,,,20.745372528
1715158344945029574,0.067,,,,20.753067314
1715158344952724360,0.069,,,,20.7607621
1715158344960419146,0.069,,,,20.768456886
1715158344968113932,0.071,,,,20.776151672
1715158344975808734,0.067,106.0,593.0,,20.783846474
1715158344983503520,0.062,,,,20.79154126
1715158344991198306,0.059,,,,20.799236046
1715158344998893092,0.057,,,,20.806930832
1715158345006587878,0.05,,,,20.814625618
1715158345014282664,0.04,,,,20.822320404
1715158345021977450,0.038,,,,20.83001519
1715158345029672236,0.04,,,,20.837709976
1715158345037367022,0.023,,,,20.845404762
1715158345045061808,0.011,,,,20.853099548
1715158345052756594,0.016,,,,20.860794334
1715158345060451380,0.016,,,,20.86848912
1715158345068146166,0.011,,,,20.876183906
1715158345075840952,0.016,,,,20.883878692
1715158345083535738,0.021,,,,20.891573478
1715158345091230524,0.021,,,,20.899268264
1715158345098925310,0.021,,,,20.90696305
1715158345106620096,0.021,,,,20.914657836
1715158345114314882,0.028,,,,20.922352622
1715158345122009668,0.033,,,,20.930047408
1715158345129704454,0.031,,,,20.937742194
1715158345137399240,0.016,,,,20.94543698
1715158345145094026,0.004,,,,20.953131766
1715158345152788812,0.007,,,,20.960826552
1715158345160483598,0.021,,,,20.968521338
1715158345168178384,0.05,,,,20.976216124
1715158345175873170,0.081,,,,20.98391091
1715158345183567956,0.088,,,,20.991605696
1715158345191262742,0.071,,,,20.999300482
1715158345198957528,0.052,,,,21.006995268
1715158345206652314,0.045,,,,21.014690054
1715158345214347100,0.047,,,,21.02238484
1715158345222041886,0.05,,,,21.030079626
1715158345229736672,0.062,,,,21.037774412
1715158345237431458,0.064,,,,21.045469198
1715158345245126244,0.055,,,,21.053163984
1715158345252821030,0.189,,,,21.06085877
1715158345260515816,0.745,,,,21.068553556
1715158345268210602,1.387,,,,21.076248342
1715158345275905388,0.834,,,,21.083943128
1715158345283600174,-0.893,,,,21.091637914
1715158345291294960,-1.624,,,,21.0993327
1715158345298989746,-0.848,,,,21.107027486
1715158345306684532,-0.246,,,,21.114722272
1715158345314379318,-0.15,,,,21.122417058
1715158345322074104,0.067,,,,21.130111844
1715158345329768890,0.206,,,,21.13780663
1715158345337463676,0.136,,,,21.145501416
1715158345345158462,0.146,,,,21.153196202
1715158345352853248,0.213,,,,21.160890988
1715158345360548034,0.206,,,,21.168585774
1715158345368242820,0.198,,,,21.17628056
1715158345375937606,0.218,,,,21.183975346
1715158345383632392,0.215,,,,21.191670132
1715158345391327178,0.215,,,,21.199364918
1715158345399021964,0.232,,,,21.207059704
1715158345406716750,0.251,,,,21.21475449
1715158345414411536,0.27,,,,21.222449276
1715158345422106322,0.292,,,,21.230144062
1715158345429801108,0.318,,,,21.237838848
1715158345437495894,0.342,,,,21.245533634
1715158345445190680,0.366,,,,21.25322842
1715158345452885466,0.378,,,,21.260923206
1715158345460580252,0.373,,,,21.268617992
1715158345468275038,0.361,,,,21.276312778
1715158345475969824,0.342,,,,21.284007564
1715158345483664610,0.313,,,,21.29170235
1715158345491359396,0.268,,,,21.299397136
1715158345499054182,0.21,,,,21.307091922
1715158345506748968,0.153,,,,21.314786708
1715158345514443754,0.103,,,,21.322481494
1715158345522138540,0.062,,,,21.33017628
1715158345529833326,0.035,,,,21.337871066
1715158345537528128,0.021,,,,21.345565868
1715158345545222914,0.011,,,,21.353260654
1715158345552917700,0.007,,,,21.36095544
1715158345560612486,0.004,,,,21.368650226
1715158345568307272,0.007,,,,21.376345012
1715158345576002058,0.011,,,,21.384039798
1715158345583696844,0.009,,,,21.391734584
1715158345591391630,0.014,,,,21.39942937
1715158345599086416,0.026,,,,21.407124156
1715158345606781202,0.028,,,,21.414818942
1715158345614475988,0.023,,,,21.422513728
1715158345622170774,0.023,,,,21.430208514
1715158345629865560,0.026,,,,21.4379033
1715158345637560346,0.021,,,,21.445598086
1715158345645255132,0.021,,,,21.453292872
1715158345652949918,0.026,,,,21.460987658
1715158345660644704,0.023,,,,21.468682444
1715158345668339490,0.021,,,,21.47637723
1715158345676034276,0.016,,,,21.484072016
1715158345683729062,0.019,,,,21.491766802
1715158345691423848,0.021,,,,21.499461588
1715158345699118634,0.016,,,,21.507156374
1715158345706813420,0.014,,,,21.51485116
1715158345714508206,0.019,,,,21.522545946
1715158345722202992,0.021,,,,21.530240732
1715158345729897778,0.021,,,,21.537935518
1715158345737592564,0.023,,,,21.545630304
1715158345745287350,0.028,,,,21.55332509
1715158345752982136,0.023,,,,21.561019876
1715158345760676922,0.014,,,,21.568714662
1715158345768371708,0.014,,,,21.576409448
1715158345776066494,0.021,,,,21.584104234
1715158345783761280,0.026,,,,21.59179902
1715158345791456066,0.026,,,,21.599493806
1715158345799150852,0.033,,,,21.607188592
1715158345806845638,0.035,,,,21.614883378
1715158345814540424,0.023,,,,21.622578164
1715158345822235210,0.021,,,,21.63027295
1715158345829929996,0.033,,,,21.637967736
1715158345837624782,0.038,,,,21.645662522
1715158345845319568,0.064,,,,21.653357308
1715158345853014354,0.103,,,,21.661052094
1715158345860709140,0.103,,,,21.66874688
1715158345868403926,0.081,,,,21.676441666
1715158345876098712,0.064,,,,21.684136452
1715158345883793498,0.05,,,,21.691831238
1715158345891488284,0.052,,,,21.699526024
1715158345899183070,0.071,,,,21.70722081
1715158345906877856,0.081,,,,21.714915596
1715158345914572642,0.071,,,,21.722610382
1715158345922267428,0.069,,,,21.730305168
1715158345929962214,0.23,,,,21.737999954
1715158345937657000,0.802,,,,21.74569474
1715158345945351786,1.402,,,,21.753389526
1715158345953046572,0.766,,,,21.761084312
1715158345960741358,-0.951,,,,21.768779098
1715158345968436144,-1.603,,,,21.776473884
1715158345976130930,-0.838,,,,21.78416867
1715158345983825716,-0.285,,,,21.791863456
1715158345991520502,-0.148,,,,21.799558242
1715158345999215288,0.105,,,,21.807253028
1715158346006910074,0.239,,,,21.814947814
1715158346014604860,0.172,,,,21.8226426
1715158346022299646,0.179,,,,21.830337386
1715158346029994432,0.232,,,,21.838032172
1715158346037689218,0.23,,,,21.845726958
1715158346045384004,0.239,,,,21.853421744
1715158346053078790,0.266,,,,21.86111653
1715158346060773576,0.268,,,,21.868811316
1715158346068468362,0.27,,,,21.876506102
1715158346076163148,0.287,,,,21.884200888
1715158346083857934,0.306,,,,21.891895674
1715158346091552720,0.333,,,,21.89959046
1715158346099247524,0.361,104.0,621.0,,21.907285264
1715158346106942728,0.393,,666.0,,21.914980468
1715158346114637932,0.431,,,,21.922675672
1715158346122333136,0.455,,,,21.930370876
1715158346130028340,0.457,,,,21.93806608
1715158346137723544,0.448,,,,21.945761284
1715158346145418748,0.431,,,,21.953456488
1715158346153113952,0.405,,,,21.961151692
1715158346160809156,0.366,,,,21.968846896
1715158346168504360,0.311,,,,21.9765421
1715158346176199564,0.237,,,,21.984237304
1715158346183894768,0.153,,,,21.991932508
1715158346191589972,0.091,,,,21.999627712
1715158346199285176,0.045,,,,22.007322916
1715158346206980380,0.007,,,,22.01501812
1715158346214675584,-0.016,,,,22.022713324
1715158346222370788,-0.028,,,,22.030408528
1715158346230065992,-0.023,,,,22.038103732
1715158346237761196,-0.011,,,,22.045798936
1715158346245456400,-0.009,,,,22.05349414
1715158346253151604,-0.011,,,,22.061189344
1715158346260846808,-0.002,,,,22.068884548
1715158346268542012,-0.002,,,,22.076579752
1715158346276237216,0.007,,,,22.084274956
1715158346283932420,0.035,,,,22.09197016
1715158346291627624,0.05,,,,22.099665364
1715158346299322828,0.047,,,,22.107360568
1715158346307018032,0.057,,,,22.115055772
1715158346314713236,0.067,,,,22.122750976
1715158346322408440,0.067,,,,22.13044618
1715158346330103644,0.071,,,,22.138141384
1715158346337798848,0.079,,,,22.145836588
1715158346345494052,0.079,,,,22.153531792
1715158346353189256,0.071,,,,22.161226996
