time,ecg,hr,rr,marker,norm_time
1715158541579183686,0.052,,,,0.0
1715158541586878472,0.052,,,,0.007694786
1715158541594573258,0.045,,,,0.015389572
1715158541602268044,0.043,,,,0.023084358
1715158541609962830,0.04,,,,0.030779144
1715158541617657616,0.033,,,,0.03847393
1715158541625352402,0.023,,,,0.046168716
1715158541633047188,0.009,,,,0.053863502
1715158541640741974,0.002,,,,0.061558288
1715158541648436760,0.011,,,,0.069253074
1715158541656131546,0.031,,,,0.07694786
1715158541663826332,0.057,,,,0.084642646
1715158541671521118,0.083,,,,0.092337432
1715158541679215904,0.086,,,,0.100032218
1715158541686910690,0.067,,,,0.107727004
1715158541694605476,0.05,,,,0.11542179
1715158541702300262,0.04,,,,0.123116576
1715158541709995048,0.047,,,,0.130811362
1715158541717689834,0.059,,,,0.138506148
1715158541725384620,0.069,,,,0.146200934
1715158541733079406,0.067,,,,0.15389572
1715158541740774192,0.057,,,,0.161590506
1715158541748468978,0.189,,,,0.169285292
1715158541756163764,0.721,,,,0.176980078
1715158541763858550,1.294,,,,0.184674864
1715158541771553336,0.75,,,,0.19236965
1715158541779248122,-0.762,,,,0.200064436
1715158541786942908,-1.337,,,,0.207759222
1715158541794637694,-0.663,,,,0.215454008
1715158541802332480,-0.182,,,,0.223148794
1715158541810027266,-0.093,,,,0.23084358
1715158541817722052,0.103,,,,0.238538366
1715158541825416838,0.215,,,,0.246233152
1715158541833111624,0.16,,,,0.253927938
1715158541840806410,0.177,,,,0.261622724
1715158541848501196,0.234,,,,0.26931751
1715158541856195982,0.23,,,,0.277012296
1715158541863890768,0.23,,,,0.284707082
1715158541871585554,0.254,,,,0.292401868
1715158541879280340,0.258,,,,0.300096654
1715158541886975126,0.27,,,,0.30779144
1715158541894669912,0.299,,,,0.315486226
1715158541902364698,0.313,,,,0.323181012
1715158541910059484,0.328,,,,0.330875798
1715158541917754270,0.345,,,,0.338570584
1715158541925449056,0.361,,,,0.34626537
1715158541933143842,0.385,,,,0.353960156
1715158541940838628,0.407,,,,0.361654942
1715158541948533414,0.419,,,,0.369349728
1715158541956228200,0.417,,,,0.377044514
1715158541963922986,0.402,,,,0.3847393
1715158541971617772,0.381,,,,0.392434086
1715158541979312558,0.352,,,,0.400128872
1715158541987007344,0.306,,,,0.407823658
1715158541994702130,0.237,,,,0.415518444
1715158542002396916,0.17,,,,0.42321323
1715158542010091702,0.119,,,,0.430908016
1715158542017786488,0.076,,,,0.438602802
1715158542025481274,0.045,,,,0.446297588
1715158542033176060,0.033,,,,0.453992374
1715158542040870846,0.031,,,,0.46168716
1715158542048565632,0.035,,,,0.469381946
1715158542056260418,0.038,,,,0.477076732
1715158542063955204,0.04,,,,0.484771518
1715158542071649990,0.055,,,,0.492466304
1715158542079344776,0.064,,,,0.50016109
1715158542087039562,0.062,,,,0.507855876
1715158542094734348,0.067,,,,0.515550662
1715158542102429134,0.074,,,,0.523245448
1715158542110123920,0.067,,,,0.530940234
1715158542117818706,0.059,,,,0.53863502
1715158542125513492,0.059,,,,0.546329806
1715158542133208278,0.05,,,,0.554024592
1715158542140903082,0.028,97.0,645.0,,0.561719396
1715158542148597868,0.023,,619.0,,0.569414182
1715158542156292654,0.023,,,,0.577108968
1715158542163987440,0.011,,,,0.584803754
1715158542171682226,0.004,,,,0.59249854
1715158542179377012,0.007,,,,0.600193326
1715158542187071798,0.009,,,,0.607888112
1715158542194766584,0.007,,,,0.615582898
1715158542202461370,0.0,,,,0.623277684
1715158542210156156,-0.004,,,,0.63097247
1715158542217850942,0.0,,,,0.638667256
1715158542225545728,0.002,,,,0.646362042
1715158542233240514,-0.004,,,,0.654056828
1715158542240935300,-0.011,,,,0.661751614
1715158542248630086,-0.002,,,,0.6694464
1715158542256324872,0.019,,,,0.677141186
1715158542264019658,0.05,,,,0.684835972
1715158542271714444,0.074,,,,0.692530758
1715158542279409230,0.071,,,,0.700225544
1715158542287104016,0.052,,,,0.70792033
1715158542294798802,0.035,,,,0.715615116
1715158542302493588,0.028,,,,0.723309902
1715158542310188374,0.035,,,,0.731004688
1715158542317883160,0.043,,,,0.738699474
1715158542325577946,0.045,,,,0.74639426
1715158542333272732,0.043,,,,0.754089046
1715158542340967518,0.035,,,,0.761783832
1715158542348662304,0.206,,,,0.769478618
1715158542356357090,0.802,,,,0.777173404
1715158542364051876,1.332,,,,0.78486819
1715158542371746662,0.611,,,,0.792562976
1715158542379441448,-0.961,,,,0.800257762
1715158542387136234,-1.411,,,,0.807952548
1715158542394831020,-0.683,,,,0.815647334
1715158542402525806,-0.225,,,,0.82334212
1715158542410220592,-0.105,,,,0.831036906
1715158542417915378,0.11,,,,0.838731692
1715158542425610164,0.203,,,,0.846426478
1715158542433304950,0.153,,,,0.854121264
1715158542440999736,0.179,,,,0.86181605
1715158542448694522,0.227,,,,0.869510836
1715158542456389308,0.218,,,,0.877205622
1715158542464084094,0.225,,,,0.884900408
1715158542471778880,0.249,,,,0.892595194
1715158542479473666,0.246,,,,0.90028998
1715158542487168452,0.256,,,,0.907984766
1715158542494863238,0.282,,,,0.915679552
1715158542502558024,0.299,,,,0.923374338
1715158542510252810,0.316,,,,0.931069124
1715158542517947596,0.34,,,,0.93876391
1715158542525642382,0.366,,,,0.946458696
1715158542533337168,0.39,,,,0.954153482
1715158542541031954,0.412,,,,0.961848268
1715158542548726740,0.426,,,,0.969543054
1715158542556421526,0.426,,,,0.97723784
1715158542564116312,0.414,,,,0.984932626
1715158542571811098,0.4,,,,0.992627412
1715158542579505884,0.371,,,,1.000322198
1715158542587200670,0.321,,,,1.008016984
1715158542594895456,0.249,,,,1.01571177
1715158542602590242,0.179,,,,1.023406556
1715158542610285028,0.127,,,,1.031101342
1715158542617979814,0.086,,,,1.038796128
1715158542625674600,0.05,,,,1.046490914
1715158542633369386,0.028,,,,1.0541857
1715158542641064172,0.016,,,,1.061880486
1715158542648758958,0.021,,,,1.069575272
1715158542656453744,0.023,,,,1.077270058
1715158542664148530,0.026,,,,1.084964844
1715158542671843316,0.04,,,,1.09265963
1715158542679538102,0.052,,,,1.100354416
1715158542687232888,0.059,,,,1.108049202
1715158542694927674,0.067,,,,1.115743988
1715158542702622476,0.076,,,,1.12343879
1715158542710317262,0.083,,,,1.131133576
1715158542718012048,0.081,,,,1.138828362
1715158542725706834,0.079,,,,1.146523148
1715158542733401620,0.079,,,,1.154217934
1715158542741096406,0.079,,,,1.16191272
1715158542748791192,0.074,,,,1.169607506
1715158542756485978,0.064,,,,1.177302292
1715158542764180764,0.059,,,,1.184997078
1715158542771875550,0.055,,,,1.192691864
1715158542779570336,0.04,,,,1.20038665
1715158542787265122,0.033,,,,1.208081436
1715158542794959908,0.04,,,,1.215776222
1715158542802654694,0.031,,,,1.223471008
1715158542810349480,0.011,,,,1.231165794
1715158542818044266,0.004,,,,1.23886058
1715158542825739052,0.011,,,,1.246555366
1715158542833433838,0.014,,,,1.254250152
1715158542841128624,0.021,,,,1.261944938
1715158542848823410,0.045,,,,1.269639724
1715158542856518196,0.069,,,,1.27733451
1715158542864212982,0.067,,,,1.285029296
1715158542871907768,0.043,,,,1.292724082
1715158542879602554,0.028,,,,1.300418868
1715158542887297340,0.023,,,,1.308113654
1715158542894992126,0.019,,,,1.31580844
1715158542902686912,0.023,,,,1.323503226
1715158542910381698,0.038,,,,1.331198012
1715158542918076484,0.028,,,,1.338892798
1715158542925771270,0.028,,,,1.346587584
1715158542933466056,0.285,,,,1.35428237
1715158542941160842,0.961,,,,1.361977156
1715158542948855628,1.265,,,,1.369671942
1715158542956550414,0.146,,,,1.377366728
1715158542964245200,-1.366,,,,1.385061514
1715158542971939986,-1.418,,,,1.3927563
1715158542979634772,-0.63,,,,1.400451086
1715158542987329558,-0.287,,,,1.408145872
1715158542995024344,-0.112,,,,1.415840658
1715158543002719130,0.122,,,,1.423535444
1715158543010413916,0.146,,,,1.43123023
1715158543018108702,0.098,,,,1.438925016
1715158543025803488,0.153,,,,1.446619802
1715158543033498274,0.182,,,,1.454314588
1715158543041193060,0.155,,,,1.462009374
1715158543048887846,0.17,,,,1.46970416
1715158543056582632,0.194,,,,1.477398946
1715158543064277418,0.196,,,,1.485093732
1715158543071972204,0.206,,,,1.492788518
1715158543079666990,0.225,,,,1.500483304
1715158543087361776,0.249,,,,1.50817809
1715158543095056562,0.268,,,,1.515872876
1715158543102751348,0.292,,,,1.523567662
1715158543110446134,0.325,,,,1.531262448
1715158543118140920,0.354,,,,1.538957234
1715158543125835706,0.369,,,,1.54665202
1715158543133530492,0.373,,,,1.554346806
1715158543141225278,0.359,,,,1.562041592
1715158543148920064,0.328,,,,1.569736378
1715158543156614850,0.304,,,,1.577431164
1715158543164309636,0.266,,,,1.58512595
1715158543172004422,0.184,,,,1.592820736
1715158543179699208,0.105,,,,1.600515522
1715158543187393994,0.045,,,,1.608210308
1715158543195088780,-0.007,,,,1.615905094
1715158543202783566,-0.05,,,,1.62359988
1715158543210478352,-0.071,,,,1.631294666
1715158543218173138,-0.071,,,,1.638989452
1715158543225867924,-0.064,,,,1.646684238
1715158543233562710,-0.067,,,,1.654379024
1715158543241257496,-0.059,,,,1.66207381
1715158543248952282,-0.045,,,,1.669768596
1715158543256647068,-0.045,,,,1.677463382
1715158543264341870,-0.038,97.0,610.0,,1.685158184
1715158543272036656,-0.014,,607.0,,1.69285297
1715158543279731442,-0.002,,,,1.700547756
1715158543287426228,-0.004,,,,1.708242542
1715158543295121014,-0.002,,,,1.715937328
1715158543302815800,0.004,,,,1.723632114
1715158543310510586,0.004,,,,1.7313269
1715158543318205372,-0.004,,,,1.739021686
1715158543325900158,-0.009,,,,1.746716472
1715158543333594944,-0.002,,,,1.754411258
1715158543341289730,0.002,,,,1.762106044
1715158543348984516,-0.004,,,,1.76980083
1715158543356679302,-0.009,,,,1.777495616
1715158543364374088,-0.011,,,,1.785190402
1715158543372068874,-0.011,,,,1.792885188
1715158543379763660,-0.016,,,,1.800579974
1715158543387458446,-0.026,,,,1.80827476
1715158543395153232,-0.043,,,,1.815969546
1715158543402848018,-0.052,,,,1.823664332
1715158543410542804,-0.047,,,,1.831359118
1715158543418237590,-0.033,,,,1.839053904
1715158543425932376,-0.007,,,,1.84674869
1715158543433627162,0.011,,,,1.854443476
1715158543441321948,0.007,,,,1.862138262
1715158543449016734,-0.011,,,,1.869833048
1715158543456711520,-0.026,,,,1.877527834
1715158543464406306,-0.026,,,,1.88522262
1715158543472101092,-0.021,,,,1.892917406
1715158543479795878,-0.014,,,,1.900612192
1715158543487490664,-0.004,,,,1.908306978
1715158543495185450,-0.007,,,,1.916001764
1715158543502880236,0.009,,,,1.92369655
1715158543510575022,0.27,,,,1.931391336
1715158543518269808,0.922,,,,1.939086122
1715158543525964594,1.207,,,,1.946780908
1715158543533659380,0.098,,,,1.954475694
1715158543541354166,-1.382,,,,1.96217048
1715158543549048952,-1.409,,,,1.969865266
1715158543556743738,-0.644,,,,1.977560052
1715158543564438524,-0.325,,,,1.985254838
1715158543572133310,-0.122,,,,1.992949624
1715158543579828096,0.146,,,,2.00064441
1715158543587522882,0.172,,,,2.008339196
1715158543595217668,0.122,,,,2.016033982
1715158543602912454,0.184,,,,2.023728768
1715158543610607240,0.22,,,,2.031423554
1715158543618302026,0.198,,,,2.03911834
1715158543625996812,0.213,,,,2.046813126
1715158543633691598,0.234,,,,2.054507912
1715158543641386384,0.227,,,,2.062202698
1715158543649081170,0.227,,,,2.069897484
1715158543656775956,0.246,,,,2.07759227
1715158543664470742,0.278,,,,2.085287056
1715158543672165528,0.306,,,,2.092981842
1715158543679860314,0.33,,,,2.100676628
1715158543687555100,0.364,,,,2.108371414
1715158543695249886,0.4,,,,2.1160662
1715158543702944672,0.421,,,,2.123760986
1715158543710639458,0.431,,,,2.131455772
1715158543718334244,0.426,,,,2.139150558
1715158543726029030,0.412,,,,2.146845344
1715158543733723816,0.383,,,,2.15454013
1715158543741418602,0.337,,,,2.162234916
1715158543749113388,0.278,,,,2.169929702
1715158543756808174,0.208,,,,2.177624488
1715158543764502960,0.143,,,,2.185319274
1715158543772197746,0.095,,,,2.19301406
1715158543779892532,0.067,,,,2.200708846
1715158543787587318,0.052,,,,2.208403632
1715158543795282104,0.045,,,,2.216098418
1715158543802976890,0.04,,,,2.223793204
1715158543810671676,0.043,,,,2.23148799
1715158543818366462,0.047,,,,2.239182776
1715158543826061264,0.055,97.0,600.0,,2.246877578
1715158543833756050,0.069,,,,2.254572364
1715158543841450836,0.083,,,,2.26226715
1715158543849145622,0.093,,,,2.269961936
1715158543856840408,0.098,,,,2.277656722
1715158543864535194,0.1,,,,2.285351508
1715158543872229980,0.11,,,,2.293046294
1715158543879924766,0.112,,,,2.30074108
1715158543887619552,0.107,,,,2.308435866
1715158543895314338,0.1,,,,2.316130652
1715158543903009124,0.103,,,,2.323825438
1715158543910703910,0.098,,,,2.331520224
1715158543918398696,0.081,,,,2.33921501
1715158543926093482,0.076,,,,2.346909796
1715158543933788268,0.086,,,,2.354604582
1715158543941483054,0.086,,,,2.362299368
1715158543949177840,0.079,,,,2.369994154
1715158543956872626,0.071,,,,2.37768894
1715158543964567412,0.064,,,,2.385383726
1715158543972262198,0.055,,,,2.393078512
1715158543979956984,0.05,,,,2.400773298
1715158543987651770,0.05,,,,2.408468084
1715158543995346556,0.059,,,,2.41616287
1715158544003041342,0.081,,,,2.423857656
1715158544010736128,0.105,,,,2.431552442
1715158544018430914,0.107,,,,2.439247228
1715158544026125700,0.083,,,,2.446942014
1715158544033820486,0.059,,,,2.4546368
1715158544041515272,0.047,,,,2.462331586
1715158544049210058,0.045,,,,2.470026372
1715158544056904844,0.052,,,,2.477721158
1715158544064599630,0.064,,,,2.485415944
1715158544072294416,0.057,,,,2.49311073
1715158544079989202,0.059,,,,2.500805516
1715158544087683988,0.313,,,,2.508500302
1715158544095378774,0.963,,,,2.516195088
1715158544103073560,1.294,,,,2.523889874
1715158544110768346,0.275,,,,2.53158466
1715158544118463132,-1.251,,,,2.539279446
1715158544126157918,-1.394,,,,2.546974232
1715158544133852704,-0.5680000000000001,,,,2.554669018
1715158544141547490,-0.184,,,,2.562363804
1715158544149242276,-0.074,,,,2.57005859
1715158544156937062,0.122,,,,2.577753376
1715158544164631848,0.15,,,,2.585448162
1715158544172326634,0.1,,,,2.593142948
1715158544180021420,0.148,,,,2.600837734
1715158544187716206,0.179,,,,2.60853252
1715158544195410992,0.162,,,,2.616227306
1715158544203105778,0.174,,,,2.623922092
1715158544210800564,0.196,,,,2.631616878
1715158544218495350,0.194,,,,2.639311664
1715158544226190136,0.206,,,,2.64700645
1715158544233884922,0.23,,,,2.654701236
1715158544241579708,0.244,,,,2.662396022
1715158544249274494,0.261,,,,2.670090808
1715158544256969280,0.289,,,,2.677785594
1715158544264664066,0.323,,,,2.68548038
1715158544272358852,0.352,,,,2.693175166
1715158544280053638,0.366,,,,2.700869952
1715158544287748424,0.373,,,,2.708564738
1715158544295443210,0.373,,,,2.716259524
1715158544303137996,0.361,,,,2.72395431
1715158544310832782,0.345,,,,2.731649096
1715158544318527568,0.304,,,,2.739343882
1715158544326222354,0.239,,,,2.747038668
1715158544333917140,0.17,,,,2.754733454
1715158544341611926,0.112,,,,2.76242824
1715158544349306712,0.074,,,,2.770123026
1715158544357001498,0.04,,,,2.777817812
1715158544364696284,0.014,,,,2.785512598
1715158544372391070,0.0,,,,2.793207384
1715158544380085856,0.0,,,,2.80090217
1715158544387780658,0.007,,,,2.808596972
1715158544395475444,0.021,,,,2.816291758
1715158544403170230,0.033,,,,2.823986544
1715158544410865016,0.043,,,,2.83168133
1715158544418559802,0.043,,,,2.839376116
1715158544426254588,0.035,,,,2.847070902
1715158544433949374,0.038,,,,2.854765688
1715158544441644160,0.05,,,,2.862460474
1715158544449338946,0.057,,,,2.87015526
1715158544457033732,0.055,,,,2.877850046
1715158544464728518,0.057,,,,2.885544832
1715158544472423304,0.064,,,,2.893239618
1715158544480118090,0.069,,,,2.900934404
1715158544487812876,0.071,,,,2.90862919
1715158544495507662,0.074,,,,2.916323976
1715158544503202448,0.071,,,,2.924018762
1715158544510897234,0.074,,,,2.931713548
1715158544518592020,0.071,,,,2.939408334
1715158544526286806,0.069,,,,2.94710312
1715158544533981592,0.071,,,,2.954797906
1715158544541676378,0.062,,,,2.962492692
1715158544549371164,0.047,,,,2.970187478
1715158544557065950,0.045,,,,2.977882264
1715158544564760736,0.057,,,,2.98557705
1715158544572455522,0.091,,,,2.993271836
1715158544580150308,0.119,,,,3.000966622
1715158544587845094,0.131,,,,3.008661408
1715158544595539880,0.117,,,,3.016356194
1715158544603234666,0.088,,,,3.02405098
1715158544610929452,0.081,,,,3.031745766
1715158544618624238,0.083,,,,3.039440552
1715158544626319024,0.079,,,,3.047135338
1715158544634013810,0.076,,,,3.054830124
1715158544641708596,0.069,,,,3.06252491
1715158544649403382,0.047,,,,3.070219696
1715158544657098168,0.131,,,,3.077914482
1715158544664792954,0.637,,,,3.085609268
1715158544672487740,1.315,,,,3.093304054
1715158544680182526,0.941,,,,3.10099884
1715158544687877312,-0.637,,,,3.108693626
1715158544695572098,-1.476,,,,3.116388412
1715158544703266884,-0.867,,,,3.124083198
1715158544710961670,-0.268,,,,3.131777984
1715158544718656456,-0.146,,,,3.13947277
1715158544726351242,0.047,,,,3.147167556
1715158544734046028,0.186,,,,3.154862342
1715158544741740814,0.139,,,,3.162557128
1715158544749435600,0.143,,,,3.170251914
1715158544757130386,0.201,,,,3.1779467
1715158544764825172,0.198,,,,3.185641486
1715158544772519958,0.196,,,,3.193336272
1715158544780214744,0.218,,,,3.201031058
1715158544787909530,0.225,,,,3.208725844
1715158544795604316,0.23,,,,3.21642063
1715158544803299102,0.254,,,,3.224115416
1715158544810993888,0.278,,,,3.231810202
1715158544818688674,0.297,,,,3.239504988
1715158544826383460,0.328,,,,3.247199774
1715158544834078246,0.364,,,,3.25489456
1715158544841773032,0.397,,,,3.262589346
1715158544849467818,0.428,,,,3.270284132
1715158544857162604,0.448,,,,3.277978918
1715158544864857390,0.452,,,,3.285673704
1715158544872552176,0.44,,,,3.29336849
1715158544880246962,0.417,,,,3.301063276
1715158544887941748,0.388,,,,3.308758062
1715158544895636534,0.342,,,,3.316452848
1715158544903331320,0.27,,,,3.324147634
1715158544911026106,0.203,,,,3.33184242
1715158544918720892,0.146,,,,3.339537206
1715158544926415678,0.103,,,,3.347231992
1715158544934110464,0.071,,,,3.354926778
1715158544941805250,0.055,,,,3.362621564
1715158544949500052,0.052,98.0,583.0,,3.370316366
1715158544957195186,0.052,,577.0,,3.3780115
1715158544964890320,0.055,,,,3.385706634
1715158544972585454,0.059,,,,3.393401768
1715158544980280588,0.069,,,,3.401096902
1715158544987975722,0.079,,,,3.408792036
1715158544995670856,0.076,,,,3.41648717
1715158545003365990,0.076,,,,3.424182304
1715158545011061124,0.086,,,,3.431877438
1715158545018756258,0.093,,,,3.439572572
1715158545026451392,0.091,,,,3.447267706
1715158545034146526,0.093,,,,3.45496284
1715158545041841660,0.098,,,,3.462657974
1715158545049536794,0.1,,,,3.470353108
1715158545057231928,0.1,,,,3.478048242
1715158545064927062,0.098,,,,3.485743376
1715158545072622196,0.103,,,,3.49343851
1715158545080317330,0.1,,,,3.501133644
1715158545088012464,0.095,,,,3.508828778
1715158545095707598,0.093,,,,3.516523912
1715158545103402732,0.088,,,,3.524219046
1715158545111097866,0.076,,,,3.53191418
1715158545118793000,0.064,,,,3.539609314
1715158545126488134,0.062,,,,3.547304448
1715158545134183268,0.076,,,,3.554999582
1715158545141878402,0.103,,,,3.562694716
1715158545149573536,0.134,,,,3.57038985
1715158545157268670,0.141,,,,3.578084984
1715158545164963804,0.117,,,,3.585780118
1715158545172658938,0.088,,,,3.593475252
1715158545180354072,0.079,,,,3.601170386
1715158545188049206,0.079,,,,3.60886552
1715158545195744340,0.079,,,,3.616560654
1715158545203439474,0.086,,,,3.624255788
1715158545211134608,0.091,,,,3.631950922
1715158545218829742,0.071,,,,3.639646056
1715158545226524876,0.103,,,,3.64734119
1715158545234220010,0.476,,,,3.655036324
1715158545241915144,1.193,,,,3.662731458
1715158545249610278,1.227,,,,3.670426592
1715158545257305412,-0.167,,,,3.678121726
1715158545265000546,-1.481,,,,3.68581686
1715158545272695680,-1.203,,,,3.693511994
1715158545280390814,-0.397,,,,3.701207128
1715158545288085948,-0.139,,,,3.708902262
1715158545295781082,0.009,,,,3.716597396
1715158545303476216,0.194,,,,3.72429253
1715158545311171350,0.184,,,,3.731987664
1715158545318866484,0.155,,,,3.739682798
1715158545326561618,0.206,,,,3.747377932
1715158545334256752,0.222,,,,3.755073066
1715158545341951886,0.22,,,,3.7627682
1715158545349647020,0.242,,,,3.770463334
1715158545357342154,0.246,,,,3.778158468
1715158545365037288,0.242,,,,3.785853602
1715158545372732422,0.246,,,,3.793548736
1715158545380427556,0.258,,,,3.80124387
1715158545388122690,0.285,,,,3.808939004
1715158545395817824,0.328,,,,3.816634138
1715158545403512958,0.354,,,,3.824329272
1715158545411208092,0.364,,,,3.832024406
1715158545418903226,0.39,,,,3.83971954
1715158545426598360,0.412,,,,3.847414674
1715158545434293494,0.421,,,,3.855109808
1715158545441988628,0.433,,,,3.862804942
1715158545449683762,0.426,,,,3.870500076
1715158545457378896,0.371,,,,3.87819521
1715158545465074030,0.311,,,,3.885890344
1715158545472769164,0.254,,,,3.893585478
1715158545480464298,0.174,,,,3.901280612
1715158545488159432,0.098,,,,3.908975746
1715158545495854566,0.059,,,,3.91667088
1715158545503549700,0.045,,,,3.924366014
1715158545511244880,0.033,,,,3.932061194
1715158545518939596,0.009,,,,3.93975591
1715158545526634312,-0.002,,,,3.947450626
1715158545534329028,0.004,,,,3.955145342
1715158545542023744,0.004,,,,3.962840058
1715158545549718460,0.014,,,,3.970534774
1715158545557413176,0.047,,,,3.97822949
1715158545565107892,0.062,,,,3.985924206
1715158545572802608,0.045,,,,3.993618922
1715158545580497324,0.057,,,,4.001313638
1715158545588192040,0.076,,,,4.009008354
1715158545595886756,0.055,,,,4.01670307
1715158545603581472,0.04,,,,4.024397786
1715158545611276188,0.05,,,,4.032092502
1715158545618970904,0.045,,,,4.039787218
1715158545626665620,0.035,,,,4.047481934
1715158545634360336,0.043,,,,4.05517665
1715158545642055052,0.055,,,,4.062871366
1715158545649749768,0.045,,,,4.070566082
1715158545657444484,0.019,,,,4.078260798
1715158545665139200,0.0,,,,4.085955514
1715158545672833916,-0.011,,,,4.09365023
1715158545680528632,-0.028,,,,4.101344946
1715158545688223348,-0.035,,,,4.109039662
1715158545695918064,-0.028,,,,4.116734378
1715158545703612780,-0.014,,,,4.124429094
1715158545711307496,0.011,,,,4.13212381
1715158545719002212,0.016,,,,4.139818526
1715158545726696928,-0.004,,,,4.147513242
1715158545734391644,-0.023,,,,4.155207958
1715158545742086360,-0.035,,,,4.162902674
1715158545749781076,-0.043,,,,4.17059739
1715158545757475792,-0.038,,,,4.178292106
1715158545765170508,-0.028,,,,4.185986822
1715158545772865224,-0.026,,,,4.193681538
1715158545780559940,-0.028,,,,4.201376254
1715158545788254656,0.047,,,,4.20907097
1715158545795949372,0.44,,,,4.216765686
1715158545803644088,1.085,,,,4.224460402
1715158545811338804,0.925,,,,4.232155118
1715158545819033520,-0.5750000000000001,,,,4.239849834
1715158545826728236,-1.644,,,,4.24754455
1715158545834422952,-1.164,,,,4.255239266
1715158545842117668,-0.546,,,,4.262933982
1715158545849812384,-0.376,,,,4.270628698
1715158545857507100,-0.079,,,,4.278323414
1715158545865201816,0.143,,,,4.28601813
1715158545872896532,0.091,,,,4.293712846
1715158545880591248,0.083,,,,4.301407562
1715158545888285964,0.16,,,,4.309102278
1715158545895980680,0.155,,,,4.316796994
1715158545903675396,0.141,,,,4.32449171
1715158545911370112,0.179,,,,4.332186426
1715158545919064828,0.203,,,,4.339881142
1715158545926759544,0.21,,,,4.347575858
1715158545934454260,0.222,,,,4.355270574
1715158545942148976,0.237,,,,4.36296529
1715158545949843692,0.261,,,,4.370660006
1715158545957538408,0.294,,,,4.378354722
1715158545965233124,0.333,,,,4.386049438
1715158545972927840,0.369,,,,4.393744154
1715158545980622556,0.395,,,,4.40143887
1715158545988317272,0.407,,,,4.409133586
1715158545996011988,0.407,,,,4.416828302
1715158546003706704,0.395,,,,4.424523018
1715158546011401420,0.369,,,,4.432217734
1715158546019096136,0.325,,,,4.43991245
1715158546026790852,0.258,,,,4.447607166
1715158546034485568,0.172,,,,4.455301882
1715158546042180284,0.1,,,,4.462996598
1715158546049875000,0.052,,,,4.470691314
1715158546057569716,0.014,,,,4.47838603
1715158546065264432,-0.019,,,,4.486080746
1715158546072959188,-0.033,100.0,577.0,,4.493775502
1715158546080653904,-0.038,,573.0,,4.501470218
1715158546088348620,-0.031,,,,4.509164934
1715158546096043336,-0.014,,,,4.51685965
1715158546103738052,-0.002,,,,4.524554366
1715158546111432768,-0.002,,,,4.532249082
1715158546119127484,0.009,,,,4.539943798
1715158546126822200,0.023,,,,4.547638514
1715158546134516916,0.035,,,,4.55533323
1715158546142211632,0.05,,,,4.563027946
1715158546149906348,0.064,,,,4.570722662
1715158546157601064,0.069,,,,4.578417378
1715158546165295780,0.071,,,,4.586112094
1715158546172990496,0.064,,,,4.59380681
1715158546180685212,0.059,,,,4.601501526
1715158546188379928,0.069,,,,4.609196242
1715158546196074644,0.067,,,,4.616890958
1715158546203769360,0.052,,,,4.624585674
1715158546211464076,0.055,,,,4.63228039
1715158546219158792,0.057,,,,4.639975106
1715158546226853508,0.038,,,,4.647669822
1715158546234548224,0.026,,,,4.655364538
1715158546242242940,0.026,,,,4.663059254
1715158546249937656,0.028,,,,4.67075397
1715158546257632372,0.043,,,,4.678448686
1715158546265327088,0.076,,,,4.686143402
1715158546273021804,0.107,,,,4.693838118
1715158546280716520,0.107,,,,4.701532834
1715158546288411236,0.095,,,,4.70922755
1715158546296105952,0.086,,,,4.716922266
1715158546303800668,0.081,,,,4.724616982
1715158546311495384,0.083,,,,4.732311698
1715158546319190100,0.088,,,,4.740006414
1715158546326884816,0.103,,,,4.74770113
1715158546334579532,0.105,,,,4.755395846
1715158546342274248,0.093,,,,4.763090562
1715158546349968964,0.28,,,,4.770785278
1715158546357663680,0.884,,,,4.778479994
1715158546365358396,1.282,,,,4.78617471
1715158546373053112,0.352,,,,4.793869426
1715158546380747828,-1.179,,,,4.801564142
1715158546388442544,-1.358,,,,4.809258858
1715158546396137260,-0.527,,,,4.816953574
1715158546403831976,-0.141,,,,4.82464829
1715158546411526692,-0.045,,,,4.832343006
1715158546419221408,0.17,,,,4.840037722
1715158546426916124,0.22,,,,4.847732438
1715158546434610840,0.16,,,,4.855427154
1715158546442305556,0.206,,,,4.86312187
1715158546450000272,0.244,,,,4.870816586
1715158546457694988,0.222,,,,4.878511302
1715158546465389704,0.227,,,,4.886206018
1715158546473084420,0.244,,,,4.893900734
1715158546480779136,0.249,,,,4.90159545
1715158546488473852,0.254,,,,4.909290166
1715158546496168568,0.266,,,,4.916984882
1715158546503863284,0.287,,,,4.924679598
1715158546511558000,0.311,,,,4.932374314
1715158546519252716,0.333,,,,4.94006903
1715158546526947432,0.364,,,,4.947763746
1715158546534642148,0.393,,,,4.955458462
1715158546542336864,0.417,,,,4.963153178
1715158546550031580,0.436,,,,4.970847894
1715158546557726296,0.436,,,,4.97854261
1715158546565421012,0.419,,,,4.986237326
1715158546573115728,0.395,,,,4.993932042
1715158546580810444,0.352,,,,5.001626758
1715158546588505160,0.28,,,,5.009321474
1715158546596199876,0.196,,,,5.01701619
1715158546603894592,0.136,,,,5.024710906
1715158546611589308,0.105,,,,5.032405622
1715158546619284024,0.076,,,,5.040100338
1715158546626978740,0.052,,,,5.047795054
1715158546634673496,0.052,,,,5.05548981
1715158546642368491,0.057,,,,5.063184805
1715158546650063486,0.062,,,,5.0708798
1715158546657758481,0.064,,,,5.078574795
1715158546665453476,0.076,,,,5.08626979
1715158546673148471,0.088,,,,5.093964785
1715158546680843466,0.081,,,,5.10165978
1715158546688538461,0.083,,,,5.109354775
1715158546696233456,0.1,,,,5.11704977
1715158546703928451,0.107,,,,5.124744765
1715158546711623446,0.103,,,,5.13243976
1715158546719318441,0.105,,,,5.140134755
1715158546727013436,0.105,,,,5.14782975
1715158546734708431,0.093,,,,5.155524745
1715158546742403426,0.088,,,,5.16321974
1715158546750098421,0.105,,,,5.170914735
1715158546757793416,0.119,,,,5.17860973
1715158546765488411,0.117,,,,5.186304725
1715158546773183406,0.11,,,,5.19399972
1715158546780878401,0.1,,,,5.201694715
1715158546788573396,0.088,,,,5.20938971
1715158546796268391,0.076,,,,5.217084705
1715158546803963386,0.076,,,,5.2247797
1715158546811658381,0.1,,,,5.232474695
1715158546819353376,0.134,,,,5.24016969
1715158546827048371,0.153,,,,5.247864685
1715158546834743366,0.146,,,,5.25555968
1715158546842438361,0.115,,,,5.263254675
1715158546850133356,0.098,,,,5.27094967
1715158546857828351,0.1,,,,5.278644665
1715158546865523346,0.112,,,,5.28633966
1715158546873218341,0.119,,,,5.294034655
1715158546880913336,0.115,,,,5.30172965
1715158546888608331,0.093,,,,5.309424645
1715158546896303326,0.115,,,,5.31711964
1715158546903998321,0.472,,,,5.324814635
1715158546911693316,1.188,,,,5.33250963
1715158546919388311,1.265,,,,5.340204625
1715158546927083306,-0.021,,,,5.34789962
1715158546934778301,-1.227,,,,5.355594615
1715158546942473296,-0.941,,,,5.36328961
1715158546950168291,-0.232,,,,5.370984605
1715158546957863286,-0.074,,,,5.3786796
1715158546965558281,0.038,,,,5.386374595
1715158546973253276,0.23,,,,5.39406959
1715158546980948271,0.218,,,,5.401764585
1715158546988643266,0.186,,,,5.40945958
1715158546996338261,0.244,,,,5.417154575
1715158547004033256,0.258,,,,5.42484957
1715158547011728251,0.242,,,,5.432544565
1715158547019423246,0.254,,,,5.44023956
1715158547027118241,0.266,,,,5.447934555
1715158547034813236,0.268,,,,5.45562955
1715158547042508231,0.282,,,,5.463324545
1715158547050203226,0.299,,,,5.47101954
1715158547057898221,0.313,,,,5.478714535
1715158547065593216,0.335,,,,5.48640953
1715158547073288211,0.364,,,,5.494104525
1715158547080983206,0.393,,,,5.50179952
1715158547088678201,0.407,,,,5.509494515
1715158547096373196,0.405,,,,5.51718951
1715158547104068191,0.412,,,,5.524884505
1715158547111763186,0.417,,,,5.5325795
1715158547119458181,0.397,,,,5.540274495
1715158547127153176,0.359,,,,5.54796949
1715158547134848171,0.304,,,,5.555664485
1715158547142543166,0.234,,,,5.56335948
1715158547150238161,0.172,,,,5.571054475
1715158547157933156,0.119,,,,5.57874947
1715158547165628151,0.079,,,,5.586444465
1715158547173323146,0.052,,,,5.59413946
1715158547181018141,0.035,,,,5.601834455
1715158547188713136,0.023,,,,5.60952945
1715158547196408148,0.014,102.0,571.0,,5.617224462
1715158547204102934,0.023,,561.0,,5.624919248
1715158547211797720,0.04,,,,5.632614034
1715158547219492506,0.045,,,,5.64030882
1715158547227187292,0.055,,,,5.648003606
1715158547234882078,0.062,,,,5.655698392
1715158547242576864,0.059,,,,5.663393178
1715158547250271650,0.059,,,,5.671087964
1715158547257966436,0.067,,,,5.67878275
1715158547265661222,0.076,,,,5.686477536
1715158547273356008,0.079,,,,5.694172322
1715158547281050794,0.071,,,,5.701867108
1715158547288745580,0.076,,,,5.709561894
1715158547296440366,0.083,,,,5.71725668
1715158547304135152,0.081,,,,5.724951466
1715158547311829938,0.074,,,,5.732646252
1715158547319524724,0.071,,,,5.740341038
1715158547327219510,0.062,,,,5.748035824
1715158547334914296,0.045,,,,5.75573061
1715158547342609082,0.035,,,,5.763425396
1715158547350303868,0.045,,,,5.771120182
1715158547357998654,0.059,,,,5.778814968
1715158547365693440,0.081,,,,5.786509754
1715158547373388226,0.105,,,,5.79420454
1715158547381083012,0.11,,,,5.801899326
1715158547388777798,0.098,,,,5.809594112
1715158547396472584,0.081,,,,5.817288898
1715158547404167370,0.071,,,,5.824983684
1715158547411862156,0.076,,,,5.83267847
1715158547419556942,0.081,,,,5.840373256
1715158547427251728,0.086,,,,5.848068042
1715158547434946514,0.079,,,,5.855762828
1715158547442641300,0.043,,,,5.863457614
1715158547450336086,0.179,,,,5.8711524
1715158547458030872,0.783,,,,5.878847186
1715158547465725658,1.368,,,,5.886541972
1715158547473420444,0.718,,,,5.894236758
1715158547481115230,-0.8310000000000001,,,,5.901931544
1715158547488810016,-1.298,,,,5.90962633
1715158547496504802,-0.5700000000000001,,,,5.917321116
1715158547504199588,-0.131,,,,5.925015902
1715158547511894374,-0.074,,,,5.932710688
1715158547519589160,0.115,,,,5.940405474
1715158547527283946,0.215,,,,5.94810026
1715158547534978732,0.158,,,,5.955795046
1715158547542673518,0.172,,,,5.963489832
1715158547550368304,0.213,,,,5.971184618
1715158547558063090,0.198,,,,5.978879404
1715158547565757876,0.198,,,,5.98657419
1715158547573452662,0.22,,,,5.994268976
1715158547581147448,0.215,,,,6.001963762
1715158547588842234,0.215,,,,6.009658548
1715158547596537020,0.232,,,,6.017353334
1715158547604231806,0.239,,,,6.02504812
1715158547611926592,0.256,,,,6.032742906
1715158547619621378,0.289,,,,6.040437692
1715158547627316164,0.323,,,,6.048132478
1715158547635010950,0.347,,,,6.055827264
1715158547642705736,0.361,,,,6.06352205
1715158547650400522,0.373,,,,6.071216836
1715158547658095308,0.373,,,,6.078911622
1715158547665790094,0.357,,,,6.086606408
1715158547673484880,0.328,,,,6.094301194
1715158547681179666,0.285,,,,6.10199598
1715158547688874452,0.22,,,,6.109690766
1715158547696569238,0.134,,,,6.117385552
1715158547704264024,0.064,,,,6.125080338
1715158547711958810,0.031,,,,6.132775124
1715158547719653596,0.0,,,,6.14046991
1715158547727348382,-0.023,,,,6.148164696
1715158547735043168,-0.033,,,,6.155859482
1715158547742737954,-0.033,,,,6.163554268
1715158547750432740,-0.026,,,,6.171249054
1715158547758127542,-0.019,104.0,558.0,,6.178943856
1715158547765822328,-0.009,,552.0,,6.186638642
1715158547773517114,0.004,,,,6.194333428
1715158547781211900,0.009,,,,6.202028214
1715158547788906686,0.007,,,,6.209723
1715158547796601472,0.011,,,,6.217417786
1715158547804296258,0.026,,,,6.225112572
1715158547811991044,0.031,,,,6.232807358
1715158547819685830,0.028,,,,6.240502144
1715158547827380616,0.028,,,,6.24819693
1715158547835075402,0.028,,,,6.255891716
1715158547842770188,0.026,,,,6.263586502
1715158547850464974,0.028,,,,6.271281288
1715158547858159760,0.035,,,,6.278976074
1715158547865854546,0.04,,,,6.28667086
1715158547873549332,0.031,,,,6.294365646
1715158547881244118,0.016,,,,6.302060432
1715158547888938904,0.011,,,,6.309755218
1715158547896633690,0.011,,,,6.317450004
1715158547904328476,0.011,,,,6.32514479
1715158547912023262,0.023,,,,6.332839576
1715158547919718048,0.052,,,,6.340534362
1715158547927412834,0.079,,,,6.348229148
1715158547935107620,0.088,,,,6.355923934
1715158547942802406,0.071,,,,6.36361872
1715158547950497192,0.057,,,,6.371313506
1715158547958191978,0.052,,,,6.379008292
1715158547965886764,0.052,,,,6.386703078
1715158547973581550,0.059,,,,6.394397864
1715158547981276336,0.071,,,,6.40209265
1715158547988971122,0.069,,,,6.409787436
1715158547996665908,0.033,,,,6.417482222
1715158548004360694,0.15,,,,6.425177008
1715158548012055480,0.716,,,,6.432871794
1715158548019750266,1.318,,,,6.44056658
1715158548027445052,0.766,,,,6.448261366
1715158548035139838,-0.769,,,,6.455956152
1715158548042834624,-1.363,,,,6.463650938
1715158548050529410,-0.659,,,,6.471345724
1715158548058224196,-0.139,,,,6.47904051
1715158548065918982,-0.064,,,,6.486735296
1715158548073613768,0.1,,,,6.494430082
1715158548081308554,0.208,,,,6.502124868
1715158548089003340,0.158,,,,6.509819654
1715158548096698126,0.174,,,,6.51751444
1715158548104392912,0.225,,,,6.525209226
1715158548112087698,0.215,,,,6.532904012
1715158548119782484,0.208,,,,6.540598798
1715158548127477270,0.234,,,,6.548293584
1715158548135172056,0.244,,,,6.55598837
1715158548142866842,0.242,,,,6.563683156
1715158548150561628,0.254,,,,6.571377942
1715158548158256414,0.268,,,,6.579072728
1715158548165951200,0.278,,,,6.586767514
1715158548173645986,0.297,,,,6.5944623
1715158548181340772,0.323,,,,6.602157086
1715158548189035558,0.352,,,,6.609851872
1715158548196730344,0.369,,,,6.617546658
1715158548204425130,0.364,,,,6.625241444
1715158548212119916,0.352,,,,6.63293623
1715158548219814702,0.34,,,,6.640631016
1715158548227509488,0.318,,,,6.648325802
1715158548235204274,0.27,,,,6.656020588
1715158548242899060,0.203,,,,6.663715374
1715158548250593846,0.129,,,,6.67141016
1715158548258288632,0.069,,,,6.679104946
1715158548265983418,0.028,,,,6.686799732
1715158548273678204,0.0,,,,6.694494518
1715158548281372990,-0.021,,,,6.702189304
1715158548289067776,-0.028,,,,6.70988409
1715158548296762562,-0.035,,,,6.717578876
1715158548304457348,-0.04,,,,6.725273662
1715158548312152134,-0.023,,,,6.732968448
1715158548319846936,-0.019,,,,6.74066325
1715158548327541652,-0.021,,,,6.748357966
1715158548335236368,-0.007,,,,6.756052682
1715158548342931084,0.007,,,,6.763747398
1715158548350625800,0.009,,,,6.771442114
1715158548358320516,0.009,,,,6.77913683
1715158548366015232,0.009,,,,6.786831546
1715158548373709948,0.016,,,,6.794526262
1715158548381404664,0.026,,,,6.802220978
1715158548389099380,0.033,,,,6.809915694
1715158548396794096,0.023,,,,6.81761041
1715158548404488812,0.021,,,,6.825305126
1715158548412183528,0.031,,,,6.832999842
1715158548419878244,0.016,,,,6.840694558
1715158548427572960,-0.011,,,,6.848389274
1715158548435267676,-0.004,,,,6.85608399
1715158548442962392,0.0,,,,6.863778706
1715158548450657108,-0.038,,,,6.871473422
1715158548458351824,-0.067,,,,6.879168138
1715158548466046540,-0.057,,,,6.886862854
1715158548473741256,-0.043,,,,6.89455757
1715158548481435972,-0.035,,,,6.902252286
1715158548489130688,-0.019,,,,6.909947002
1715158548496825404,0.002,,,,6.917641718
1715158548504520120,-0.011,,,,6.925336434
1715158548512214836,-0.033,,,,6.93303115
1715158548519909552,-0.035,,,,6.940725866
1715158548527604268,-0.04,,,,6.948420582
1715158548535298984,-0.055,,,,6.956115298
1715158548542993700,-0.05,,,,6.963810014
1715158548550688416,-0.052,,,,6.97150473
1715158548558383132,-0.098,,,,6.979199446
1715158548566077848,0.007,,,,6.986894162
1715158548573772564,0.5720000000000001,,,,6.994588878
1715158548581467280,1.128,,,,7.002283594
1715158548589161996,0.476,,,,7.00997831
1715158548596856712,-1.076,,,,7.017673026
1715158548604551428,-1.596,,,,7.025367742
1715158548612246144,-0.92,,,,7.033062458
1715158548619940860,-0.438,,,,7.040757174
1715158548627635576,-0.294,,,,7.04845189
1715158548635330292,-0.071,,,,7.056146606
1715158548643025008,0.033,,,,7.063841322
1715158548650719724,-0.007,,,,7.071536038
1715158548658414440,0.009,,,,7.079230754
1715158548666109156,0.055,,,,7.08692547
1715158548673803872,0.064,,,,7.094620186
1715158548681498588,0.071,,,,7.102314902
1715158548689193304,0.083,,,,7.110009618
1715158548696888020,0.079,,,,7.117704334
1715158548704582736,0.074,,,,7.12539905
1715158548712277452,0.081,,,,7.133093766
1715158548719972168,0.098,,,,7.140788482
1715158548727666884,0.134,,,,7.148483198
1715158548735361600,0.172,,,,7.156177914
1715158548743056316,0.191,,,,7.16387263
1715158548750751032,0.215,,,,7.171567346
1715158548758445748,0.242,,,,7.179262062
1715158548766140464,0.256,,,,7.186956778
1715158548773835180,0.249,,,,7.194651494
1715158548781529896,0.227,,,,7.20234621
1715158548789224612,0.201,,,,7.210040926
1715158548796919328,0.15,,,,7.217735642
1715158548804614044,0.076,,,,7.225430358
1715158548812308760,-0.007,,,,7.233125074
1715158548820003476,-0.088,,,,7.24081979
1715158548827698192,-0.136,,,,7.248514506
1715158548835392908,-0.155,,,,7.256209222
1715158548843087624,-0.174,,,,7.263903938
1715158548850782340,-0.186,,,,7.271598654
1715158548858477056,-0.186,,,,7.27929337
1715158548866171772,-0.179,,,,7.286988086
1715158548873866488,-0.167,,,,7.294682802
1715158548881561246,-0.146,104.0,550.0,,7.30237756
1715158548889255962,-0.129,,,,7.310072276
1715158548896950678,-0.124,,,,7.317766992
1715158548904645394,-0.107,,,,7.325461708
1715158548912340110,-0.091,,,,7.333156424
1715158548920034826,-0.081,,,,7.34085114
1715158548927729542,-0.069,,,,7.348545856
1715158548935424258,-0.057,,,,7.356240572
1715158548943118974,-0.052,,,,7.363935288
1715158548950813690,-0.05,,,,7.371630004
1715158548958508406,-0.055,,,,7.37932472
1715158548966203122,-0.055,,,,7.387019436
1715158548973897838,-0.045,,,,7.394714152
1715158548981592554,-0.045,,,,7.402408868
1715158548989287270,-0.055,,,,7.410103584
1715158548996981986,-0.057,,,,7.4177983
1715158549004676702,-0.059,,,,7.425493016
1715158549012371418,-0.059,,,,7.433187732
1715158549020066134,-0.055,,,,7.440882448
1715158549027760850,-0.031,,,,7.448577164
1715158549035455566,0.004,,,,7.45627188
1715158549043150282,0.023,,,,7.463966596
1715158549050844998,0.016,,,,7.471661312
1715158549058539714,-0.014,,,,7.479356028
1715158549066234430,-0.028,,,,7.487050744
1715158549073929146,-0.023,,,,7.49474546
1715158549081623862,-0.023,,,,7.502440176
1715158549089318578,-0.011,,,,7.510134892
1715158549097013294,0.002,,,,7.517829608
1715158549104708010,-0.016,,,,7.525524324
1715158549112402726,0.002,,,,7.53321904
1715158549120097442,0.354,,,,7.540913756
1715158549127792158,1.011,,,,7.548608472
1715158549135486874,0.953,,,,7.556303188
1715158549143181590,-0.407,,,,7.563997904
1715158549150876306,-1.507,,,,7.57169262
1715158549158571022,-1.104,,,,7.579387336
1715158549166265738,-0.39,,,,7.587082052
1715158549173960454,-0.21,,,,7.594776768
1715158549181655170,-0.033,,,,7.602471484
1715158549189349886,0.17,,,,7.6101662
1715158549197044602,0.143,,,,7.617860916
1715158549204739318,0.112,,,,7.625555632
1715158549212434034,0.167,,,,7.633250348
1715158549220128750,0.167,,,,7.640945064
1715158549227823466,0.155,,,,7.64863978
1715158549235518182,0.177,,,,7.656334496
1715158549243212898,0.184,,,,7.664029212
1715158549250907614,0.186,,,,7.671723928
1715158549258602330,0.201,,,,7.679418644
1715158549266297046,0.218,,,,7.68711336
1715158549273991762,0.232,,,,7.694808076
1715158549281686478,0.256,,,,7.702502792
1715158549289381194,0.282,,,,7.710197508
1715158549297075910,0.304,,,,7.717892224
1715158549304770626,0.323,,,,7.72558694
1715158549312465342,0.335,,,,7.733281656
1715158549320160058,0.328,,,,7.740976372
1715158549327854774,0.318,,,,7.748671088
1715158549335549490,0.309,,,,7.756365804
1715158549343244206,0.278,,,,7.76406052
1715158549350938922,0.22,,,,7.771755236
1715158549358633638,0.153,,,,7.779449952
1715158549366328354,0.091,,,,7.787144668
1715158549374023070,0.045,,,,7.794839384
1715158549381717786,0.016,,,,7.8025341
1715158549389412502,0.004,,,,7.810228816
1715158549397107218,0.0,,,,7.817923532
1715158549404801934,0.002,,,,7.825618248
1715158549412496650,0.009,,,,7.833312964
1715158549420191366,0.021,,,,7.84100768
1715158549427886082,0.035,,,,7.848702396
1715158549435580798,0.045,,,,7.856397112
1715158549443275554,0.045,,,,7.864091868
1715158549450970270,0.045,,,,7.871786584
1715158549458664986,0.062,,,,7.8794813
1715158549466359702,0.074,,,,7.887176016
1715158549474054418,0.083,,,,7.894870732
1715158549481749134,0.095,,,,7.902565448
1715158549489443850,0.103,,,,7.910260164
1715158549497138566,0.1,,,,7.91795488
1715158549504833282,0.107,,,,7.925649596
1715158549512527998,0.124,,,,7.933344312
1715158549520222714,0.131,,,,7.941039028
1715158549527917430,0.127,,,,7.948733744
1715158549535612146,0.127,,,,7.95642846
1715158549543306862,0.129,,,,7.964123176
1715158549551001578,0.124,,,,7.971817892
1715158549558696294,0.122,,,,7.979512608
1715158549566391010,0.139,,,,7.987207324
1715158549574085726,0.16,,,,7.99490204
1715158549581780442,0.189,,,,8.002596756
1715158549589475158,0.225,,,,8.010291472
1715158549597169874,0.239,,,,8.017986188
1715158549604864590,0.227,,,,8.025680904
1715158549612559306,0.213,,,,8.03337562
1715158549620254022,0.21,,,,8.041070336
1715158549627948738,0.22,,,,8.048765052
1715158549635643454,0.234,,,,8.056459768
1715158549643338170,0.237,,,,8.064154484
1715158549651032886,0.215,,,,8.0718492
1715158549658727602,0.234,,,,8.079543916
1715158549666422318,0.56,,,,8.087238632
1715158549674117034,1.248,,,,8.094933348
1715158549681811750,1.418,,,,8.102628064
1715158549689506466,0.242,,,,8.11032278
1715158549697201182,-1.064,,,,8.118017496
1715158549704895898,-0.901,,,,8.125712212
1715158549712590614,-0.134,,,,8.133406928
1715158549720285330,0.055,,,,8.141101644
1715158549727980046,0.115,,,,8.14879636
1715158549735674762,0.313,,,,8.156491076
1715158549743369478,0.354,,,,8.164185792
1715158549751064194,0.323,,,,8.171880508
1715158549758758910,0.364,,,,8.179575224
1715158549766453626,0.393,,,,8.18726994
1715158549774148342,0.397,,,,8.194964656
1715158549781843058,0.421,,,,8.202659372
1715158549789537774,0.448,,,,8.210354088
1715158549797232490,0.46,,,,8.218048804
1715158549804927206,0.462,,,,8.22574352
1715158549812621922,0.472,,,,8.233438236
1715158549820316638,0.496,,,,8.241132952
1715158549828011354,0.532,,,,8.248827668
1715158549835706070,0.56,,,,8.256522384
1715158549843400786,0.577,,,,8.2642171
1715158549851095502,0.594,,,,8.271911816
1715158549858790218,0.608,,,,8.279606532
1715158549866484934,0.603,,,,8.287301248
1715158549874179650,0.587,,,,8.294995964
1715158549881874366,0.5680000000000001,,,,8.30269068
1715158549889569082,0.536,,,,8.310385396
1715158549897263798,0.488,,,,8.318080112
1715158549904958514,0.417,,,,8.325774828
1715158549912653230,0.34,,,,8.333469544
1715158549920347946,0.28,,,,8.34116426
1715158549928042662,0.246,,,,8.348858976
1715158549935737378,0.222,,,,8.356553692
1715158549943432094,0.201,,,,8.364248408
1715158549951126810,0.186,,,,8.371943124
1715158549958821526,0.184,,,,8.37963784
1715158549966516242,0.191,,,,8.387332556
1715158549974210958,0.198,,,,8.395027272
1715158549981905674,0.201,,,,8.402721988
1715158549989600390,0.203,,,,8.410416704
1715158549997295106,0.208,,,,8.41811142
1715158550004989862,0.208,106.0,555.0,,8.425806176
1715158550012684857,0.203,,562.0,,8.433501171
1715158550020379852,0.206,,,,8.441196166
1715158550028074847,0.218,,,,8.448891161
1715158550035769842,0.213,,,,8.456586156
1715158550043464837,0.201,,,,8.464281151
1715158550051159832,0.196,,,,8.471976146
1715158550058854827,0.191,,,,8.479671141
1715158550066549822,0.182,,,,8.487366136
1715158550074244817,0.17,,,,8.495061131
1715158550081939812,0.165,,,,8.502756126
1715158550089634807,0.155,,,,8.510451121
1715158550097329802,0.141,,,,8.518146116
1715158550105024797,0.139,,,,8.525841111
1715158550112719792,0.146,,,,8.533536106
1715158550120414787,0.162,,,,8.541231101
1715158550128109782,0.184,,,,8.548926096
1715158550135804777,0.206,,,,8.556621091
1715158550143499772,0.208,,,,8.564316086
1715158550151194767,0.189,,,,8.572011081
1715158550158889762,0.172,,,,8.579706076
1715158550166584757,0.17,,,,8.587401071
1715158550174279752,0.174,,,,8.595096066
1715158550181974747,0.177,,,,8.602791061
1715158550189669742,0.179,,,,8.610486056
1715158550197364737,0.17,,,,8.618181051
1715158550205059732,0.141,,,,8.625876046
1715158550212754727,0.289,,,,8.633571041
1715158550220449722,0.884,,,,8.641266036
1715158550228144717,1.414,,,,8.648961031
1715158550235839712,0.716,,,,8.656656026
1715158550243534707,-0.771,,,,8.664351021
1715158550251229702,-1.152,,,,8.672046016
1715158550258924697,-0.426,,,,8.679741011
1715158550266619692,-0.033,,,,8.687436006
1715158550274314687,0.009,,,,8.695131001
1715158550282009682,0.194,,,,8.702825996
1715158550289704677,0.28,,,,8.710520991
1715158550297399672,0.218,,,,8.718215986
1715158550305094667,0.244,,,,8.725910981
1715158550312789662,0.292,,,,8.733605976
1715158550320484657,0.275,,,,8.741300971
1715158550328179652,0.278,,,,8.748995966
1715158550335874647,0.301,,,,8.756690961
1715158550343569642,0.304,,,,8.764385956
1715158550351264637,0.313,,,,8.772080951
1715158550358959632,0.333,,,,8.779775946
1715158550366654627,0.34,,,,8.787470941
1715158550374349622,0.357,,,,8.795165936
1715158550382044617,0.388,,,,8.802860931
1715158550389739612,0.412,,,,8.810555926
1715158550397434607,0.428,,,,8.818250921
1715158550405129602,0.448,,,,8.825945916
1715158550412824597,0.455,,,,8.833640911
1715158550420519592,0.44,,,,8.841335906
1715158550428214587,0.419,,,,8.849030901
1715158550435909582,0.397,,,,8.856725896
1715158550443604577,0.357,,,,8.864420891
1715158550451299572,0.299,,,,8.872115886
1715158550458994567,0.227,,,,8.879810881
1715158550466689562,0.165,,,,8.887505876
1715158550474384557,0.122,,,,8.895200871
1715158550482079552,0.093,,,,8.902895866
1715158550489774547,0.079,,,,8.910590861
1715158550497469542,0.071,,,,8.918285856
1715158550505164537,0.064,,,,8.925980851
1715158550512859532,0.062,,,,8.933675846
1715158550520554527,0.064,,,,8.941370841
1715158550528249522,0.076,,,,8.949065836
1715158550535944517,0.081,,,,8.956760831
1715158550543639512,0.081,,,,8.964455826
1715158550551334507,0.076,,,,8.972150821
1715158550559029502,0.071,,,,8.979845816
1715158550566724514,0.079,,,,8.987540828
1715158550574419300,0.083,,,,8.995235614
1715158550582114086,0.081,,,,9.0029304
1715158550589808872,0.091,,,,9.010625186
1715158550597503658,0.107,,,,9.018319972
1715158550605198444,0.119,,,,9.026014758
1715158550612893230,0.136,,,,9.033709544
1715158550620588016,0.143,,,,9.04140433
1715158550628282802,0.074,,,,9.049099116
1715158550635977588,-0.023,,,,9.056793902
1715158550643672374,-0.014,,,,9.064488688
1715158550651367160,0.038,,,,9.072183474
1715158550659061946,0.033,,,,9.07987826
1715158550666756732,0.021,,,,9.087573046
1715158550674451518,0.038,,,,9.095267832
1715158550682146304,0.062,,,,9.102962618
1715158550689841090,0.091,,,,9.110657404
1715158550697535876,0.112,,,,9.11835219
1715158550705230662,0.115,,,,9.126046976
1715158550712925448,0.093,,,,9.133741762
1715158550720620234,0.081,,,,9.141436548
1715158550728315020,0.083,,,,9.149131334
1715158550736009806,0.079,,,,9.15682612
1715158550743704592,0.074,,,,9.164520906
1715158550751399378,0.088,,,,9.172215692
1715158550759094164,0.069,,,,9.179910478
1715158550766788950,0.04,,,,9.187605264
1715158550774483736,0.299,,,,9.19530005
1715158550782178522,0.982,,,,9.202994836
1715158550789873308,1.258,,,,9.210689622
1715158550797568094,0.162,,,,9.218384408
1715158550805262880,-1.253,,,,9.226079194
1715158550812957666,-1.246,,,,9.23377398
1715158550820652452,-0.448,,,,9.241468766
1715158550828347238,-0.146,,,,9.249163552
1715158550836042024,-0.059,,,,9.256858338
1715158550843736810,0.129,,,,9.264553124
1715158550851431596,0.158,,,,9.27224791
1715158550859126382,0.119,,,,9.279942696
1715158550866821168,0.177,,,,9.287637482
1715158550874515954,0.201,,,,9.295332268
1715158550882210740,0.186,,,,9.303027054
1715158550889905526,0.206,,,,9.31072184
1715158550897600312,0.208,,,,9.318416626
1715158550905295098,0.201,,,,9.326111412
1715158550912989884,0.227,,,,9.333806198
1715158550920684670,0.251,,,,9.341500984
1715158550928379456,0.254,,,,9.34919577
1715158550936074242,0.273,,,,9.356890556
1715158550943769028,0.299,,,,9.364585342
1715158550951463814,0.316,,,,9.372280128
1715158550959158600,0.349,,,,9.379974914
1715158550966853386,0.371,,,,9.3876697
1715158550974548172,0.352,,,,9.395364486
1715158550982242958,0.328,,,,9.403059272
1715158550989937744,0.325,,,,9.410754058
1715158550997632530,0.318,,,,9.418448844
1715158551005327316,0.278,,,,9.42614363
1715158551013022102,0.196,,,,9.433838416
1715158551020716888,0.117,,,,9.441533202
1715158551028411674,0.071,,,,9.449227988
1715158551036106460,0.019,,,,9.456922774
1715158551043801246,-0.021,,,,9.46461756
1715158551051496032,-0.021,,,,9.472312346
1715158551059190818,-0.028,,,,9.480007132
1715158551066885604,-0.055,,,,9.487701918
1715158551074580390,-0.052,,,,9.495396704
1715158551082275176,-0.031,,,,9.50309149
1715158551089969962,-0.023,,,,9.510786276
1715158551097664748,-0.028,,,,9.518481062
1715158551105359534,-0.023,,,,9.526175848
1715158551113054320,-0.004,,,,9.533870634
1715158551120749106,0.007,,,,9.54156542
1715158551128443908,0.009,107.0,549.0,,9.549260222
1715158551136138694,0.007,,548.0,,9.556955008
1715158551143833480,0.009,,,,9.564649794
1715158551151528266,0.014,,,,9.57234458
1715158551159223052,0.002,,,,9.580039366
1715158551166917838,0.009,,,,9.587734152
1715158551174612624,0.011,,,,9.595428938
1715158551182307410,-0.014,,,,9.603123724
1715158551190002196,-0.023,,,,9.61081851
1715158551197696982,-0.023,,,,9.618513296
1715158551205391768,-0.055,,,,9.626208082
1715158551213086554,-0.091,,,,9.633902868
1715158551220781340,-0.098,,,,9.641597654
1715158551228476126,-0.098,,,,9.64929244
1715158551236170912,-0.095,,,,9.656987226
1715158551243865698,-0.079,,,,9.664682012
1715158551251560484,-0.055,,,,9.672376798
1715158551259255270,-0.045,,,,9.680071584
1715158551266950056,-0.057,,,,9.68776637
1715158551274644842,-0.076,,,,9.695461156
1715158551282339628,-0.086,,,,9.703155942
1715158551290034414,-0.079,,,,9.710850728
1715158551297729200,-0.069,,,,9.718545514
1715158551305423986,-0.064,,,,9.7262403
1715158551313118772,-0.055,,,,9.733935086
1715158551320813558,-0.064,,,,9.741629872
1715158551328508344,0.088,,,,9.749324658
1715158551336203130,0.6920000000000001,,,,9.757019444
1715158551343897916,1.219,,,,9.76471423
1715158551351592702,0.436,,,,9.772409016
1715158551359287488,-1.169,,,,9.780103802
1715158551366982274,-1.565,,,,9.787798588
1715158551374677060,-0.798,,,,9.795493374
1715158551382371846,-0.333,,,,9.80318816
1715158551390066632,-0.184,,,,9.810882946
1715158551397761418,0.064,,,,9.818577732
1715158551405456204,0.15,,,,9.826272518
1715158551413150990,0.064,,,,9.833967304
1715158551420845776,0.074,,,,9.84166209
1715158551428540562,0.129,,,,9.849356876
1715158551436235348,0.119,,,,9.857051662
1715158551443930134,0.098,,,,9.864746448
1715158551451624920,0.117,,,,9.872441234
1715158551459319706,0.148,,,,9.88013602
1715158551467014492,0.15,,,,9.887830806
1715158551474709278,0.146,,,,9.895525592
1715158551482404064,0.179,,,,9.903220378
1715158551490098850,0.222,,,,9.910915164
1715158551497793636,0.249,,,,9.91860995
1715158551505488422,0.28,,,,9.926304736
1715158551513183208,0.301,,,,9.933999522
1715158551520877994,0.306,,,,9.941694308
1715158551528572780,0.323,,,,9.949389094
1715158551536267566,0.328,,,,9.95708388
1715158551543962352,0.299,,,,9.964778666
1715158551551657138,0.263,,,,9.972473452
1715158551559351924,0.213,,,,9.980168238
1715158551567046710,0.129,,,,9.987863024
1715158551574741496,0.052,,,,9.99555781
1715158551582436282,0.002,,,,10.003252596
1715158551590131068,-0.043,,,,10.010947382
1715158551597825854,-0.088,,,,10.018642168
1715158551605520640,-0.11,,,,10.026336954
1715158551613215426,-0.11,,,,10.03403174
1715158551620910212,-0.1,,,,10.041726526
1715158551628604998,-0.098,,,,10.049421312
1715158551636299784,-0.103,,,,10.057116098
1715158551643994570,-0.11,,,,10.064810884
1715158551651689356,-0.103,,,,10.07250567
1715158551659384142,-0.083,,,,10.080200456
1715158551667078928,-0.069,,,,10.087895242
1715158551674773714,-0.064,,,,10.095590028
1715158551682468500,-0.062,,,,10.103284814
1715158551690163302,-0.052,,,,10.110979616
1715158551697858018,-0.038,,,,10.118674332
1715158551705552734,-0.033,,,,10.126369048
1715158551713247450,-0.033,,,,10.134063764
1715158551720942166,-0.028,,,,10.14175848
1715158551728636882,-0.019,,,,10.149453196
1715158551736331598,-0.016,,,,10.157147912
1715158551744026314,-0.019,,,,10.164842628
1715158551751721030,-0.026,,,,10.172537344
1715158551759415746,-0.033,,,,10.18023206
1715158551767110462,-0.045,,,,10.187926776
1715158551774805178,-0.059,,,,10.195621492
1715158551782499894,-0.057,,,,10.203316208
1715158551790194610,-0.028,,,,10.211010924
1715158551797889326,0.002,,,,10.21870564
1715158551805584042,0.031,,,,10.226400356
1715158551813278758,0.055,,,,10.234095072
1715158551820973474,0.057,,,,10.241789788
1715158551828668190,0.043,,,,10.249484504
1715158551836362906,0.04,,,,10.25717922
1715158551844057622,0.052,,,,10.264873936
1715158551851752338,0.067,,,,10.272568652
1715158551859447054,0.081,,,,10.280263368
1715158551867141770,0.088,,,,10.287958084
1715158551874836486,0.086,,,,10.2956528
1715158551882531202,0.218,,,,10.303347516
1715158551890225918,0.74,,,,10.311042232
1715158551897920634,1.289,,,,10.318736948
1715158551905615350,0.673,,,,10.326431664
1715158551913310066,-0.913,,,,10.33412638
1715158551921004782,-1.449,,,,10.341821096
1715158551928699498,-0.728,,,,10.349515812
1715158551936394214,-0.261,,,,10.357210528
1715158551944088930,-0.124,,,,10.364905244
1715158551951783646,0.155,,,,10.37259996
1715158551959478362,0.266,,,,10.380294676
1715158551967173078,0.189,,,,10.387989392
1715158551974867794,0.222,,,,10.395684108
1715158551982562510,0.287,,,,10.403378824
1715158551990257226,0.266,,,,10.41107354
1715158551997951942,0.27,,,,10.418768256
1715158552005646658,0.306,,,,10.426462972
1715158552013341374,0.309,,,,10.434157688
1715158552021036090,0.304,,,,10.441852404
1715158552028730806,0.333,,,,10.44954712
1715158552036425522,0.371,,,,10.457241836
1715158552044120238,0.393,,,,10.464936552
1715158552051814954,0.414,,,,10.472631268
1715158552059509670,0.448,,,,10.480325984
1715158552067204386,0.481,,,,10.4880207
1715158552074899102,0.491,,,,10.495715416
1715158552082593818,0.481,,,,10.503410132
1715158552090288534,0.474,,,,10.511104848
1715158552097983250,0.457,,,,10.518799564
1715158552105677966,0.424,,,,10.52649428
1715158552113372682,0.371,,,,10.534188996
1715158552121067398,0.306,,,,10.541883712
1715158552128762114,0.239,,,,10.549578428
1715158552136456830,0.189,,,,10.557273144
1715158552144151546,0.158,,,,10.56496786
1715158552151846262,0.134,,,,10.572662576
1715158552159540978,0.119,,,,10.580357292
1715158552167235694,0.119,,,,10.588052008
1715158552174930410,0.127,,,,10.595746724
1715158552182625126,0.131,,,,10.60344144
1715158552190319842,0.131,,,,10.611136156
1715158552198014558,0.127,,,,10.618830872
1715158552205709274,0.143,,,,10.626525588
1715158552213403990,0.167,,,,10.634220304
1715158552221098706,0.172,,,,10.64191502
1715158552228793422,0.179,,,,10.649609736
1715158552236488138,0.189,,,,10.657304452
1715158552244182854,0.189,,,,10.664999168
1715158552251877612,0.184,108.0,549.0,,10.672693926
1715158552259572049,0.177,,560.0,,10.680388363
1715158552267266486,0.179,,,,10.6880828
1715158552274960923,0.186,,,,10.695777237
1715158552282655360,0.182,,,,10.703471674
1715158552290349797,0.182,,,,10.711166111
1715158552298044234,0.179,,,,10.718860548
1715158552305738671,0.174,,,,10.726554985
1715158552313433108,0.158,,,,10.734249422
1715158552321127545,0.136,,,,10.741943859
1715158552328821982,0.131,,,,10.749638296
1715158552336516419,0.122,,,,10.757332733
1715158552344210856,0.11,,,,10.76502717
1715158552351905293,0.119,,,,10.772721607
1715158552359599730,0.139,,,,10.780416044
1715158552367294167,0.158,,,,10.788110481
1715158552374988604,0.158,,,,10.795804918
1715158552382683041,0.141,,,,10.803499355
1715158552390377478,0.134,,,,10.811193792
1715158552398071915,0.134,,,,10.818888229
1715158552405766352,0.139,,,,10.826582666
1715158552413460789,0.146,,,,10.834277103
1715158552421155226,0.15,,,,10.84197154
1715158552428849663,0.153,,,,10.849665977
1715158552436544100,0.158,,,,10.857360414
1715158552444238537,0.428,,,,10.865054851
1715158552451932974,1.107,,,,10.872749288
1715158552459627411,1.332,,,,10.880443725
1715158552467321848,0.182,,,,10.888138162
1715158552475016285,-1.198,,,,10.895832599
1715158552482710722,-1.092,,,,10.903527036
1715158552490405159,-0.258,,,,10.911221473
1715158552498099596,-0.007,,,,10.91891591
1715158552505794033,0.064,,,,10.926610347
1715158552513488470,0.263,,,,10.934304784
1715158552521182907,0.28,,,,10.941999221
1715158552528877344,0.232,,,,10.949693658
1715158552536571781,0.285,,,,10.957388095
1715158552544266218,0.311,,,,10.965082532
1715158552551960655,0.301,,,,10.972776969
1715158552559655092,0.311,,,,10.980471406
1715158552567349529,0.328,,,,10.988165843
1715158552575043966,0.321,,,,10.99586028
1715158552582738403,0.323,,,,11.003554717
1715158552590432840,0.354,,,,11.011249154
1715158552598127277,0.371,,,,11.018943591
1715158552605821714,0.388,,,,11.026638028
1715158552613516151,0.414,,,,11.034332465
1715158552621210588,0.424,,,,11.042026902
1715158552628905025,0.44,,,,11.049721339
1715158552636599462,0.457,,,,11.057415776
1715158552644293899,0.464,,,,11.065110213
1715158552651988336,0.452,,,,11.07280465
1715158552659682773,0.419,,,,11.080499087
1715158552667377210,0.388,,,,11.088193524
1715158552675071647,0.337,,,,11.095887961
1715158552682766084,0.261,,,,11.103582398
1715158552690460521,0.206,,,,11.111276835
1715158552698154958,0.16,,,,11.118971272
1715158552705849395,0.127,,,,11.126665709
1715158552713543832,0.095,,,,11.134360146
1715158552721238269,0.069,,,,11.142054583
1715158552728932706,0.067,,,,11.14974902
1715158552736627143,0.064,,,,11.157443457
1715158552744321580,0.064,,,,11.165137894
1715158552752016017,0.081,,,,11.172832331
1715158552759710454,0.074,,,,11.180526768
1715158552767404891,0.069,,,,11.188221205
1715158552775099328,0.081,,,,11.195915642
1715158552782793765,0.091,,,,11.203610079
1715158552790488202,0.103,,,,11.211304516
1715158552798182639,0.098,,,,11.218998953
1715158552805877076,0.093,,,,11.22669339
1715158552813571574,0.1,108.0,556.0,,11.234387888
1715158552821266569,0.1,,,,11.242082883
1715158552828961564,0.112,,,,11.249777878
1715158552836656559,0.115,,,,11.257472873
1715158552844351554,0.115,,,,11.265167868
1715158552852046549,0.119,,,,11.272862863
1715158552859741544,0.105,,,,11.280557858
1715158552867436539,0.1,,,,11.288252853
1715158552875131534,0.105,,,,11.295947848
1715158552882826529,0.091,,,,11.303642843
1715158552890521524,0.076,,,,11.311337838
1715158552898216519,0.069,,,,11.319032833
1715158552905911514,0.083,,,,11.326727828
1715158552913606509,0.11,,,,11.334422823
1715158552921301504,0.122,,,,11.342117818
1715158552928996499,0.134,,,,11.349812813
1715158552936691494,0.131,,,,11.357507808
1715158552944386489,0.112,,,,11.365202803
1715158552952081484,0.107,,,,11.372897798
1715158552959776479,0.105,,,,11.380592793
1715158552967471474,0.11,,,,11.388287788
1715158552975166469,0.117,,,,11.395982783
1715158552982861464,0.119,,,,11.403677778
1715158552990556459,0.103,,,,11.411372773
1715158552998251454,0.124,,,,11.419067768
1715158553005946449,0.503,,,,11.426762763
1715158553013641444,1.212,,,,11.434457758
1715158553021336439,1.181,,,,11.442152753
1715158553029031434,-0.189,,,,11.449847748
1715158553036726429,-1.33,,,,11.457542743
1715158553044421424,-0.961,,,,11.465237738
1715158553052116419,-0.258,,,,11.472932733
1715158553059811414,-0.115,,,,11.480627728
1715158553067506409,0.031,,,,11.488322723
1715158553075201404,0.222,,,,11.496017718
1715158553082896399,0.201,,,,11.503712713
1715158553090591394,0.189,,,,11.511407708
1715158553098286389,0.244,,,,11.519102703
1715158553105981384,0.244,,,,11.526797698
1715158553113676379,0.234,,,,11.534492693
1715158553121371374,0.246,,,,11.542187688
1715158553129066369,0.261,,,,11.549882683
1715158553136761364,0.263,,,,11.557577678
1715158553144456359,0.278,,,,11.565272673
1715158553152151354,0.301,,,,11.572967668
1715158553159846349,0.301,,,,11.580662663
1715158553167541344,0.323,,,,11.588357658
1715158553175236339,0.349,,,,11.596052653
1715158553182931334,0.364,,,,11.603747648
1715158553190626329,0.395,,,,11.611442643
1715158553198321324,0.405,,,,11.619137638
1715158553206016319,0.393,,,,11.626832633
1715158553213711314,0.381,,,,11.634527628
1715158553221406309,0.361,,,,11.642222623
1715158553229101304,0.342,,,,11.649917618
1715158553236796299,0.273,,,,11.657612613
1715158553244491294,0.182,,,,11.665307608
1715158553252186289,0.124,,,,11.673002603
1715158553259881284,0.064,,,,11.680697598
1715158553267576279,0.026,,,,11.688392593
1715158553275271274,0.007,,,,11.696087588
1715158553282966269,-0.009,,,,11.703782583
1715158553290661264,-0.009,,,,11.711477578
1715158553298356259,-0.016,,,,11.719172573
1715158553306051254,-0.009,,,,11.726867568
1715158553313746249,0.007,,,,11.734562563
1715158553321441244,0.002,,,,11.742257558
1715158553329136239,-0.002,,,,11.749952553
1715158553336831234,-0.007,,,,11.757647548
1715158553344526229,0.009,,,,11.765342543
1715158553352221224,0.035,,,,11.773037538
1715158553359916219,0.021,,,,11.780732533
1715158553367611214,0.009,,,,11.788427528
1715158553375306228,0.016,,,,11.796122542
1715158553383000805,0.021,,,,11.803817119
1715158553390695382,0.031,,,,11.811511696
1715158553398389959,0.021,,,,11.819206273
1715158553406084536,0.023,,,,11.82690085
1715158553413779113,0.028,,,,11.834595427
1715158553421473690,0.004,,,,11.842290004
1715158553429168267,-0.004,,,,11.849984581
1715158553436862844,-0.004,,,,11.857679158
1715158553444557421,-0.007,,,,11.865373735
1715158553452251998,-0.011,,,,11.873068312
1715158553459946575,-0.033,,,,11.880762889
1715158553467641152,-0.038,,,,11.888457466
1715158553475335729,-0.04,,,,11.896152043
1715158553483030306,-0.043,,,,11.90384662
1715158553490724883,-0.021,,,,11.911541197
1715158553498419460,-0.009,,,,11.919235774
1715158553506114037,0.009,,,,11.926930351
1715158553513808614,0.021,,,,11.934624928
1715158553521503191,0.002,,,,11.942319505
1715158553529197768,-0.004,,,,11.950014082
1715158553536892345,-0.011,,,,11.957708659
1715158553544586922,-0.009,,,,11.965403236
1715158553552281499,0.007,,,,11.973097813
1715158553559976076,0.0,,,,11.98079239
1715158553567670653,0.0,,,,11.988486967
1715158553575365230,0.011,,,,11.996181544
1715158553583059807,0.256,,,,12.003876121
1715158553590754384,0.937,,,,12.011570698
1715158553598448961,1.231,,,,12.019265275
1715158553606143538,0.119,,,,12.026959852
1715158553613838115,-1.32,,,,12.034654429
1715158553621532692,-1.31,,,,12.042349006
1715158553629227269,-0.52,,,,12.050043583
1715158553636921846,-0.23,,,,12.05773816
1715158553644616423,-0.105,,,,12.065432737
1715158553652311000,0.129,,,,12.073127314
1715158553660005577,0.158,,,,12.080821891
1715158553667700154,0.105,,,,12.088516468
1715158553675394731,0.153,,,,12.096211045
1715158553683089308,0.184,,,,12.103905622
1715158553690783885,0.179,,,,12.111600199
1715158553698478462,0.177,,,,12.119294776
1715158553706173039,0.189,,,,12.126989353
1715158553713867616,0.203,,,,12.13468393
1715158553721562193,0.208,,,,12.142378507
1715158553729256770,0.22,,,,12.150073084
1715158553736951347,0.23,,,,12.157767661
1715158553744645924,0.251,,,,12.165462238
1715158553752340501,0.285,,,,12.173156815
1715158553760035078,0.306,,,,12.180851392
1715158553767729655,0.33,,,,12.188545969
1715158553775424232,0.337,,,,12.196240546
1715158553783118809,0.333,,,,12.203935123
1715158553790813386,0.335,,,,12.2116297
1715158553798507963,0.311,,,,12.219324277
1715158553806202540,0.28,,,,12.227018854
1715158553813897117,0.234,,,,12.234713431
1715158553821591694,0.16,,,,12.242408008
1715158553829286271,0.103,,,,12.250102585
1715158553836980848,0.052,,,,12.257797162
1715158553844675425,0.014,,,,12.265491739
1715158553852370002,-0.007,,,,12.273186316
1715158553860064579,-0.026,,,,12.280880893
1715158553867759156,-0.023,,,,12.28857547
1715158553875453733,-0.023,,,,12.296270047
1715158553883148310,-0.019,,,,12.303964624
1715158553890842887,0.007,,,,12.311659201
1715158553898537464,0.004,,,,12.319353778
1715158553906232041,0.007,,,,12.327048355
1715158553913926618,0.031,,,,12.334742932
1715158553921621195,0.043,,,,12.342437509
1715158553929315772,0.05,,,,12.350132086
1715158553937010362,0.047,108.0,555.0,,12.357826676
1715158553944705148,0.057,,559.0,,12.365521462
1715158553952399934,0.076,,,,12.373216248
1715158553960094720,0.074,,,,12.380911034
1715158553967789506,0.071,,,,12.38860582
1715158553975484292,0.064,,,,12.396300606
1715158553983179078,0.052,,,,12.403995392
1715158553990873864,0.055,,,,12.411690178
1715158553998568650,0.047,,,,12.419384964
1715158554006263436,0.047,,,,12.42707975
1715158554013958222,0.057,,,,12.434774536
1715158554021653008,0.047,,,,12.442469322
1715158554029347794,0.052,,,,12.450164108
1715158554037042580,0.055,,,,12.457858894
1715158554044737366,0.059,,,,12.46555368
1715158554052432152,0.062,,,,12.473248466
1715158554060126938,0.04,,,,12.480943252
1715158554067821724,0.04,,,,12.488638038
1715158554075516510,0.043,,,,12.496332824
1715158554083211296,0.043,,,,12.50402761
1715158554090906082,0.071,,,,12.511722396
1715158554098600868,0.095,,,,12.519417182
1715158554106295654,0.117,,,,12.527111968
1715158554113990440,0.115,,,,12.534806754
1715158554121685226,0.088,,,,12.54250154
1715158554129380012,0.086,,,,12.550196326
1715158554137074798,0.083,,,,12.557891112
1715158554144769584,0.086,,,,12.565585898
1715158554152464370,0.1,,,,12.573280684
1715158554160159156,0.095,,,,12.58097547
1715158554167853942,0.098,,,,12.588670256
1715158554175548728,0.098,,,,12.596365042
1715158554183243514,0.258,,,,12.604059828
1715158554190938300,0.841,,,,12.611754614
1715158554198633086,1.337,,,,12.6194494
1715158554206327872,0.613,,,,12.627144186
1715158554214022658,-0.932,,,,12.634838972
1715158554221717444,-1.358,,,,12.642533758
1715158554229412230,-0.606,,,,12.650228544
1715158554237107016,-0.165,,,,12.65792333
1715158554244801802,-0.067,,,,12.665618116
1715158554252496588,0.158,,,,12.673312902
1715158554260191374,0.234,,,,12.681007688
1715158554267886160,0.17,,,,12.688702474
1715158554275580946,0.189,,,,12.69639726
1715158554283275732,0.22,,,,12.704092046
1715158554290970518,0.208,,,,12.711786832
1715158554298665304,0.203,,,,12.719481618
1715158554306360090,0.222,,,,12.727176404
1715158554314054876,0.23,,,,12.73487119
1715158554321749662,0.227,,,,12.742565976
1715158554329444448,0.251,,,,12.750260762
1715158554337139234,0.263,,,,12.757955548
1715158554344834020,0.278,,,,12.765650334
1715158554352528806,0.304,,,,12.77334512
1715158554360223592,0.325,,,,12.781039906
1715158554367918378,0.366,,,,12.788734692
1715158554375613164,0.395,,,,12.796429478
1715158554383307950,0.39,,,,12.804124264
1715158554391002736,0.381,,,,12.81181905
1715158554398697522,0.366,,,,12.819513836
1715158554406392308,0.352,,,,12.827208622
1715158554414087094,0.316,,,,12.834903408
1715158554421781880,0.254,,,,12.842598194
1715158554429476666,0.198,,,,12.85029298
1715158554437171452,0.139,,,,12.857987766
1715158554444866238,0.093,,,,12.865682552
1715158554452561024,0.079,,,,12.873377338
1715158554460255810,0.059,,,,12.881072124
1715158554467950596,0.055,,,,12.88876691
1715158554475645382,0.05,,,,12.896461696
1715158554483340168,0.045,,,,12.904156482
1715158554491034954,0.059,,,,12.911851268
1715158554498729756,0.067,,,,12.91954607
1715158554506424542,0.076,,,,12.927240856
1715158554514119328,0.098,,,,12.934935642
1715158554521814114,0.103,,,,12.942630428
1715158554529508900,0.098,,,,12.950325214
1715158554537203686,0.086,,,,12.95802
1715158554544898472,0.095,,,,12.965714786
1715158554552593258,0.107,,,,12.973409572
1715158554560288044,0.107,,,,12.981104358
1715158554567982830,0.115,,,,12.988799144
1715158554575677616,0.115,,,,12.99649393
1715158554583372402,0.112,,,,13.004188716
1715158554591067188,0.122,,,,13.011883502
1715158554598761974,0.117,,,,13.019578288
1715158554606456760,0.117,,,,13.027273074
1715158554614151546,0.122,,,,13.03496786
1715158554621846332,0.112,,,,13.042662646
1715158554629541118,0.117,,,,13.050357432
1715158554637235904,0.117,,,,13.058052218
1715158554644930690,0.117,,,,13.065747004
1715158554652625476,0.124,,,,13.07344179
1715158554660320262,0.119,,,,13.081136576
1715158554668015048,0.11,,,,13.088831362
1715158554675709834,0.1,,,,13.096526148
1715158554683404620,0.103,,,,13.104220934
1715158554691099406,0.131,,,,13.11191572
1715158554698794192,0.158,,,,13.119610506
1715158554706488978,0.182,,,,13.127305292
1715158554714183764,0.191,,,,13.135000078
1715158554721878550,0.174,,,,13.142694864
1715158554729573336,0.165,,,,13.15038965
1715158554737268122,0.153,,,,13.158084436
1715158554744962908,0.143,,,,13.165779222
1715158554752657694,0.15,,,,13.173474008
1715158554760352480,0.153,,,,13.181168794
1715158554768047266,0.162,,,,13.18886358
1715158554775742052,0.146,,,,13.196558366
1715158554783436838,0.174,,,,13.204253152
1715158554791131624,0.546,,,,13.211947938
1715158554798826410,1.198,,,,13.219642724
1715158554806521196,1.121,,,,13.22733751
1715158554814215982,-0.227,,,,13.235032296
1715158554821910768,-1.318,,,,13.242727082
1715158554829605554,-0.937,,,,13.250421868
1715158554837300340,-0.246,,,,13.258116654
1715158554844995126,-0.081,,,,13.26581144
1715158554852689912,0.067,,,,13.273506226
1715158554860384698,0.237,,,,13.281201012
1715158554868079484,0.21,,,,13.288895798
1715158554875774270,0.189,,,,13.296590584
1715158554883469056,0.251,,,,13.30428537
1715158554891163842,0.266,,,,13.311980156
1715158554898858628,0.242,,,,13.319674942
1715158554906553414,0.261,,,,13.327369728
1715158554914248200,0.28,,,,13.335064514
1715158554921942986,0.275,,,,13.3427593
1715158554929637772,0.285,,,,13.350454086
1715158554937332558,0.299,,,,13.358148872
1715158554945027344,0.321,,,,13.365843658
1715158554952722130,0.342,,,,13.373538444
1715158554960416916,0.354,,,,13.38123323
1715158554968111702,0.381,,,,13.388928016
1715158554975806488,0.405,,,,13.396622802
1715158554983501274,0.419,,,,13.404317588
1715158554991196060,0.424,,,,13.412012374
1715158554998890846,0.407,,,,13.41970716
1715158555006585632,0.388,,,,13.427401946
1715158555014280418,0.354,,,,13.435096732
1715158555021975204,0.287,,,,13.442791518
1715158555029669990,0.22,,,,13.450486304
1715158555037364776,0.162,,,,13.45818109
1715158555045059562,0.112,,,,13.465875876
1715158555052754348,0.071,,,,13.473570662
1715158555060449150,0.055,108.0,561.0,,13.481265464
1715158555068143936,0.057,,579.0,,13.48896025
1715158555075838722,0.055,,,,13.496655036
1715158555083533508,0.05,,,,13.504349822
1715158555091228294,0.059,,,,13.512044608
1715158555098923080,0.071,,,,13.519739394
1715158555106617866,0.076,,,,13.52743418
1715158555114312652,0.071,,,,13.535128966
1715158555122007438,0.071,,,,13.542823752
1715158555129702224,0.088,,,,13.550518538
1715158555137397010,0.088,,,,13.558213324
1715158555145091796,0.091,,,,13.56590811
1715158555152786582,0.107,,,,13.573602896
1715158555160481368,0.1,,,,13.581297682
1715158555168176154,0.1,,,,13.588992468
1715158555175870940,0.112,,,,13.596687254
1715158555183565726,0.115,,,,13.60438204
1715158555191260512,0.115,,,,13.612076826
1715158555198955298,0.1,,,,13.619771612
1715158555206650084,0.098,,,,13.627466398
1715158555214344870,0.107,,,,13.635161184
1715158555222039656,0.098,,,,13.64285597
1715158555229734442,0.083,,,,13.650550756
1715158555237429228,0.064,,,,13.658245542
1715158555245124014,0.059,,,,13.665940328
1715158555252818800,0.067,,,,13.673635114
1715158555260513586,0.064,,,,13.6813299
1715158555268208372,0.086,,,,13.689024686
1715158555275903158,0.115,,,,13.696719472
1715158555283597944,0.115,,,,13.704414258
1715158555291292730,0.098,,,,13.712109044
1715158555298987516,0.083,,,,13.71980383
1715158555306682302,0.069,,,,13.727498616
1715158555314377088,0.062,,,,13.735193402
1715158555322071874,0.069,,,,13.742888188
1715158555329766660,0.081,,,,13.750582974
1715158555337461446,0.069,,,,13.75827776
1715158555345156232,0.052,,,,13.765972546
1715158555352851018,0.143,,,,13.773667332
1715158555360545804,0.599,,,,13.781362118
1715158555368240590,1.21,,,,13.789056904
1715158555375935376,0.85,,,,13.79675169
1715158555383630162,-0.615,,,,13.804446476
1715158555391324948,-1.387,,,,13.812141262
1715158555399019734,-0.805,,,,13.819836048
1715158555406714520,-0.206,,,,13.827530834
1715158555414409306,-0.1,,,,13.83522562
1715158555422104092,0.045,,,,13.842920406
1715158555429798878,0.174,,,,13.850615192
1715158555437493664,0.129,,,,13.858309978
1715158555445188450,0.131,,,,13.866004764
1715158555452883236,0.189,,,,13.87369955
1715158555460578022,0.174,,,,13.881394336
1715158555468272808,0.16,,,,13.889089122
1715158555475967594,0.177,,,,13.896783908
1715158555483662380,0.201,,,,13.904478694
1715158555491357166,0.218,,,,13.91217348
1715158555499051952,0.22,,,,13.919868266
1715158555506746738,0.242,,,,13.927563052
1715158555514441524,0.268,,,,13.935257838
1715158555522136310,0.287,,,,13.942952624
1715158555529831096,0.316,,,,13.95064741
1715158555537525882,0.345,,,,13.958342196
1715158555545220668,0.369,,,,13.966036982
1715158555552915454,0.383,,,,13.973731768
1715158555560610240,0.376,,,,13.981426554
1715158555568305026,0.369,,,,13.98912134
1715158555575999812,0.347,,,,13.996816126
1715158555583694598,0.304,,,,14.004510912
1715158555591389384,0.234,,,,14.012205698
1715158555599084170,0.15,,,,14.019900484
1715158555606778956,0.105,,,,14.02759527
1715158555614473742,0.074,,,,14.035290056
1715158555622168546,0.031,,,,14.04298486
1715158555629863332,0.023,,,,14.050679646
1715158555637558118,0.021,,,,14.058374432
1715158555645252904,0.007,,,,14.066069218
1715158555652947690,0.004,,,,14.073764004
1715158555660642476,0.016,,,,14.08145879
1715158555668337262,0.038,,,,14.089153576
1715158555676032048,0.038,,,,14.096848362
1715158555683726834,0.04,,,,14.104543148
1715158555691421620,0.057,,,,14.112237934
1715158555699116406,0.064,,,,14.11993272
1715158555706811192,0.071,,,,14.127627506
1715158555714505978,0.079,,,,14.135322292
1715158555722200764,0.079,,,,14.143017078
1715158555729895550,0.088,,,,14.150711864
1715158555737590336,0.079,,,,14.15840665
1715158555745285122,0.064,,,,14.166101436
1715158555752979908,0.079,,,,14.173796222
1715158555760674694,0.093,,,,14.181491008
1715158555768369480,0.098,,,,14.189185794
1715158555776064266,0.091,,,,14.19688058
1715158555783759052,0.081,,,,14.204575366
1715158555791453838,0.067,,,,14.212270152
1715158555799148624,0.045,,,,14.219964938
1715158555806843410,0.05,,,,14.227659724
1715158555814538196,0.059,,,,14.23535451
1715158555822232982,0.059,,,,14.243049296
1715158555829927768,0.093,,,,14.250744082
1715158555837622554,0.124,,,,14.258438868
1715158555845317340,0.136,,,,14.266133654
1715158555853012126,0.122,,,,14.27382844
1715158555860706912,0.088,,,,14.281523226
1715158555868401698,0.083,,,,14.289218012
1715158555876096484,0.093,,,,14.296912798
1715158555883791270,0.095,,,,14.304607584
1715158555891486056,0.1,,,,14.31230237
1715158555899180842,0.093,,,,14.319997156
1715158555906875628,0.071,,,,14.327691942
1715158555914570414,0.172,,,,14.335386728
1715158555922265200,0.683,,,,14.343081514
1715158555929959986,1.27,,,,14.3507763
1715158555937654772,0.754,,,,14.358471086
1715158555945349558,-0.74,,,,14.366165872
1715158555953044344,-1.339,,,,14.373860658
1715158555960739130,-0.683,,,,14.381555444
1715158555968433916,-0.165,,,,14.38925023
1715158555976128702,-0.074,,,,14.396945016
1715158555983823488,0.105,,,,14.404639802
1715158555991518274,0.225,,,,14.412334588
1715158555999213060,0.17,,,,14.420029374
1715158556006907846,0.182,,,,14.42772416
1715158556014602632,0.234,,,,14.435418946
1715158556022297418,0.225,,,,14.443113732
1715158556029992204,0.234,,,,14.450808518
1715158556037686990,0.249,,,,14.458503304
1715158556045381776,0.249,,,,14.46619809
1715158556053076562,0.256,,,,14.473892876
1715158556060771348,0.268,,,,14.481587662
1715158556068466134,0.289,,,,14.489282448
1715158556076160920,0.309,,,,14.496977234
1715158556083855706,0.34,,,,14.50467202
1715158556091550492,0.381,,,,14.512366806
1715158556099245278,0.405,,,,14.520061592
1715158556106940064,0.424,,,,14.527756378
1715158556114634850,0.436,,,,14.535451164
1715158556122329636,0.428,,,,14.54314595
1715158556130024422,0.417,,,,14.550840736
1715158556137719208,0.383,,,,14.558535522
1715158556145413994,0.345,,,,14.566230308
1715158556153108780,0.289,,,,14.573925094
1715158556160803566,0.213,,,,14.58161988
1715158556168498352,0.15,,,,14.589314666
1715158556176193138,0.105,,,,14.597009452
1715158556183887940,0.074,106.0,603.0,,14.604704254
1715158556191582726,0.059,,604.0,,14.61239904
1715158556199277512,0.04,,,,14.620093826
1715158556206972298,0.038,,,,14.627788612
1715158556214667084,0.04,,,,14.635483398
1715158556222361870,0.045,,,,14.643178184
1715158556230056656,0.057,,,,14.65087297
1715158556237751442,0.057,,,,14.658567756
1715158556245446228,0.057,,,,14.666262542
1715158556253141014,0.067,,,,14.673957328
1715158556260835800,0.074,,,,14.681652114
1715158556268530586,0.081,,,,14.6893469
1715158556276225372,0.079,,,,14.697041686
1715158556283920158,0.086,,,,14.704736472
1715158556291614944,0.093,,,,14.712431258
1715158556299309730,0.074,,,,14.720126044
1715158556307004516,0.057,,,,14.72782083
1715158556314699302,0.057,,,,14.735515616
1715158556322394088,0.064,,,,14.743210402
1715158556330088874,0.069,,,,14.750905188
1715158556337783660,0.057,,,,14.758599974
1715158556345478446,0.057,,,,14.76629476
1715158556353173232,0.057,,,,14.773989546
1715158556360868018,0.043,,,,14.781684332
1715158556368562804,0.035,,,,14.789379118
1715158556376257590,0.035,,,,14.797073904
1715158556383952376,0.057,,,,14.80476869
1715158556391647162,0.091,,,,14.812463476
1715158556399341948,0.107,,,,14.820158262
1715158556407036734,0.119,,,,14.827853048
1715158556414731520,0.112,,,,14.835547834
1715158556422426306,0.086,,,,14.84324262
1715158556430121092,0.081,,,,14.850937406
1715158556437815878,0.081,,,,14.858632192
1715158556445510664,0.081,,,,14.866326978
1715158556453205450,0.086,,,,14.874021764
1715158556460900236,0.071,,,,14.88171655
1715158556468595022,0.045,,,,14.889411336
1715158556476289808,0.17,,,,14.897106122
1715158556483984594,0.723,,,,14.904800908
1715158556491679380,1.282,,,,14.912495694
1715158556499374166,0.656,,,,14.92019048
1715158556507068952,-0.879,,,,14.927885266
1715158556514763738,-1.409,,,,14.935580052
1715158556522458524,-0.6950000000000001,,,,14.943274838
1715158556530153310,-0.186,,,,14.950969624
1715158556537848096,-0.088,,,,14.95866441
1715158556545542882,0.103,,,,14.966359196
1715158556553237668,0.196,,,,14.974053982
1715158556560932454,0.131,,,,14.981748768
1715158556568627240,0.162,,,,14.989443554
1715158556576322026,0.218,,,,14.99713834
1715158556584016812,0.206,,,,15.004833126
1715158556591711598,0.21,,,,15.012527912
1715158556599406384,0.222,,,,15.020222698
1715158556607101170,0.22,,,,15.027917484
1715158556614795956,0.23,,,,15.03561227
1715158556622490742,0.254,,,,15.043307056
1715158556630185528,0.278,,,,15.051001842
1715158556637880314,0.294,,,,15.058696628
1715158556645575100,0.313,,,,15.066391414
1715158556653269886,0.342,,,,15.0740862
1715158556660964672,0.369,,,,15.081780986
1715158556668659458,0.393,,,,15.089475772
1715158556676354244,0.397,,,,15.097170558
1715158556684049030,0.397,,,,15.104865344
1715158556691743816,0.385,,,,15.11256013
1715158556699438602,0.345,,,,15.120254916
1715158556707133388,0.301,,,,15.127949702
1715158556714828174,0.251,,,,15.135644488
1715158556722522960,0.182,,,,15.143339274
1715158556730217746,0.124,,,,15.15103406
1715158556737912532,0.071,,,,15.158728846
1715158556745607334,0.031,105.0,568.0,,15.166423648
1715158556753302120,0.014,,,,15.174118434
1715158556760996906,0.004,,,,15.18181322
1715158556768691692,0.004,,,,15.189508006
1715158556776386478,0.007,,,,15.197202792
1715158556784081264,0.009,,,,15.204897578
1715158556791776050,0.007,,,,15.212592364
1715158556799470836,-0.002,,,,15.22028715
1715158556807165622,0.004,,,,15.227981936
1715158556814860408,0.007,,,,15.235676722
1715158556822555194,0.002,,,,15.243371508
1715158556830249980,0.016,,,,15.251066294
1715158556837944766,0.035,,,,15.25876108
1715158556845639552,0.038,,,,15.266455866
1715158556853334338,0.023,,,,15.274150652
1715158556861029124,0.014,,,,15.281845438
1715158556868723910,0.028,,,,15.289540224
1715158556876418696,0.031,,,,15.29723501
1715158556884113482,0.033,,,,15.304929796
1715158556891808268,0.038,,,,15.312624582
1715158556899503054,0.002,,,,15.320319368
1715158556907197840,-0.009,,,,15.328014154
1715158556914892626,0.021,,,,15.33570894
1715158556922587412,0.014,,,,15.343403726
1715158556930282198,-0.011,,,,15.351098512
1715158556937976984,-0.004,,,,15.358793298
1715158556945671770,-0.014,,,,15.366488084
1715158556953366556,-0.043,,,,15.37418287
1715158556961061342,-0.004,,,,15.381877656
1715158556968756128,0.045,,,,15.389572442
1715158556976450914,0.009,,,,15.397267228
1715158556984145700,-0.004,,,,15.404962014
1715158556991840486,0.019,,,,15.4126568
1715158556999535272,-0.009,,,,15.420351586
1715158557007230058,-0.014,,,,15.428046372
1715158557014924844,0.019,,,,15.435741158
1715158557022619630,0.021,,,,15.443435944
1715158557030314416,0.023,,,,15.45113073
1715158557038009202,0.019,,,,15.458825516
1715158557045703988,-0.004,,,,15.466520302
1715158557053398774,0.186,,,,15.474215088
1715158557061093560,0.8190000000000001,,,,15.481909874
1715158557068788346,1.27,,,,15.48960466
1715158557076483132,0.364,,,,15.497299446
1715158557084177918,-1.217,,,,15.504994232
1715158557091872704,-1.481,,,,15.512689018
1715158557099567490,-0.685,,,,15.520383804
1715158557107262276,-0.273,,,,15.52807859
1715158557114957062,-0.158,,,,15.535773376
1715158557122651848,0.079,,,,15.543468162
1715158557130346634,0.15,,,,15.551162948
1715158557138041420,0.057,,,,15.558857734
1715158557145736206,0.103,,,,15.56655252
1715158557153430992,0.194,,,,15.574247306
1715158557161125778,0.16,,,,15.581942092
1715158557168820564,0.131,,,,15.589636878
1715158557176515350,0.167,,,,15.597331664
1715158557184210136,0.182,,,,15.60502645
1715158557191904922,0.172,,,,15.612721236
1715158557199599708,0.196,,,,15.620416022
1715158557207294494,0.237,,,,15.628110808
1715158557214989280,0.239,,,,15.635805594
1715158557222684066,0.251,,,,15.64350038
1715158557230378852,0.304,,,,15.651195166
1715158557238073638,0.333,,,,15.658889952
1715158557245768424,0.342,,,,15.666584738
1715158557253463210,0.345,,,,15.674279524
1715158557261157996,0.337,,,,15.68197431
1715158557268852782,0.347,,,,15.689669096
1715158557276547568,0.311,,,,15.697363882
1715158557284242354,0.227,,,,15.705058668
1715158557291937140,0.186,,,,15.712753454
1715158557299631926,0.155,,,,15.72044824
1715158557307326728,0.083,,,,15.728143042
1715158557315021514,0.002,,,,15.735837828
1715158557322716300,-0.026,,,,15.743532614
1715158557330411086,-0.002,,,,15.7512274
1715158557338105872,-0.004,,,,15.758922186
1715158557345800658,-0.067,,,,15.766616972
1715158557353495444,-0.105,,,,15.774311758
1715158557361190230,-0.057,,,,15.782006544
1715158557368885016,-0.002,,,,15.78970133
1715158557376579802,-0.016,,,,15.797396116
1715158557384274588,-0.011,,,,15.805090902
1715158557391969374,0.026,,,,15.812785688
1715158557399664160,0.002,,,,15.820480474
1715158557407358946,-0.021,,,,15.82817526
1715158557415053732,0.0,,,,15.835870046
1715158557422748518,0.038,,,,15.843564832
1715158557430443304,0.059,,,,15.851259618
1715158557438138090,0.04,,,,15.858954404
1715158557445832876,-0.007,,,,15.86664919
1715158557453527662,-0.014,,,,15.874343976
1715158557461222448,0.05,,,,15.882038762
1715158557468917234,0.076,,,,15.889733548
1715158557476612020,0.0,,,,15.897428334
1715158557484306806,-0.038,,,,15.90512312
1715158557492001592,0.014,,,,15.912817906
1715158557499696378,0.047,,,,15.920512692
1715158557507391164,0.05,,,,15.928207478
1715158557515085950,0.047,,,,15.935902264
1715158557522780736,0.055,,,,15.94359705
1715158557530475522,0.083,,,,15.951291836
1715158557538170308,0.076,,,,15.958986622
1715158557545865094,0.016,,,,15.966681408
1715158557553559880,0.038,,,,15.974376194
1715158557561254666,0.16,,,,15.98207098
1715158557568949452,0.16,,,,15.989765766
1715158557576644238,0.052,,,,15.997460552
1715158557584339024,0.057,,,,16.005155338
1715158557592033810,0.093,,,,16.012850124
1715158557599728596,0.055,,,,16.02054491
1715158557607423382,0.074,,,,16.028239696
1715158557615118168,0.141,,,,16.035934482
1715158557622812954,0.124,,,,16.043629268
1715158557630507740,0.052,,,,16.051324054
1715158557638202526,0.16,,,,16.05901884
1715158557645897312,0.752,,,,16.066713626
1715158557653592098,1.399,,,,16.074408412
1715158557661286884,0.798,,,,16.082103198
1715158557668981670,-0.905,,,,16.089797984
1715158557676676456,-1.598,,,,16.09749277
1715158557684371242,-0.901,,,,16.105187556
1715158557692066028,-0.364,,,,16.112882342
1715158557699760814,-0.184,,,,16.120577128
1715158557707455600,0.1,,,,16.128271914
1715158557715150386,0.22,,,,16.1359667
1715158557722845172,0.182,,,,16.143661486
1715158557730539958,0.225,,,,16.151356272
1715158557738234744,0.225,,,,16.159051058
1715158557745929530,0.203,,,,16.166745844
1715158557753624316,0.289,,,,16.17444063
1715158557761319102,0.335,,,,16.182135416
1715158557769013888,0.28,,,,16.189830202
1715158557776708674,0.282,,,,16.197524988
1715158557784403460,0.349,,,,16.205219774
1715158557792098246,0.349,,,,16.21291456
1715158557799793032,0.361,,,,16.220609346
1715158557807487818,0.436,,,,16.228304132
1715158557815182604,0.405,,,,16.235998918
1715158557822877390,0.395,,,,16.243693704
1715158557830572176,0.524,,,,16.25138849
1715158557838266962,0.56,,,,16.259083276
1715158557845961748,0.496,,,,16.266778062
1715158557853656534,0.464,,,,16.274472848
1715158557861351320,0.428,,,,16.282167634
1715158557869046122,0.357,105.0,561.0,,16.289862436
1715158557876740908,0.311,,562.0,,16.297557222
1715158557884435694,0.306,,,,16.305252008
1715158557892130480,0.234,,,,16.312946794
1715158557899825266,0.083,,,,16.32064158
1715158557907520052,0.028,,,,16.328336366
1715158557915214838,0.055,,,,16.336031152
1715158557922909624,0.043,,,,16.343725938
1715158557930604410,0.043,,,,16.351420724
1715158557938299196,0.067,,,,16.35911551
1715158557945993982,0.069,,,,16.366810296
1715158557953688768,0.038,,,,16.374505082
1715158557961383554,0.028,,,,16.382199868
1715158557969078340,0.091,,,,16.389894654
1715158557976773126,0.115,,,,16.39758944
1715158557984467912,0.093,,,,16.405284226
1715158557992162698,0.124,,,,16.412979012
1715158557999857484,0.139,,,,16.420673798
1715158558007552270,0.098,,,,16.428368584
1715158558015247056,0.122,,,,16.43606337
1715158558022941842,0.148,,,,16.443758156
1715158558030636628,0.1,,,,16.451452942
1715158558038331414,0.124,,,,16.459147728
1715158558046026200,0.208,,,,16.466842514
1715158558053720986,0.194,,,,16.4745373
1715158558061415772,0.11,,,,16.482232086
1715158558069110558,0.091,,,,16.489926872
1715158558076805344,0.129,,,,16.497621658
1715158558084500130,0.127,,,,16.505316444
1715158558092194916,0.124,,,,16.51301123
1715158558099889702,0.167,,,,16.520706016
1715158558107584488,0.203,,,,16.528400802
1715158558115279274,0.177,,,,16.536095588
1715158558122974060,0.1,,,,16.543790374
1715158558130668846,0.081,,,,16.55148516
1715158558138363632,0.148,,,,16.559179946
1715158558146058418,0.17,,,,16.566874732
1715158558153753204,0.146,,,,16.574569518
1715158558161447990,0.206,,,,16.582264304
1715158558169142776,0.263,,,,16.58995909
1715158558176837562,0.177,,,,16.597653876
1715158558184532348,0.117,,,,16.605348662
1715158558192227134,0.162,,,,16.613043448
1715158558199921920,0.143,,,,16.620738234
1715158558207616706,0.115,,,,16.62843302
1715158558215311492,0.198,,,,16.636127806
1715158558223006278,0.273,,,,16.643822592
1715158558230701064,0.179,,,,16.651517378
1715158558238395850,0.268,,,,16.659212164
1715158558246090636,1.011,,,,16.66690695
1715158558253785422,1.536,,,,16.674601736
1715158558261480208,0.452,,,,16.682296522
1715158558269174994,-1.255,,,,16.689991308
1715158558276869780,-1.409,,,,16.697686094
1715158558284564566,-0.515,,,,16.70538088
1715158558292259352,-0.177,,,,16.713075666
1715158558299954138,-0.105,,,,16.720770452
1715158558307648924,0.196,,,,16.728465238
1715158558315343710,0.301,,,,16.736160024
1715158558323038496,0.186,,,,16.74385481
1715158558330733282,0.222,,,,16.751549596
1715158558338428068,0.321,,,,16.759244382
1715158558346122854,0.316,,,,16.766939168
1715158558353817640,0.287,,,,16.774633954
1715158558361512426,0.313,,,,16.78232874
1715158558369207212,0.364,,,,16.790023526
1715158558376901998,0.311,,,,16.797718312
1715158558384596784,0.256,,,,16.805413098
1715158558392291570,0.347,,,,16.813107884
1715158558399986356,0.424,,,,16.82080267
1715158558407681142,0.414,,,,16.828497456
1715158558415375928,0.402,,,,16.836192242
1715158558423070714,0.428,,,,16.843887028
1715158558430765516,0.467,,,,16.85158183
1715158558438460302,0.469,,,,16.859276616
1715158558446155088,0.469,,,,16.866971402
1715158558453849874,0.448,,,,16.874666188
1715158558461544660,0.402,,,,16.882360974
1715158558469239446,0.369,,,,16.89005576
1715158558476934232,0.289,,,,16.897750546
1715158558484629018,0.196,,,,16.905445332
1715158558492323804,0.162,,,,16.913140118
1715158558500018590,0.107,,,,16.920834904
1715158558507713376,0.014,,,,16.92852969
1715158558515408162,-0.007,,,,16.936224476
1715158558523102948,0.033,,,,16.943919262
1715158558530797734,0.023,,,,16.951614048
1715158558538492520,0.004,,,,16.959308834
1715158558546187306,0.045,,,,16.96700362
1715158558553882092,0.043,,,,16.974698406
1715158558561576878,0.004,,,,16.982393192
1715158558569271664,0.052,,,,16.990087978
1715158558576966450,0.11,,,,16.997782764
1715158558584661236,0.076,,,,17.00547755
1715158558592356022,0.035,,,,17.013172336
1715158558600050808,0.079,,,,17.020867122
1715158558607745594,0.134,,,,17.028561908
1715158558615440380,0.119,,,,17.036256694
1715158558623135166,0.088,,,,17.04395148
1715158558630829952,0.091,,,,17.051646266
1715158558638524738,0.1,,,,17.059341052
1715158558646219524,0.103,,,,17.067035838
1715158558653914310,0.107,,,,17.074730624
1715158558661609096,0.093,,,,17.08242541
1715158558669303882,0.081,,,,17.090120196
1715158558676998668,0.088,,,,17.097814982
1715158558684693454,0.088,,,,17.105509768
1715158558692388240,0.055,,,,17.113204554
1715158558700083026,0.055,,,,17.12089934
1715158558707777812,0.103,,,,17.128594126
1715158558715472598,0.093,,,,17.136288912
1715158558723167384,0.05,,,,17.143983698
1715158558730862170,0.064,,,,17.151678484
1715158558738556956,0.088,,,,17.15937327
1715158558746251742,0.086,,,,17.167068056
1715158558753946528,0.057,,,,17.174762842
1715158558761641314,0.043,,,,17.182457628
1715158558769336100,0.095,,,,17.190152414
1715158558777030886,0.146,,,,17.1978472
1715158558784725672,0.131,,,,17.205541986
1715158558792420458,0.086,,,,17.213236772
1715158558800115244,0.086,,,,17.220931558
1715158558807810030,0.107,,,,17.228626344
1715158558815504816,0.062,,,,17.23632113
1715158558823199602,0.023,,,,17.244015916
1715158558830894388,0.059,,,,17.251710702
1715158558838589174,0.086,,,,17.259405488
1715158558846283960,0.074,,,,17.267100274
1715158558853978746,0.05,,,,17.27479506
1715158558861673532,0.206,,,,17.282489846
1715158558869368318,0.807,,,,17.290184632
1715158558877063104,1.361,,,,17.297879418
1715158558884757890,0.591,,,,17.305574204
1715158558892452676,-1.159,,,,17.31326899
1715158558900147462,-1.663,,,,17.320963776
1715158558907842248,-0.802,,,,17.328658562
1715158558915537034,-0.325,,,,17.336353348
1715158558923231820,-0.222,,,,17.344048134
1715158558930926606,0.086,,,,17.35174292
1715158558938621392,0.208,,,,17.359437706
1715158558946316178,0.117,,,,17.367132492
1715158558954010964,0.139,,,,17.374827278
1715158558961705750,0.196,,,,17.382522064
1715158558969400536,0.194,,,,17.39021685
1715158558977095322,0.182,,,,17.397911636
1715158558984790108,0.194,,,,17.405606422
1715158558992484912,0.213,105.0,576.0,,17.413301226
1715158559000179698,0.222,,587.0,,17.420996012
1715158559007874484,0.234,,,,17.428690798
1715158559015569270,0.251,,,,17.436385584
1715158559023264056,0.266,,,,17.44408037
1715158559030958842,0.278,,,,17.451775156
1715158559038653628,0.306,,,,17.459469942
1715158559046348414,0.357,,,,17.467164728
1715158559054043200,0.373,,,,17.474859514
1715158559061737986,0.361,,,,17.4825543
1715158559069432772,0.354,,,,17.490249086
1715158559077127558,0.328,,,,17.497943872
1715158559084822344,0.311,,,,17.505638658
1715158559092517130,0.282,,,,17.513333444
1715158559100211916,0.198,,,,17.52102823
1715158559107906702,0.134,,,,17.528723016
1715158559115601488,0.069,,,,17.536417802
1715158559123296274,-0.019,,,,17.544112588
1715158559130991060,-0.047,,,,17.551807374
1715158559138685846,-0.043,,,,17.55950216
1715158559146380632,-0.052,,,,17.567196946
1715158559154075418,-0.069,,,,17.574891732
1715158559161770204,-0.071,,,,17.582586518
1715158559169464990,-0.059,,,,17.590281304
1715158559177159776,-0.05,,,,17.59797609
1715158559184854562,-0.028,,,,17.605670876
1715158559192549348,-0.014,,,,17.613365662
1715158559200244134,-0.023,,,,17.621060448
1715158559207938920,-0.014,,,,17.628755234
1715158559215633706,-0.002,,,,17.63645002
1715158559223328492,0.0,,,,17.644144806
1715158559231023278,0.014,,,,17.651839592
1715158559238718064,0.009,,,,17.659534378
1715158559246412850,0.007,,,,17.667229164
1715158559254107636,0.009,,,,17.67492395
1715158559261802422,0.011,,,,17.682618736
1715158559269497208,0.021,,,,17.690313522
1715158559277191994,0.016,,,,17.698008308
1715158559284886780,0.016,,,,17.705703094
1715158559292581566,0.023,,,,17.71339788
1715158559300276352,0.009,,,,17.721092666
1715158559307971138,0.007,,,,17.728787452
1715158559315665924,0.016,,,,17.736482238
1715158559323360710,0.011,,,,17.744177024
1715158559331055496,-0.002,,,,17.75187181
1715158559338750282,-0.011,,,,17.759566596
1715158559346445068,0.007,,,,17.767261382
1715158559354139854,0.021,,,,17.774956168
1715158559361834640,0.016,,,,17.782650954
1715158559369529426,0.011,,,,17.79034574
1715158559377224212,-0.004,,,,17.798040526
1715158559384918998,0.002,,,,17.805735312
1715158559392613784,0.028,,,,17.813430098
1715158559400308570,0.033,,,,17.821124884
1715158559408003356,0.047,,,,17.82881967
1715158559415698142,0.057,,,,17.836514456
1715158559423392928,0.047,,,,17.844209242
1715158559431087714,0.035,,,,17.851904028
1715158559438782500,0.009,,,,17.859598814
1715158559446477286,-0.004,,,,17.8672936
1715158559454172072,-0.019,,,,17.874988386
1715158559461866858,-0.031,,,,17.882683172
1715158559469561644,-0.019,,,,17.890377958
1715158559477256430,-0.035,,,,17.898072744
1715158559484951216,-0.047,,,,17.90576753
1715158559492646002,0.146,,,,17.913462316
1715158559500340788,0.733,,,,17.921157102
1715158559508035574,1.174,,,,17.928851888
1715158559515730360,0.301,,,,17.936546674
1715158559523425146,-1.339,,,,17.94424146
1715158559531119932,-1.663,,,,17.951936246
1715158559538814718,-0.798,,,,17.959631032
1715158559546509504,-0.328,,,,17.967325818
1715158559554204306,-0.239,,,,17.97502062
1715158559561899092,-0.023,,,,17.982715406
1715158559569593878,0.071,,,,17.990410192
1715158559577288664,0.009,,,,17.998104978
1715158559584983450,0.052,,,,18.005799764
1715158559592678236,0.112,,,,18.01349455
1715158559600373022,0.091,,,,18.021189336
1715158559608067808,0.093,,,,18.028884122
1715158559615762594,0.11,,,,18.036578908
1715158559623457380,0.117,,,,18.044273694
1715158559631152166,0.141,,,,18.05196848
1715158559638846952,0.158,,,,18.059663266
1715158559646541738,0.172,,,,18.067358052
1715158559654236524,0.198,,,,18.075052838
1715158559661931310,0.232,,,,18.082747624
1715158559669626096,0.28,,,,18.09044241
1715158559677320882,0.309,,,,18.098137196
1715158559685015668,0.333,,,,18.105831982
1715158559692710454,0.354,,,,18.113526768
1715158559700405240,0.354,,,,18.121221554
1715158559708100026,0.352,,,,18.12891634
1715158559715794812,0.333,,,,18.136611126
1715158559723489598,0.292,,,,18.144305912
1715158559731184384,0.234,,,,18.152000698
1715158559738879170,0.16,,,,18.159695484
1715158559746573956,0.115,,,,18.16739027
1715158559754268742,0.071,,,,18.175085056
1715158559761963528,0.035,,,,18.182779842
1715158559769658314,0.038,,,,18.190474628
1715158559777353100,0.033,,,,18.198169414
1715158559785047886,0.016,,,,18.2058642
1715158559792742672,0.023,,,,18.213558986
1715158559800437458,0.043,,,,18.221253772
1715158559808132244,0.071,,,,18.228948558
1715158559815827030,0.076,,,,18.236643344
1715158559823521816,0.071,,,,18.24433813
1715158559831216602,0.081,,,,18.252032916
1715158559838911388,0.091,,,,18.259727702
1715158559846606174,0.103,,,,18.267422488
1715158559854300960,0.112,,,,18.275117274
1715158559861995746,0.115,,,,18.28281206
1715158559869690532,0.115,,,,18.290506846
1715158559877385318,0.105,,,,18.298201632
1715158559885080104,0.119,,,,18.305896418
1715158559892774890,0.127,,,,18.313591204
1715158559900469676,0.107,,,,18.32128599
1715158559908164462,0.107,,,,18.328980776
1715158559915859248,0.112,,,,18.336675562
1715158559923554034,0.112,,,,18.344370348
1715158559931248820,0.122,,,,18.352065134
1715158559938943606,0.115,,,,18.35975992
1715158559946638392,0.112,,,,18.367454706
1715158559954333178,0.122,,,,18.375149492
1715158559962027964,0.11,,,,18.382844278
1715158559969722750,0.098,,,,18.390539064
1715158559977417536,0.103,,,,18.39823385
1715158559985112322,0.129,,,,18.405928636
1715158559992807108,0.131,,,,18.413623422
1715158560000501894,0.112,,,,18.421318208
1715158560008196680,0.115,,,,18.429012994
1715158560015891466,0.105,,,,18.43670778
1715158560023586252,0.091,,,,18.444402566
1715158560031281038,0.098,,,,18.452097352
1715158560038975824,0.115,,,,18.459792138
1715158560046670610,0.153,,,,18.467486924
1715158560054365396,0.184,,,,18.47518171
1715158560062060182,0.182,,,,18.482876496
1715158560069754968,0.17,,,,18.490571282
1715158560077449754,0.15,,,,18.498266068
1715158560085144540,0.143,,,,18.505960854
1715158560092839326,0.143,,,,18.51365564
1715158560100534112,0.143,,,,18.521350426
1715158560108228898,0.153,,,,18.529045212
1715158560115923700,0.153,105.0,598.0,,18.536740014
1715158560123618486,0.141,,,,18.5444348
1715158560131313272,0.237,,,,18.552129586
1715158560139008058,0.709,,,,18.559824372
1715158560146702844,1.351,,,,18.567519158
1715158560154397630,0.977,,,,18.575213944
1715158560162092416,-0.601,,,,18.58290873
1715158560169787202,-1.445,,,,18.590603516
1715158560177481988,-0.81,,,,18.598298302
1715158560185176774,-0.17,,,,18.605993088
1715158560192871560,-0.045,,,,18.613687874
1715158560200566346,0.127,,,,18.62138266
1715158560208261132,0.266,,,,18.629077446
1715158560215955918,0.215,,,,18.636772232
1715158560223650704,0.222,,,,18.644467018
1715158560231345490,0.289,,,,18.652161804
1715158560239040276,0.275,,,,18.65985659
1715158560246735062,0.258,,,,18.667551376
1715158560254429848,0.278,,,,18.675246162
1715158560262124634,0.294,,,,18.682940948
1715158560269819420,0.311,,,,18.690635734
1715158560277514206,0.316,,,,18.69833052
1715158560285208992,0.328,,,,18.706025306
1715158560292903778,0.352,,,,18.713720092
1715158560300598564,0.373,,,,18.721414878
1715158560308293350,0.407,,,,18.729109664
1715158560315988136,0.433,,,,18.73680445
1715158560323682922,0.443,,,,18.744499236
1715158560331377708,0.452,,,,18.752194022
1715158560339072494,0.448,,,,18.759888808
1715158560346767280,0.431,,,,18.767583594
1715158560354462066,0.397,,,,18.77527838
1715158560362156852,0.361,,,,18.782973166
1715158560369851638,0.321,,,,18.790667952
1715158560377546424,0.246,,,,18.798362738
1715158560385241210,0.179,,,,18.806057524
1715158560392935996,0.134,,,,18.81375231
1715158560400630782,0.098,,,,18.821447096
1715158560408325568,0.079,,,,18.829141882
1715158560416020354,0.067,,,,18.836836668
1715158560423715140,0.052,,,,18.844531454
1715158560431409926,0.047,,,,18.85222624
1715158560439104712,0.047,,,,18.859921026
1715158560446799498,0.067,,,,18.867615812
1715158560454494284,0.079,,,,18.875310598
1715158560462189070,0.076,,,,18.883005384
1715158560469883856,0.086,,,,18.89070017
1715158560477578642,0.093,,,,18.898394956
1715158560485273428,0.098,,,,18.906089742
1715158560492968214,0.095,,,,18.913784528
1715158560500663000,0.095,,,,18.921479314
1715158560508357786,0.11,,,,18.9291741
1715158560516052572,0.095,,,,18.936868886
1715158560523747358,0.081,,,,18.944563672
1715158560531442144,0.081,,,,18.952258458
1715158560539136930,0.069,,,,18.959953244
1715158560546831716,0.071,,,,18.96764803
1715158560554526502,0.071,,,,18.975342816
1715158560562221288,0.059,,,,18.983037602
1715158560569916074,0.045,,,,18.990732388
1715158560577610860,0.023,,,,18.998427174
1715158560585305646,0.033,,,,19.00612196
1715158560593000432,0.052,,,,19.013816746
1715158560600695218,0.045,,,,19.021511532
1715158560608390004,0.043,,,,19.029206318
1715158560616084790,0.045,,,,19.036901104
1715158560623779576,0.043,,,,19.04459589
1715158560631474362,0.043,,,,19.052290676
1715158560639169148,0.031,,,,19.059985462
1715158560646863934,0.031,,,,19.067680248
1715158560654558720,0.035,,,,19.075375034
1715158560662253506,0.026,,,,19.08306982
1715158560669948292,0.019,,,,19.090764606
1715158560677643094,0.009,,,,19.098459408
1715158560685337880,0.007,,,,19.106154194
1715158560693032666,0.021,,,,19.11384898
1715158560700727452,0.052,,,,19.121543766
1715158560708422238,0.088,,,,19.129238552
1715158560716117024,0.083,,,,19.136933338
1715158560723811810,0.064,,,,19.144628124
1715158560731506596,0.052,,,,19.15232291
1715158560739201382,0.033,,,,19.160017696
1715158560746896168,0.038,,,,19.167712482
1715158560754590954,0.052,,,,19.175407268
1715158560762285740,0.062,,,,19.183102054
1715158560769980526,0.076,,,,19.19079684
1715158560777675312,0.069,,,,19.198491626
1715158560785370098,0.112,,,,19.206186412
1715158560793064884,0.476,,,,19.213881198
1715158560800759670,1.155,,,,19.221575984
1715158560808454456,1.145,,,,19.22927077
1715158560816149242,-0.258,,,,19.236965556
1715158560823844028,-1.481,,,,19.244660342
1715158560831538814,-1.121,,,,19.252355128
1715158560839233600,-0.383,,,,19.260049914
1715158560846928386,-0.174,,,,19.2677447
1715158560854623172,0.016,,,,19.275439486
1715158560862317958,0.227,,,,19.283134272
1715158560870012744,0.215,,,,19.290829058
1715158560877707530,0.186,,,,19.298523844
1715158560885402316,0.249,,,,19.30621863
1715158560893097102,0.261,,,,19.313913416
1715158560900791888,0.249,,,,19.321608202
1715158560908486674,0.28,,,,19.329302988
1715158560916181460,0.287,,,,19.336997774
1715158560923876246,0.282,,,,19.34469256
1715158560931571032,0.313,,,,19.352387346
1715158560939265818,0.335,,,,19.360082132
1715158560946960604,0.349,,,,19.367776918
1715158560954655390,0.371,,,,19.375471704
1715158560962350176,0.405,,,,19.38316649
1715158560970044962,0.443,,,,19.390861276
1715158560977739748,0.464,,,,19.398556062
1715158560985434534,0.474,,,,19.406250848
1715158560993129320,0.472,,,,19.413945634
1715158561000824106,0.46,,,,19.42164042
1715158561008518892,0.452,,,,19.429335206
1715158561016213678,0.421,,,,19.437029992
1715158561023908464,0.364,,,,19.444724778
1715158561031603250,0.299,,,,19.452419564
1715158561039298036,0.225,,,,19.46011435
1715158561046992822,0.17,,,,19.467809136
1715158561054687608,0.139,,,,19.475503922
1715158561062382394,0.117,,,,19.483198708
1715158561070077180,0.103,,,,19.490893494
1715158561077771966,0.088,,,,19.49858828
1715158561085466752,0.093,,,,19.506283066
1715158561093161538,0.093,,,,19.513977852
1715158561100856324,0.088,,,,19.521672638
1715158561108551110,0.098,,,,19.529367424
1715158561116245896,0.098,,,,19.53706221
1715158561123940682,0.098,,,,19.544756996
1715158561131635468,0.107,,,,19.552451782
1715158561139330254,0.105,,,,19.560146568
1715158561147025040,0.11,,,,19.567841354
1715158561154719826,0.11,,,,19.57553614
1715158561162414612,0.105,,,,19.583230926
1715158561170109398,0.105,,,,19.590925712
1715158561177804184,0.103,,,,19.598620498
1715158561185498970,0.105,,,,19.606315284
1715158561193193756,0.098,,,,19.61401007
1715158561200888542,0.086,,,,19.621704856
1715158561208583328,0.088,,,,19.629399642
1715158561216278114,0.086,,,,19.637094428
1715158561223972900,0.079,,,,19.644789214
1715158561231667686,0.081,,,,19.652484
1715158561239362488,0.083,103.0,625.0,,19.660178802
1715158561247056856,0.088,,630.0,,19.66787317
1715158561254751224,0.086,,,,19.675567538
1715158561262445592,0.079,,,,19.683261906
1715158561270139960,0.083,,,,19.690956274
1715158561277834328,0.081,,,,19.698650642
1715158561285528696,0.074,,,,19.70634501
1715158561293223064,0.062,,,,19.714039378
1715158561300917432,0.055,,,,19.721733746
1715158561308611800,0.067,,,,19.729428114
1715158561316306168,0.069,,,,19.737122482
1715158561324000536,0.069,,,,19.74481685
1715158561331694904,0.064,,,,19.752511218
1715158561339389272,0.033,,,,19.760205586
1715158561347083640,0.021,,,,19.767899954
1715158561354778008,0.028,,,,19.775594322
1715158561362472376,0.038,,,,19.78328869
1715158561370166744,0.069,,,,19.790983058
1715158561377861112,0.093,,,,19.798677426
1715158561385555480,0.095,,,,19.806371794
1715158561393249848,0.083,,,,19.814066162
1715158561400944216,0.057,,,,19.82176053
1715158561408638584,0.045,,,,19.829454898
1715158561416332952,0.045,,,,19.837149266
1715158561424027320,0.055,,,,19.844843634
1715158561431721688,0.062,,,,19.852538002
1715158561439416056,0.05,,,,19.86023237
1715158561447110424,0.05,,,,19.867926738
1715158561454804792,0.179,,,,19.875621106
1715158561462499160,0.687,,,,19.883315474
1715158561470193528,1.263,,,,19.891009842
1715158561477887896,0.721,,,,19.89870421
1715158561485582264,-0.838,,,,19.906398578
1715158561493276632,-1.457,,,,19.914092946
1715158561500971000,-0.742,,,,19.921787314
1715158561508665368,-0.196,,,,19.929481682
1715158561516359736,-0.103,,,,19.93717605
1715158561524054104,0.098,,,,19.944870418
1715158561531748472,0.227,,,,19.952564786
1715158561539442840,0.162,,,,19.960259154
1715158561547137208,0.184,,,,19.967953522
1715158561554831576,0.244,,,,19.97564789
1715158561562525944,0.227,,,,19.983342258
1715158561570220312,0.23,,,,19.991036626
1715158561577914680,0.258,,,,19.998730994
1715158561585609048,0.266,,,,20.006425362
1715158561593303416,0.261,,,,20.01411973
1715158561600997784,0.275,,,,20.021814098
1715158561608692152,0.299,,,,20.029508466
1715158561616386520,0.311,,,,20.037202834
1715158561624080888,0.33,,,,20.044897202
1715158561631775256,0.366,,,,20.05259157
1715158561639469624,0.393,,,,20.060285938
1715158561647163992,0.412,,,,20.067980306
1715158561654858360,0.417,,,,20.075674674
1715158561662552728,0.419,,,,20.083369042
1715158561670247096,0.419,,,,20.09106341
1715158561677941464,0.39,,,,20.098757778
1715158561685635832,0.345,,,,20.106452146
1715158561693330200,0.292,,,,20.114146514
1715158561701024568,0.218,,,,20.121840882
1715158561708718936,0.153,,,,20.12953525
1715158561716413304,0.11,,,,20.137229618
1715158561724107672,0.076,,,,20.144923986
1715158561731802040,0.05,,,,20.152618354
1715158561739496408,0.026,,,,20.160312722
1715158561747190776,0.023,,,,20.16800709
1715158561754885144,0.014,,,,20.175701458
1715158561762579512,0.014,,,,20.183395826
1715158561770273880,0.026,,,,20.191090194
1715158561777968248,0.028,,,,20.198784562
1715158561785662616,0.047,,,,20.20647893
1715158561793356984,0.059,,,,20.214173298
1715158561801051366,0.055,101.0,642.0,,20.22186768
1715158561808746152,0.069,,,,20.229562466
1715158561816440938,0.081,,,,20.237257252
1715158561824135724,0.071,,,,20.244952038
1715158561831830510,0.059,,,,20.252646824
1715158561839525296,0.057,,,,20.26034161
1715158561847220082,0.057,,,,20.268036396
1715158561854914868,0.057,,,,20.275731182
1715158561862609654,0.062,,,,20.283425968
1715158561870304440,0.059,,,,20.291120754
1715158561877999226,0.055,,,,20.29881554
1715158561885694012,0.069,,,,20.306510326
1715158561893388798,0.079,,,,20.314205112
1715158561901083584,0.074,,,,20.321899898
1715158561908778370,0.071,,,,20.329594684
1715158561916473156,0.067,,,,20.33728947
1715158561924167942,0.074,,,,20.344984256
1715158561931862728,0.083,,,,20.352679042
1715158561939557514,0.079,,,,20.360373828
1715158561947252300,0.081,,,,20.368068614
1715158561954947086,0.091,,,,20.3757634
1715158561962641872,0.093,,,,20.383458186
1715158561970336658,0.093,,,,20.391152972
1715158561978031444,0.086,,,,20.398847758
1715158561985726230,0.091,,,,20.406542544
1715158561993421016,0.093,,,,20.41423733
1715158562001115802,0.093,,,,20.421932116
1715158562008810588,0.098,,,,20.429626902
1715158562016505374,0.088,,,,20.437321688
1715158562024200160,0.076,,,,20.445016474
1715158562031894946,0.079,,,,20.45271126
1715158562039589732,0.098,,,,20.460406046
1715158562047284518,0.134,,,,20.468100832
1715158562054979304,0.162,,,,20.475795618
1715158562062674090,0.17,,,,20.483490404
1715158562070368876,0.162,,,,20.49118519
1715158562078063662,0.148,,,,20.498879976
1715158562085758448,0.141,,,,20.506574762
1715158562093453234,0.129,,,,20.514269548
1715158562101148020,0.124,,,,20.521964334
1715158562108842806,0.139,,,,20.52965912
1715158562116537592,0.131,,,,20.537353906
1715158562124232378,0.117,,,,20.545048692
1715158562131927164,0.184,,,,20.552743478
1715158562139621950,0.587,,,,20.560438264
1715158562147316736,1.265,,,,20.56813305
1715158562155011522,1.138,,,,20.575827836
1715158562162706308,-0.328,,,,20.583522622
1715158562170401094,-1.406,,,,20.591217408
1715158562178095880,-0.92,,,,20.598912194
1715158562185790666,-0.208,,,,20.60660698
1715158562193485452,-0.079,,,,20.614301766
1715158562201180238,0.076,,,,20.621996552
1715158562208875024,0.268,,,,20.629691338
1715158562216569810,0.222,,,,20.637386124
1715158562224264596,0.201,,,,20.64508091
1715158562231959382,0.27,,,,20.652775696
1715158562239654168,0.266,,,,20.660470482
1715158562247348954,0.256,,,,20.668165268
1715158562255043740,0.282,,,,20.675860054
1715158562262738526,0.289,,,,20.68355484
1715158562270433312,0.297,,,,20.691249626
1715158562278128098,0.313,,,,20.698944412
1715158562285822884,0.33,,,,20.706639198
1715158562293517670,0.34,,,,20.714333984
1715158562301212456,0.361,,,,20.72202877
1715158562308907242,0.397,,,,20.729723556
1715158562316602028,0.426,,,,20.737418342
1715158562324296814,0.452,,,,20.745113128
1715158562331991600,0.464,,,,20.752807914
1715158562339686386,0.443,,,,20.7605027
1715158562347381172,0.424,,,,20.768197486
1715158562355075958,0.4,,,,20.775892272
1715158562362770760,0.357,,,,20.783587074
1715158562370465546,0.297,,,,20.79128186
1715158562378160332,0.213,,,,20.798976646
1715158562385855118,0.158,,,,20.806671432
1715158562393549904,0.119,,,,20.814366218
1715158562401244690,0.074,,,,20.822061004
1715158562408939476,0.05,,,,20.82975579
1715158562416634262,0.033,,,,20.837450576
1715158562424329048,0.023,,,,20.845145362
1715158562432023834,0.011,,,,20.852840148
1715158562439718620,0.002,,,,20.860534934
1715158562447413406,0.019,,,,20.86822972
1715158562455108192,0.033,,,,20.875924506
1715158562462802978,0.043,,,,20.883619292
1715158562470497764,0.057,,,,20.891314078
1715158562478192550,0.064,,,,20.899008864
1715158562485887336,0.074,,,,20.90670365
1715158562493582122,0.093,,,,20.914398436
1715158562501276908,0.103,,,,20.922093222
1715158562508971694,0.088,,,,20.929788008
1715158562516666480,0.076,,,,20.937482794
1715158562524361266,0.081,,,,20.94517758
1715158562532056052,0.083,,,,20.952872366
1715158562539750838,0.083,,,,20.960567152
1715158562547445624,0.091,,,,20.968261938
1715158562555140410,0.086,,,,20.975956724
1715158562562835196,0.083,,,,20.98365151
1715158562570529982,0.091,,,,20.991346296
1715158562578224768,0.083,,,,20.999041082
1715158562585919554,0.086,,,,21.006735868
1715158562593614340,0.091,,,,21.014430654
1715158562601309126,0.088,,,,21.02212544
1715158562609003912,0.093,,,,21.029820226
1715158562616698698,0.093,,,,21.037515012
1715158562624393484,0.1,,,,21.045209798
1715158562632088270,0.107,,,,21.052904584
1715158562639783056,0.103,,,,21.06059937
1715158562647477842,0.11,,,,21.068294156
1715158562655172628,0.124,,,,21.075988942
1715158562662867414,0.129,,,,21.083683728
1715158562670562200,0.134,,,,21.091378514
1715158562678256986,0.136,,,,21.0990733
1715158562685951772,0.153,,,,21.106768086
1715158562693646558,0.158,,,,21.114462872
1715158562701341344,0.153,,,,21.122157658
1715158562709036130,0.16,,,,21.129852444
1715158562716730916,0.16,,,,21.13754723
1715158562724425702,0.155,,,,21.145242016
1715158562732120488,0.165,,,,21.152936802
1715158562739815274,0.191,,,,21.160631588
1715158562747510060,0.237,,,,21.168326374
1715158562755204846,0.266,,,,21.17602116
1715158562762899632,0.263,,,,21.183715946
1715158562770594418,0.254,,,,21.191410732
1715158562778289204,0.234,,,,21.199105518
1715158562785983990,0.22,,,,21.206800304
1715158562793678776,0.218,,,,21.21449509
1715158562801373562,0.23,,,,21.222189876
1715158562809068348,0.254,,,,21.229884662
1715158562816763134,0.239,,,,21.237579448
1715158562824457920,0.203,,,,21.245274234
1715158562832152706,0.369,,,,21.25296902
1715158562839847492,0.968,,,,21.260663806
1715158562847542278,1.476,,,,21.268358592
1715158562855237064,0.716,,,,21.276053378
1715158562862931850,-0.836,,,,21.283748164
1715158562870626636,-1.193,,,,21.29144295
1715158562878321422,-0.431,,,,21.299137736
1715158562886016208,-0.035,,,,21.306832522
1715158562893710994,0.014,,,,21.314527308
1715158562901405780,0.21,,,,21.322222094
1715158562909100566,0.294,,,,21.32991688
1715158562916795352,0.232,,,,21.337611666
1715158562924490154,0.263,99.0,656.0,,21.345306468
1715158562932184940,0.311,,667.0,,21.353001254
1715158562939879726,0.294,,,,21.36069604
1715158562947574512,0.292,,,,21.368390826
1715158562955269298,0.311,,,,21.376085612
1715158562962964084,0.321,,,,21.383780398
1715158562970658870,0.33,,,,21.391475184
1715158562978353656,0.34,,,,21.39916997
1715158562986048442,0.354,,,,21.406864756
1715158562993743228,0.369,,,,21.414559542
1715158563001438014,0.383,,,,21.422254328
1715158563009132800,0.414,,,,21.429949114
1715158563016827586,0.445,,,,21.4376439
1715158563024522372,0.462,,,,21.445338686
1715158563032217158,0.472,,,,21.453033472
1715158563039911944,0.474,,,,21.460728258
1715158563047606730,0.467,,,,21.468423044
1715158563055301516,0.433,,,,21.47611783
1715158563062996302,0.385,,,,21.483812616
1715158563070691088,0.335,,,,21.491507402
1715158563078385874,0.266,,,,21.499202188
1715158563086080660,0.201,,,,21.506896974
1715158563093775446,0.148,,,,21.51459176
1715158563101470232,0.11,,,,21.522286546
1715158563109165018,0.091,,,,21.529981332
1715158563116859804,0.071,,,,21.537676118
1715158563124554590,0.062,,,,21.545370904
1715158563132249376,0.064,,,,21.55306569
1715158563139944162,0.069,,,,21.560760476
1715158563147638948,0.079,,,,21.568455262
1715158563155333734,0.083,,,,21.576150048
1715158563163028520,0.088,,,,21.583844834
1715158563170723306,0.095,,,,21.59153962
1715158563178418092,0.093,,,,21.599234406
1715158563186112878,0.098,,,,21.606929192
1715158563193807664,0.105,,,,21.614623978
1715158563201502450,0.103,,,,21.622318764
1715158563209197236,0.103,,,,21.63001355
1715158563216892022,0.093,,,,21.637708336
1715158563224586808,0.091,,,,21.645403122
1715158563232281594,0.1,,,,21.653097908
1715158563239976380,0.095,,,,21.660792694
1715158563247671166,0.081,,,,21.66848748
1715158563255365952,0.071,,,,21.676182266
1715158563263060738,0.079,,,,21.683877052
1715158563270755524,0.079,,,,21.691571838
1715158563278450310,0.064,,,,21.699266624
1715158563286145096,0.067,,,,21.70696141
1715158563293839882,0.064,,,,21.714656196
1715158563301534668,0.057,,,,21.722350982
1715158563309229454,0.057,,,,21.730045768
1715158563316924240,0.057,,,,21.737740554
1715158563324619026,0.052,,,,21.74543534
1715158563332313812,0.043,,,,21.753130126
1715158563340008598,0.038,,,,21.760824912
1715158563347703384,0.038,,,,21.768519698
1715158563355398170,0.023,,,,21.776214484
1715158563363092956,0.021,,,,21.78390927
1715158563370787742,0.031,,,,21.791604056
1715158563378482528,0.023,,,,21.799298842
1715158563386177314,0.007,,,,21.806993628
1715158563393872100,-0.007,,,,21.814688414
1715158563401566886,-0.004,,,,21.8223832
1715158563409261672,0.014,,,,21.830077986
1715158563416956458,0.052,,,,21.837772772
1715158563424651244,0.088,,,,21.845467558
1715158563432346030,0.088,,,,21.853162344
1715158563440040816,0.064,,,,21.86085713
1715158563447735602,0.045,,,,21.868551916
1715158563455430388,0.035,,,,21.876246702
1715158563463125174,0.028,,,,21.883941488
1715158563470819960,0.028,,,,21.891636274
1715158563478514746,0.035,,,,21.89933106
1715158563486209548,0.043,,,,21.907025862
1715158563493904055,0.031,,,,21.914720369
1715158563501598562,0.129,,,,21.922414876
1715158563509293069,0.63,,,,21.930109383
1715158563516987576,1.294,,,,21.93780389
1715158563524682083,0.929,,,,21.945498397
1715158563532376590,-0.685,,,,21.953192904
1715158563540071097,-1.579,,,,21.960887411
1715158563547765604,-0.929,,,,21.968581918
1715158563555460111,-0.287,,,,21.976276425
1715158563563154618,-0.174,,,,21.983970932
1715158563570849125,0.016,,,,21.991665439
1715158563578543632,0.177,,,,21.999359946
1715158563586238139,0.127,,,,22.007054453
1715158563593932646,0.115,,,,22.01474896
1715158563601627153,0.172,,,,22.022443467
1715158563609321660,0.182,,,,22.030137974
1715158563617016167,0.172,,,,22.037832481
1715158563624710674,0.184,,,,22.045526988
1715158563632405181,0.194,,,,22.053221495
1715158563640099688,0.206,,,,22.060916002
1715158563647794195,0.22,,,,22.068610509
1715158563655488702,0.232,,,,22.076305016
1715158563663183209,0.258,,,,22.083999523
1715158563670877716,0.289,,,,22.09169403
1715158563678572223,0.318,,,,22.099388537
1715158563686266730,0.354,,,,22.107083044
1715158563693961237,0.385,,,,22.114777551
1715158563701655744,0.402,,,,22.122472058
1715158563709350251,0.412,,,,22.130166565
1715158563717044758,0.397,,,,22.137861072
1715158563724739265,0.371,,,,22.145555579
1715158563732433772,0.335,,,,22.153250086
1715158563740128279,0.275,,,,22.160944593
1715158563747822786,0.203,,,,22.1686391
1715158563755517293,0.131,,,,22.176333607
1715158563763211800,0.079,,,,22.184028114
1715158563770906307,0.04,,,,22.191722621
1715158563778600814,0.007,,,,22.199417128
1715158563786295321,0.0,,,,22.207111635
1715158563793989828,0.0,,,,22.214806142
