HRV_ULF,HRV_VLF,HRV_LF,HRV_HF,HRV_VHF,HRV_TP,HRV_LFHF,HRV_LFn,HRV_HFn,HRV_LnHF,time
,,0.007655261625515557,0.003801042005262688,0.00012846103735585993,0.011584764668134104,2.0139902729084693,0.6608042411575848,0.32810696756906166,-5.572480037927778,0.0
,,0.007655261625515557,0.003801042005262688,0.00012846103735585993,0.011584764668134104,2.0139902729084693,0.6608042411575848,0.32810696756906166,-5.572480037927778,0.1
,,0.007655261625515557,0.003801042005262688,0.00012846103735585993,0.011584764668134104,2.0139902729084693,0.6608042411575848,0.32810696756906166,-5.572480037927778,0.2
,,0.007655261625515557,0.003801042005262688,0.00012846103735585993,0.011584764668134104,2.0139902729084693,0.6608042411575848,0.32810696756906166,-5.572480037927778,0.3
,,0.008531335039646315,0.0037868723528925244,0.00010561973942817553,0.012423827131967016,2.061766425462637,0.686691383341518,0.30480723151312583,-5.576214837286879,0.4
,,0.008451922013781078,0.004078648997539687,0.00013135090122291747,0.012661921912543683,2.0635113026442995,0.6675070397810684,0.32211926638870875,-5.5019894734550645,0.5
,,0.008451922013781078,0.004078648997539687,0.00013135090122291747,0.012661921912543683,2.064757643488344,0.6675070397810684,0.32211926638870875,-5.5019894734550645,0.6
,,0.008451922013781078,0.004078648997539687,0.00013135090122291747,0.012661921912543683,2.065692399121378,0.6675070397810684,0.32211926638870875,-5.5019894734550645,0.7
,,0.008451922013781078,0.004078648997539687,0.00013135090122291747,0.012661921912543683,2.0664194312804036,0.6675070397810684,0.32211926638870875,-5.5019894734550645,0.8
,,0.008451922013781078,0.004078648997539687,0.00013135090122291747,0.012661921912543683,2.0670010570076247,0.6675070397810684,0.32211926638870875,-5.5019894734550645,0.9
,,0.009189540220738096,0.004088113923846732,0.0001071559872504633,0.01338481013183529,2.083443500832753,0.686564854504817,0.3054293548866487,-5.499671558600461,1.0
,,0.009643740905477776,0.004118741637611737,0.00011574477143881816,0.013878227314528332,2.104942288214864,0.6948827603783582,0.29677721399620394,-5.4922075900374026,1.1
,,0.009643740905477776,0.004118741637611737,0.00011574477143881816,0.013878227314528332,2.123133569845881,0.6948827603783582,0.29677721399620394,-5.4922075900374026,1.2
,,0.009643740905477776,0.004118741637611737,0.00011574477143881816,0.013878227314528332,2.138726096958181,0.6948827603783582,0.29677721399620394,-5.4922075900374026,1.3
,,0.009643740905477776,0.004118741637611737,0.00011574477143881816,0.013878227314528332,2.1522396204555085,0.6948827603783582,0.29677721399620394,-5.4922075900374026,1.4
,,0.009643740905477776,0.004118741637611737,0.00011574477143881816,0.013878227314528332,2.164063953515669,0.6948827603783582,0.29677721399620394,-5.4922075900374026,1.5
,,0.009758722260889025,0.004350287023558455,0.00010915629337825951,0.01421816557782574,2.1687211570504625,0.6863559301987916,0.30596682812183895,-5.437513453631058,1.6
,,0.010124451885654457,0.0043351137014422565,0.00011850957471267934,0.014578075161809393,2.177984006281907,0.6944985379261713,0.2973721601325722,-5.441007440387195,1.7
,,0.010124451885654457,0.0043351137014422565,0.00011850957471267934,0.014578075161809393,2.1862718187521466,0.6944985379261713,0.2973721601325722,-5.441007440387195,1.8
,,0.010124451885654457,0.0043351137014422565,0.00011850957471267934,0.014578075161809393,2.193730849975362,0.6944985379261713,0.2973721601325722,-5.441007440387195,1.9
,,0.010124451885654457,0.0043351137014422565,0.00011850957471267934,0.014578075161809393,2.200479497272557,0.6944985379261713,0.2973721601325722,-5.441007440387195,2.0
,,0.010124451885654457,0.0043351137014422565,0.00011850957471267934,0.014578075161809393,2.206614631179098,0.6944985379261713,0.2973721601325722,-5.441007440387195,2.1
,,0.010116676486689043,0.004525677115054815,0.00011070668700395703,0.014753060288747816,2.207865956290047,0.685734097786142,0.3067619210169267,-5.397988074338852,2.2
,,0.010471986756923728,0.004499971021942678,0.0001220569962806644,0.015094014775147071,2.2128350061893682,0.6937840536744599,0.29812949629227004,-5.403684321794891,2.3
,,0.010471986756923728,0.004499971021942678,0.0001220569962806644,0.015094014775147071,2.2174065320967435,0.6937840536744599,0.29812949629227004,-5.403684321794891,2.4
,,0.010471986756923728,0.004499971021942678,0.0001220569962806644,0.015094014775147071,2.2216264021650898,0.6937840536744599,0.29812949629227004,-5.403684321794891,2.5
,,0.010471986756923728,0.004499971021942678,0.0001220569962806644,0.015094014775147071,2.2255336892654105,0.6937840536744599,0.29812949629227004,-5.403684321794891,2.6
,,0.0104360870674069,0.004694511513702976,0.00011399186865665596,0.015244590449766532,2.225444630395059,0.6845764142890914,0.3079460566141265,-5.361361215674585,2.7
,,0.010773529955819013,0.004657281118894785,0.0001271355104971502,0.015557946585210947,2.2284729526781217,0.6924776285104425,0.29935063045671445,-5.36932345199923,2.8
,,0.010773529955819013,0.004657281118894785,0.0001271355104971502,0.015557946585210947,2.2312993868089808,0.6924776285104425,0.29935063045671445,-5.36932345199923,2.9
,,0.010773529955819013,0.004657281118894785,0.0001271355104971502,0.015557946585210947,2.233943470350752,0.6924776285104425,0.29935063045671445,-5.36932345199923,3.0
,,0.010773529955819013,0.004657281118894785,0.0001271355104971502,0.015557946585210947,2.2364222986711626,0.6924776285104425,0.29935063045671445,-5.36932345199923,3.1
,,0.010773529955819013,0.004657281118894785,0.0001271355104971502,0.015557946585210947,2.2387508949721546,0.6924776285104425,0.29935063045671445,-5.36932345199923,3.2
,,0.010706449126191758,0.004847069476857283,0.00011881862631988972,0.015672337229368928,2.2378714551385985,0.6831431055559842,0.3092754709089716,-5.329380988230029,3.3
,,0.01101943314377794,0.004798167610790431,0.00013356753749110725,0.01595116829205948,2.2395491837661794,0.6908229505210245,0.3008035225343944,-5.339521181704508,3.4
,,0.01101943314377794,0.004798167610790431,0.00013356753749110725,0.01595116829205948,2.241133705247784,0.6908229505210245,0.3008035225343944,-5.339521181704508,3.5
,,0.01101943314377794,0.004798167610790431,0.00013356753749110725,0.01595116829205948,2.242632576919572,0.6908229505210245,0.3008035225343944,-5.339521181704508,3.6
,,0.01101943314377794,0.004798167610790431,0.00013356753749110725,0.01595116829205948,2.2440525606086346,0.6908229505210245,0.3008035225343944,-5.339521181704508,3.7
,,0.01101943314377794,0.004798167610790431,0.00013356753749110725,0.01595116829205948,2.245399724621335,0.6908229505210245,0.3008035225343944,-5.339521181704508,3.8
,,0.0101860090808322,0.004380018576119858,0.00014501879473379577,0.014711046451685854,2.247403806168447,0.692405473280584,0.2977367103356483,-5.430702313479521,3.9
,,0.011199740189353226,0.004944826856726961,0.00013989289545364932,0.016284459941533835,2.2478315381821425,0.6877563167316386,0.30365310697931613,-5.309413328326938,4.0
,,0.011199740189353226,0.004944826856726961,0.00013989289545364932,0.016284459941533835,2.2482389020047107,0.6877563167316386,0.30365310697931613,-5.309413328326938,4.1
,,0.011199740189353226,0.004944826856726961,0.00013989289545364932,0.016284459941533835,2.2486273186727406,0.6877563167316386,0.30365310697931613,-5.309413328326938,4.2
,,0.011199740189353226,0.004944826856726961,0.00013989289545364932,0.016284459941533835,2.248998080037678,0.6877563167316386,0.30365310697931613,-5.309413328326938,4.3
,,0.011081048720580373,0.005144546069852688,0.00013053982275788652,0.016356134613190947,2.24688570054321,0.6774857863815631,0.3145331211509899,-5.269818141022273,4.4
,,0.011350281435930094,0.005079996064628784,0.00014788880415191348,0.016578166304710793,2.246612296186852,0.6846524052967691,0.30642689735747614,-5.28244479207142,4.5
,,0.011350281435930094,0.005079996064628784,0.00014788880415191348,0.016578166304710793,2.2463505260584244,0.6846524052967691,0.30642689735747614,-5.28244479207142,4.6
,,0.011350281435930094,0.005079996064628784,0.00014788880415191348,0.016578166304710793,2.2460996630186814,0.6846524052967691,0.30642689735747614,-5.28244479207142,4.7
,,0.011350281435930094,0.005079996064628784,0.00014788880415191348,0.016578166304710793,2.2458590392866826,0.6846524052967691,0.30642689735747614,-5.28244479207142,4.8
,,0.011350281435930094,0.005079996064628784,0.00014788880415191348,0.016578166304710793,2.2456280405039637,0.6846524052967691,0.30642689735747614,-5.28244479207142,4.9
,,0.011350281435930094,0.005079996064628784,0.00014788880415191348,0.016578166304710793,2.2454061004970383,0.6846524052967691,0.30642689735747614,-5.28244479207142,5.0
,,0.011442487470907522,0.005222663855432885,0.00015561130599420496,0.016820762632334615,2.2443584704767354,0.6802597314411646,0.31048912404205375,-5.254747690122358,5.1
,,0.011442487470907522,0.005222663855432885,0.00015561130599420496,0.016820762632334615,2.243350373664746,0.6802597314411646,0.31048912404205375,-5.254747690122358,5.2
,,0.011442487470907522,0.005222663855432885,0.00015561130599420496,0.016820762632334615,2.2423796137717193,0.6802597314411646,0.31048912404205375,-5.254747690122358,5.3
,,0.011442487470907522,0.005222663855432885,0.00015561130599420496,0.016820762632334615,2.241444154238439,0.6802597314411646,0.31048912404205375,-5.254747690122358,5.4
,,0.011442487470907522,0.005222663855432885,0.00015561130599420496,0.016820762632334615,2.2405421039742044,0.6802597314411646,0.31048912404205375,-5.254747690122358,5.5
,,0.011658326525679297,0.005145252382927509,0.00011345045718975545,0.016917029365796563,2.2409859535335235,0.6891473835974126,0.3041463292208003,-5.269680856880281,5.6
,,0.010051863165830316,0.0037051397622065406,0.0001799011093627224,0.013936904037399578,2.249123284446782,0.721240753244495,0.2658509918891474,-5.598034298352707,5.7
,,0.010051863165830316,0.0037051397622065406,0.0001799011093627224,0.013936904037399578,2.2569847736341675,0.721240753244495,0.2658509918891474,-5.598034298352707,5.8
,,0.010051863165830316,0.0037051397622065406,0.0001799011093627224,0.013936904037399578,2.2645842131819736,0.721240753244495,0.2658509918891474,-5.598034298352707,5.9
,,0.010051863165830316,0.0037051397622065406,0.0001799011093627224,0.013936904037399578,2.271934490777392,0.721240753244495,0.2658509918891474,-5.598034298352707,6.0
,,0.010051863165830316,0.0037051397622065406,0.0001799011093627224,0.013936904037399578,2.2790476626439267,0.721240753244495,0.2658509918891474,-5.598034298352707,6.1
,,0.011708539033233416,0.005297754678793934,0.0001836822549437548,0.017189975966971107,2.2779531696625077,0.681125968746568,0.3081886029959008,-5.240472193697752,6.2
,,0.011596710823859716,0.005541764480420553,0.00017193090622289,0.017310406210503157,2.2750570671906933,0.6699271341664627,0.32014063754656813,-5.195442330661894,6.3
,,0.011596710823859716,0.005541764480420553,0.00017193090622289,0.017310406210503157,2.2722500755641653,0.6699271341664627,0.32014063754656813,-5.195442330661894,6.4
,,0.011596710823859716,0.005541764480420553,0.00017193090622289,0.017310406210503157,2.2695281442899566,0.6699271341664627,0.32014063754656813,-5.195442330661894,6.5
,,0.011596710823859716,0.005541764480420553,0.00017193090622289,0.017310406210503157,2.266887464695575,0.6699271341664627,0.32014063754656813,-5.195442330661894,6.6
,,0.011790806686391944,0.0054851506320239656,0.00019138918345224909,0.01746734650186816,2.2651624530218815,0.675019911303122,0.31402311916336695,-5.205710723093478,6.7
,,0.011790806686391944,0.0054851506320239656,0.00019138918345224909,0.01746734650186816,2.263487441686556,0.675019911303122,0.31402311916336695,-5.205710723093478,6.8
,,0.011790806686391944,0.0054851506320239656,0.00019138918345224909,0.01746734650186816,2.261860287817954,0.675019911303122,0.31402311916336695,-5.205710723093478,6.9
,,0.009646357531205336,0.0033091326106587204,0.0001890392705959742,0.013144529412460032,2.271060443046712,0.7338686101657858,0.25174979695521926,-5.711069175095078,7.0
,,0.009646357531205336,0.0033091326106587204,0.0001890392705959742,0.013144529412460032,2.280005038408005,0.7338686101657858,0.25174979695521926,-5.711069175095078,7.1
,,0.009646357531205336,0.0033091326106587204,0.0001890392705959742,0.013144529412460032,2.2887045763621385,0.7338686101657858,0.25174979695521926,-5.711069175095078,7.2
,,0.011668067723981993,0.005586264167688397,0.00019483580299953338,0.01744916769466992,2.2860019031530223,0.6686890703415131,0.32014502155279273,-5.187444521548265,7.3
,,0.011668067723981993,0.005586264167688397,0.00019483580299953338,0.01744916769466992,2.2833713012294825,0.6686890703415131,0.32014502155279273,-5.187444521548265,7.4
,,0.011668067723981993,0.005586264167688397,0.00019483580299953338,0.01744916769466992,2.2808099256723517,0.6686890703415131,0.32014502155279273,-5.187444521548265,7.5
,,0.009406440043570007,0.0031165508849287102,0.00019107230609238815,0.012714063234591105,2.2903866958513532,0.739845309088753,0.24512626903172244,-5.771028374260435,7.6
,,0.009406440043570007,0.0031165508849287102,0.00019107230609238815,0.012714063234591105,2.2997179078206362,0.739845309088753,0.24512626903172244,-5.771028374260435,7.7
,,0.007258999323456333,0.0028859013894183727,0.00019552249406391898,0.010340423206938624,2.302447196660739,0.7020021500266453,0.279089291769207,-5.84791798781492,7.8
,,0.007258999323456333,0.0028859013894183727,0.00019552249406391898,0.010340423206938624,2.30510825327984,0.7020021500266453,0.279089291769207,-5.84791798781492,7.9
,,0.007258999323456333,0.0028859013894183727,0.00019552249406391898,0.010340423206938624,2.307703604797234,0.7020021500266453,0.279089291769207,-5.84791798781492,8.0
,,0.007258999323456333,0.0028859013894183727,0.00019552249406391898,0.010340423206938624,2.310235655058107,0.7020021500266453,0.279089291769207,-5.84791798781492,8.1
,,0.011144833237581215,0.005675062226814964,0.00018211296130927316,0.017002008425705453,2.306062041539729,0.6555009830915779,0.333787755229835,-5.17167375059726,8.2
,,0.011144833237581215,0.005675062226814964,0.00018211296130927316,0.017002008425705453,2.3019877997717884,0.6555009830915779,0.333787755229835,-5.17167375059726,8.3
,,0.01087887990041949,0.0054397143161347365,0.00018844971982487238,0.0165070439363791,2.2984338153612627,0.6590447049361781,0.32953897361031464,-5.214028734909677,8.4
,,0.01087887990041949,0.0054397143161347365,0.00018844971982487238,0.0165070439363791,2.2949624817509826,0.6590447049361781,0.32953897361031464,-5.214028734909677,8.5
,,0.01087887990041949,0.0054397143161347365,0.00018844971982487238,0.0165070439363791,2.291570948913352,0.6590447049361781,0.32953897361031464,-5.214028734909677,8.6
,,0.01087887990041949,0.0054397143161347365,0.00018844971982487238,0.0165070439363791,2.288256496367486,0.6590447049361781,0.32953897361031464,-5.214028734909677,8.7
,,0.010695742646916851,0.005509974782174656,0.0001774543541012059,0.016383171783192714,2.284356535731596,0.6528493254211908,0.33631917281287793,-5.201195232565599,8.8
,,0.010695742646916851,0.005509974782174656,0.0001774543541012059,0.016383171783192714,2.2805432408876145,0.6528493254211908,0.33631917281287793,-5.201195232565599,8.9
,,0.010464781726176977,0.005298068775366795,0.00018175699489787056,0.015944607496441644,2.280112313943972,0.6563210620589062,0.332279661104807,-5.240412906833581,9.0
,,0.010464781726176977,0.005298068775366795,0.00018175699489787056,0.015944607496441644,2.2796813870003296,0.6563210620589062,0.332279661104807,-5.240412906833581,9.1
,,0.010464781726176977,0.005298068775366795,0.00018175699489787056,0.015944607496441644,2.279250460056687,0.6563210620589062,0.332279661104807,-5.240412906833581,9.2
,,0.010464781726176977,0.005298068775366795,0.00018175699489787056,0.015944607496441644,2.2788195331130447,0.6563210620589062,0.332279661104807,-5.240412906833581,9.3
,,0.010272436908674371,0.005318577955392508,0.0001708014440160592,0.01576181630808294,2.2752479156778525,0.6517292619002598,0.33743433189644817,-5.236549312977979,9.4
,,0.010081839215686705,0.005137072667319243,0.00017264274770210125,0.015391554630708048,2.2740293528964015,0.6550240997470258,0.3337591809647448,-5.271271881729968,9.5
,,0.010081839215686705,0.005137072667319243,0.00017264274770210125,0.015391554630708048,2.2728107901149506,0.6550240997470258,0.3337591809647448,-5.271271881729968,9.6
,,0.010081839215686705,0.005137072667319243,0.00017264274770210125,0.015391554630708048,2.2715922273334996,0.6550240997470258,0.3337591809647448,-5.271271881729968,9.7
,,0.010081839215686705,0.005137072667319243,0.00017264274770210125,0.015391554630708048,2.2703736645520487,0.6550240997470258,0.3337591809647448,-5.271271881729968,9.8
,,0.010081839215686705,0.005137072667319243,0.00017264274770210125,0.015391554630708048,2.2691551017705978,0.6550240997470258,0.3337591809647448,-5.271271881729968,9.9
,,0.007369656150340765,0.0022784580921547926,0.00015529465110423741,0.009803408893599794,2.2801175995237917,0.7517442381855645,0.23241487903685173,-6.084256340163831,10.0
,,0.009796300520869033,0.004991266472656818,0.00016252126205958974,0.01495008825558544,2.2759093705595363,0.6552670695578722,0.3338620071886232,-5.3000655992853885,10.1
,,0.009796300520869033,0.004991266472656818,0.00016252126205958974,0.01495008825558544,2.271701141595281,0.6552670695578722,0.3338620071886232,-5.3000655992853885,10.2
,,0.009796300520869033,0.004991266472656818,0.00016252126205958974,0.01495008825558544,2.2674929126310257,0.6552670695578722,0.3338620071886232,-5.3000655992853885,10.3
,,0.009796300520869033,0.004991266472656818,0.00016252126205958974,0.01495008825558544,2.263284683666771,0.6552670695578722,0.3338620071886232,-5.3000655992853885,10.4
,,0.009796300520869033,0.004991266472656818,0.00016252126205958974,0.01495008825558544,2.2590764547025155,0.6552670695578722,0.3338620071886232,-5.3000655992853885,10.5
,,0.00959760281605318,0.00485614212243845,0.0001517285563829383,0.014605473494874567,2.256111430684182,0.657123702249107,0.3324878254814946,-5.327510958264743,10.6
,,0.00959760281605318,0.00485614212243845,0.0001517285563829383,0.014605473494874567,2.252121784114635,0.657123702249107,0.3324878254814946,-5.327510958264743,10.7
,,0.00959760281605318,0.00485614212243845,0.0001517285563829383,0.014605473494874567,2.248132137545087,0.657123702249107,0.3324878254814946,-5.327510958264743,10.8
,,0.00959760281605318,0.00485614212243845,0.0001517285563829383,0.014605473494874567,2.244142490975539,0.657123702249107,0.3324878254814946,-5.327510958264743,10.9
,,0.00959760281605318,0.00485614212243845,0.0001517285563829383,0.014605473494874567,2.2401528444059915,0.657123702249107,0.3324878254814946,-5.327510958264743,11.0
,,0.00959760281605318,0.00485614212243845,0.0001517285563829383,0.014605473494874567,2.2361631978364436,0.657123702249107,0.3324878254814946,-5.327510958264743,11.1
,,0.009516438594501441,0.0047594887977023045,0.0001410922863828609,0.014417019678586607,2.2335417692856296,0.6600836238460625,0.3301298676016587,-5.347615011946804,11.2
,,0.009516438594501441,0.0047594887977023045,0.0001410922863828609,0.014417019678586607,2.2299011402332285,0.6600836238460625,0.3301298676016587,-5.347615011946804,11.3
,,0.009516438594501441,0.0047594887977023045,0.0001410922863828609,0.014417019678586607,2.2262605111808274,0.6600836238460625,0.3301298676016587,-5.347615011946804,11.4
,,0.009516438594501441,0.0047594887977023045,0.0001410922863828609,0.014417019678586607,2.222619882128426,0.6600836238460625,0.3301298676016587,-5.347615011946804,11.5
,,0.009516438594501441,0.0047594887977023045,0.0001410922863828609,0.014417019678586607,2.218979253076025,0.6600836238460625,0.3301298676016587,-5.347615011946804,11.6
,,0.009516438594501441,0.0047594887977023045,0.0001410922863828609,0.014417019678586607,2.2164951030567153,0.6600836238460625,0.3301298676016587,-5.347615011946804,11.7
,,0.005825898100173802,0.0047199311800029745,0.00013091948492482549,0.010676748765101603,2.204506797116025,0.5456621887757196,0.4420756996203477,-5.355961059998814,11.8
,,0.005825898100173802,0.0047199311800029745,0.00013091948492482549,0.010676748765101603,2.1925184911753353,0.5456621887757196,0.4420756996203477,-5.355961059998814,11.9
,,0.005825898100173802,0.0047199311800029745,0.00013091948492482549,0.010676748765101603,2.1805301852346455,0.5456621887757196,0.4420756996203477,-5.355961059998814,12.0
,,0.005825898100173802,0.0047199311800029745,0.00013091948492482549,0.010676748765101603,2.1685418792939557,0.5456621887757196,0.4420756996203477,-5.355961059998814,12.1
,,0.005825898100173802,0.0047199311800029745,0.00013091948492482549,0.010676748765101603,2.1565535733532655,0.5456621887757196,0.4420756996203477,-5.355961059998814,12.2
,,0.005825898100173802,0.0047199311800029745,0.00013091948492482549,0.010676748765101603,2.1457254455900494,0.5456621887757196,0.4420756996203477,-5.355961059998814,12.3
,,0.009766205938808576,0.004736490904275791,0.00012214141451028646,0.014624838257594653,2.1431178400879265,0.667782150256397,0.3238662076701012,-5.352458732997665,12.4
,,0.009766205938808576,0.004736490904275791,0.00012214141451028646,0.014624838257594653,2.140510234585803,0.667782150256397,0.3238662076701012,-5.352458732997665,12.5
,,0.009766205938808576,0.004736490904275791,0.00012214141451028646,0.014624838257594653,2.1379026290836793,0.667782150256397,0.3238662076701012,-5.352458732997665,12.6
,,0.009766205938808576,0.004736490904275791,0.00012214141451028646,0.014624838257594653,2.1352950235815564,0.667782150256397,0.3238662076701012,-5.352458732997665,12.7
,,0.009766205938808576,0.004736490904275791,0.00012214141451028646,0.014624838257594653,2.132687418079433,0.667782150256397,0.3238662076701012,-5.352458732997665,12.8
,,0.009766205938808576,0.004736490904275791,0.00012214141451028646,0.014624838257594653,2.1297579122506223,0.667782150256397,0.3238662076701012,-5.352458732997665,12.9
,,0.006723440395121829,0.002587647673750888,8.81870498277272e-05,0.009399275118700444,2.13346171183621,0.715314778024225,0.27530289741201447,-5.957006050038173,13.0
,,0.006723440395121829,0.002587647673750888,8.81870498277272e-05,0.009399275118700444,2.1371655114217982,0.715314778024225,0.27530289741201447,-5.957006050038173,13.1
,,0.006723440395121829,0.002587647673750888,8.81870498277272e-05,0.009399275118700444,2.140869311007386,0.715314778024225,0.27530289741201447,-5.957006050038173,13.2
,,0.006723440395121829,0.002587647673750888,8.81870498277272e-05,0.009399275118700444,2.1445731105929737,0.715314778024225,0.27530289741201447,-5.957006050038173,13.3
,,0.006723440395121829,0.002587647673750888,8.81870498277272e-05,0.009399275118700444,2.1495102414668215,0.715314778024225,0.27530289741201447,-5.957006050038173,13.4
,,0.006911208083205887,0.0026971233662732457,7.861730619989645e-05,0.009686948755679029,2.1531561044496614,0.7134556254521478,0.2784285779040631,-5.915569493833881,13.5
,,0.010486766699071769,0.004931044616028418,0.0001074669005132042,0.015525278215613392,2.15196025425497,0.6754640112359136,0.31761392920285236,-5.312204423712045,13.6
,,0.010486766699071769,0.004931044616028418,0.0001074669005132042,0.015525278215613392,2.1507644040602787,0.6754640112359136,0.31761392920285236,-5.312204423712045,13.7
,,0.010486766699071769,0.004931044616028418,0.0001074669005132042,0.015525278215613392,2.149568553865587,0.6754640112359136,0.31761392920285236,-5.312204423712045,13.8
,,0.010486766699071769,0.004931044616028418,0.0001074669005132042,0.015525278215613392,2.1483727036708955,0.6754640112359136,0.31761392920285236,-5.312204423712045,13.9
,,0.010486766699071769,0.004931044616028418,0.0001074669005132042,0.015525278215613392,2.147176853476204,0.6754640112359136,0.31761392920285236,-5.312204423712045,14.0
,,0.007125968296053691,0.0029601591105629516,6.936408307678821e-05,0.01015549148969343,2.1495808866056,0.7016862062545834,0.2914835893040871,-5.822512258522274,14.1
,,0.011042439382346364,0.005120216388596349,0.00010176916643904818,0.016264424937381762,2.1491998416688,0.6789320510783439,0.3148107853987611,-5.274558577426069,14.2
,,0.011042439382346364,0.005120216388596349,0.00010176916643904818,0.016264424937381762,2.148818796732,0.6789320510783439,0.3148107853987611,-5.274558577426069,14.3
,,0.011042439382346364,0.005120216388596349,0.00010176916643904818,0.016264424937381762,2.1484377517952,0.6789320510783439,0.3148107853987611,-5.274558577426069,14.4
,,0.011042439382346364,0.005120216388596349,0.00010176916643904818,0.016264424937381762,2.1480567068584,0.6789320510783439,0.3148107853987611,-5.274558577426069,14.5
,,0.011042439382346364,0.005120216388596349,0.00010176916643904818,0.016264424937381762,2.146843304261443,0.6789320510783439,0.3148107853987611,-5.274558577426069,14.6
,,0.007451533918853246,0.003278669909607473,6.1026133919697355e-05,0.010791229962380416,2.14195196650961,0.6905175725872055,0.3038272672380561,-5.72031745419325,14.7
,,0.011743722228658209,0.005370280239388586,9.680758108169366e-05,0.01721081004912849,2.136105829006587,0.6823456998906847,0.3120294875173829,-5.226875185717129,14.8
,,0.011743722228658209,0.005370280239388586,9.680758108169366e-05,0.01721081004912849,2.1302596915035643,0.6823456998906847,0.3120294875173829,-5.226875185717129,14.9
,,0.011743722228658209,0.005370280239388586,9.680758108169366e-05,0.01721081004912849,2.1244135540005415,0.6823456998906847,0.3120294875173829,-5.226875185717129,15.0
,,0.011743722228658209,0.005370280239388586,9.680758108169366e-05,0.01721081004912849,2.118567416497519,0.6823456998906847,0.3120294875173829,-5.226875185717129,15.1
,,0.012278154877384434,0.005522490899632966,9.553701135193232e-05,0.01789618278836933,2.118714144841452,0.6860767473477062,0.3085848510232033,-5.198926270542257,15.2
,,0.012278154877384434,0.005522490899632966,9.553701135193232e-05,0.01789618278836933,2.120166339778143,0.6860767473477062,0.3085848510232033,-5.198926270542257,15.3
,,0.012604872561286957,0.005705650660218047,9.27851192906655e-05,0.01840330834079567,2.1214617672396674,0.68492427165093,0.31003396533709127,-5.166298251300581,15.4
,,0.012604872561286957,0.005705650660218047,9.27851192906655e-05,0.01840330834079567,2.122757194701191,0.68492427165093,0.31003396533709127,-5.166298251300581,15.5
,,0.012604872561286957,0.005705650660218047,9.27851192906655e-05,0.01840330834079567,2.124052622162715,0.68492427165093,0.31003396533709127,-5.166298251300581,15.6
,,0.012604872561286957,0.005705650660218047,9.27851192906655e-05,0.01840330834079567,2.1247148934084827,0.68492427165093,0.31003396533709127,-5.166298251300581,15.7
,,0.00855757005840151,0.004145202799017943,4.6891046369932005e-05,0.012749663903789385,2.1237689468566874,0.6711996585147688,0.32512251540889076,-5.485803565411281,15.8
,,0.00855757005840151,0.004145202799017943,4.6891046369932005e-05,0.012749663903789385,2.1228230003048916,0.6711996585147688,0.32512251540889076,-5.485803565411281,15.9
,,0.00855757005840151,0.004145202799017943,4.6891046369932005e-05,0.012749663903789385,2.1133716688844806,0.6711996585147688,0.32512251540889076,-5.485803565411281,16.0
,,0.008706162659376111,0.004455825162095577,4.8081998359583354e-05,0.01321006981983127,2.1026918028339088,0.6590550071360117,0.3373051939064233,-5.413543013640487,16.1
,,0.008706162659376111,0.004455825162095577,4.8081998359583354e-05,0.01321006981983127,2.092011936783337,0.6590550071360117,0.3373051939064233,-5.413543013640487,16.2
,,0.008706162659376111,0.004455825162095577,4.8081998359583354e-05,0.01321006981983127,2.0905138990680125,0.6590550071360117,0.3373051939064233,-5.413543013640487,16.3
,,0.014611752366833245,0.0064142593509090825,9.30547643614768e-05,0.021119066482103804,2.0926172778074794,0.6918749168773711,0.3037188862653799,-5.0492317434009495,16.4
,,0.014611752366833245,0.0064142593509090825,9.30547643614768e-05,0.021119066482103804,2.094720656546947,0.6918749168773711,0.3037188862653799,-5.0492317434009495,16.5
,,0.014611752366833245,0.0064142593509090825,9.30547643614768e-05,0.021119066482103804,2.0864960967245483,0.6918749168773711,0.3037188862653799,-5.0492317434009495,16.6
,,0.014961247054180114,0.006710602414438762,8.930868567214983e-05,0.021761158154291027,2.0777324595747326,0.6875207168709421,0.30837524211070155,-5.004066553423522,16.7
,,0.014961247054180114,0.006710602414438762,8.930868567214983e-05,0.021761158154291027,2.0745564835723234,0.6875207168709421,0.30837524211070155,-5.004066553423522,16.8
,,0.014961247054180114,0.006710602414438762,8.930868567214983e-05,0.021761158154291027,2.0713805075699145,0.6875207168709421,0.30837524211070155,-5.004066553423522,16.9
,,0.0160999705218651,0.007038364158694753,9.454097295736927e-05,0.023232875653517223,2.0688485900977933,0.6929822533366733,0.3029484711088365,-4.956379499634609,17.0
,,0.0160999705218651,0.007038364158694753,9.454097295736927e-05,0.023232875653517223,2.066316672625671,0.6929822533366733,0.3029484711088365,-4.956379499634609,17.1
,,0.0160999705218651,0.007038364158694753,9.454097295736927e-05,0.023232875653517223,2.0699125995219507,0.6929822533366733,0.3029484711088365,-4.956379499634609,17.2
,,0.01648586316951673,0.007423807294754964,9.048433923050211e-05,0.024000154803502198,2.0727664801242005,0.6869065347491445,0.30932330876764397,-4.903063240899384,17.3
,,0.01648586316951673,0.007423807294754964,9.048433923050211e-05,0.024000154803502198,2.0752195452615125,0.6869065347491445,0.30932330876764397,-4.903063240899384,17.4
,,0.01648586316951673,0.007423807294754964,9.048433923050211e-05,0.024000154803502198,2.077672610398825,0.6869065347491445,0.30932330876764397,-4.903063240899384,17.5
,,0.01648586316951673,0.007423807294754964,9.048433923050211e-05,0.024000154803502198,2.0801256755361366,0.6869065347491445,0.30932330876764397,-4.903063240899384,17.6
,,0.011782906211424504,0.006299282927756805,3.6899301362289046e-05,0.0181190884405436,2.078688079450471,0.6503034769154755,0.3476600353504217,-5.067319473053734,17.7
,,0.011782906211424504,0.006299282927756805,3.6899301362289046e-05,0.0181190884405436,2.0779031403104042,0.6503034769154755,0.3476600353504217,-5.067319473053734,17.8
,,0.011782906211424504,0.006299282927756805,3.6899301362289046e-05,0.0181190884405436,2.0771182011703373,0.6503034769154755,0.3476600353504217,-5.067319473053734,17.9
,,0.018345877180082126,0.008322545957969765,9.448282293122437e-05,0.026762905960983116,2.079664333649106,0.6854964556848969,0.31097317944856095,-4.7887870663951935,18.0
,,0.018341743272036033,0.008330337053982607,9.425025416039718e-05,0.026766330580179038,2.0821820448704065,0.6852543054825166,0.31122447019881666,-4.787851360958999,18.1
,,0.018341743272036033,0.008330337053982607,9.425025416039718e-05,0.026766330580179038,2.084699756091707,0.6852543054825166,0.31122447019881666,-4.787851360958999,18.2
,,0.020177203320817585,0.008883422576699763,6.847394431367953e-05,0.029129099841831027,2.0879900372506754,0.6926820063228314,0.3049672878645796,-4.723568370931284,18.3
,,0.020177203320817585,0.008883422576699763,6.847394431367953e-05,0.029129099841831027,2.0917667782037404,0.6926820063228314,0.3049672878645796,-4.723568370931284,18.4
,,0.020177203320817585,0.008883422576699763,6.847394431367953e-05,0.029129099841831027,2.0951975239155822,0.6926820063228314,0.3049672878645796,-4.723568370931284,18.5
,,0.02072649566512441,0.009500747384680226,0.00010161921814131933,0.030328862267945955,2.0976308541307125,0.6833917963032159,0.31325762571454585,-4.6563848113985244,18.6
,,0.02072649566512441,0.009500747384680226,0.00010161921814131933,0.030328862267945955,2.1000641843458423,0.6833917963032159,0.31325762571454585,-4.6563848113985244,18.7
,,0.02072649566512441,0.009500747384680226,0.00010161921814131933,0.030328862267945955,2.102497514560973,0.6833917963032159,0.31325762571454585,-4.6563848113985244,18.8
,,0.02072649566512441,0.009500747384680226,0.00010161921814131933,0.030328862267945955,2.1049308447761033,0.6833917963032159,0.31325762571454585,-4.6563848113985244,18.9
,,0.022997483478288932,0.01020642954523704,7.609886153486064e-05,0.033280011885060835,2.094027980164274,0.6910299058099898,0.3066834705614584,-4.5847374097052365,19.0
,,0.022997483478288932,0.01020642954523704,7.609886153486064e-05,0.033280011885060835,2.0972562754884034,0.6910299058099898,0.3066834705614584,-4.5847374097052365,19.1
,,0.023697211366988574,0.011000786100920744,0.00011320041852033567,0.034811197886429654,2.0993834939006635,0.6807353037462233,0.31601285703555604,-4.509788545017109,19.2
,,0.023697211366988574,0.011000786100920744,0.00011320041852033567,0.034811197886429654,2.101510712312923,0.6807353037462233,0.31601285703555604,-4.509788545017109,19.3
,,0.023697211366988574,0.011000786100920744,0.00011320041852033567,0.034811197886429654,2.103637930725183,0.6807353037462233,0.31601285703555604,-4.509788545017109,19.4
,,0.023697211366988574,0.011000786100920744,0.00011320041852033567,0.034811197886429654,2.105765149137443,0.6807353037462233,0.31601285703555604,-4.509788545017109,19.5
,,0.018621945852665012,0.011411810418967827,8.382933844277934e-05,0.030117585610075617,2.101936584790177,0.6183080574172977,0.3789085409007716,-4.473106458197208,19.6
,,0.018621945852665012,0.011411810418967827,8.382933844277934e-05,0.030117585610075617,2.0981080204429112,0.6183080574172977,0.3789085409007716,-4.473106458197208,19.7
,,0.025595054577150705,0.012067153268818076,0.00012193241048285085,0.03778414025645164,2.099715435263601,0.6774020634962139,0.3193708573733555,-4.417268123486454,19.8
,,0.025595054577150705,0.012067153268818076,0.00012193241048285085,0.03778414025645164,2.101322850084291,0.6774020634962139,0.3193708573733555,-4.417268123486454,19.9
,,0.025595054577150705,0.012067153268818076,0.00012193241048285085,0.03778414025645164,2.1029302649049813,0.6774020634962139,0.3193708573733555,-4.417268123486454,20.0
,,0.025595054577150705,0.012067153268818076,0.00012193241048285085,0.03778414025645164,2.1045376797256714,0.6774020634962139,0.3193708573733555,-4.417268123486454,20.1
,,0.025595054577150705,0.012067153268818076,0.00012193241048285085,0.03778414025645164,2.105888624688578,0.6774020634962139,0.3193708573733555,-4.417268123486454,20.2
,,0.027150525059440676,0.013051390786041053,0.0001304417270994024,0.040332357572581135,2.1067865331614684,0.6731697994738157,0.3235960298763613,-4.338860577249009,20.3
,,0.027150525059440676,0.013051390786041053,0.0001304417270994024,0.040332357572581135,2.1076844416343588,0.6731697994738157,0.3235960298763613,-4.338860577249009,20.4
,,0.027150525059440676,0.013051390786041053,0.0001304417270994024,0.040332357572581135,2.108582350107249,0.6731697994738157,0.3235960298763613,-4.338860577249009,20.5
,,0.027150525059440676,0.013051390786041053,0.0001304417270994024,0.040332357572581135,2.1094802585801395,0.6731697994738157,0.3235960298763613,-4.338860577249009,20.6
,,0.027150525059440676,0.013051390786041053,0.0001304417270994024,0.040332357572581135,2.11037816705303,0.6731697994738157,0.3235960298763613,-4.338860577249009,20.7
,,0.027150525059440676,0.013051390786041053,0.0001304417270994024,0.040332357572581135,2.119777721050541,0.6731697994738157,0.3235960298763613,-4.338860577249009,20.8
,,0.017111185252335983,0.010817247572850675,3.1836593427095764e-05,0.027960269418613754,2.1236391028718704,0.6119821306494528,0.38687923248870415,-4.526613421210238,20.9
,,0.02842680693736613,0.013934196539401623,0.00014048848486987936,0.04250149196163764,2.1325919542603335,0.6688425658803816,0.3278519387502631,-4.273409277449885,21.0
,,0.02842680693736613,0.013934196539401623,0.00014048848486987936,0.04250149196163764,2.1415448056487967,0.6688425658803816,0.3278519387502631,-4.273409277449885,21.1
,,0.02842680693736613,0.013934196539401623,0.00014048848486987936,0.04250149196163764,2.1504976570372603,0.6688425658803816,0.3278519387502631,-4.273409277449885,21.2
,,0.02842680693736613,0.013934196539401623,0.00014048848486987936,0.04250149196163764,2.1594505084257234,0.6688425658803816,0.3278519387502631,-4.273409277449885,21.3
,,0.028335393828839338,0.01454859280059819,0.00012973488798952127,0.04301372151742705,2.1581808489932643,0.6587524359490546,0.33823143609426615,-4.230261004777327,21.4
,,0.028335393828839338,0.01454859280059819,0.00012973488798952127,0.04301372151742705,2.1569111895608053,0.6587524359490546,0.33823143609426615,-4.230261004777327,21.5
,,0.028335393828839338,0.01454859280059819,0.00012973488798952127,0.04301372151742705,2.1556415301283467,0.6587524359490546,0.33823143609426615,-4.230261004777327,21.6
,,0.02936112931841596,0.014690476135126057,0.00015205021739335753,0.04420365567093537,2.154938676391979,0.6642240075569448,0.3323362267701602,-4.2205558771278735,21.7
,,0.02936112931841596,0.014690476135126057,0.00015205021739335753,0.04420365567093537,2.1542358226556115,0.6642240075569448,0.3323362267701602,-4.2205558771278735,21.8
,,0.02936112931841596,0.014690476135126057,0.00015205021739335753,0.04420365567093537,2.1535329689192437,0.6642240075569448,0.3323362267701602,-4.2205558771278735,21.9
,,0.029124572710421504,0.015278585240872273,0.00013910339864611868,0.044542261349939896,2.1458435482338016,0.6538638099581086,0.34301323681881024,-4.181303088478534,22.0
,,0.029124572710421504,0.015278585240872273,0.00013910339864611868,0.044542261349939896,2.1381541275483587,0.6538638099581086,0.34301323681881024,-4.181303088478534,22.1
,,0.029124572710421504,0.015278585240872273,0.00013910339864611868,0.044542261349939896,2.1304647068629157,0.6538638099581086,0.34301323681881024,-4.181303088478534,22.2
,,0.029858922401633063,0.015326991956713868,9.96203204169791e-05,0.04528553467876391,2.123240750504095,0.659347904655193,0.3384522688191042,-4.1781398247444,22.3
,,0.029858922401633063,0.015326991956713868,9.96203204169791e-05,0.04528553467876391,2.116016794145274,0.659347904655193,0.3384522688191042,-4.1781398247444,22.4
,,0.029553477790523936,0.01583230124361851,0.00014902355182938655,0.04553480258597183,2.1082859091243624,0.649030546135027,0.34769671425996385,-4.145703043347829,22.5
,,0.029553477790523936,0.01583230124361851,0.00014902355182938655,0.04553480258597183,2.1053967372809828,0.649030546135027,0.34769671425996385,-4.145703043347829,22.6
,,0.029553477790523936,0.01583230124361851,0.00014902355182938655,0.04553480258597183,2.1025075654376026,0.649030546135027,0.34769671425996385,-4.145703043347829,22.7
,,0.029553477790523936,0.01583230124361851,0.00014902355182938655,0.04553480258597183,2.099618393594223,0.649030546135027,0.34769671425996385,-4.145703043347829,22.8
,,0.029553477790523936,0.01583230124361851,0.00014902355182938655,0.04553480258597183,2.096729221750843,0.649030546135027,0.34769671425996385,-4.145703043347829,22.9
,,0.018722837224556164,0.011620295976709511,2.4220860759130376e-05,0.030367354062024805,2.091001844366284,0.6165448983903927,0.38265750624750694,-4.455002056565246,23.0
,,0.018501967221211654,0.011826398683581917,5.021858317486934e-05,0.03037858448796844,2.081637077944077,0.609046390181196,0.38930051820768047,-4.4374210696892185,23.1
,,0.018501967221211654,0.011826398683581917,5.021858317486934e-05,0.03037858448796844,2.0750573895880655,0.609046390181196,0.38930051820768047,-4.4374210696892185,23.2
,,0.018501967221211654,0.011826398683581917,5.021858317486934e-05,0.03037858448796844,2.0684777012320548,0.609046390181196,0.38930051820768047,-4.4374210696892185,23.3
,,0.018501967221211654,0.011826398683581917,5.021858317486934e-05,0.03037858448796844,2.0618980128760436,0.609046390181196,0.38930051820768047,-4.4374210696892185,23.4
,,0.018501967221211654,0.011826398683581917,5.021858317486934e-05,0.03037858448796844,2.0553183245200324,0.609046390181196,0.38930051820768047,-4.4374210696892185,23.5
,,0.018501967221211654,0.011826398683581917,5.021858317486934e-05,0.03037858448796844,2.0487386361640216,0.609046390181196,0.38930051820768047,-4.4374210696892185,23.6
,,0.027641483886107723,0.015210245114866674,0.00016058923930618727,0.04301231824028059,2.0436782254331907,0.6426411088026815,0.3536253272817655,-4.185786057464937,23.7
,,0.027641483886107723,0.015210245114866674,0.00016058923930618727,0.04301231824028059,2.039572614453549,0.6426411088026815,0.3536253272817655,-4.185786057464937,23.8
,,0.027641483886107723,0.015210245114866674,0.00016058923930618727,0.04301231824028059,2.0354670034739075,0.6426411088026815,0.3536253272817655,-4.185786057464937,23.9
,,0.027641483886107723,0.015210245114866674,0.00016058923930618727,0.04301231824028059,2.0313613924942664,0.6426411088026815,0.3536253272817655,-4.185786057464937,24.0
,,0.027641483886107723,0.015210245114866674,0.00016058923930618727,0.04301231824028059,2.0272557815146253,0.6426411088026815,0.3536253272817655,-4.185786057464937,24.1
,,0.017488093581835427,0.01118710675092413,4.922171399752012e-05,0.028724422046757077,2.019921740874509,0.6088231663414719,0.38946324952035477,-4.492993346754351,24.2
,,0.02631127151537484,0.014464855943991179,0.00016612838136301634,0.04094225584072904,2.0154292853666242,0.6426434248696329,0.35329894865249833,-4.2360332995396,24.3
,,0.02631127151537484,0.014464855943991179,0.00016612838136301634,0.04094225584072904,2.011093597333907,0.6426434248696329,0.35329894865249833,-4.2360332995396,24.4
,,0.02631127151537484,0.014464855943991179,0.00016612838136301634,0.04094225584072904,2.0067579093011894,0.6426434248696329,0.35329894865249833,-4.2360332995396,24.5
,,0.02631127151537484,0.014464855943991179,0.00016612838136301634,0.04094225584072904,2.0024222212684717,0.6426434248696329,0.35329894865249833,-4.2360332995396,24.6
,,0.02631127151537484,0.014464855943991179,0.00016612838136301634,0.04094225584072904,1.9980865332357542,0.6426434248696329,0.35329894865249833,-4.2360332995396,24.7
,,0.02615913752081912,0.014515875550774474,0.00015245908297429537,0.04082747215456789,1.995171576628492,0.6407239082004337,0.3555418639640269,-4.23251236291314,24.8
,,0.02615913752081912,0.014515875550774474,0.00015245908297429537,0.04082747215456789,1.9922566200212297,0.6407239082004337,0.3555418639640269,-4.23251236291314,24.9
,,0.025493523636872354,0.013798630127771605,0.00017442816562962006,0.039466581930273574,1.9898464944898175,0.6459521547093257,0.3496282032264646,-4.283185957849691,25.0
,,0.025493523636872354,0.013798630127771605,0.00017442816562962006,0.039466581930273574,1.988664903588566,0.6459521547093257,0.3496282032264646,-4.283185957849691,25.1
,,0.025493523636872354,0.013798630127771605,0.00017442816562962006,0.039466581930273574,1.9874833126873146,0.6459521547093257,0.3496282032264646,-4.283185957849691,25.2
,,0.025493523636872354,0.013798630127771605,0.00017442816562962006,0.039466581930273574,1.986301721786063,0.6459521547093257,0.3496282032264646,-4.283185957849691,25.3
,,0.025671611922337773,0.013823696937519394,0.00016135571993675912,0.03965666457979392,1.9816246326689704,0.6473467245507609,0.3485844582240262,-4.2813709900832455,25.4
,,0.025671611922337773,0.013823696937519394,0.00016135571993675912,0.03965666457979392,1.9769475435518773,0.6473467245507609,0.3485844582240262,-4.2813709900832455,25.5
,,0.025305986874077993,0.013249486057664888,0.00018655433240970386,0.03874202726415259,1.972858088441812,0.6531921187689949,0.34199258514085135,-4.323796515402947,25.6
,,0.025305986874077993,0.013249486057664888,0.00018655433240970386,0.03874202726415259,1.9693077106591643,0.6531921187689949,0.34199258514085135,-4.323796515402947,25.7
,,0.025305986874077993,0.013249486057664888,0.00018655433240970386,0.03874202726415259,1.9657573328765163,0.6531921187689949,0.34199258514085135,-4.323796515402947,25.8
,,0.025305986874077993,0.013249486057664888,0.00018655433240970386,0.03874202726415259,1.9622069550938688,0.6531921187689949,0.34199258514085135,-4.323796515402947,25.9
,,0.025798997324482563,0.013248381810989166,0.00017394039040526712,0.039221319525877,1.9584277640575292,0.6577799430603346,0.3377852140402441,-4.323879861480589,26.0
,,0.025798997324482563,0.013248381810989166,0.00017394039040526712,0.039221319525877,1.9546485730211898,0.6577799430603346,0.3377852140402441,-4.323879861480589,26.1
,,0.025798997324482563,0.013248381810989166,0.00017394039040526712,0.039221319525877,1.95086938198485,0.6577799430603346,0.3377852140402441,-4.323879861480589,26.2
,,0.025848511184163796,0.01285670444223816,0.0001287937444734851,0.038834009370875444,1.9485341967374,0.665615309954309,0.3310681706710503,-4.3538898572255995,26.3
,,0.025848511184163796,0.01285670444223816,0.0001287937444734851,0.038834009370875444,1.9461990114899501,0.665615309954309,0.3310681706710503,-4.3538898572255995,26.4
,,0.025848511184163796,0.01285670444223816,0.0001287937444734851,0.038834009370875444,1.9438638262425,0.665615309954309,0.3310681706710503,-4.3538898572255995,26.5
,,0.017804361852797348,0.009107935756655638,9.502690476088522e-05,0.027007324514213872,1.940909865930614,0.6592419713188163,0.33723946819916056,-4.698609184312806,26.6
,,0.017804361852797348,0.009107935756655638,9.502690476088522e-05,0.027007324514213872,1.9418465668417058,0.6592419713188163,0.33723946819916056,-4.698609184312806,26.7
,,0.017804361852797348,0.009107935756655638,9.502690476088522e-05,0.027007324514213872,1.9427832677527972,0.6592419713188163,0.33723946819916056,-4.698609184312806,26.8
,,0.017804361852797348,0.009107935756655638,9.502690476088522e-05,0.027007324514213872,1.9437199686638889,0.6592419713188163,0.33723946819916056,-4.698609184312806,26.9
,,0.027076392446979784,0.012625463522165788,0.0001425899733096582,0.03984444594245523,1.943055826880893,0.6795524898522739,0.31686884391365194,-4.372039589867686,27.0
,,0.027076392446979784,0.012625463522165788,0.0001425899733096582,0.03984444594245523,1.9424201063553652,0.6795524898522739,0.31686884391365194,-4.372039589867686,27.1
,,0.028123477318712953,0.012578294658018989,0.00020972187874004496,0.040911493855471985,1.9427986926965792,0.6874224006110544,0.3074513656835491,-4.3757825966748145,27.2
,,0.028123477318712953,0.012578294658018989,0.00020972187874004496,0.040911493855471985,1.942404709100126,0.6874224006110544,0.3074513656835491,-4.3757825966748145,27.3
,,0.028123477318712953,0.012578294658018989,0.00020972187874004496,0.040911493855471985,1.9420107255036725,0.6874224006110544,0.3074513656835491,-4.3757825966748145,27.4
,,0.028123477318712953,0.012578294658018989,0.00020972187874004496,0.040911493855471985,1.941616741907219,0.6874224006110544,0.3074513656835491,-4.3757825966748145,27.5
,,0.028123477318712953,0.012578294658018989,0.00020972187874004496,0.040911493855471985,1.9422201738074774,0.6874224006110544,0.3074513656835491,-4.3757825966748145,27.6
,,0.029018056187274238,0.012525859322659778,0.000158237101252344,0.04170215261118636,1.943721142400991,0.6958407269242575,0.3003648142446198,-4.37996002576908,27.7
,,0.03020468297163104,0.012439506937848944,0.00023012467774345484,0.04287431458722344,1.946460705284191,0.7044936639204501,0.2901389108516716,-4.386877827677746,27.8
,,0.03020468297163104,0.012439506937848944,0.00023012467774345484,0.04287431458722344,1.9492002681673906,0.7044936639204501,0.2901389108516716,-4.386877827677746,27.9
,,0.03020468297163104,0.012439506937848944,0.00023012467774345484,0.04287431458722344,1.951143495892556,0.7044936639204501,0.2901389108516716,-4.386877827677746,28.0
,,0.03020468297163104,0.012439506937848944,0.00023012467774345484,0.04287431458722344,1.9530867236177218,0.7044936639204501,0.2901389108516716,-4.386877827677746,28.1
,,0.03020468297163104,0.012439506937848944,0.00023012467774345484,0.04287431458722344,1.9561310282547575,0.7044936639204501,0.2901389108516716,-4.386877827677746,28.2
,,0.03020468297163104,0.012439506937848944,0.00023012467774345484,0.04287431458722344,1.959175332891793,0.7044936639204501,0.2901389108516716,-4.386877827677746,28.3
,,0.011698340686534617,0.009068109596809265,0.0001542840431247021,0.020920734326468585,1.9495743868535012,0.5591744775294077,0.43345082707428845,-4.702991460303885,28.4
,,0.011698340686534617,0.009068109596809265,0.0001542840431247021,0.020920734326468585,1.9399734408152092,0.5591744775294077,0.43345082707428845,-4.702991460303885,28.5
,,0.011698340686534617,0.009068109596809265,0.0001542840431247021,0.020920734326468585,1.936176100766198,0.5591744775294077,0.43345082707428845,-4.702991460303885,28.6
,,0.011698340686534617,0.009068109596809265,0.0001542840431247021,0.020920734326468585,1.9323787607171865,0.5591744775294077,0.43345082707428845,-4.702991460303885,28.7
,,0.011698340686534617,0.009068109596809265,0.0001542840431247021,0.020920734326468585,1.9231454415002194,0.5591744775294077,0.43345082707428845,-4.702991460303885,28.8
,,0.011698340686534617,0.009068109596809265,0.0001542840431247021,0.020920734326468585,1.9139121222832522,0.5591744775294077,0.43345082707428845,-4.702991460303885,28.9
,,0.011698340686534617,0.009068109596809265,0.0001542840431247021,0.020920734326468585,1.9046788030662845,0.5591744775294077,0.43345082707428845,-4.702991460303885,29.0
,,0.035922667585350766,0.012461781032746031,0.0002690115733365013,0.0486534601914333,1.9131407531044533,0.7383373647836846,0.2561334997287665,-4.385088835810011,29.1
,,0.035922667585350766,0.012461781032746031,0.0002690115733365013,0.0486534601914333,1.921602703142622,0.7383373647836846,0.2561334997287665,-4.385088835810011,29.2
,,0.035922667585350766,0.012461781032746031,0.0002690115733365013,0.0486534601914333,1.9305176896708067,0.7383373647836846,0.2561334997287665,-4.385088835810011,29.3
,,0.035922667585350766,0.012461781032746031,0.0002690115733365013,0.0486534601914333,1.9394326761989917,0.7383373647836846,0.2561334997287665,-4.385088835810011,29.4
,,0.035922667585350766,0.012461781032746031,0.0002690115733365013,0.0486534601914333,1.9483476627271765,0.7383373647836846,0.2561334997287665,-4.385088835810011,29.5
,,0.035922667585350766,0.012461781032746031,0.0002690115733365013,0.0486534601914333,1.9572626492553613,0.7383373647836846,0.2561334997287665,-4.385088835810011,29.6
,,0.03691489533572556,0.012266666144562205,0.00025419776012039534,0.04943575924040816,1.9675858525215368,0.7467245553205096,0.24813346316598264,-4.400869765038226,29.7
,,0.039061103683145776,0.012557206732139036,0.00028304416796212336,0.05190135458324694,1.979034452219516,0.7526027788059731,0.24194371867497141,-4.377460536613258,29.8
,,0.039061103683145776,0.012557206732139036,0.00028304416796212336,0.05190135458324694,1.9960212240936765,0.7526027788059731,0.24194371867497141,-4.377460536613258,29.9
,,0.039061103683145776,0.012557206732139036,0.00028304416796212336,0.05190135458324694,2.0079165264007033,0.7526027788059731,0.24194371867497141,-4.377460536613258,30.0
,,0.039061103683145776,0.012557206732139036,0.00028304416796212336,0.05190135458324694,2.0198118287077302,0.7526027788059731,0.24194371867497141,-4.377460536613258,30.1
,,0.039061103683145776,0.012557206732139036,0.00028304416796212336,0.05190135458324694,2.0317071310147568,0.7526027788059731,0.24194371867497141,-4.377460536613258,30.2
,,0.039061103683145776,0.012557206732139036,0.00028304416796212336,0.05190135458324694,2.0436024333217837,0.7526027788059731,0.24194371867497141,-4.377460536613258,30.3
,,0.039779626082243155,0.012378564058743359,0.00026653720308193426,0.05242472734406845,2.0576685621760777,0.7587950972289412,0.23612071413365052,-4.391789007245851,30.4
,,0.041704998503781725,0.012638955031016084,0.0002914048562121748,0.05463535839100998,2.072691681778267,0.7633334846146832,0.2313328841107368,-4.370971565277739,30.5
,,0.041704998503781725,0.012638955031016084,0.0002914048562121748,0.05463535839100998,2.0877148013804567,0.7633334846146832,0.2313328841107368,-4.370971565277739,30.6
,,0.041704998503781725,0.012638955031016084,0.0002914048562121748,0.05463535839100998,2.1021711152865548,0.7633334846146832,0.2313328841107368,-4.370971565277739,30.7
,,0.041704998503781725,0.012638955031016084,0.0002914048562121748,0.05463535839100998,2.116627429192653,0.7633334846146832,0.2313328841107368,-4.370971565277739,30.8
,,0.041704998503781725,0.012638955031016084,0.0002914048562121748,0.05463535839100998,2.1310837430987513,0.7633334846146832,0.2313328841107368,-4.370971565277739,30.9
,,0.041704998503781725,0.012638955031016084,0.0002914048562121748,0.05463535839100998,2.1465668981814794,0.7633334846146832,0.2313328841107368,-4.370971565277739,31.0
,,0.04399460965727303,0.012805241270495532,0.0002927631150556442,0.05709261404282421,2.1635606441866537,0.7705832075629505,0.2242889292280528,-4.357900717610807,31.1
,,0.04399460965727303,0.012805241270495532,0.0002927631150556442,0.05709261404282421,2.1805543901918276,0.7705832075629505,0.2242889292280528,-4.357900717610807,31.2
,,0.04399460965727303,0.012805241270495532,0.0002927631150556442,0.05709261404282421,2.19708267187038,0.7705832075629505,0.2242889292280528,-4.357900717610807,31.3
,,0.04399460965727303,0.012805241270495532,0.0002927631150556442,0.05709261404282421,2.213610953548932,0.7705832075629505,0.2242889292280528,-4.357900717610807,31.4
,,0.04399460965727303,0.012805241270495532,0.0002927631150556442,0.05709261404282421,2.2310444529209805,0.7705832075629505,0.2242889292280528,-4.357900717610807,31.5
,,0.04399460965727303,0.012805241270495532,0.0002927631150556442,0.05709261404282421,2.2484779522930296,0.7705832075629505,0.2242889292280528,-4.357900717610807,31.6
,,0.04399460965727303,0.012805241270495532,0.0002927631150556442,0.05709261404282421,2.2659114516650782,0.7705832075629505,0.2242889292280528,-4.357900717610807,31.7
,,0.04561720213066331,0.01305290508434824,0.0002896617629661935,0.05895976897797774,2.2840018510595317,0.7737004896966597,0.2213866388998857,-4.33874455816032,31.8
,,0.04561720213066331,0.01305290508434824,0.0002896617629661935,0.05895976897797774,2.302092250453985,0.7737004896966597,0.2213866388998857,-4.33874455816032,31.9
,,0.04561720213066331,0.01305290508434824,0.0002896617629661935,0.05895976897797774,2.3230208553896174,0.7737004896966597,0.2213866388998857,-4.33874455816032,32.0
,,0.04561720213066331,0.01305290508434824,0.0002896617629661935,0.05895976897797774,2.3444689633800264,0.7737004896966597,0.2213866388998857,-4.33874455816032,32.1
,,0.04561720213066331,0.01305290508434824,0.0002896617629661935,0.05895976897797774,2.3659170713704363,0.7737004896966597,0.2213866388998857,-4.33874455816032,32.2
,,0.04561720213066331,0.01305290508434824,0.0002896617629661935,0.05895976897797774,2.3873651793608452,0.7737004896966597,0.2213866388998857,-4.33874455816032,32.3
,,0.03513881854704856,0.012235956579395165,0.0001642061368861588,0.04753898126332989,2.4018907775727594,0.7391580049308623,0.2573878584317415,-4.403376401294484,32.4
,,0.030707306969537815,0.013421822673204162,0.00028288737274483695,0.04441201701548681,2.40992856435584,0.6914188778868102,0.3022115088473435,-4.310873338985565,32.5
,,0.030707306969537815,0.013421822673204162,0.00028288737274483695,0.04441201701548681,2.4179663511389213,0.6914188778868102,0.3022115088473435,-4.310873338985565,32.6
,,0.030707306969537815,0.013421822673204162,0.00028288737274483695,0.04441201701548681,2.423194910811175,0.6914188778868102,0.3022115088473435,-4.310873338985565,32.7
,,0.030707306969537815,0.013421822673204162,0.00028288737274483695,0.04441201701548681,2.4284234704834295,0.6914188778868102,0.3022115088473435,-4.310873338985565,32.8
,,0.030707306969537815,0.013421822673204162,0.00028288737274483695,0.04441201701548681,2.4336520301556828,0.6914188778868102,0.3022115088473435,-4.310873338985565,32.9
,,0.04814480318634668,0.013828461195750888,0.0002062680129572869,0.06217953239505485,2.4521440263206937,0.7742869933543541,0.2223957090557128,-4.281026405168341,33.0
,,0.046849891337583965,0.01383055549494435,0.0002731789240114214,0.06095362575653974,2.469589865979649,0.7686153326581631,0.22690291714862368,-4.280874968172523,33.1
,,0.046849891337583965,0.01383055549494435,0.0002731789240114214,0.06095362575653974,2.489858564359767,0.7686153326581631,0.22690291714862368,-4.280874968172523,33.2
,,0.046849891337583965,0.01383055549494435,0.0002731789240114214,0.06095362575653974,2.507285677607653,0.7686153326581631,0.22690291714862368,-4.280874968172523,33.3
,,0.046849891337583965,0.01383055549494435,0.0002731789240114214,0.06095362575653974,2.5247127908555393,0.7686153326581631,0.22690291714862368,-4.280874968172523,33.4
,,0.046849891337583965,0.01383055549494435,0.0002731789240114214,0.06095362575653974,2.5421399041034256,0.7686153326581631,0.22690291714862368,-4.280874968172523,33.5
,,0.04711372767757211,0.013985487979241177,0.00019404988213088083,0.061293265538944174,2.559359671505058,0.7686607535641456,0.22817332142884697,-4.269735059891472,33.6
,,0.04711372767757211,0.013985487979241177,0.00019404988213088083,0.061293265538944174,2.5765794389066903,0.7686607535641456,0.22817332142884697,-4.269735059891472,33.7
,,0.04541879673550435,0.013987134476464887,0.0002560710113666786,0.05966200222333592,2.592635865925239,0.7612683960133583,0.23443957552926414,-4.269617337841763,33.8
,,0.04541879673550435,0.013987134476464887,0.0002560710113666786,0.05966200222333592,2.6086922929437883,0.7612683960133583,0.23443957552926414,-4.269617337841763,33.9
,,0.04541879673550435,0.013987134476464887,0.0002560710113666786,0.05966200222333592,2.6242438888864874,0.7612683960133583,0.23443957552926414,-4.269617337841763,34.0
,,0.04541879673550435,0.013987134476464887,0.0002560710113666786,0.05966200222333592,2.639795484829187,0.7612683960133583,0.23443957552926414,-4.269617337841763,34.1
,,0.045337023766572934,0.014153476806760537,0.00018089365116248825,0.05967139422449596,2.6548588480918753,0.7597781877863587,0.2371903152373526,-4.2577949743497,34.2
,,0.045337023766572934,0.014153476806760537,0.00018089365116248825,0.05967139422449596,2.6699222113545633,0.7597781877863587,0.2371903152373526,-4.2577949743497,34.3
,,0.045337023766572934,0.014153476806760537,0.00018089365116248825,0.05967139422449596,2.684879656378301,0.7597781877863587,0.2371903152373526,-4.2577949743497,34.4
,,0.04343034333820789,0.014135437132421493,0.000239315249916402,0.057805095720545784,2.6983837839522584,0.751323785504456,0.24453617723873616,-4.259070362780881,34.5
,,0.04343034333820789,0.014135437132421493,0.000239315249916402,0.057805095720545784,2.7113002775191877,0.751323785504456,0.24453617723873616,-4.259070362780881,34.6
,,0.04343034333820789,0.014135437132421493,0.000239315249916402,0.057805095720545784,2.724216771086117,0.751323785504456,0.24453617723873616,-4.259070362780881,34.7
,,0.04343034333820789,0.014135437132421493,0.000239315249916402,0.057805095720545784,2.7371332646530466,0.751323785504456,0.24453617723873616,-4.259070362780881,34.8
,,0.041708441343501136,0.018842395012355455,0.00019065674874361907,0.06074149310460021,2.7405064043313394,0.6866548583466148,0.3102063194249738,-3.971645894115405,34.9
,,0.041708441343501136,0.018842395012355455,0.00019065674874361907,0.06074149310460021,2.743464298733037,0.6866548583466148,0.3102063194249738,-3.971645894115405,35.0
,,0.041708441343501136,0.018842395012355455,0.00019065674874361907,0.06074149310460021,2.7464221931347343,0.6866548583466148,0.3102063194249738,-3.971645894115405,35.1
,,0.04092987539472767,0.014219551113946396,0.00022161076563423945,0.05537103727430831,2.7567676432059596,0.739192859833218,0.2568048534742575,-4.253137422338322,35.2
,,0.04092987539472767,0.014219551113946396,0.00022161076563423945,0.05537103727430831,2.766411133782324,0.739192859833218,0.2568048534742575,-4.253137422338322,35.3
,,0.04092987539472767,0.014219551113946396,0.00022161076563423945,0.05537103727430831,2.776054624358688,0.739192859833218,0.2568048534742575,-4.253137422338322,35.4
,,0.04092987539472767,0.014219551113946396,0.00022161076563423945,0.05537103727430831,2.785698114935052,0.739192859833218,0.2568048534742575,-4.253137422338322,35.5
,,0.04036614869142141,0.014365667329758422,0.00015459738248166545,0.054886413403661495,2.7951990662877466,0.7354488331119222,0.2617344883533615,-4.24291413237348,35.6
,,0.04036614869142141,0.014365667329758422,0.00015459738248166545,0.054886413403661495,2.804700017640441,0.7354488331119222,0.2617344883533615,-4.24291413237348,35.7
,,0.03828921229491206,0.014248015469779874,0.000205542292747824,0.05274277005743976,2.8128391060828095,0.7259613450945602,0.27014158441551334,-4.251137647244392,35.8
,,0.03828921229491206,0.014248015469779874,0.000205542292747824,0.05274277005743976,2.820978194525178,0.7259613450945602,0.27014158441551334,-4.251137647244392,35.9
,,0.03828921229491206,0.014248015469779874,0.000205542292747824,0.05274277005743976,2.827008755729383,0.7259613450945602,0.27014158441551334,-4.251137647244392,36.0
,,0.03828921229491206,0.014248015469779874,0.000205542292747824,0.05274277005743976,2.8330393169335877,0.7259613450945602,0.27014158441551334,-4.251137647244392,36.1
,,0.03767132225739107,0.014401094119107,0.0001428817668329658,0.05221529814333103,2.8372614465148027,0.7214614030160905,0.27580220033554126,-4.240451094793012,36.2
,,0.03767132225739107,0.014401094119107,0.0001428817668329658,0.05221529814333103,2.8414835760960173,0.7214614030160905,0.27580220033554126,-4.240451094793012,36.3
,,0.03567641589031769,0.014237020415615888,0.00019069276710416451,0.05010412907303774,2.8444837648690413,0.7120454252046075,0.28414864561087,-4.251909635368563,36.4
,,0.03567641589031769,0.014237020415615888,0.00019069276710416451,0.05010412907303774,2.847483953642066,0.7120454252046075,0.28414864561087,-4.251909635368563,36.5
,,0.03567641589031769,0.014237020415615888,0.00019069276710416451,0.05010412907303774,2.8504841424150906,0.7120454252046075,0.28414864561087,-4.251909635368563,36.6
,,0.03567641589031769,0.014237020415615888,0.00019069276710416451,0.05010412907303774,2.8525867944948597,0.7120454252046075,0.28414864561087,-4.251909635368563,36.7
,,0.03567641589031769,0.014237020415615888,0.00019069276710416451,0.05010412907303774,2.8534508522849427,0.7120454252046075,0.28414864561087,-4.251909635368563,36.8
,,0.035083773456912604,0.014389826975414115,0.0001329994389881928,0.04960659987131492,2.8535616318044603,0.7072400355582492,0.29007888088969896,-4.241233782101354,36.9
,,0.018951774440676028,0.014195648060582915,0.00018013894772296701,0.03332756144898191,2.841416251160095,0.5686516989755626,0.42594319666362995,-4.254819835954699,37.0
,,0.018951774440676028,0.014195648060582915,0.00018013894772296701,0.03332756144898191,2.82927087051573,0.5686516989755626,0.42594319666362995,-4.254819835954699,37.1
,,0.018951774440676028,0.014195648060582915,0.00018013894772296701,0.03332756144898191,2.8171254898713647,0.5686516989755626,0.42594319666362995,-4.254819835954699,37.2
,,0.018951774440676028,0.014195648060582915,0.00018013894772296701,0.03332756144898191,2.804980109227,0.5686516989755626,0.42594319666362995,-4.254819835954699,37.3
,,0.018951774440676028,0.014195648060582915,0.00018013894772296701,0.03332756144898191,2.8054799792579623,0.5686516989755626,0.42594319666362995,-4.254819835954699,37.4
,,0.03278456130919313,0.01433117660198193,0.00012557519343257045,0.047241313104607635,2.816564271913397,0.6939807375082366,0.3033610977376527,-4.245317932907542,37.5
,,0.03135844721925447,0.014108843866660635,0.00017339904359133985,0.045640690129506445,2.826926009884618,0.6870721527276253,0.3091286268158191,-4.260953453635281,37.6
,,0.03135844721925447,0.014108843866660635,0.00017339904359133985,0.045640690129506445,2.837287747855839,0.6870721527276253,0.3091286268158191,-4.260953453635281,37.7
,,0.03135844721925447,0.014108843866660635,0.00017339904359133985,0.045640690129506445,2.847649485827059,0.6870721527276253,0.3091286268158191,-4.260953453635281,37.8
,,0.03135844721925447,0.014108843866660635,0.00017339904359133985,0.045640690129506445,2.8580112237982798,0.6870721527276253,0.3091286268158191,-4.260953453635281,37.9
,,0.03135844721925447,0.014108843866660635,0.00017339904359133985,0.045640690129506445,2.868372961769501,0.6870721527276253,0.3091286268158191,-4.260953453635281,38.0
,,0.03135844721925447,0.014108843866660635,0.00017339904359133985,0.045640690129506445,2.8610394304855853,0.6870721527276253,0.3091286268158191,-4.260953453635281,38.1
,,0.02946886515416009,0.013866165459269528,0.00016666941146272152,0.04350170002489234,2.852623966837227,0.6774187017357379,0.31874996727335014,-4.278303545800483,38.2
,,0.02946886515416009,0.013866165459269528,0.00016666941146272152,0.04350170002489234,2.844208503188869,0.6774187017357379,0.31874996727335014,-4.278303545800483,38.3
,,0.02946886515416009,0.013866165459269528,0.00016666941146272152,0.04350170002489234,2.8357930395405107,0.6774187017357379,0.31874996727335014,-4.278303545800483,38.4
,,0.02946886515416009,0.013866165459269528,0.00016666941146272152,0.04350170002489234,2.827377575892152,0.6774187017357379,0.31874996727335014,-4.278303545800483,38.5
,,0.02946886515416009,0.013866165459269528,0.00016666941146272152,0.04350170002489234,2.818962112243794,0.6774187017357379,0.31874996727335014,-4.278303545800483,38.6
,,0.02946886515416009,0.013866165459269528,0.00016666941146272152,0.04350170002489234,2.8091384318574453,0.6774187017357379,0.31874996727335014,-4.278303545800483,38.7
,,0.027461547213229378,0.0132779618431978,0.00015961943833584777,0.04089912849476302,2.7975556844791845,0.6714457795047082,0.32465146158060537,-4.3216496223752605,38.8
,,0.027461547213229378,0.0132779618431978,0.00015961943833584777,0.04089912849476302,2.785972937100924,0.6714457795047082,0.32465146158060537,-4.3216496223752605,38.9
,,0.027461547213229378,0.0132779618431978,0.00015961943833584777,0.04089912849476302,2.7743901897226637,0.6714457795047082,0.32465146158060537,-4.3216496223752605,39.0
,,0.027461547213229378,0.0132779618431978,0.00015961943833584777,0.04089912849476302,2.7628074423444033,0.6714457795047082,0.32465146158060537,-4.3216496223752605,39.1
,,0.027461547213229378,0.0132779618431978,0.00015961943833584777,0.04089912849476302,2.751224694966143,0.6714457795047082,0.32465146158060537,-4.3216496223752605,39.2
,,0.027461547213229378,0.0132779618431978,0.00015961943833584777,0.04089912849476302,2.7396419475878826,0.6714457795047082,0.32465146158060537,-4.3216496223752605,39.3
,,0.025903812392531596,0.012621473678323773,0.00015321986130662965,0.038678505932161995,2.726739399370662,0.6697211220610264,0.32631750824244615,-4.372355655443763,39.4
,,0.025903812392531596,0.012621473678323773,0.00015321986130662965,0.038678505932161995,2.7128798604055455,0.6697211220610264,0.32631750824244615,-4.372355655443763,39.5
,,0.025903812392531596,0.012621473678323773,0.00015321986130662965,0.038678505932161995,2.6990203214404294,0.6697211220610264,0.32631750824244615,-4.372355655443763,39.6
,,0.025903812392531596,0.012621473678323773,0.00015321986130662965,0.038678505932161995,2.6851607824753136,0.6697211220610264,0.32631750824244615,-4.372355655443763,39.7
,,0.025903812392531596,0.012621473678323773,0.00015321986130662965,0.038678505932161995,2.6713012435101975,0.6697211220610264,0.32631750824244615,-4.372355655443763,39.8
,,0.025903812392531596,0.012621473678323773,0.00015321986130662965,0.038678505932161995,2.6574417045450813,0.6697211220610264,0.32631750824244615,-4.372355655443763,39.9
,,0.024709006131526753,0.011856442986586868,0.00014650842337503281,0.036711957541488656,2.643933884719063,0.6730506294468985,0.32295861568230866,-4.434883847210523,40.0
,,0.024709006131526753,0.011856442986586868,0.00014650842337503281,0.036711957541488656,2.6289154739705993,0.6730506294468985,0.32295861568230866,-4.434883847210523,40.1
,,0.024709006131526753,0.011856442986586868,0.00014650842337503281,0.036711957541488656,2.6138970632221357,0.6730506294468985,0.32295861568230866,-4.434883847210523,40.2
,,0.024709006131526753,0.011856442986586868,0.00014650842337503281,0.036711957541488656,2.598878652473672,0.6730506294468985,0.32295861568230866,-4.434883847210523,40.3
,,0.024709006131526753,0.011856442986586868,0.00014650842337503281,0.036711957541488656,2.5838602417252083,0.6730506294468985,0.32295861568230866,-4.434883847210523,40.4
,,0.02445994508391878,0.011625832555888177,0.00010330366481643599,0.036189081304623394,2.5690631145989644,0.6758929545081837,0.3212524920991266,-4.454525712362332,40.5
,,0.02445994508391878,0.011625832555888177,0.00010330366481643599,0.036189081304623394,2.5542659874727205,0.6758929545081837,0.3212524920991266,-4.454525712362332,40.6
,,0.052196593408092254,0.034281438038541424,0.0004752261083476421,0.08695325755498133,2.533009526186662,0.6002833577004044,0.39425133689631997,-3.3731512363500036,40.7
,,0.052196593408092254,0.034281438038541424,0.0004752261083476421,0.08695325755498133,2.5110961648781984,0.6002833577004044,0.39425133689631997,-3.3731512363500036,40.8
,,0.052196593408092254,0.034281438038541424,0.0004752261083476421,0.08695325755498133,2.4891828035697356,0.6002833577004044,0.39425133689631997,-3.3731512363500036,40.9
,,0.052196593408092254,0.034281438038541424,0.0004752261083476421,0.08695325755498133,2.467269442261272,0.6002833577004044,0.39425133689631997,-3.3731512363500036,41.0
,,0.023980823917474914,0.010835853080116841,0.0001598881600517083,0.03497656515764346,2.453028405638044,0.6856254697792805,0.3098032362891664,-4.524894913349097,41.1
,,0.023980823917474914,0.010835853080116841,0.0001598881600517083,0.03497656515764346,2.4387873690148147,0.6856254697792805,0.3098032362891664,-4.524894913349097,41.2
,,0.023942311482950857,0.010352957342805719,0.00014002126306013216,0.03443529008881671,2.4256519574422364,0.6952841524261304,0.3006496334458925,-4.5704830664804135,41.3
,,0.023942311482950857,0.010352957342805719,0.00014002126306013216,0.03443529008881671,2.419439055648153,0.6952841524261304,0.3006496334458925,-4.5704830664804135,41.4
,,0.023942311482950857,0.010352957342805719,0.00014002126306013216,0.03443529008881671,2.4197139652829023,0.6952841524261304,0.3006496334458925,-4.5704830664804135,41.5
,,0.023942311482950857,0.010352957342805719,0.00014002126306013216,0.03443529008881671,2.419988874917652,0.6952841524261304,0.3006496334458925,-4.5704830664804135,41.6
,,0.023994183083615193,0.01004902002709687,0.00015597699708776134,0.03419918010779983,2.421098314646824,0.7016011204941964,0.2938380392577009,-4.6002801589730415,41.7
,,0.023994183083615193,0.01004902002709687,0.00015597699708776134,0.03419918010779983,2.4222077543759957,0.7016011204941964,0.2938380392577009,-4.6002801589730415,41.8
,,0.024319555477498502,0.009645356680069923,0.00013986353317751966,0.03410477569074594,2.4248023127451663,0.7130835780309037,0.2828154264239044,-4.641278652481891,41.9
,,0.024319555477498502,0.009645356680069923,0.00013986353317751966,0.03410477569074594,2.41413343462158,0.7130835780309037,0.2828154264239044,-4.641278652481891,42.0
,,0.024319555477498502,0.009645356680069923,0.00013986353317751966,0.03410477569074594,2.4045107130040497,0.7130835780309037,0.2828154264239044,-4.641278652481891,42.1
,,0.024511388088940947,0.009322840282042576,0.0001543448347614094,0.03398857320574493,2.396085787066322,0.7211655499795414,0.27429336988075687,-4.6752879454197585,42.2
,,0.024511388088940947,0.009322840282042576,0.0001543448347614094,0.03398857320574493,2.387660861128594,0.7211655499795414,0.27429336988075687,-4.6752879454197585,42.3
,,0.024511388088940947,0.009322840282042576,0.0001543448347614094,0.03398857320574493,2.379235935190866,0.7211655499795414,0.27429336988075687,-4.6752879454197585,42.4
,,0.024511388088940947,0.009322840282042576,0.0001543448347614094,0.03398857320574493,2.3708110092531385,0.7211655499795414,0.27429336988075687,-4.6752879454197585,42.5
,,0.05414724135262815,0.027351112026101555,0.0004769049265346126,0.08197525830526432,2.3553771284397595,0.6605315124594233,0.3336508184487796,-3.598998091851069,42.6
,,0.05414724135262815,0.027351112026101555,0.0004769049265346126,0.08197525830526432,2.339943247626381,0.6605315124594233,0.3336508184487796,-3.598998091851069,42.7
,,0.025505810225945048,0.008704313111959112,0.00015475681230518731,0.034364880150209345,2.3364217565824106,0.7422057086903494,0.25329094918743916,-4.743936616174684,42.8
,,0.025505810225945048,0.008704313111959112,0.00015475681230518731,0.034364880150209345,2.3329002655384405,0.7422057086903494,0.25329094918743916,-4.743936616174684,42.9
,,0.025505810225945048,0.008704313111959112,0.00015475681230518731,0.034364880150209345,2.3293787744944705,0.7422057086903494,0.25329094918743916,-4.743936616174684,43.0
,,0.025505810225945048,0.008704313111959112,0.00015475681230518731,0.034364880150209345,2.3258572834505005,0.7422057086903494,0.25329094918743916,-4.743936616174684,43.1
,,0.054296585977692366,0.0245879083407966,0.00046521167043128383,0.07934970598892026,2.3148019595005986,0.6842695294330882,0.3098676678679799,-3.7055004877466406,43.2
,,0.054296585977692366,0.0245879083407966,0.00046521167043128383,0.07934970598892026,2.3037466355506977,0.6842695294330882,0.3098676678679799,-3.7055004877466406,43.3
,,0.026910454280617235,0.00818075955540413,0.00015704799268916698,0.035248261828710534,2.304704838489127,0.7634547885336587,0.2320897295633656,-4.805970277494378,43.4
,,0.026910454280617235,0.00818075955540413,0.00015704799268916698,0.035248261828710534,2.307116358877337,0.7634547885336587,0.2320897295633656,-4.805970277494378,43.5
,,0.026910454280617235,0.00818075955540413,0.00015704799268916698,0.035248261828710534,2.309527879265547,0.7634547885336587,0.2320897295633656,-4.805970277494378,43.6
,,0.026910454280617235,0.00818075955540413,0.00015704799268916698,0.035248261828710534,2.3119393996537574,0.7634547885336587,0.2320897295633656,-4.805970277494378,43.7
,,0.028095088593893324,0.008046898610747914,0.00015166251606675568,0.03629364972070799,2.3165946655931835,0.7741048037354912,0.22171643449120004,-4.82246852753118,43.8
,,0.028095088593893324,0.008046898610747914,0.00015166251606675568,0.03629364972070799,2.330793285421246,0.7741048037354912,0.22171643449120004,-4.82246852753118,43.9
,,0.02867309437445449,0.0077583338026958005,0.00016139249084175743,0.03659282066799205,2.3472625907046836,0.7835715818303948,0.21201792212432696,-4.8589876839892705,44.0
,,0.02867309437445449,0.0077583338026958005,0.00016139249084175743,0.03659282066799205,2.3637318959881215,0.7835715818303948,0.21201792212432696,-4.8589876839892705,44.1
,,0.02867309437445449,0.0077583338026958005,0.00016139249084175743,0.03659282066799205,2.372813645602032,0.7835715818303948,0.21201792212432696,-4.8589876839892705,44.2
,,0.02867309437445449,0.0077583338026958005,0.00016139249084175743,0.03659282066799205,2.3818953952159427,0.7835715818303948,0.21201792212432696,-4.8589876839892705,44.3
,,0.030106585417285954,0.007708076334945595,0.00015942328550853948,0.03797408503774009,2.393311250157562,0.7928192446866037,0.20298254262834817,-4.865486625138941,44.4
,,0.054574923492633175,0.01837409598390297,0.0004400515198648721,0.07338907099640102,2.394331111552657,0.7436382931636989,0.2503655617170032,-3.996813433248446,44.5
,,0.054574923492633175,0.01837409598390297,0.0004400515198648721,0.07338907099640102,2.3961122872358582,0.7436382931636989,0.2503655617170032,-3.996813433248446,44.6
,,0.054574923492633175,0.01837409598390297,0.0004400515198648721,0.07338907099640102,2.3978934629190594,0.7436382931636989,0.2503655617170032,-3.996813433248446,44.7
,,0.054574923492633175,0.01837409598390297,0.0004400515198648721,0.07338907099640102,2.401036501512586,0.7436382931636989,0.2503655617170032,-3.996813433248446,44.8
,,0.054574923492633175,0.01837409598390297,0.0004400515198648721,0.07338907099640102,2.4041795401061132,0.7436382931636989,0.2503655617170032,-3.996813433248446,44.9
,,0.0324722227581692,0.007479163036776519,0.00017010124721941907,0.04012148704216514,2.422561268318813,0.8093474382951698,0.18641290710178296,-4.895634386735368,45.0
,,0.0332148137796205,0.007227191154658788,0.0001787740566856613,0.04062077899096495,2.4437665544311318,0.8176803745444735,0.17791857601416977,-4.929904816960689,45.1
,,0.0332148137796205,0.007227191154658788,0.0001787740566856613,0.04062077899096495,2.465765965299699,0.8176803745444735,0.17791857601416977,-4.929904816960689,45.2
,,0.0332148137796205,0.007227191154658788,0.0001787740566856613,0.04062077899096495,2.4877653761682663,0.8176803745444735,0.17791857601416977,-4.929904816960689,45.3
,,0.0332148137796205,0.007227191154658788,0.0001787740566856613,0.04062077899096495,2.5109867278450233,0.8176803745444735,0.17791857601416977,-4.929904816960689,45.4
,,0.0332148137796205,0.007227191154658788,0.0001787740566856613,0.04062077899096495,2.5342080795217807,0.8176803745444735,0.17791857601416977,-4.929904816960689,45.5
,,0.05430061647864949,0.015111273617355484,0.00040008374026843653,0.06981197383627341,2.546291344939157,0.777812365053566,0.21645675930600689,-4.192314216550428,45.6
,,0.05430061647864949,0.015111273617355484,0.00040008374026843653,0.06981197383627341,2.5583746103565335,0.777812365053566,0.21645675930600689,-4.192314216550428,45.7
,,0.05430061647864949,0.015111273617355484,0.00040008374026843653,0.06981197383627341,2.57045787577391,0.777812365053566,0.21645675930600689,-4.192314216550428,45.8
,,0.05430061647864949,0.015111273617355484,0.00040008374026843653,0.06981197383627341,2.5832944194618515,0.777812365053566,0.21645675930600689,-4.192314216550428,45.9
,,0.05430061647864949,0.015111273617355484,0.00040008374026843653,0.06981197383627341,2.6083871233136766,0.777812365053566,0.21645675930600689,-4.192314216550428,46.0
,,0.05430061647864949,0.015111273617355484,0.00040008374026843653,0.06981197383627341,2.6334798271655013,0.777812365053566,0.21645675930600689,-4.192314216550428,46.1
,,0.03890791046310605,0.00719795820141767,0.0002066916856437483,0.04631256035016747,2.678706140243986,0.8401157303531667,0.15542129709509014,-4.933957876313864,46.2
,,0.03890791046310605,0.00719795820141767,0.0002066916856437483,0.04631256035016747,2.72393245332247,0.8401157303531667,0.15542129709509014,-4.933957876313864,46.3
,,0.03890791046310605,0.00719795820141767,0.0002066916856437483,0.04631256035016747,2.7691587664009543,0.8401157303531667,0.15542129709509014,-4.933957876313864,46.4
,,0.03890791046310605,0.00719795820141767,0.0002066916856437483,0.04631256035016747,2.8038006568549663,0.8401157303531667,0.15542129709509014,-4.933957876313864,46.5
,,0.03890791046310605,0.00719795820141767,0.0002066916856437483,0.04631256035016747,2.8391651019931925,0.8401157303531667,0.15542129709509014,-4.933957876313864,46.6
,,0.03961332099962708,0.007032698504121502,0.00021313796381793647,0.04685915746756652,2.877055378347222,0.8453698943914084,0.1500816251122136,-4.957184791319423,46.7
,,0.03961332099962708,0.007032698504121502,0.00021313796381793647,0.04685915746756652,2.9149456547012513,0.8453698943914084,0.1500816251122136,-4.957184791319423,46.8
,,0.053235494300832485,0.013040089151491121,0.0003600747441126881,0.0666356581964363,2.935610536616191,0.7989040063789682,0.19569235908273072,-4.3397268857362095,46.9
,,0.053235494300832485,0.013040089151491121,0.0003600747441126881,0.0666356581964363,2.956275418531131,0.7989040063789682,0.19569235908273072,-4.3397268857362095,47.0
,,0.053235494300832485,0.013040089151491121,0.0003600747441126881,0.0666356581964363,2.97694030044607,0.7989040063789682,0.19569235908273072,-4.3397268857362095,47.1
,,0.053235494300832485,0.013040089151491121,0.0003600747441126881,0.0666356581964363,2.9986871147254535,0.7989040063789682,0.19569235908273072,-4.3397268857362095,47.2
,,0.05279177131994064,0.012370612880086293,0.00035482408098102354,0.06551720828100795,3.0224902176005566,0.8057695482614734,0.1888147130297106,-4.392431548123091,47.3
,,0.05279177131994064,0.012370612880086293,0.00035482408098102354,0.06551720828100795,3.0462933204756593,0.8057695482614734,0.1888147130297106,-4.392431548123091,47.4
,,0.05279177131994064,0.012370612880086293,0.00035482408098102354,0.06551720828100795,3.0700964233507624,0.8057695482614734,0.1888147130297106,-4.392431548123091,47.5
,,0.05241515706173394,0.012388579475832587,0.0003410880991807855,0.06514482463674733,3.093492980674866,0.8045943381382172,0.19016981847617645,-4.390980240774968,47.6
,,0.05241515706173394,0.012388579475832587,0.0003410880991807855,0.06514482463674733,3.1168895379989694,0.8045943381382172,0.19016981847617645,-4.390980240774968,47.7
,,0.051929973775511326,0.011864364207847068,0.0003355845823217035,0.0641299225656801,3.1425424894149954,0.8097619909384122,0.1850051229314352,-4.434215976046636,47.8
,,0.051929973775511326,0.011864364207847068,0.0003355845823217035,0.0641299225656801,3.1681954408310213,0.8097619909384122,0.1850051229314352,-4.434215976046636,47.9
,,0.051929973775511326,0.011864364207847068,0.0003355845823217035,0.0641299225656801,3.1938483922470478,0.8097619909384122,0.1850051229314352,-4.434215976046636,48.0
,,0.051929973775511326,0.011864364207847068,0.0003355845823217035,0.0641299225656801,3.2195013436630737,0.8097619909384122,0.1850051229314352,-4.434215976046636,48.1
,,0.051929973775511326,0.011864364207847068,0.0003355845823217035,0.0641299225656801,3.2451542950790997,0.8097619909384122,0.1850051229314352,-4.434215976046636,48.2
,,0.0514501218833991,0.011960915903810133,0.00032271502331359205,0.06373375281052282,3.2699689087720856,0.807266473643215,0.1876700394431397,-4.426110952805663,48.3
,,0.04553380808444445,0.007745332805405432,0.0002641779311339603,0.05354331882098384,3.312485687333727,0.8504106410863641,0.14465544863405078,-4.860664835680735,48.4
,,0.04553380808444445,0.007745332805405432,0.0002641779311339603,0.05354331882098384,3.355002465895369,0.8504106410863641,0.14465544863405078,-4.860664835680735,48.5
,,0.04553380808444445,0.007745332805405432,0.0002641779311339603,0.05354331882098384,3.3975192444570106,0.8504106410863641,0.14465544863405078,-4.860664835680735,48.6
,,0.04553380808444445,0.007745332805405432,0.0002641779311339603,0.05354331882098384,3.440036023018652,0.8504106410863641,0.14465544863405078,-4.860664835680735,48.7
,,0.04553380808444445,0.007745332805405432,0.0002641779311339603,0.05354331882098384,3.482552801580294,0.8504106410863641,0.14465544863405078,-4.860664835680735,48.8
,,0.04553380808444445,0.007745332805405432,0.0002641779311339603,0.05354331882098384,3.525069580141935,0.8504106410863641,0.14465544863405078,-4.860664835680735,48.9
,,0.02866776713569847,0.00797201130680575,0.00027516858427285677,0.03691494702677708,3.54186999012641,0.7765896864189908,0.21595618980634254,-4.831818458317774,49.0
,,0.02866776713569847,0.00797201130680575,0.00027516858427285677,0.03691494702677708,3.5586704001108846,0.7765896864189908,0.21595618980634254,-4.831818458317774,49.1
,,0.02866776713569847,0.00797201130680575,0.00027516858427285677,0.03691494702677708,3.5754708100953603,0.7765896864189908,0.21595618980634254,-4.831818458317774,49.2
,,0.02866776713569847,0.00797201130680575,0.00027516858427285677,0.03691494702677708,3.592271220079835,0.7765896864189908,0.21595618980634254,-4.831818458317774,49.3
,,0.02866776713569847,0.00797201130680575,0.00027516858427285677,0.03691494702677708,3.6090716300643098,0.7765896864189908,0.21595618980634254,-4.831818458317774,49.4
,,0.044841691573657506,0.010193810126822704,0.0002023212913476535,0.05523782299182786,3.6345714426783364,0.8117932450069872,0.1845440239078724,-4.585974593211589,49.5
,,0.044841691573657506,0.010193810126822704,0.0002023212913476535,0.05523782299182786,3.660071255292362,0.8117932450069872,0.1845440239078724,-4.585974593211589,49.6
,,0.044841691573657506,0.010193810126822704,0.0002023212913476535,0.05523782299182786,3.692030402066204,0.8117932450069872,0.1845440239078724,-4.585974593211589,49.7
,,0.04299778342819255,0.008072647968151546,0.0002796672769791023,0.0513500986733232,3.7342944440843135,0.8373456826584493,0.15720803224756708,-4.819273725595648,49.8
,,0.04299778342819255,0.008072647968151546,0.0002796672769791023,0.0513500986733232,3.7765584861024237,0.8373456826584493,0.15720803224756708,-4.819273725595648,49.9
,,0.04299778342819255,0.008072647968151546,0.0002796672769791023,0.0513500986733232,3.8188225281205344,0.8373456826584493,0.15720803224756708,-4.819273725595648,50.0
,,0.04299778342819255,0.008072647968151546,0.0002796672769791023,0.0513500986733232,3.8534142454534095,0.8373456826584493,0.15720803224756708,-4.819273725595648,50.1
,,0.038556105786689804,0.009074354834090331,0.0001701827559874334,0.047800643376767565,3.876034345435175,0.8066022350952108,0.18983750412239678,-4.702302994020648,50.2
,,0.038556105786689804,0.009074354834090331,0.0001701827559874334,0.047800643376767565,3.89754882036629,0.8066022350952108,0.18983750412239678,-4.702302994020648,50.3
,,0.038556105786689804,0.009074354834090331,0.0001701827559874334,0.047800643376767565,3.9190632952974056,0.8066022350952108,0.18983750412239678,-4.702302994020648,50.4
,,0.03450797426923969,0.008387680404229865,0.00020023376275128343,0.04309588843622084,3.9390801842723207,0.8007254409039342,0.19462832090451263,-4.780991268214619,50.5
,,0.03450797426923969,0.008387680404229865,0.00020023376275128343,0.04309588843622084,3.9590970732472353,0.8007254409039342,0.19462832090451263,-4.780991268214619,50.6
,,0.03450797426923969,0.008387680404229865,0.00020023376275128343,0.04309588843622084,3.978279432127728,0.8007254409039342,0.19462832090451263,-4.780991268214619,50.7
,,0.04133799451708021,0.008441583555242795,0.0003022468716101506,0.05008182494393315,4.006159811347386,0.8254091092598621,0.16855582967859478,-4.774585362944879,50.8
,,0.04133799451708021,0.008441583555242795,0.0003022468716101506,0.05008182494393315,4.032555071927044,0.8254091092598621,0.16855582967859478,-4.774585362944879,50.9
,,0.04133799451708021,0.008441583555242795,0.0003022468716101506,0.05008182494393315,4.0589503325067025,0.8254091092598621,0.16855582967859478,-4.774585362944879,51.0
,,0.04133799451708021,0.008441583555242795,0.0003022468716101506,0.05008182494393315,4.085345593086362,0.8254091092598621,0.16855582967859478,-4.774585362944879,51.1
,,0.04064497703572223,0.008919909089521416,0.00030627437203506404,0.04987116049727871,4.106762061949566,0.8149996236389984,0.17885906404781063,-4.719469524199844,51.2
,,0.04064497703572223,0.008919909089521416,0.00030627437203506404,0.04987116049727871,4.128178530812771,0.8149996236389984,0.17885906404781063,-4.719469524199844,51.3
,,0.04039477753402693,0.009005049121845025,0.0003211230561355778,0.04972094971200752,4.148807597555688,0.8124297256589139,0.181111768258729,-4.709969845416844,51.4
,,0.04039477753402693,0.009005049121845025,0.0003211230561355778,0.04972094971200752,4.169436664298606,0.8124297256589139,0.181111768258729,-4.709969845416844,51.5
,,0.04039477753402693,0.009005049121845025,0.0003211230561355778,0.04972094971200752,4.197282031763427,0.8124297256589139,0.181111768258729,-4.709969845416844,51.6
,,0.04039477753402693,0.009005049121845025,0.0003211230561355778,0.04972094971200752,4.22512739922825,0.8124297256589139,0.181111768258729,-4.709969845416844,51.7
,,0.04018110564237225,0.00961092099587158,0.0003272178863650278,0.05011924452460886,4.239022134198539,0.801710122000005,0.1917610907154149,-4.644855223352533,51.8
,,0.04018110564237225,0.00961092099587158,0.0003272178863650278,0.05011924452460886,4.252916869168828,0.801710122000005,0.1917610907154149,-4.644855223352533,51.9
,,0.04018110564237225,0.00961092099587158,0.0003272178863650278,0.05011924452460886,4.266811604139118,0.801710122000005,0.1917610907154149,-4.644855223352533,52.0
,,0.037970399019034616,0.009230340226708687,0.0003289606707405603,0.04752969991648387,4.279960509174571,0.7988773143056607,0.19420152542363295,-4.685259370181536,52.1
,,0.037970399019034616,0.009230340226708687,0.0003289606707405603,0.04752969991648387,4.301131479795966,0.7988773143056607,0.19420152542363295,-4.685259370181536,52.2
,,0.037970399019034616,0.009230340226708687,0.0003289606707405603,0.04752969991648387,4.322302450417363,0.7988773143056607,0.19420152542363295,-4.685259370181536,52.3
,,0.037970399019034616,0.009230340226708687,0.0003289606707405603,0.04752969991648387,4.331459894150427,0.7988773143056607,0.19420152542363295,-4.685259370181536,52.4
,,0.022200089039724386,0.0092923030013018,0.00031445727711543246,0.03180684931814162,4.321455477420971,0.6979656745524354,0.2921478612470354,-4.678568855769879,52.5
,,0.022200089039724386,0.0092923030013018,0.00031445727711543246,0.03180684931814162,4.311451060691513,0.6979656745524354,0.2921478612470354,-4.678568855769879,52.6
,,0.027830374101912688,0.00803385235086376,0.0001635577131098367,0.036027784165886284,4.313391693679275,0.7724697687143497,0.2229904651885528,-4.824091121249304,52.7
,,0.027830374101912688,0.00803385235086376,0.0001635577131098367,0.036027784165886284,4.313088581115823,0.7724697687143497,0.2229904651885528,-4.824091121249304,52.8
,,0.027830374101912688,0.00803385235086376,0.0001635577131098367,0.036027784165886284,4.312785468552368,0.7724697687143497,0.2229904651885528,-4.824091121249304,52.9
,,0.027830374101912688,0.00803385235086376,0.0001635577131098367,0.036027784165886284,4.3102116705335405,0.7724697687143497,0.2229904651885528,-4.824091121249304,53.0
,,0.027173118936474627,0.007936933577906253,0.00015222983500156687,0.035262282349382446,4.307187775443192,0.7706001179175095,0.22508280942413966,-4.836228277573371,53.1
,,0.027173118936474627,0.007936933577906253,0.00015222983500156687,0.035262282349382446,4.304163880352844,0.7706001179175095,0.22508280942413966,-4.836228277573371,53.2
,,0.02524384828240939,0.007592954702671301,0.00014857527664903497,0.032985378261729724,4.300040114099437,0.7653041927276545,0.23019153039335596,-4.88053447443836,53.3
,,0.02524384828240939,0.007592954702671301,0.00014857527664903497,0.032985378261729724,4.293582242518321,0.7653041927276545,0.23019153039335596,-4.88053447443836,53.4
,,0.02524384828240939,0.007592954702671301,0.00014857527664903497,0.032985378261729724,4.297520364483728,0.7653041927276545,0.23019153039335596,-4.88053447443836,53.5
,,0.02524384828240939,0.007592954702671301,0.00014857527664903497,0.032985378261729724,4.301458486449136,0.7653041927276545,0.23019153039335596,-4.88053447443836,53.6
,,0.024271150119844494,0.007309802119080566,0.00013571317892456956,0.031716665417849635,4.305349004933188,0.7652491143090054,0.23047196238248696,-4.918539075480066,53.7
,,0.024271150119844494,0.007309802119080566,0.00013571317892456956,0.031716665417849635,4.309239523417238,0.7652491143090054,0.23047196238248696,-4.918539075480066,53.8
,,0.027098664098287803,0.008023902348739466,0.00028728233893628565,0.03540984878596356,4.313762106932373,0.765286072303977,0.22660086455721143,-4.82533039829443,53.9
,,0.027098664098287803,0.008023902348739466,0.00028728233893628565,0.03540984878596356,4.303046000828336,0.765286072303977,0.22660086455721143,-4.82533039829443,54.0
,,0.027098664098287803,0.008023902348739466,0.00028728233893628565,0.03540984878596356,4.289506336824679,0.765286072303977,0.22660086455721143,-4.82533039829443,54.1
,,0.027098664098287803,0.008023902348739466,0.00028728233893628565,0.03540984878596356,4.275966672821021,0.765286072303977,0.22660086455721143,-4.82533039829443,54.2
,,0.026203262420381082,0.007977238083796061,0.00026819654860341216,0.03444869705278056,4.26139935553833,0.7606459652228287,0.23156864457235463,-4.831163032215966,54.3
,,0.026203262420381082,0.007977238083796061,0.00026819654860341216,0.03444869705278056,4.24683203825564,0.7606459652228287,0.23156864457235463,-4.831163032215966,54.4
,,0.024992623840160485,0.007585449962175434,0.0002735131438371014,0.03285158694617302,4.232376468401125,0.7607737148622573,0.23090056424379482,-4.881523345307615,54.5
,,0.024992623840160485,0.007585449962175434,0.0002735131438371014,0.03285158694617302,4.229058984805992,0.7607737148622573,0.23090056424379482,-4.881523345307615,54.6
,,0.024992623840160485,0.007585449962175434,0.0002735131438371014,0.03285158694617302,4.225741501210858,0.7607737148622573,0.23090056424379482,-4.881523345307615,54.7
,,0.024992623840160485,0.007585449962175434,0.0002735131438371014,0.03285158694617302,4.222424017615724,0.7607737148622573,0.23090056424379482,-4.881523345307615,54.8
,,0.024559413544241508,0.007537061830990879,0.00025457582941980887,0.0323510512046522,4.218702927658052,0.7591534936184632,0.2329773392311599,-4.88792285049373,54.9
,,0.024559413544241508,0.007537061830990879,0.00025457582941980887,0.0323510512046522,4.214981837700381,0.7591534936184632,0.2329773392311599,-4.88792285049373,55.0
,,0.019380388067781897,0.005913216821457088,0.00011010881129078258,0.025403713700529768,4.2114716715121325,0.7628958622446504,0.2327697789057422,-5.130565294211444,55.1
,,0.019380388067781897,0.005913216821457088,0.00011010881129078258,0.025403713700529768,4.187827896097224,0.7628958622446504,0.2327697789057422,-5.130565294211444,55.2
,,0.019380388067781897,0.005913216821457088,0.00011010881129078258,0.025403713700529768,4.164184120682317,0.7628958622446504,0.2327697789057422,-5.130565294211444,55.3
,,0.01952435078442137,0.005763915774596304,0.00010449362209328822,0.025392760181110963,4.141761144105667,0.7688943874224845,0.2269905175130956,-5.156138213270099,55.4
,,0.01952435078442137,0.005763915774596304,0.00010449362209328822,0.025392760181110963,4.119338167529016,0.7688943874224845,0.2269905175130956,-5.156138213270099,55.5
,,0.01952435078442137,0.005763915774596304,0.00010449362209328822,0.025392760181110963,4.096915190952367,0.7688943874224845,0.2269905175130956,-5.156138213270099,55.6
,,0.01952435078442137,0.005763915774596304,0.00010449362209328822,0.025392760181110963,4.071966383159913,0.7688943874224845,0.2269905175130956,-5.156138213270099,55.7
,,0.02315949850461667,0.0067150920700870444,0.00018826576443835275,0.030062856339142068,4.047701257287702,0.7703691972363526,0.2233683983429061,-5.003397737993406,55.8
,,0.02315949850461667,0.0067150920700870444,0.00018826576443835275,0.030062856339142068,4.0406615258545795,0.7703691972363526,0.2233683983429061,-5.003397737993406,55.9
,,0.023441306806632235,0.0066379066022578155,0.0002291127924372826,0.030308326201327333,4.034539103642105,0.7734279567574945,0.2190126422081043,-5.0149586359463685,56.0
,,0.023441306806632235,0.0066379066022578155,0.0002291127924372826,0.030308326201327333,4.028416681429632,0.7734279567574945,0.2190126422081043,-5.0149586359463685,56.1
,,0.023441306806632235,0.0066379066022578155,0.0002291127924372826,0.030308326201327333,4.0222942592171576,0.7734279567574945,0.2190126422081043,-5.0149586359463685,56.2
,,0.023441306806632235,0.0066379066022578155,0.0002291127924372826,0.030308326201327333,4.014115548408963,0.7734279567574945,0.2190126422081043,-5.0149586359463685,56.3
,,0.018885587549324956,0.0051119842583625865,7.525438017882489e-05,0.02407282618786637,4.007747331944717,0.7845189178013514,0.21235496897905667,-5.2761676412616865,56.4
,,0.023893704094472397,0.00618576536532288,0.00021621736764475624,0.030295686827440032,4.003249298713136,0.7886833604587865,0.20417973688981303,-5.0855045353896555,56.5
,,0.023893704094472397,0.00618576536532288,0.00021621736764475624,0.030295686827440032,3.999157811032555,0.7886833604587865,0.20417973688981303,-5.0855045353896555,56.6
,,0.023893704094472397,0.00618576536532288,0.00021621736764475624,0.030295686827440032,3.9950663233519745,0.7886833604587865,0.20417973688981303,-5.0855045353896555,56.7
,,0.023893704094472397,0.00618576536532288,0.00021621736764475624,0.030295686827440032,3.989352112139578,0.7886833604587865,0.20417973688981303,-5.0855045353896555,56.8
,,0.023893704094472397,0.00618576536532288,0.00021621736764475624,0.030295686827440032,3.983637900927183,0.7886833604587865,0.20417973688981303,-5.0855045353896555,56.9
,,0.023893704094472397,0.00618576536532288,0.00021621736764475624,0.030295686827440032,3.9779236897147876,0.7886833604587865,0.20417973688981303,-5.0855045353896555,57.0
,,0.024787926223015098,0.005740994739537363,0.0002010820920311331,0.030730003054583597,3.9772651913961847,0.8066359830484235,0.1868205066345105,-5.1601227840943285,57.1
,,0.024787926223015098,0.005740994739537363,0.0002010820920311331,0.030730003054583597,3.9766066930775823,0.8066359830484235,0.1868205066345105,-5.1601227840943285,57.2
,,0.024787926223015098,0.005740994739537363,0.0002010820920311331,0.030730003054583597,3.976786532482021,0.8066359830484235,0.1868205066345105,-5.1601227840943285,57.3
,,0.024787926223015098,0.005740994739537363,0.0002010820920311331,0.030730003054583597,3.9594402585751833,0.8066359830484235,0.1868205066345105,-5.1601227840943285,57.4
,,0.024787926223015098,0.005740994739537363,0.0002010820920311331,0.030730003054583597,3.942093984668347,0.8066359830484235,0.1868205066345105,-5.1601227840943285,57.5
,,0.024787926223015098,0.005740994739537363,0.0002010820920311331,0.030730003054583597,3.92474771076151,0.8066359830484235,0.1868205066345105,-5.1601227840943285,57.6
,,0.02622853630859016,0.005302971546074398,0.00018403820212589328,0.03171554605679045,3.9143825654432436,0.8269930544984107,0.1672041697336315,-5.239487946469599,57.7
,,0.02622853630859016,0.005302971546074398,0.00018403820212589328,0.03171554605679045,3.9040174201249767,0.8269930544984107,0.1672041697336315,-5.239487946469599,57.8
,,0.02622853630859016,0.005302971546074398,0.00018403820212589328,0.03171554605679045,3.8936522748067097,0.8269930544984107,0.1672041697336315,-5.239487946469599,57.9
,,0.02622853630859016,0.005302971546074398,0.00018403820212589328,0.03171554605679045,3.908651778926511,0.8269930544984107,0.1672041697336315,-5.239487946469599,58.0
,,0.02622853630859016,0.005302971546074398,0.00018403820212589328,0.03171554605679045,3.9236512830463135,0.8269930544984107,0.1672041697336315,-5.239487946469599,58.1
,,0.02622853630859016,0.005302971546074398,0.00018403820212589328,0.03171554605679045,3.938650787166115,0.8269930544984107,0.1672041697336315,-5.239487946469599,58.2
,,0.021815036781916427,0.004216534917169147,7.236614625054837e-05,0.02610393784533612,3.956180077940254,0.8356990777088457,0.16152869127071176,-5.468741597904974,58.3
,,0.017181157702212697,0.004911359941172902,0.00016861310519368028,0.022261130748579282,3.9550933728304636,0.7718007632343298,0.22062490879922386,-5.3162044017635575,58.4
,,0.017181157702212697,0.004911359941172902,0.00016861310519368028,0.022261130748579282,3.945085981468901,0.7718007632343298,0.22062490879922386,-5.3162044017635575,58.5
,,0.017181157702212697,0.004911359941172902,0.00016861310519368028,0.022261130748579282,3.9350785901073384,0.7718007632343298,0.22062490879922386,-5.3162044017635575,58.6
,,0.017181157702212697,0.004911359941172902,0.00016861310519368028,0.022261130748579282,3.9250711987457763,0.7718007632343298,0.22062490879922386,-5.3162044017635575,58.7
,,0.017181157702212697,0.004911359941172902,0.00016861310519368028,0.022261130748579282,3.904758912139945,0.7718007632343298,0.22062490879922386,-5.3162044017635575,58.8
,,0.02373154817348078,0.004024586360839956,7.567431649943143e-05,0.027831808850820167,3.9110954506998583,0.8526771759853273,0.14460383737226468,-5.51533314088573,58.9
,,0.03014125025479643,0.004561076964978024,0.00015516670389037067,0.03485749392366482,3.9253399866471543,0.8646992902244609,0.13084925080863316,-5.39019650681086,59.0
,,0.03014125025479643,0.004561076964978024,0.00015516670389037067,0.03485749392366482,3.9395845225944504,0.8646992902244609,0.13084925080863316,-5.39019650681086,59.1
,,0.03014125025479643,0.004561076964978024,0.00015516670389037067,0.03485749392366482,3.9658006758928557,0.8646992902244609,0.13084925080863316,-5.39019650681086,59.2
,,0.03014125025479643,0.004561076964978024,0.00015516670389037067,0.03485749392366482,3.9920168291912614,0.8646992902244609,0.13084925080863316,-5.39019650681086,59.3
,,0.03014125025479643,0.004561076964978024,0.00015516670389037067,0.03485749392366482,4.018232982489667,0.8646992902244609,0.13084925080863316,-5.39019650681086,59.4
,,0.030998024057724526,0.004296797676016063,0.00012050624311212479,0.03541532797685271,4.052678420191275,0.8752714101076428,0.12132593206039005,-5.449885260237055,59.5
,,0.0325169206712867,0.00425298949513285,0.0001428939489616917,0.03691280411538124,4.09191771007558,0.8809116904163123,0.11521718810196452,-5.460133132703616,59.6
,,0.0325169206712867,0.00425298949513285,0.0001428939489616917,0.03691280411538124,4.131156999959886,0.8809116904163123,0.11521718810196452,-5.460133132703616,59.7
,,0.0325169206712867,0.00425298949513285,0.0001428939489616917,0.03691280411538124,4.1616982695050275,0.8809116904163123,0.11521718810196452,-5.460133132703616,59.8
,,0.0325169206712867,0.00425298949513285,0.0001428939489616917,0.03691280411538124,4.192239539050168,0.8809116904163123,0.11521718810196452,-5.460133132703616,59.9
,,0.0325169206712867,0.00425298949513285,0.0001428939489616917,0.03691280411538124,4.222780808595309,0.8809116904163123,0.11521718810196452,-5.460133132703616,60.0
,,0.028574353130443802,0.003811754824310561,0.00010557265865377513,0.03249168061340814,4.251663360249767,0.8794359845656061,0.11731479419804428,-5.569665612071146,60.1
,,0.028574353130443802,0.003811754824310561,0.00010557265865377513,0.03249168061340814,4.284326907940875,0.8794359845656061,0.11731479419804428,-5.569665612071146,60.2
,,0.03497630038449971,0.004004936107253349,0.00013295200388839702,0.03911418849564145,4.330734016347505,0.8942100483152595,0.10239087812596763,-5.520227651834175,60.3
,,0.03497630038449971,0.004004936107253349,0.00013295200388839702,0.03911418849564145,4.377928526874422,0.8942100483152595,0.10239087812596763,-5.520227651834175,60.4
,,0.03497630038449971,0.004004936107253349,0.00013295200388839702,0.03911418849564145,4.425123037401339,0.8942100483152595,0.10239087812596763,-5.520227651834175,60.5
,,0.031403825542750244,0.0038315510809791018,0.00011717448425441708,0.035352551107983764,4.4663488257758255,0.8883043672528128,0.10838117648923537,-5.564485575793773,60.6
,,0.031403825542750244,0.0038315510809791018,0.00011717448425441708,0.035352551107983764,4.507574614150312,0.8883043672528128,0.10838117648923537,-5.564485575793773,60.7
,,0.031403825542750244,0.0038315510809791018,0.00011717448425441708,0.035352551107983764,4.552189472005115,0.8883043672528128,0.10838117648923537,-5.564485575793773,60.8
,,0.03748524272237819,0.0038325704564218547,0.00012602491097435481,0.04144383808977439,4.614410912794227,0.9044828966173158,0.09247624334695681,-5.564219563454644,60.9
,,0.03748524272237819,0.0038325704564218547,0.00012602491097435481,0.04144383808977439,4.676632353583338,0.9044828966173158,0.09247624334695681,-5.564219563454644,61.0
,,0.03748524272237819,0.0038325704564218547,0.00012602491097435481,0.04144383808977439,4.739599624307285,0.9044828966173158,0.09247624334695681,-5.564219563454644,61.1
,,0.038237810993609435,0.0036578532230270738,0.00012508516237207112,0.04202074937900858,4.810043733726676,0.9099745139888222,0.08704873847048407,-5.610878854742745,61.2
,,0.038237810993609435,0.0036578532230270738,0.00012508516237207112,0.04202074937900858,4.880487843146068,0.9099745139888222,0.08704873847048407,-5.610878854742745,61.3
,,0.038237810993609435,0.0036578532230270738,0.00012508516237207112,0.04202074937900858,4.950931952565459,0.9099745139888222,0.08704873847048407,-5.610878854742745,61.4
,,0.03606709868822506,0.004177748894530247,0.00015238271628260564,0.040397230299037905,5.020310376816285,0.8928111759454962,0.1034167160373305,-5.477982719489698,61.5
,,0.03606709868822506,0.004177748894530247,0.00015238271628260564,0.040397230299037905,5.089688801067112,0.8928111759454962,0.1034167160373305,-5.477982719489698,61.6
,,0.03606709868822506,0.004177748894530247,0.00015238271628260564,0.040397230299037905,5.14712217560072,0.8928111759454962,0.1034167160373305,-5.477982719489698,61.7
,,0.040447069012322846,0.003576856042247798,0.00012039623693402713,0.044144321291504675,5.234276137222603,0.9162462538552304,0.08102641376289874,-5.633271064902935,61.8
,,0.040447069012322846,0.003576856042247798,0.00012039623693402713,0.044144321291504675,5.321430098844488,0.9162462538552304,0.08102641376289874,-5.633271064902935,61.9
,,0.040447069012322846,0.003576856042247798,0.00012039623693402713,0.044144321291504675,5.408584060466371,0.9162462538552304,0.08102641376289874,-5.633271064902935,62.0
,,0.03726608867998903,0.004274084031359214,0.00016446627600641677,0.04170463898735466,5.4674224217708725,0.893571784455167,0.1024846188611096,-5.455185461221084,62.1
,,0.03726608867998903,0.004274084031359214,0.00016446627600641677,0.04170463898735466,5.526260783075373,0.893571784455167,0.1024846188611096,-5.455185461221084,62.2
,,0.03726608867998903,0.004274084031359214,0.00016446627600641677,0.04170463898735466,5.586199015542934,0.893571784455167,0.1024846188611096,-5.455185461221084,62.3
,,0.04167289164556251,0.003481508988664022,0.00011702248856360883,0.04527142312279014,5.6822560998734,0.9205120751899649,0.0769030162630649,-5.660289461748435,62.4
,,0.04167289164556251,0.003481508988664022,0.00011702248856360883,0.04527142312279014,5.778313184203867,0.9205120751899649,0.0769030162630649,-5.660289461748435,62.5
,,0.04167289164556251,0.003481508988664022,0.00011702248856360883,0.04527142312279014,5.874370268534332,0.9205120751899649,0.0769030162630649,-5.660289461748435,62.6
,,0.03810682135093062,0.004438967141668796,0.00017753422015455217,0.04272332271275397,5.93286202150979,0.8919442339992621,0.10390032562574199,-5.417333555349842,62.7
,,0.03810682135093062,0.004438967141668796,0.00017753422015455217,0.04272332271275397,5.9913537744852485,0.8919442339992621,0.10390032562574199,-5.417333555349842,62.8
,,0.04198949594914408,0.003390857590191996,0.00011467482244225645,0.04549502836177833,6.091419406006155,0.9229469122481228,0.07453248656595525,-5.686672413125111,62.9
,,0.04198949594914408,0.003390857590191996,0.00011467482244225645,0.04549502836177833,6.191485037527064,0.9229469122481228,0.07453248656595525,-5.686672413125111,63.0
,,0.04198949594914408,0.003390857590191996,0.00011467482244225645,0.04549502836177833,6.291550669047971,0.9229469122481228,0.07453248656595525,-5.686672413125111,63.1
,,0.04198949594914408,0.003390857590191996,0.00011467482244225645,0.04549502836177833,6.391616300568878,0.9229469122481228,0.07453248656595525,-5.686672413125111,63.2
,,0.04233822737625584,0.003462490484482515,0.00011443893467060311,0.04591515679540896,6.4909821537432615,0.9220969791066732,0.07541062093963552,-5.665767155636351,63.3
,,0.04233822737625584,0.003462490484482515,0.00011443893467060311,0.04591515679540896,6.590348006917643,0.9220969791066732,0.07541062093963552,-5.665767155636351,63.4
,,0.04200170007575541,0.003349586023432803,0.00011363156403245461,0.04546491766322067,6.693065334582624,0.9238265949777169,0.07367408093081154,-5.698918515875879,63.5
,,0.04200170007575541,0.003349586023432803,0.00011363156403245461,0.04546491766322067,6.795782662247604,0.9238265949777169,0.07367408093081154,-5.698918515875879,63.6
,,0.04200170007575541,0.003349586023432803,0.00011363156403245461,0.04546491766322067,6.898499989912586,0.9238265949777169,0.07367408093081154,-5.698918515875879,63.7
,,0.02628126622254609,0.0034427705992450797,0.00011398489398369192,0.029838021715774862,6.946710475600089,0.8807978783878834,0.11538199925047124,-5.6714787250055165,63.8
,,0.02628126622254609,0.0034427705992450797,0.00011398489398369192,0.029838021715774862,6.99532456765013,0.8807978783878834,0.11538199925047124,-5.6714787250055165,63.9
,,0.02628126622254609,0.0034427705992450797,0.00011398489398369192,0.029838021715774862,7.043938659700171,0.8807978783878834,0.11538199925047124,-5.6714787250055165,64.0
,,0.041721261006715256,0.003343119796204326,0.00011412107625638982,0.04517850187917597,7.146186093075929,0.9234759735569219,0.07399802244760273,-5.70085083724626,64.1
,,0.041721261006715256,0.003343119796204326,0.00011412107625638982,0.04517850187917597,7.24843352645169,0.9234759735569219,0.07399802244760273,-5.70085083724626,64.2
,,0.041721261006715256,0.003343119796204326,0.00011412107625638982,0.04517850187917597,7.350680959827448,0.9234759735569219,0.07399802244760273,-5.70085083724626,64.3
,,0.041957607254501324,0.0034539381249667923,0.00011529941176895484,0.045526844791237066,7.448018930454297,0.9216014737436242,0.0758659674485415,-5.668240213440462,64.4
,,0.041957607254501324,0.0034539381249667923,0.00011529941176895484,0.045526844791237066,7.545356901081146,0.9216014737436242,0.0758659674485415,-5.668240213440462,64.5
,,0.041957607254501324,0.0034539381249667923,0.00011529941176895484,0.045526844791237066,7.642694871707993,0.9216014737436242,0.0758659674485415,-5.668240213440462,64.6
,,0.04122543916669969,0.0033725187012376406,0.00011683711525123485,0.04471479498318857,7.7408792108673055,0.9219641772303603,0.07542288190084752,-5.692095424682722,64.7
,,0.04122543916669969,0.0033725187012376406,0.00011683711525123485,0.04471479498318857,7.838379868106376,0.9219641772303603,0.07542288190084752,-5.692095424682722,64.8
,,0.0414447202167953,0.0035010968291585825,0.00011824253907291857,0.0450640595850268,7.931588380771421,0.9196845689988817,0.07769155423187558,-5.654678979820354,64.9
,,0.0414447202167953,0.0035010968291585825,0.00011824253907291857,0.0450640595850268,8.023879584215816,0.9196845689988817,0.07769155423187558,-5.654678979820354,65.0
,,0.0414447202167953,0.0035010968291585825,0.00011824253907291857,0.0450640595850268,8.116170787660213,0.9196845689988817,0.07769155423187558,-5.654678979820354,65.1
,,0.0414447202167953,0.0035010968291585825,0.00011824253907291857,0.0450640595850268,8.208461991104608,0.9196845689988817,0.07769155423187558,-5.654678979820354,65.2
,,0.040597812591907104,0.0034296088668784555,9.913412854997244e-05,0.04412655558733553,8.300751059748876,0.9200313065803579,0.07772210681820732,-5.675309057286586,65.3
,,0.040597812591907104,0.0034296088668784555,9.913412854997244e-05,0.04412655558733553,8.391229634049196,0.9200313065803579,0.07772210681820732,-5.675309057286586,65.4
,,0.04084879127243386,0.003573911399589218,0.00012221837652350934,0.044544921048546585,8.475307679403114,0.9170246643363774,0.08023162496335433,-5.634094652818212,65.5
,,0.04084879127243386,0.003573911399589218,0.00012221837652350934,0.044544921048546585,8.559385724757032,0.9170246643363774,0.08023162496335433,-5.634094652818212,65.6
,,0.04084879127243386,0.003573911399589218,0.00012221837652350934,0.044544921048546585,8.643463770110948,0.9170246643363774,0.08023162496335433,-5.634094652818212,65.7
,,0.04084879127243386,0.003573911399589218,0.00012221837652350934,0.044544921048546585,8.727541815464868,0.9170246643363774,0.08023162496335433,-5.634094652818212,65.8
,,0.04084879127243386,0.003573911399589218,0.00012221837652350934,0.044544921048546585,8.811619860818785,0.9170246643363774,0.08023162496335433,-5.634094652818212,65.9
,,0.03152181604787561,0.005622056769613788,0.0002375640826564682,0.037381436900145865,8.830998977412515,0.8432478433634691,0.15039702151181486,-5.181057708787522,66.0
,,0.03152181604787561,0.005622056769613788,0.0002375640826564682,0.037381436900145865,8.845322381112451,0.8432478433634691,0.15039702151181486,-5.181057708787522,66.1
,,0.03152181604787561,0.005622056769613788,0.0002375640826564682,0.037381436900145865,8.859645784812386,0.8432478433634691,0.15039702151181486,-5.181057708787522,66.2
,,0.03152181604787561,0.005622056769613788,0.0002375640826564682,0.037381436900145865,8.873969188512323,0.8432478433634691,0.15039702151181486,-5.181057708787522,66.3
,,0.03152181604787561,0.005622056769613788,0.0002375640826564682,0.037381436900145865,8.88829259221226,0.8432478433634691,0.15039702151181486,-5.181057708787522,66.4
,,0.0407340801993524,0.003850032016815565,0.0001296653870195654,0.04471377760318753,8.957875778840325,0.9109961712662044,0.08610393089536471,-5.559673814661031,66.5
,,0.015977610113261622,0.00559894261413437,0.00023924825210439664,0.02181580097950039,8.941608864431577,0.7323870495644542,0.25664620883714134,-5.185177517974144,66.6
,,0.015977610113261622,0.00559894261413437,0.00023924825210439664,0.02181580097950039,8.918360821434263,0.7323870495644542,0.25664620883714134,-5.185177517974144,66.7
,,0.015977610113261622,0.00559894261413437,0.00023924825210439664,0.02181580097950039,8.895112778436946,0.7323870495644542,0.25664620883714134,-5.185177517974144,66.8
,,0.015977610113261622,0.00559894261413437,0.00023924825210439664,0.02181580097950039,8.871864735439633,0.7323870495644542,0.25664620883714134,-5.185177517974144,66.9
,,0.015977610113261622,0.00559894261413437,0.00023924825210439664,0.02181580097950039,8.848616692442317,0.7323870495644542,0.25664620883714134,-5.185177517974144,67.0
,,0.04042009331949914,0.003990648447324581,0.00013623823877485588,0.04454698000559858,8.906202200695628,0.9073587775067855,0.08958291778304713,-5.523801543158544,67.1
,,0.039637312712805926,0.0039309204358838196,0.00014193140002390873,0.043710164548713654,8.963285103135318,0.906821402345245,0.08993149480146495,-5.538881672919262,67.2
,,0.039637312712805926,0.0039309204358838196,0.00014193140002390873,0.043710164548713654,9.017838218920673,0.906821402345245,0.08993149480146495,-5.538881672919262,67.3
,,0.039637312712805926,0.0039309204358838196,0.00014193140002390873,0.043710164548713654,9.091007330589955,0.906821402345245,0.08993149480146495,-5.538881672919262,67.4
,,0.039637312712805926,0.0039309204358838196,0.00014193140002390873,0.043710164548713654,9.164176442259238,0.906821402345245,0.08993149480146495,-5.538881672919262,67.5
,,0.04029330324512626,0.004146544197735871,0.00014345373528318073,0.04458330117814532,9.23327725345306,0.9037756778961445,0.09300666590764936,-5.4854800150834295,67.6
,,0.04029330324512626,0.004146544197735871,0.00014345373528318073,0.04458330117814532,9.302378064646883,0.9037756778961445,0.09300666590764936,-5.4854800150834295,67.7
,,0.04029330324512626,0.004146544197735871,0.00014345373528318073,0.04458330117814532,9.371478875840705,0.9037756778961445,0.09300666590764936,-5.4854800150834295,67.8
,,0.039354047735650544,0.0040588521296623025,0.0001494046753370256,0.043562304540649875,9.413692361248408,0.9033968278452206,0.09317349420471573,-5.506855072027381,67.9
,,0.039354047735650544,0.0040588521296623025,0.0001494046753370256,0.043562304540649875,9.447997849268729,0.9033968278452206,0.09317349420471573,-5.506855072027381,68.0
,,0.040342131750675775,0.004303916330270579,0.00015141438707044934,0.0447974624680168,9.478719977399217,0.9005450203675729,0.0960750027603319,-5.448229896304508,68.1
,,0.040342131750675775,0.004303916330270579,0.00015141438707044934,0.0447974624680168,9.509442105529708,0.9005450203675729,0.0960750027603319,-5.448229896304508,68.2
,,0.040342131750675775,0.004303916330270579,0.00015141438707044934,0.0447974624680168,9.540164233660196,0.9005450203675729,0.0960750027603319,-5.448229896304508,68.3
,,0.040342131750675775,0.004303916330270579,0.00015141438707044934,0.0447974624680168,9.570886361790688,0.9005450203675729,0.0960750027603319,-5.448229896304508,68.4
,,0.03885247421128295,0.004142198015054274,0.00015544599426408945,0.043150118220601316,9.594947031939565,0.9004024974544211,0.09599505600141438,-5.48652871052318,68.5
,,0.03998827719518028,0.004406006492204692,0.00015627793651889048,0.04455056162390386,9.610838066843638,0.8975931107841374,0.09889901118195159,-5.424786557111312,68.6
,,0.03998827719518028,0.004406006492204692,0.00015627793651889048,0.04455056162390386,9.62672910174771,0.8975931107841374,0.09889901118195159,-5.424786557111312,68.7
,,0.03998827719518028,0.004406006492204692,0.00015627793651889048,0.04455056162390386,9.642620136651782,0.8975931107841374,0.09889901118195159,-5.424786557111312,68.8
,,0.03998827719518028,0.004406006492204692,0.00015627793651889048,0.04455056162390386,9.658511171555856,0.8975931107841374,0.09889901118195159,-5.424786557111312,68.9
,,0.03998827719518028,0.004406006492204692,0.00015627793651889048,0.04455056162390386,9.674402206459929,0.8975931107841374,0.09889901118195159,-5.424786557111312,69.0
,,0.03864561228319783,0.0042283205738839836,0.0001226260972324428,0.04299655895431426,9.692661426023953,0.8988070958017943,0.09834090626593539,-5.465950392210811,69.1
,,0.039856631636884174,0.004496386280232171,0.0001604690654119305,0.04451348698252827,9.7078588714484,0.8953832723221181,0.10101177384726163,-5.404481253659605,69.2
,,0.02001442425376824,0.005022474375224739,0.0002082854686824265,0.025245184097675403,9.655099703929206,0.7928016756119114,0.1989478213267303,-5.29383256328427,69.3
,,0.02001442425376824,0.005022474375224739,0.0002082854686824265,0.025245184097675403,9.60234053641001,0.7928016756119114,0.1989478213267303,-5.29383256328427,69.4
,,0.02001442425376824,0.005022474375224739,0.0002082854686824265,0.025245184097675403,9.549581368890815,0.7928016756119114,0.1989478213267303,-5.29383256328427,69.5
,,0.02001442425376824,0.005022474375224739,0.0002082854686824265,0.025245184097675403,9.50279092352405,0.7928016756119114,0.1989478213267303,-5.29383256328427,69.6
,,0.040007262656918875,0.004575181889240641,0.00016406415080132673,0.04474650869696085,9.508883103891138,0.8940867974273072,0.1022466785112865,-5.38710882383388,69.7
,,0.040007262656918875,0.004575181889240641,0.00016406415080132673,0.04474650869696085,9.514975284258227,0.8940867974273072,0.1022466785112865,-5.38710882383388,69.8
,,0.040007262656918875,0.004575181889240641,0.00016406415080132673,0.04474650869696085,9.503460881691007,0.8940867974273072,0.1022466785112865,-5.38710882383388,69.9
,,0.040007262656918875,0.004575181889240641,0.00016406415080132673,0.04474650869696085,9.491946479123788,0.8940867974273072,0.1022466785112865,-5.38710882383388,70.0
,,0.040007262656918875,0.004575181889240641,0.00016406415080132673,0.04474650869696085,9.480432076556568,0.8940867974273072,0.1022466785112865,-5.38710882383388,70.1
,,0.04137683087799503,0.004875274626105326,0.00016194073434178642,0.04641404623844214,9.458581587883458,0.891472177741852,0.1050387764311617,-5.323578842558935,70.2
,,0.018410677300846938,0.004403611033194987,0.00018324958269869615,0.02299753791674062,9.388883729734134,0.8005499270182846,0.19148184684541653,-5.4253303852768,70.3
,,0.018410677300846938,0.004403611033194987,0.00018324958269869615,0.02299753791674062,9.31918587158481,0.8005499270182846,0.19148184684541653,-5.4253303852768,70.4
,,0.018410677300846938,0.004403611033194987,0.00018324958269869615,0.02299753791674062,9.269715559066572,0.8005499270182846,0.19148184684541653,-5.4253303852768,70.5
,,0.018410677300846938,0.004403611033194987,0.00018324958269869615,0.02299753791674062,9.220245246548336,0.8005499270182846,0.19148184684541653,-5.4253303852768,70.6
,,0.041718070877041685,0.004906761892919744,0.00016191423772055785,0.04678674700768199,9.218789884363623,0.891664275573421,0.10487503848288694,-5.317141047013436,70.7
,,0.041718070877041685,0.004906761892919744,0.00016191423772055785,0.04678674700768199,9.187613935090633,0.891664275573421,0.10487503848288694,-5.317141047013436,70.8
,,0.04110503510706119,0.004660520305329979,0.00016689857671473536,0.045932453989105906,9.159967752447736,0.8949017859313664,0.10146464864331751,-5.368628183573084,70.9
,,0.04110503510706119,0.004660520305329979,0.00016689857671473536,0.045932453989105906,9.132321569804837,0.8949017859313664,0.10146464864331751,-5.368628183573084,71.0
,,0.04110503510706119,0.004660520305329979,0.00016689857671473536,0.045932453989105906,9.13344108455084,0.8949017859313664,0.10146464864331751,-5.368628183573084,71.1
,,0.04110503510706119,0.004660520305329979,0.00016689857671473536,0.045932453989105906,9.134560599296844,0.8949017859313664,0.10146464864331751,-5.368628183573084,71.2
,,0.018725986176913838,0.004116552299891483,0.00015497055666565898,0.02299750903347098,9.088225788607021,0.8142614989153698,0.17899992098710257,-5.492739286365049,71.3
,,0.018725986176913838,0.004116552299891483,0.00015497055666565898,0.02299750903347098,9.005772126054296,0.8142614989153698,0.17899992098710257,-5.492739286365049,71.4
,,0.04174901877654877,0.004621886789976354,0.0001649827868411019,0.04653588835336622,8.973140088194326,0.8971359579413468,0.09931876135855532,-5.3769522611607,71.5
,,0.04174901877654877,0.004621886789976354,0.0001649827868411019,0.04653588835336622,8.940508050334357,0.8971359579413468,0.09931876135855532,-5.3769522611607,71.6
