HRV_ULF,HRV_VLF,HRV_LF,HRV_HF,HRV_VHF,HRV_TP,HRV_LFHF,HRV_LFn,HRV_HFn,HRV_LnHF,time
,,0.006163860180987928,0.0018302514461193786,0.00017029975080962178,0.008164411377916929,3.3677668683485846,0.7549668795058411,0.22417432946480825,-6.303301919316605,0.0
,,0.006163860180987928,0.0018302514461193786,0.00017029975080962178,0.008164411377916929,3.3677668683485846,0.7549668795058411,0.22417432946480825,-6.303301919316605,0.1
,,0.006163860180987928,0.0018302514461193786,0.00017029975080962178,0.008164411377916929,3.3677668683485846,0.7549668795058411,0.22417432946480825,-6.303301919316605,0.2
,,0.006163860180987928,0.0018302514461193786,0.00017029975080962178,0.008164411377916929,3.3677668683485846,0.7549668795058411,0.22417432946480825,-6.303301919316605,0.3
,,0.018099264540204756,0.0039337159280719534,0.0003196932010937253,0.022352673669370434,3.6144255725792576,0.8097136301419697,0.1759841344376745,-5.538170771060231,0.4
,,0.018099264540204756,0.0039337159280719534,0.0003196932010937253,0.022352673669370434,3.778864708733039,0.8097136301419697,0.1759841344376745,-5.538170771060231,0.5
,,0.008850948677940874,0.001842947486736494,0.00017028113216714587,0.010864177296844515,3.925113311182762,0.8146911115406429,0.16963525505716623,-6.2963890940609515,0.6
,,0.008850948677940874,0.001842947486736494,0.00017028113216714587,0.010864177296844515,4.034799763020054,0.8146911115406429,0.16963525505716623,-6.2963890940609515,0.7
,,0.008850948677940874,0.001842947486736494,0.00017028113216714587,0.010864177296844515,4.120111447782392,0.8146911115406429,0.16963525505716623,-6.2963890940609515,0.8
,,0.008850948677940874,0.001842947486736494,0.00017028113216714587,0.010864177296844515,4.188360795592263,0.8146911115406429,0.16963525505716623,-6.2963890940609515,0.9
,,0.008560348467997338,0.0017838822028396198,0.00014891491250893497,0.010493145583345893,4.243847856541585,0.8158038407075779,0.17000452234941762,-6.328963276802802,1.0
,,0.008560348467997338,0.0017838822028396198,0.00014891491250893497,0.010493145583345893,4.290087073999353,0.8158038407075779,0.17000452234941762,-6.328963276802802,1.1
,,0.008560348467997338,0.0017838822028396198,0.00014891491250893497,0.010493145583345893,4.329212565694389,0.8158038407075779,0.17000452234941762,-6.328963276802802,1.2
,,0.008853126580668584,0.0018751427061833802,0.00017138812098198611,0.01089965740783395,4.357219394651415,0.8122389768237618,0.1720368481339287,-6.27907051249151,1.3
,,0.008853126580668584,0.0018751427061833802,0.00017138812098198611,0.01089965740783395,4.381491979747505,0.8122389768237618,0.1720368481339287,-6.27907051249151,1.4
,,0.008853126580668584,0.0018751427061833802,0.00017138812098198611,0.01089965740783395,4.402730491706583,0.8122389768237618,0.1720368481339287,-6.27907051249151,1.5
,,0.008626145961399045,0.0018207045037952454,0.0001643100391818671,0.010611160504376157,4.422440855756534,0.8129314374088988,0.17158391893557423,-6.308531762796051,1.6
,,0.008626145961399045,0.0018207045037952454,0.0001643100391818671,0.010611160504376157,4.439961179356491,0.8129314374088988,0.17158391893557423,-6.308531762796051,1.7
,,0.008626145961399045,0.0018207045037952454,0.0001643100391818671,0.010611160504376157,4.455637258366977,0.8129314374088988,0.17158391893557423,-6.308531762796051,1.8
,,0.009060373700956376,0.0019257772004368588,0.00017325130946391952,0.011159402210857153,4.468094801619317,0.8119049326980436,0.17256992480862823,-6.252425652236969,1.9
,,0.009060373700956376,0.0019257772004368588,0.00017325130946391952,0.011159402210857153,4.479365912180959,0.8119049326980436,0.17256992480862823,-6.252425652236969,2.0
,,0.009060373700956376,0.0019257772004368588,0.00017325130946391952,0.011159402210857153,4.489612376327905,0.8119049326980436,0.17256992480862823,-6.252425652236969,2.1
,,0.015584925229842082,0.004632124621113531,0.00036014218906046773,0.020577192040016082,4.440695779225855,0.7573883355675726,0.22510965597762436,-5.374739634687882,2.2
,,0.015584925229842082,0.004632124621113531,0.00036014218906046773,0.020577192040016082,4.395855565215642,0.7573883355675726,0.22510965597762436,-5.374739634687882,2.3
,,0.015584925229842082,0.004632124621113531,0.00036014218906046773,0.020577192040016082,4.354602568326246,0.7573883355675726,0.22510965597762436,-5.374739634687882,2.4
,,0.015584925229842082,0.004632124621113531,0.00036014218906046773,0.020577192040016082,4.316522878889882,0.7573883355675726,0.22510965597762436,-5.374739634687882,2.5
,,0.009453719991821787,0.0019896029863854152,0.0001745685689851045,0.011617891547192305,4.332635402568379,0.8137207989436316,0.17125336196362087,-6.219820164478309,2.6
,,0.009453719991821787,0.0019896029863854152,0.0001745685689851045,0.011617891547192305,4.347597031698413,0.8137207989436316,0.17125336196362087,-6.219820164478309,2.7
,,0.009320198623710873,0.0019311583871046065,0.00016905411478324668,0.011420411125598726,4.364101332564696,0.8161000966786345,0.1690970986828956,-6.249635255541332,2.8
,,0.009320198623710873,0.0019311583871046065,0.00016905411478324668,0.011420411125598726,4.37950534670656,0.8161000966786345,0.1690970986828956,-6.249635255541332,2.9
,,0.009320198623710873,0.0019311583871046065,0.00016905411478324668,0.011420411125598726,4.393915553484434,0.8161000966786345,0.1690970986828956,-6.249635255541332,3.0
,,0.009320198623710873,0.0019311583871046065,0.00016905411478324668,0.011420411125598726,4.407425122338689,0.8161000966786345,0.1690970986828956,-6.249635255541332,3.1
,,0.009320198623710873,0.0019311583871046065,0.00016905411478324668,0.011420411125598726,4.4201159294442025,0.8161000966786345,0.1690970986828956,-6.249635255541332,3.2
,,0.010038749797010625,0.002063182512555308,0.00017534849280374443,0.012277280802369677,4.433220240556942,0.8176688273736489,0.16804881681594236,-6.183505579317458,3.3
,,0.009965917283674417,0.002005268452680761,0.00017069766048585905,0.012141883396841037,4.4485530019002795,0.8207884195517194,0.16515299868572889,-6.211977335574934,3.4
,,0.009965917283674417,0.002005268452680761,0.00017069766048585905,0.012141883396841037,4.4630339431689885,0.8207884195517194,0.16515299868572889,-6.211977335574934,3.5
,,0.009965917283674417,0.002005268452680761,0.00017069766048585905,0.012141883396841037,4.476732130855604,0.8207884195517194,0.16515299868572889,-6.211977335574934,3.6
,,0.009965917283674417,0.002005268452680761,0.00017069766048585905,0.012141883396841037,4.489709361295556,0.8207884195517194,0.16515299868572889,-6.211977335574934,3.7
,,0.009965917283674417,0.002005268452680761,0.00017069766048585905,0.012141883396841037,4.5020210927385875,0.8207884195517194,0.16515299868572889,-6.211977335574934,3.8
,,0.010713337680603589,0.0020770660198224204,0.00017133427223277382,0.012961737972658783,4.518418533110619,0.8265355852125755,0.16024595036589537,-6.176798948448689,3.9
,,0.010713337680603589,0.0020770660198224204,0.00017133427223277382,0.012961737972658783,4.534016098342551,0.8265355852125755,0.16024595036589537,-6.176798948448689,4.0
,,0.010713337680603589,0.0020770660198224204,0.00017133427223277382,0.012961737972658783,4.548870922372964,0.8265355852125755,0.16024595036589537,-6.176798948448689,4.1
,,0.010713337680603589,0.0020770660198224204,0.00017133427223277382,0.012961737972658783,4.56303482435545,0.8265355852125755,0.16024595036589537,-6.176798948448689,4.2
,,0.010713337680603589,0.0020770660198224204,0.00017133427223277382,0.012961737972658783,4.576554912611459,0.8265355852125755,0.16024595036589537,-6.176798948448689,4.3
,,0.010713337680603589,0.0020770660198224204,0.00017133427223277382,0.012961737972658783,4.58947410805609,0.8265355852125755,0.16024595036589537,-6.176798948448689,4.4
,,0.010472332481961399,0.00426585466472787,0.000270195100305691,0.01500838224699496,4.543070760675788,0.6977655759039727,0.2842314777518408,-5.457112727790889,4.5
,,0.010472332481961399,0.00426585466472787,0.000270195100305691,0.01500838224699496,4.498642023822308,0.6977655759039727,0.2842314777518408,-5.457112727790889,4.6
,,0.010472332481961399,0.00426585466472787,0.000270195100305691,0.01500838224699496,4.456064484337722,0.6977655759039727,0.2842314777518408,-5.457112727790889,4.7
,,0.010472332481961399,0.00426585466472787,0.000270195100305691,0.01500838224699496,4.415224803607609,0.6977655759039727,0.2842314777518408,-5.457112727790889,4.8
,,0.010472332481961399,0.00426585466472787,0.000270195100305691,0.01500838224699496,4.376018710106702,0.6977655759039727,0.2842314777518408,-5.457112727790889,4.9
,,0.011279880134682299,0.0020189800799191135,0.00016414901170484775,0.01346300922630626,4.399761872134833,0.8378424128716928,0.14996499266851096,-6.205162806010603,5.0
,,0.011279880134682299,0.0020189800799191135,0.00016414901170484775,0.01346300922630626,4.42259183562342,0.8378424128716928,0.14996499266851096,-6.205162806010603,5.1
,,0.01154588938120162,0.002049160046624798,0.00015589587951122334,0.013750945307337642,4.445457079924265,0.8396433207425106,0.1490195765327745,-6.190325303149224,5.2
,,0.01154588938120162,0.002049160046624798,0.00015589587951122334,0.013750945307337642,4.467475463325077,0.8396433207425106,0.1490195765327745,-6.190325303149224,5.3
,,0.01154588938120162,0.002049160046624798,0.00015589587951122334,0.013750945307337642,4.488693178238588,0.8396433207425106,0.1490195765327745,-6.190325303149224,5.4
,,0.01154588938120162,0.002049160046624798,0.00015589587951122334,0.013750945307337642,4.509153117619474,0.8396433207425106,0.1490195765327745,-6.190325303149224,5.5
,,0.011707539731340142,0.00199726317986666,0.00015628993317330606,0.01386109284438011,4.532883610288545,0.8446332379980334,0.14409132110217684,-6.215977445616931,5.6
,,0.011707539731340142,0.00199726317986666,0.00015628993317330606,0.01386109284438011,4.555795810106958,0.8446332379980334,0.14409132110217684,-6.215977445616931,5.7
,,0.011992931239754086,0.0020392378316880216,0.0001471550642465207,0.014179324135688629,4.578258340547667,0.8458041529333895,0.143817703310369,-6.19517915285397,5.8
,,0.011992931239754086,0.0020392378316880216,0.0001471550642465207,0.014179324135688629,4.599972119973687,0.8458041529333895,0.143817703310369,-6.19517915285397,5.9
,,0.011992931239754086,0.0020392378316880216,0.0001471550642465207,0.014179324135688629,4.6209739722054115,0.8458041529333895,0.143817703310369,-6.19517915285397,6.0
,,0.012213141395734086,0.0019940314065230026,0.0001489847735533788,0.014356157575810468,4.645230022088475,0.8507249472040294,0.13889729170170598,-6.217596857053488,6.1
,,0.012213141395734086,0.0019940314065230026,0.0001489847735533788,0.014356157575810468,4.668716038641919,0.8507249472040294,0.13889729170170598,-6.217596857053488,6.2
,,0.012213141395734086,0.0019940314065230026,0.0001489847735533788,0.014356157575810468,4.691468117178066,0.8507249472040294,0.13889729170170598,-6.217596857053488,6.3
,,0.012213141395734086,0.0019940314065230026,0.0001489847735533788,0.014356157575810468,4.713520131759256,0.8507249472040294,0.13889729170170598,-6.217596857053488,6.4
,,0.012477140647809491,0.0020400954916979944,0.00013961333765762188,0.014656849477165107,4.7347692074848835,0.8512839452467919,0.13919058764138886,-6.19475866256567,6.5
,,0.012477140647809491,0.0020400954916979944,0.00013961333765762188,0.014656849477165107,4.755383982442581,0.8512839452467919,0.13919058764138886,-6.19475866256567,6.6
,,0.008264067658188311,0.003095904876106684,0.00015156463802217326,0.011511537172317168,4.724707078505528,0.7178943641047053,0.2689393110375985,-5.7776750484984145,6.7
,,0.008264067658188311,0.003095904876106684,0.00015156463802217326,0.011511537172317168,4.694919360189839,0.7178943641047053,0.2689393110375985,-5.7776750484984145,6.8
,,0.008264067658188311,0.003095904876106684,0.00015156463802217326,0.011511537172317168,4.665982719540313,0.7178943641047053,0.2689393110375985,-5.7776750484984145,6.9
,,0.008264067658188311,0.003095904876106684,0.00015156463802217326,0.011511537172317168,4.637861195528801,0.7178943641047053,0.2689393110375985,-5.7776750484984145,7.0
,,0.013025117935451464,0.0020590753021867427,0.00013393582633339378,0.015218129063971601,4.661303571775967,0.8558948265386962,0.13530410299000112,-6.185498279392147,7.1
,,0.013025117935451464,0.0020590753021867427,0.00013393582633339378,0.015218129063971601,4.684103691139649,0.8558948265386962,0.13530410299000112,-6.185498279392147,7.2
,,0.01342441782286862,0.0020341922989335834,0.00013918051256895395,0.015597790634371157,4.709985868851144,0.8606614960766744,0.13041541245277743,-6.197656443576039,7.3
,,0.01342441782286862,0.0020341922989335834,0.00013918051256895395,0.015597790634371157,4.735177855156997,0.8606614960766744,0.13041541245277743,-6.197656443576039,7.4
,,0.01342441782286862,0.0020341922989335834,0.00013918051256895395,0.015597790634371157,4.759706894454802,0.8606614960766744,0.13041541245277743,-6.197656443576039,7.5
,,0.01342441782286862,0.0020341922989335834,0.00013918051256895395,0.015597790634371157,4.783598815848769,0.8606614960766744,0.13041541245277743,-6.197656443576039,7.6
,,0.013640386352223961,0.002094914626269659,0.00013014022332388597,0.015865441201817505,4.805747415797161,0.8597546187786668,0.13204263276521241,-6.1682424776223215,7.7
,,0.013640386352223961,0.002094914626269659,0.00013014022332388597,0.015865441201817505,4.827335291696229,0.8597546187786668,0.13204263276521241,-6.1682424776223215,7.8
,,0.007944026468242655,0.0026796748385383325,0.00011594861226751949,0.010739649919048506,4.8040504588766115,0.7396913798980206,0.24951230801159502,-5.922059820723926,7.9
,,0.007944026468242655,0.0026796748385383325,0.00011594861226751949,0.010739649919048506,4.79901023134884,0.7396913798980206,0.24951230801159502,-5.922059820723926,8.0
,,0.007944026468242655,0.0026796748385383325,0.00011594861226751949,0.010739649919048506,4.7939700038210695,0.7396913798980206,0.24951230801159502,-5.922059820723926,8.1
,,0.007944026468242655,0.0026796748385383325,0.00011594861226751949,0.010739649919048506,4.7889297762932985,0.7396913798980206,0.24951230801159502,-5.922059820723926,8.2
,,0.007463540107161203,0.0026359894786731875,0.0001082091496422735,0.010207738735476665,4.782225188054856,0.7311648838759863,0.25823441870743535,-5.938496653748481,8.3
,,0.007463540107161203,0.0026359894786731875,0.0001082091496422735,0.010207738735476665,4.760104430801994,0.7311648838759863,0.25823441870743535,-5.938496653748481,8.4
,,0.007463540107161203,0.0026359894786731875,0.0001082091496422735,0.010207738735476665,4.7379836735491345,0.7311648838759863,0.25823441870743535,-5.938496653748481,8.5
,,0.014564791632785287,0.0021157169329049604,0.00013223779324500563,0.016812746358935253,4.764002271551037,0.8662946149214179,0.12584005538039583,-6.15836154855429,8.6
,,0.014564791632785287,0.0021157169329049604,0.00013223779324500563,0.016812746358935253,4.790020869552941,0.8662946149214179,0.12584005538039583,-6.15836154855429,8.7
,,0.014564791632785287,0.0021157169329049604,0.00013223779324500563,0.016812746358935253,4.816039467554844,0.8662946149214179,0.12584005538039583,-6.15836154855429,8.8
,,0.014564791632785287,0.0021157169329049604,0.00013223779324500563,0.016812746358935253,4.842058065556747,0.8662946149214179,0.12584005538039583,-6.15836154855429,8.9
,,0.014602114102408532,0.0021777749766661437,0.00012324438853390506,0.01690313346760858,4.865887347458541,0.8638702481046201,0.12883853640743043,-6.129451576307442,9.0
,,0.014602114102408532,0.0021777749766661437,0.00012324438853390506,0.01690313346760858,4.889716629360336,0.8638702481046201,0.12883853640743043,-6.129451576307442,9.1
,,0.014904914103979422,0.002144691177258831,0.0001286092316230954,0.017178214512861348,4.916603629436623,0.8676637547412216,0.12484948162995045,-6.144759710273214,9.2
,,0.014904914103979422,0.002144691177258831,0.0001286092316230954,0.017178214512861348,4.944458258199685,0.8676637547412216,0.12484948162995045,-6.144759710273214,9.3
,,0.014904914103979422,0.002144691177258831,0.0001286092316230954,0.017178214512861348,4.972312886962747,0.8676637547412216,0.12484948162995045,-6.144759710273214,9.4
,,0.014904914103979422,0.002144691177258831,0.0001286092316230954,0.017178214512861348,5.000167515725809,0.8676637547412216,0.12484948162995045,-6.144759710273214,9.5
,,0.014831803871178086,0.0022022569091709123,0.00012037944519213784,0.017154440225541134,5.0251301821856895,0.8646043634286072,0.1283782437792395,-6.118272576655684,9.6
,,0.014831803871178086,0.0022022569091709123,0.00012037944519213784,0.017154440225541134,5.050092848645571,0.8646043634286072,0.1283782437792395,-6.118272576655684,9.7
,,0.014831803871178086,0.0022022569091709123,0.00012037944519213784,0.017154440225541134,5.075055515105451,0.8646043634286072,0.1283782437792395,-6.118272576655684,9.8
,,0.007621441552314482,0.002240257351257514,8.694269034143054e-05,0.009948641593913427,5.058771143660168,0.7660786128809058,0.22518223519360694,-6.101164530760172,9.9
,,0.007621441552314482,0.002240257351257514,8.694269034143054e-05,0.009948641593913427,5.042486772214884,0.7660786128809058,0.22518223519360694,-6.101164530760172,10.0
,,0.007621441552314482,0.002240257351257514,8.694269034143054e-05,0.009948641593913427,5.026202400769601,0.7660786128809058,0.22518223519360694,-6.101164530760172,10.1
,,0.007621441552314482,0.002240257351257514,8.694269034143054e-05,0.009948641593913427,5.026671247829731,0.7660786128809058,0.22518223519360694,-6.101164530760172,10.2
,,0.014153950113765815,0.002103332196277558,0.00011232322175718879,0.01636960553180056,5.068730845569137,0.8646482095289051,0.12849009661176627,-6.164232431694312,10.3
,,0.014153950113765815,0.002103332196277558,0.00011232322175718879,0.01636960553180056,5.1107904433085425,0.8646482095289051,0.12849009661176627,-6.164232431694312,10.4
,,0.014153950113765815,0.002103332196277558,0.00011232322175718879,0.01636960553180056,5.152850041047948,0.8646482095289051,0.12849009661176627,-6.164232431694312,10.5
,,0.013948098765915464,0.0020038267496742344,9.064912263213805e-05,0.016042574638221837,5.180464664515508,0.869442659950839,0.12490680547622741,-6.212696551755097,10.6
,,0.013948098765915464,0.0020038267496742344,9.064912263213805e-05,0.016042574638221837,5.208079287983068,0.869442659950839,0.12490680547622741,-6.212696551755097,10.7
,,0.013948098765915464,0.0020038267496742344,9.064912263213805e-05,0.016042574638221837,5.234760652217987,0.869442659950839,0.12490680547622741,-6.212696551755097,10.8
,,0.01311809853209197,0.001960689807379762,0.00010329101871226435,0.015182079358183996,5.258064789310332,0.864051505897351,0.12914501110961718,-6.234458925116265,10.9
,,0.01311809853209197,0.001960689807379762,0.00010329101871226435,0.015182079358183996,5.281368926402677,0.864051505897351,0.12914501110961718,-6.234458925116265,11.0
,,0.01311809853209197,0.001960689807379762,0.00010329101871226435,0.015182079358183996,5.304673063495022,0.864051505897351,0.12914501110961718,-6.234458925116265,11.1
,,0.01311809853209197,0.001960689807379762,0.00010329101871226435,0.015182079358183996,5.327977200587368,0.864051505897351,0.12914501110961718,-6.234458925116265,11.2
,,0.012774698287665615,0.0018458649524872252,8.315171918880185e-05,0.014703714959341642,5.35366530949899,0.8688075308172052,0.12553731880625857,-6.2948073024100575,11.3
,,0.012774698287665615,0.0018458649524872252,8.315171918880185e-05,0.014703714959341642,5.378050863656909,0.8688075308172052,0.12553731880625857,-6.2948073024100575,11.4
,,0.012774698287665615,0.0018458649524872252,8.315171918880185e-05,0.014703714959341642,5.402436417814827,0.8688075308172052,0.12553731880625857,-6.2948073024100575,11.5
,,0.01198060964980431,0.0018062195068754166,9.499236567802821e-05,0.013881821522357755,5.423225274868606,0.8630430545810293,0.13011401306135217,-6.316519288252724,11.6
,,0.01198060964980431,0.0018062195068754166,9.499236567802821e-05,0.013881821522357755,5.444014131922384,0.8630430545810293,0.13011401306135217,-6.316519288252724,11.7
,,0.01198060964980431,0.0018062195068754166,9.499236567802821e-05,0.013881821522357755,5.464802988976162,0.8630430545810293,0.13011401306135217,-6.316519288252724,11.8
,,0.01198060964980431,0.0018062195068754166,9.499236567802821e-05,0.013881821522357755,5.483241198279364,0.8630430545810293,0.13011401306135217,-6.316519288252724,11.9
,,0.011573463511038662,0.0016906488079857565,7.64791554273116e-05,0.01334059147445173,5.504336904132322,0.8675375101023627,0.12672967395962018,-6.382642913671019,12.0
,,0.011573463511038662,0.0016906488079857565,7.64791554273116e-05,0.01334059147445173,5.52543260998528,0.8675375101023627,0.12672967395962018,-6.382642913671019,12.1
,,0.0069364114361692136,0.0019389079578911099,8.114428437252593e-05,0.00895646367843285,5.505677171236119,0.7744587244709183,0.21648141805788787,-6.245630372702812,12.2
,,0.0069364114361692136,0.0019389079578911099,8.114428437252593e-05,0.00895646367843285,5.485921732486958,0.7744587244709183,0.21648141805788787,-6.245630372702812,12.3
,,0.0069364114361692136,0.0019389079578911099,8.114428437252593e-05,0.00895646367843285,5.466166293737795,0.7744587244709183,0.21648141805788787,-6.245630372702812,12.4
,,0.0069364114361692136,0.0019389079578911099,8.114428437252593e-05,0.00895646367843285,5.480198337226856,0.7744587244709183,0.21648141805788787,-6.245630372702812,12.5
,,0.0069364114361692136,0.0019389079578911099,8.114428437252593e-05,0.00895646367843285,5.494230380715915,0.7744587244709183,0.21648141805788787,-6.245630372702812,12.6
,,0.010353149320270193,0.0015414801913581021,7.081546051675974e-05,0.011965444972145056,5.547498487951028,0.8652540164090675,0.12882765287430506,-6.475012160958648,12.7
,,0.010353149320270193,0.0015414801913581021,7.081546051675974e-05,0.011965444972145056,5.6007665951861405,0.8652540164090675,0.12882765287430506,-6.475012160958648,12.8
,,0.009713733437695797,0.0015156404950381363,8.206091820731991e-05,0.011311434850941252,5.65019254001262,0.8587534265723586,0.13399188652994065,-6.491917160360369,12.9
,,0.009713733437695797,0.0015156404950381363,8.206091820731991e-05,0.011311434850941252,5.66046848677686,0.8587534265723586,0.13399188652994065,-6.491917160360369,13.0
,,0.009713733437695797,0.0015156404950381363,8.206091820731991e-05,0.011311434850941252,5.670744433541101,0.8587534265723586,0.13399188652994065,-6.491917160360369,13.1
,,0.009713733437695797,0.0015156404950381363,8.206091820731991e-05,0.011311434850941252,5.680426257680006,0.8587534265723586,0.13399188652994065,-6.491917160360369,13.2
,,0.009713733437695797,0.0015156404950381363,8.206091820731991e-05,0.011311434850941252,5.690108081818911,0.8587534265723586,0.13399188652994065,-6.491917160360369,13.3
,,0.009233337467113658,0.0014089078075933108,6.632806985997043e-05,0.01070857334456694,5.701596743182817,0.8622378696036338,0.1315682082252468,-6.564940479296925,13.4
,,0.009233337467113658,0.0014089078075933108,6.632806985997043e-05,0.01070857334456694,5.71308540454672,0.8622378696036338,0.1315682082252468,-6.564940479296925,13.5
,,0.006650140646245155,0.0017726981934005712,8.524704632099071e-05,0.008508085885966717,5.686705801143403,0.7816259421186537,0.20835452499656465,-6.335252490068104,13.6
,,0.006650140646245155,0.0017726981934005712,8.524704632099071e-05,0.008508085885966717,5.660326197740087,0.7816259421186537,0.20835452499656465,-6.335252490068104,13.7
,,0.006650140646245155,0.0017726981934005712,8.524704632099071e-05,0.008508085885966717,5.633705420507367,0.7816259421186537,0.20835452499656465,-6.335252490068104,13.8
,,0.006650140646245155,0.0017726981934005712,8.524704632099071e-05,0.008508085885966717,5.607084643274647,0.7816259421186537,0.20835452499656465,-6.335252490068104,13.9
,,0.006650140646245155,0.0017726981934005712,8.524704632099071e-05,0.008508085885966717,5.580463866041926,0.7816259421186537,0.20835452499656465,-6.335252490068104,14.0
,,0.008322248320495275,0.0013040798179522622,6.344637166427424e-05,0.009689774510111812,5.5836745233026255,0.8588691420848392,0.13458309237138422,-6.642257607264846,14.1
,,0.008322248320495275,0.0013040798179522622,6.344637166427424e-05,0.009689774510111812,5.586885180563325,0.8588691420848392,0.13458309237138422,-6.642257607264846,14.2
,,0.006547175113783021,0.001692371987940513,8.841209551683758e-05,0.008327959197240371,5.558682546174138,0.7861680105196184,0.20321569160681202,-6.381624190933129,14.3
,,0.006547175113783021,0.001692371987940513,8.841209551683758e-05,0.008327959197240371,5.5304799117849495,0.7861680105196184,0.20321569160681202,-6.381624190933129,14.4
,,0.006547175113783021,0.001692371987940513,8.841209551683758e-05,0.008327959197240371,5.502388401587071,0.7861680105196184,0.20321569160681202,-6.381624190933129,14.5
,,0.006547175113783021,0.001692371987940513,8.841209551683758e-05,0.008327959197240371,5.4742968913891925,0.7861680105196184,0.20321569160681202,-6.381624190933129,14.6
,,0.006547175113783021,0.001692371987940513,8.841209551683758e-05,0.008327959197240371,5.48928793887791,0.7861680105196184,0.20321569160681202,-6.381624190933129,14.7
,,0.007610282638077007,0.0012217667811320985,6.204997755591152e-05,0.008894099396765017,5.533782457308973,0.8556552269749804,0.13736824006897003,-6.707457286584337,14.8
,,0.007610282638077007,0.0012217667811320985,6.204997755591152e-05,0.008894099396765017,5.578276975740037,0.8556552269749804,0.13736824006897003,-6.707457286584337,14.9
,,0.0073780571355735,0.0012347526266722503,7.495897251912562e-05,0.008687768734764876,5.61960169687063,0.8492464936422112,0.1421254023177756,-6.696884631255055,15.0
,,0.0073780571355735,0.0012347526266722503,7.495897251912562e-05,0.008687768734764876,5.615221945868702,0.8492464936422112,0.1421254023177756,-6.696884631255055,15.1
,,0.0073780571355735,0.0012347526266722503,7.495897251912562e-05,0.008687768734764876,5.610842194866772,0.8492464936422112,0.1421254023177756,-6.696884631255055,15.2
,,0.0073780571355735,0.0012347526266722503,7.495897251912562e-05,0.008687768734764876,5.603041536909026,0.8492464936422112,0.1421254023177756,-6.696884631255055,15.3
,,0.0073780571355735,0.0012347526266722503,7.495897251912562e-05,0.008687768734764876,5.595240878951278,0.8492464936422112,0.1421254023177756,-6.696884631255055,15.4
,,0.007080267890320143,0.0011603631634728106,6.159745280348488e-05,0.008302228506596438,5.589020679966916,0.852815347673772,0.13976526453720922,-6.759022250901344,15.5
,,0.007080267890320143,0.0011603631634728106,6.159745280348488e-05,0.008302228506596438,5.582800480982553,0.852815347673772,0.13976526453720922,-6.759022250901344,15.6
,,0.007000416483487415,0.0011849487251387044,7.581965312472793e-05,0.008261184861750847,5.575257861932777,0.847386494871847,0.1434356868861509,-6.738055775256357,15.7
,,0.007000416483487415,0.0011849487251387044,7.581965312472793e-05,0.008261184861750847,5.5677152428830015,0.847386494871847,0.1434356868861509,-6.738055775256357,15.8
,,0.007000416483487415,0.0011849487251387044,7.581965312472793e-05,0.008261184861750847,5.604505635654432,0.847386494871847,0.1434356868861509,-6.738055775256357,15.9
,,0.007000416483487415,0.0011849487251387044,7.581965312472793e-05,0.008261184861750847,5.641296028425862,0.847386494871847,0.1434356868861509,-6.738055775256357,16.0
,,0.006759446392819691,0.0011169988976596683,6.23756600724784e-05,0.00793882095055184,5.679882109485587,0.8514421014054778,0.1407008552802824,-6.797109745771417,16.1
,,0.006759446392819691,0.0011169988976596683,6.23756600724784e-05,0.00793882095055184,5.718468190545311,0.8514421014054778,0.1407008552802824,-6.797109745771417,16.2
,,0.006759446392819691,0.0011169988976596683,6.23756600724784e-05,0.00793882095055184,5.758718632315707,0.8514421014054778,0.1407008552802824,-6.797109745771417,16.3
,,0.006819983768744751,0.0011530215373701752,7.839604787278671e-05,0.008051401353987714,5.797262131857096,0.8470554961673766,0.14320755936469426,-6.765369358450614,16.4
,,0.006819983768744751,0.0011530215373701752,7.839604787278671e-05,0.008051401353987714,5.835805631398484,0.8470554961673766,0.14320755936469426,-6.765369358450614,16.5
,,0.006819983768744751,0.0011530215373701752,7.839604787278671e-05,0.008051401353987714,5.823690468980368,0.8470554961673766,0.14320755936469426,-6.765369358450614,16.6
,,0.006736169065204143,0.0013772194086705775,0.00010198149352138637,0.008215369967396106,5.798778524249689,0.8199471346923647,0.1676393654986049,-6.587688733750983,16.7
,,0.006736169065204143,0.0013772194086705775,0.00010198149352138637,0.008215369967396106,5.773866579519009,0.8199471346923647,0.1676393654986049,-6.587688733750983,16.8
,,0.006736169065204143,0.0013772194086705775,0.00010198149352138637,0.008215369967396106,5.748954634788328,0.8199471346923647,0.1676393654986049,-6.587688733750983,16.9
,,0.006819183358650252,0.0011359151732282281,8.23521345966629e-05,0.008037450666475142,5.74018200360833,0.8484261542149949,0.14132779414326266,-6.7803166329252536,17.0
,,0.006819183358650252,0.0011359151732282281,8.23521345966629e-05,0.008037450666475142,5.73140937242833,0.8484261542149949,0.14132779414326266,-6.7803166329252536,17.1
,,0.006819183358650252,0.0011359151732282281,8.23521345966629e-05,0.008037450666475142,5.719579023073839,0.8484261542149949,0.14132779414326266,-6.7803166329252536,17.2
,,0.006819183358650252,0.0011359151732282281,8.23521345966629e-05,0.008037450666475142,5.707748673719349,0.8484261542149949,0.14132779414326266,-6.7803166329252536,17.3
,,0.006717436024288334,0.0010808475783991584,8.671612978660512e-05,0.007884999732474097,5.69856482649097,0.8519259673050853,0.13707642550039986,-6.8300097508223985,17.4
,,0.006717436024288334,0.0010808475783991584,8.671612978660512e-05,0.007884999732474097,5.68938097926259,0.8519259673050853,0.13707642550039986,-6.8300097508223985,17.5
,,0.006717436024288334,0.0010808475783991584,8.671612978660512e-05,0.007884999732474097,5.682882862969106,0.8519259673050853,0.13707642550039986,-6.8300097508223985,17.6
,,0.0077068981818643805,0.0013876551473160864,0.0001073279467520336,0.009201881275932501,5.668121365337022,0.8375350594906885,0.15080124440917264,-6.58013990070937,17.7
,,0.0077068981818643805,0.0013876551473160864,0.0001073279467520336,0.009201881275932501,5.653359867704939,0.8375350594906885,0.15080124440917264,-6.58013990070937,17.8
,,0.0077068981818643805,0.0013876551473160864,0.0001073279467520336,0.009201881275932501,5.6802581399422944,0.8375350594906885,0.15080124440917264,-6.58013990070937,17.9
,,0.0069624787452378795,0.0010845949282497745,9.3262945706671e-05,0.008140336619194326,5.71797550632024,0.8553059991181271,0.13323711032936622,-6.826548699716343,18.0
,,0.0069624787452378795,0.0010845949282497745,9.3262945706671e-05,0.008140336619194326,5.7556928726981855,0.8553059991181271,0.13323711032936622,-6.826548699716343,18.1
,,0.0069624787452378795,0.0010845949282497745,9.3262945706671e-05,0.008140336619194326,5.793410239076131,0.8553059991181271,0.13323711032936622,-6.826548699716343,18.2
,,0.0069624787452378795,0.0010845949282497745,9.3262945706671e-05,0.008140336619194326,5.789536854774801,0.8553059991181271,0.13323711032936622,-6.826548699716343,18.3
,,0.007343957331277724,0.0011451519111804335,9.452748241445422e-05,0.008583636724872612,5.785584195088319,0.8555764376650871,0.13341104101739912,-6.772217977256258,18.4
,,0.007343957331277724,0.0011451519111804335,9.452748241445422e-05,0.008583636724872612,5.7816315354018375,0.8555764376650871,0.13341104101739912,-6.772217977256258,18.5
,,0.0073666647816796995,0.0011023486870327945,0.00010095413007130976,0.008569967598783803,5.778156140258104,0.85959073902743,0.12862927126926746,-6.810312205384002,18.6
,,0.0073666647816796995,0.0011023486870327945,0.00010095413007130976,0.008569967598783803,5.774680745114371,0.85959073902743,0.12862927126926746,-6.810312205384002,18.7
,,0.0073666647816796995,0.0011023486870327945,0.00010095413007130976,0.008569967598783803,5.7712053499706375,0.85959073902743,0.12862927126926746,-6.810312205384002,18.8
,,0.0073666647816796995,0.0011023486870327945,0.00010095413007130976,0.008569967598783803,5.771107181969479,0.85959073902743,0.12862927126926746,-6.810312205384002,18.9
,,0.007817216432152874,0.0011669938013716633,0.00010201164696256196,0.0090862218804871,5.771207684594691,0.8603373915995329,0.12843553863435947,-6.75332423728423,19.0
,,0.007817216432152874,0.0011669938013716633,0.00010201164696256196,0.0090862218804871,5.771308187219904,0.8603373915995329,0.12843553863435947,-6.75332423728423,19.1
,,0.007817216432152874,0.0011669938013716633,0.00010201164696256196,0.0090862218804871,5.771408689845116,0.8603373915995329,0.12843553863435947,-6.75332423728423,19.2
,,0.00789421663302198,0.001131601596885141,0.00010942326543783833,0.009135241495344958,5.772101610003891,0.8641497476607085,0.12387210534738144,-6.78412130736329,19.3
,,0.00789421663302198,0.001131601596885141,0.00010942326543783833,0.009135241495344958,5.772794530162664,0.8641497476607085,0.12387210534738144,-6.78412130736329,19.4
,,0.00789421663302198,0.001131601596885141,0.00010942326543783833,0.009135241495344958,5.773487450321438,0.8641497476607085,0.12387210534738144,-6.78412130736329,19.5
,,0.00789421663302198,0.001131601596885141,0.00010942326543783833,0.009135241495344958,5.777777067584351,0.8641497476607085,0.12387210534738144,-6.78412130736329,19.6
,,0.008385094640514172,0.0011985936655848771,0.00010985704551693659,0.009693545351615986,5.782312093636146,0.8650183535909609,0.12364863650068575,-6.726606354799076,19.7
,,0.008385094640514172,0.0011985936655848771,0.00010985704551693659,0.009693545351615986,5.786847119687942,0.8650183535909609,0.12364863650068575,-6.726606354799076,19.8
,,0.008460768832024132,0.001167388661372074,0.00011702909312126806,0.009745186586517475,5.794529956198249,0.8681997781068305,0.11979130938212751,-6.752985937960552,19.9
,,0.008460768832024132,0.001167388661372074,0.00011702909312126806,0.009745186586517475,5.799555296158802,0.8681997781068305,0.11979130938212751,-6.752985937960552,20.0
,,0.008460768832024132,0.001167388661372074,0.00011702909312126806,0.009745186586517475,5.804580636119354,0.8681997781068305,0.11979130938212751,-6.752985937960552,20.1
,,0.008460768832024132,0.001167388661372074,0.00011702909312126806,0.009745186586517475,5.850457120682027,0.8681997781068305,0.11979130938212751,-6.752985937960552,20.2
,,0.008944953505150816,0.0012344542959018213,0.00011642618476825235,0.01029583398582089,5.896314564657048,0.8687934865178998,0.11989842664536689,-6.697126272220139,20.3
,,0.008944953505150816,0.0012344542959018213,0.00011642618476825235,0.01029583398582089,5.942172008632069,0.8687934865178998,0.11989842664536689,-6.697126272220139,20.4
,,0.008944953505150816,0.0012344542959018213,0.00011642618476825235,0.01029583398582089,5.988029452607089,0.8687934865178998,0.11989842664536689,-6.697126272220139,20.5
,,0.009237946239637725,0.0010711742031580956,0.00011180540003811679,0.010420925842833937,6.051112540200647,0.8864803741013375,0.10279069435032015,-6.83899984606727,20.6
,,0.009237946239637725,0.0010711742031580956,0.00011180540003811679,0.010420925842833937,6.07495956404815,0.8864803741013375,0.10279069435032015,-6.83899984606727,20.7
,,0.009237946239637725,0.0010711742031580956,0.00011180540003811679,0.010420925842833937,6.0988065878956546,0.8864803741013375,0.10279069435032015,-6.83899984606727,20.8
,,0.009237946239637725,0.0010711742031580956,0.00011180540003811679,0.010420925842833937,6.126495774151792,0.8864803741013375,0.10279069435032015,-6.83899984606727,20.9
,,0.00941269049562348,0.0012667169039412196,0.00012077935617768644,0.010800186755742385,6.139268036866172,0.8715303455858128,0.11728657407407468,-6.671326840698158,21.0
,,0.00941269049562348,0.0012667169039412196,0.00012077935617768644,0.010800186755742385,6.152040299580553,0.8715303455858128,0.11728657407407468,-6.671326840698158,21.1
,,0.00938201778103692,0.0012322015172254212,0.00012655239668937679,0.010740771694951717,6.16710321255338,0.8734956898345184,0.11472187960242834,-6.69895285807031,21.2
,,0.00938201778103692,0.0012322015172254212,0.00012655239668937679,0.010740771694951717,6.182166125526209,0.8734956898345184,0.11472187960242834,-6.69895285807031,21.3
,,0.00938201778103692,0.0012322015172254212,0.00012655239668937679,0.010740771694951717,6.195422201274038,0.8734956898345184,0.11472187960242834,-6.69895285807031,21.4
,,0.00938201778103692,0.0012322015172254212,0.00012655239668937679,0.010740771694951717,6.208678277021868,0.8734956898345184,0.11472187960242834,-6.69895285807031,21.5
,,0.00938201778103692,0.0012322015172254212,0.00012655239668937679,0.010740771694951717,6.256960849834563,0.8734956898345184,0.11472187960242834,-6.69895285807031,21.6
,,0.009740723669930241,0.0012952745344640133,0.000122933461389225,0.01115893166578348,6.304070564358968,0.8729082641305281,0.11607513812775648,-6.649032610573448,21.7
,,0.004706936029757709,0.0009800787847158569,0.0001026771190626077,0.005789691933536174,6.317210400947788,0.8129855757079723,0.16927995409200527,-6.927877596963765,21.8
,,0.004706936029757709,0.0009800787847158569,0.0001026771190626077,0.005789691933536174,6.330350237536608,0.8129855757079723,0.16927995409200527,-6.927877596963765,21.9
,,0.004706936029757709,0.0009800787847158569,0.0001026771190626077,0.005789691933536174,6.343490074125429,0.8129855757079723,0.16927995409200527,-6.927877596963765,22.0
,,0.004706936029757709,0.0009800787847158569,0.0001026771190626077,0.005789691933536174,6.3237514267352495,0.8129855757079723,0.16927995409200527,-6.927877596963765,22.1
,,0.004706936029757709,0.0009800787847158569,0.0001026771190626077,0.005789691933536174,6.304012779345069,0.8129855757079723,0.16927995409200527,-6.927877596963765,22.2
,,0.004706936029757709,0.0009800787847158569,0.0001026771190626077,0.005789691933536174,6.315687423604775,0.8129855757079723,0.16927995409200527,-6.927877596963765,22.3
,,0.00962198285122625,0.001267055283862138,0.00012463494518409946,0.011013673080272488,6.362254099645549,0.8736397731344495,0.11504384365027748,-6.671059744923282,22.4
,,0.00962198285122625,0.001267055283862138,0.00012463494518409946,0.011013673080272488,6.408820775686321,0.8736397731344495,0.11504384365027748,-6.671059744923282,22.5
,,0.00962198285122625,0.001267055283862138,0.00012463494518409946,0.011013673080272488,6.455387451727094,0.8736397731344495,0.11504384365027748,-6.671059744923282,22.6
,,0.00962198285122625,0.001267055283862138,0.00012463494518409946,0.011013673080272488,6.501954127767867,0.8736397731344495,0.11504384365027748,-6.671059744923282,22.7
,,0.00962198285122625,0.001267055283862138,0.00012463494518409946,0.011013673080272488,6.5190173328662935,0.8736397731344495,0.11504384365027748,-6.671059744923282,22.8
,,0.00962198285122625,0.001267055283862138,0.00012463494518409946,0.011013673080272488,6.53608053796472,0.8736397731344495,0.11504384365027748,-6.671059744923282,22.9
,,0.009402362438867173,0.0012262469093634275,9.978917073545186e-05,0.01072839851896605,6.55723380014638,0.8763994385783989,0.11429915725032248,-6.7037970674846745,23.0
,,0.009714319834036787,0.0009113751314237218,9.240082613252275e-05,0.010718095791593031,6.6157792677737035,0.9063475474492794,0.08503144113888014,-7.000555965633908,23.1
,,0.009714319834036787,0.0009113751314237218,9.240082613252275e-05,0.010718095791593031,6.674324735401027,0.9063475474492794,0.08503144113888014,-7.000555965633908,23.2
,,0.009714319834036787,0.0009113751314237218,9.240082613252275e-05,0.010718095791593031,6.73287020302835,0.9063475474492794,0.08503144113888014,-7.000555965633908,23.3
,,0.009714319834036787,0.0009113751314237218,9.240082613252275e-05,0.010718095791593031,6.791415670655672,0.9063475474492794,0.08503144113888014,-7.000555965633908,23.4
,,0.009714319834036787,0.0009113751314237218,9.240082613252275e-05,0.010718095791593031,6.848380679309611,0.9063475474492794,0.08503144113888014,-7.000555965633908,23.5
,,0.009094093428297418,0.0012181375590464508,9.492878290414907e-05,0.010407159770248017,6.865428215466149,0.8738304810401399,0.1170480309650729,-6.710432177609717,23.6
,,0.009094093428297418,0.0012181375590464508,9.492878290414907e-05,0.010407159770248017,6.884900612062687,0.8738304810401399,0.1170480309650729,-6.710432177609717,23.7
,,0.008970171523686538,0.0012488586961753407,0.00011254960330459442,0.010331579823166473,6.900837052578038,0.8682284488160026,0.12087780548092251,-6.685525187805362,23.8
,,0.008970171523686538,0.0012488586961753407,0.00011254960330459442,0.010331579823166473,6.916773493093392,0.8682284488160026,0.12087780548092251,-6.685525187805362,23.9
,,0.008970171523686538,0.0012488586961753407,0.00011254960330459442,0.010331579823166473,6.932709933608744,0.8682284488160026,0.12087780548092251,-6.685525187805362,24.0
,,0.008970171523686538,0.0012488586961753407,0.00011254960330459442,0.010331579823166473,6.946850685835804,0.8682284488160026,0.12087780548092251,-6.685525187805362,24.1
,,0.009002700005369051,0.0008076357501182795,8.492327236376822e-05,0.009895259027851098,7.010545003437723,0.9097993271353626,0.08161845464025913,-7.12139940539505,24.2
,,0.009002700005369051,0.0008076357501182795,8.492327236376822e-05,0.009895259027851098,7.074239321039644,0.9097993271353626,0.08161845464025913,-7.12139940539505,24.3
,,0.009002700005369051,0.0008076357501182795,8.492327236376822e-05,0.009895259027851098,7.139640580870572,0.9097993271353626,0.08161845464025913,-7.12139940539505,24.4
,,0.009002700005369051,0.0008076357501182795,8.492327236376822e-05,0.009895259027851098,7.2050418407015,0.9097993271353626,0.08161845464025913,-7.12139940539505,24.5
,,0.008382522274646169,0.001216774024841241,0.00010470470116280081,0.00970400100065021,7.217220049053104,0.8638212500271284,0.12538890141908599,-6.71155216435319,24.6
,,0.00799009627832718,0.0011616621002902047,0.00010251275844407408,0.009254271137061457,7.242057817923458,0.8633955240762812,0.12552713045525393,-6.757903454329097,24.7
,,0.00799009627832718,0.0011616621002902047,0.00010251275844407408,0.009254271137061457,7.266895586793813,0.8633955240762812,0.12552713045525393,-6.757903454329097,24.8
,,0.00799009627832718,0.0011616621002902047,0.00010251275844407408,0.009254271137061457,7.291733355664168,0.8633955240762812,0.12552713045525393,-6.757903454329097,24.9
,,0.00799009627832718,0.0011616621002902047,0.00010251275844407408,0.009254271137061457,7.302669707832029,0.8633955240762812,0.12552713045525393,-6.757903454329097,25.0
,,0.00799009627832718,0.0011616621002902047,0.00010251275844407408,0.009254271137061457,7.313606059999889,0.8633955240762812,0.12552713045525393,-6.757903454329097,25.1
,,0.00799009627832718,0.0011616621002902047,0.00010251275844407408,0.009254271137061457,7.32454241216775,0.8633955240762812,0.12552713045525393,-6.757903454329097,25.2
,,0.007312959544316631,0.0011156547159091486,9.438305818360277e-05,0.008522997318409381,7.331437520236397,0.8580267329805313,0.13089933907398665,-6.798313857241964,25.3
,,0.007312959544316631,0.0011156547159091486,9.438305818360277e-05,0.008522997318409381,7.335686126178932,0.8580267329805313,0.13089933907398665,-6.798313857241964,25.4
,,0.007312959544316631,0.0011156547159091486,9.438305818360277e-05,0.008522997318409381,7.339934732121466,0.8580267329805313,0.13089933907398665,-6.798313857241964,25.5
,,0.007312959544316631,0.0011156547159091486,9.438305818360277e-05,0.008522997318409381,7.344183338064002,0.8580267329805313,0.13089933907398665,-6.798313857241964,25.6
,,0.007312959544316631,0.0011156547159091486,9.438305818360277e-05,0.008522997318409381,7.356695325345136,0.8580267329805313,0.13089933907398665,-6.798313857241964,25.7
,,0.007312959544316631,0.0011156547159091486,9.438305818360277e-05,0.008522997318409381,7.36920731262627,0.8580267329805313,0.13089933907398665,-6.798313857241964,25.8
,,0.006915264652473991,0.0010635482367060542,7.251589198076561e-05,0.00805132878116081,7.381059430226342,0.8588973125349099,0.13209598882542664,-6.846144567788334,25.9
,,0.0066500863500971105,0.0010622153266004197,8.74965052988441e-05,0.007799798181996374,7.379073861060549,0.8525972332780292,0.13618497579235359,-6.847398620970283,26.0
,,0.0066500863500971105,0.0010622153266004197,8.74965052988441e-05,0.007799798181996374,7.377088291894755,0.8525972332780292,0.13618497579235359,-6.847398620970283,26.1
,,0.0066500863500971105,0.0010622153266004197,8.74965052988441e-05,0.007799798181996374,7.375102722728961,0.8525972332780292,0.13618497579235359,-6.847398620970283,26.2
,,0.0066500863500971105,0.0010622153266004197,8.74965052988441e-05,0.007799798181996374,7.373117153563166,0.8525972332780292,0.13618497579235359,-6.847398620970283,26.3
,,0.0066500863500971105,0.0010622153266004197,8.74965052988441e-05,0.007799798181996374,7.371210859782525,0.8525972332780292,0.13618497579235359,-6.847398620970283,26.4
,,0.0066500863500971105,0.0010622153266004197,8.74965052988441e-05,0.007799798181996374,7.369304566001882,0.8525972332780292,0.13618497579235359,-6.847398620970283,26.5
,,0.006274272904419621,0.001012582751965851,6.669949946000502e-05,0.0073535551558454775,7.363224653936745,0.8532298692873861,0.13769975617316615,-6.895251031986679,26.6
,,0.0060739431978133265,0.0010068740222327819,8.16479740468322e-05,0.007162465194092941,7.355096860696231,0.8480241136560991,0.140576462844549,-6.9009047751244745,26.7
,,0.0060739431978133265,0.0010068740222327819,8.16479740468322e-05,0.007162465194092941,7.346969067455717,0.8480241136560991,0.140576462844549,-6.9009047751244745,26.8
,,0.0060739431978133265,0.0010068740222327819,8.16479740468322e-05,0.007162465194092941,7.338841274215206,0.8480241136560991,0.140576462844549,-6.9009047751244745,26.9
,,0.0060739431978133265,0.0010068740222327819,8.16479740468322e-05,0.007162465194092941,7.330514810348319,0.8480241136560991,0.140576462844549,-6.9009047751244745,27.0
,,0.0060739431978133265,0.0010068740222327819,8.16479740468322e-05,0.007162465194092941,7.322188346481434,0.8480241136560991,0.140576462844549,-6.9009047751244745,27.1
,,0.0060739431978133265,0.0010068740222327819,8.16479740468322e-05,0.007162465194092941,7.313861882614549,0.8480241136560991,0.140576462844549,-6.9009047751244745,27.2
,,0.0057437098909898674,0.0009618419770509861,6.20204150764503e-05,0.006767572283117303,7.3013047387392636,0.8487105346947516,0.1421251132330631,-6.946660385811309,27.3
,,0.005467380206492397,0.00047383628673302035,4.6490213523728596e-05,0.005987706706749146,7.358334711529556,0.9131008705435999,0.07913485244675189,-7.654648682568098,27.4
,,0.005467380206492397,0.00047383628673302035,4.6490213523728596e-05,0.005987706706749146,7.41536468431985,0.9131008705435999,0.07913485244675189,-7.654648682568098,27.5
,,0.005467380206492397,0.00047383628673302035,4.6490213523728596e-05,0.005987706706749146,7.472394657110141,0.9131008705435999,0.07913485244675189,-7.654648682568098,27.6
,,0.005467380206492397,0.00047383628673302035,4.6490213523728596e-05,0.005987706706749146,7.529179221111552,0.9131008705435999,0.07913485244675189,-7.654648682568098,27.7
,,0.005467380206492397,0.00047383628673302035,4.6490213523728596e-05,0.005987706706749146,7.5859637851129635,0.9131008705435999,0.07913485244675189,-7.654648682568098,27.8
,,0.005467380206492397,0.00047383628673302035,4.6490213523728596e-05,0.005987706706749146,7.63960053865586,0.9131008705435999,0.07913485244675189,-7.654648682568098,27.9
,,0.005337610751436838,0.0009154322927157075,5.8937665785940995e-05,0.0063119807099384865,7.62188925465898,0.8456316640880316,0.1450309078534286,-6.996114153203195,28.0
,,0.0050545771065831175,0.00044043492750793696,4.3710836767795556e-05,0.00553872287085885,7.674748365183393,0.9125889170546894,0.0795192209065412,-7.727747847659382,28.1
,,0.0050545771065831175,0.00044043492750793696,4.3710836767795556e-05,0.00553872287085885,7.727607475707806,0.9125889170546894,0.0795192209065412,-7.727747847659382,28.2
,,0.0050545771065831175,0.00044043492750793696,4.3710836767795556e-05,0.00553872287085885,7.78048562681987,0.9125889170546894,0.0795192209065412,-7.727747847659382,28.3
,,0.0050545771065831175,0.00044043492750793696,4.3710836767795556e-05,0.00553872287085885,7.833363777931936,0.9125889170546894,0.0795192209065412,-7.727747847659382,28.4
,,0.0050545771065831175,0.00044043492750793696,4.3710836767795556e-05,0.00553872287085885,7.886241929044,0.9125889170546894,0.0795192209065412,-7.727747847659382,28.5
,,0.0050502812791175565,0.0008735914503454142,5.728764680863605e-05,0.005981160376271607,7.850703498980719,0.8443647990368184,0.146057185460386,-7.042897739714044,28.6
,,0.004993761592489198,0.0008602645160281376,7.356119819632685e-05,0.005927587306713662,7.815463292158457,0.8424610780229587,0.14512894901670884,-7.058270639231856,28.7
,,0.004993761592489198,0.0008602645160281376,7.356119819632685e-05,0.005927587306713662,7.780223085336196,0.8424610780229587,0.14512894901670884,-7.058270639231856,28.8
,,0.004993761592489198,0.0008602645160281376,7.356119819632685e-05,0.005927587306713662,7.744982878513933,0.8424610780229587,0.14512894901670884,-7.058270639231856,28.9
,,0.004993761592489198,0.0008602645160281376,7.356119819632685e-05,0.005927587306713662,7.724659595233426,0.8424610780229587,0.14512894901670884,-7.058270639231856,29.0
,,0.004993761592489198,0.0008602645160281376,7.356119819632685e-05,0.005927587306713662,7.70433631195292,0.8424610780229587,0.14512894901670884,-7.058270639231856,29.1
,,0.004993761592489198,0.0008602645160281376,7.356119819632685e-05,0.005927587306713662,7.681722378413967,0.8424610780229587,0.14512894901670884,-7.058270639231856,29.2
,,0.004610902904152039,0.000406114783308893,4.171634113690057e-05,0.005058734028597833,7.728468191717224,0.9114736766325067,0.08027992399146924,-7.808874720810017,29.3
,,0.004610902904152039,0.000406114783308893,4.171634113690057e-05,0.005058734028597833,7.775214005020483,0.9114736766325067,0.08027992399146924,-7.808874720810017,29.4
,,0.004610902904152039,0.000406114783308893,4.171634113690057e-05,0.005058734028597833,7.821959818323739,0.9114736766325067,0.08027992399146924,-7.808874720810017,29.5
,,0.004610902904152039,0.000406114783308893,4.171634113690057e-05,0.005058734028597833,7.868705631626999,0.9114736766325067,0.08027992399146924,-7.808874720810017,29.6
,,0.004610902904152039,0.000406114783308893,4.171634113690057e-05,0.005058734028597833,7.916624303218546,0.9114736766325067,0.08027992399146924,-7.808874720810017,29.7
,,0.004610902904152039,0.000406114783308893,4.171634113690057e-05,0.005058734028597833,7.998512852745679,0.9114736766325067,0.08027992399146924,-7.808874720810017,29.8
,,0.004584282114011789,0.00040540085191823256,4.252154754766123e-05,0.0050322045134776824,8.07983051571581,0.9109888323763017,0.08056128299882351,-7.810634222522256,29.9
,,0.004584282114011789,0.00040540085191823256,4.252154754766123e-05,0.0050322045134776824,8.161148178685945,0.9109888323763017,0.08056128299882351,-7.810634222522256,30.0
,,0.004584282114011789,0.00040540085191823256,4.252154754766123e-05,0.0050322045134776824,8.242465841656076,0.9109888323763017,0.08056128299882351,-7.810634222522256,30.1
,,0.004584282114011789,0.00040540085191823256,4.252154754766123e-05,0.0050322045134776824,8.32378350462621,0.9109888323763017,0.08056128299882351,-7.810634222522256,30.2
,,0.004584282114011789,0.00040540085191823256,4.252154754766123e-05,0.0050322045134776824,8.40510116759634,0.9109888323763017,0.08056128299882351,-7.810634222522256,30.3
,,0.004584282114011789,0.00040540085191823256,4.252154754766123e-05,0.0050322045134776824,8.451526798785407,0.9109888323763017,0.08056128299882351,-7.810634222522256,30.4
,,0.004987407781534438,0.0007750561520170984,7.68458154726697e-05,0.0058393097490242055,8.437038376870198,0.8541091320541564,0.13273078246048112,-7.162575077019996,30.5
,,0.004987407781534438,0.0007750561520170984,7.68458154726697e-05,0.0058393097490242055,8.42254995495499,0.8541091320541564,0.13273078246048112,-7.162575077019996,30.6
,,0.004987407781534438,0.0007750561520170984,7.68458154726697e-05,0.0058393097490242055,8.408061533039781,0.8541091320541564,0.13273078246048112,-7.162575077019996,30.7
,,0.004987407781534438,0.0007750561520170984,7.68458154726697e-05,0.0058393097490242055,8.39357311112457,0.8541091320541564,0.13273078246048112,-7.162575077019996,30.8
,,0.004987407781534438,0.0007750561520170984,7.68458154726697e-05,0.0058393097490242055,8.379084689209362,0.8541091320541564,0.13273078246048112,-7.162575077019996,30.9
,,0.004987407781534438,0.0007750561520170984,7.68458154726697e-05,0.0058393097490242055,8.36367600751139,0.8541091320541564,0.13273078246048112,-7.162575077019996,31.0
,,0.005233409550100146,0.0007644754269818114,8.043587312954006e-05,0.0060783208502114975,8.316010793318462,0.8609959360598819,0.1257708248414052,-7.176320675712381,31.1
,,0.005233409550100146,0.0007644754269818114,8.043587312954006e-05,0.0060783208502114975,8.268345579125533,0.8609959360598819,0.1257708248414052,-7.176320675712381,31.2
,,0.005233409550100146,0.0007644754269818114,8.043587312954006e-05,0.0060783208502114975,8.220680364932603,0.8609959360598819,0.1257708248414052,-7.176320675712381,31.3
,,0.005233409550100146,0.0007644754269818114,8.043587312954006e-05,0.0060783208502114975,8.173015150739676,0.8609959360598819,0.1257708248414052,-7.176320675712381,31.4
,,0.005233409550100146,0.0007644754269818114,8.043587312954006e-05,0.0060783208502114975,8.125349936546746,0.8609959360598819,0.1257708248414052,-7.176320675712381,31.5
,,0.005233409550100146,0.0007644754269818114,8.043587312954006e-05,0.0060783208502114975,8.11760219485122,0.8609959360598819,0.1257708248414052,-7.176320675712381,31.6
,,0.005434071006702299,0.0007744499150218525,6.398481536691703e-05,0.006272505737091068,8.111991108118755,0.8663317714592317,0.12346739046284408,-7.163357567697606,31.7
,,0.005304895058600528,0.00046916047776204855,5.172941326147192e-05,0.005825784949624048,8.163547515204275,0.9105888913635346,0.08053171921361851,-7.664565677976489,31.8
,,0.005304895058600528,0.00046916047776204855,5.172941326147192e-05,0.005825784949624048,8.215103922289796,0.9105888913635346,0.08053171921361851,-7.664565677976489,31.9
,,0.005304895058600528,0.00046916047776204855,5.172941326147192e-05,0.005825784949624048,8.266660329375316,0.9105888913635346,0.08053171921361851,-7.664565677976489,32.0
,,0.005304895058600528,0.00046916047776204855,5.172941326147192e-05,0.005825784949624048,8.318216736460837,0.9105888913635346,0.08053171921361851,-7.664565677976489,32.1
,,0.005304895058600528,0.00046916047776204855,5.172941326147192e-05,0.005825784949624048,8.320219578171498,0.9105888913635346,0.08053171921361851,-7.664565677976489,32.2
,,0.005624533991079497,0.0004890987515670148,4.160440441589491e-05,0.0061552371470624066,8.324629723243156,0.9137802259599067,0.07946058614499324,-7.622946142932924,32.3
,,0.006204628156416305,0.0007770642782924218,9.161094184791052e-05,0.007073303376556637,8.285101264731205,0.8771895995555031,0.10985875155134452,-7.159987484773181,32.4
,,0.006204628156416305,0.0007770642782924218,9.161094184791052e-05,0.007073303376556637,8.245572806219254,0.8771895995555031,0.10985875155134452,-7.159987484773181,32.5
,,0.006204628156416305,0.0007770642782924218,9.161094184791052e-05,0.007073303376556637,8.259267399186628,0.8771895995555031,0.10985875155134452,-7.159987484773181,32.6
,,0.006204628156416305,0.0007770642782924218,9.161094184791052e-05,0.007073303376556637,8.273099213947816,0.8771895995555031,0.10985875155134452,-7.159987484773181,32.7
,,0.006612237316031617,0.0008053195406517579,9.895902529961409e-05,0.007516515881982989,8.289755982772125,0.879694451505262,0.10714000386563416,-7.124271414398483,32.8
,,0.006612237316031617,0.0008053195406517579,9.895902529961409e-05,0.007516515881982989,8.306412751596431,0.879694451505262,0.10714000386563416,-7.124271414398483,32.9
,,0.006612237316031617,0.0008053195406517579,9.895902529961409e-05,0.007516515881982989,8.32306952042074,0.879694451505262,0.10714000386563416,-7.124271414398483,33.0
,,0.006942253733014395,0.0008041864238555814,9.933354146401813e-05,0.007845773698333993,8.34500056535233,0.884839915085563,0.10249931425199607,-7.125679445195969,33.1
,,0.006942253733014395,0.0008041864238555814,9.933354146401813e-05,0.007845773698333993,8.366931610283917,0.884839915085563,0.10249931425199607,-7.125679445195969,33.2
,,0.006942253733014395,0.0008041864238555814,9.933354146401813e-05,0.007845773698333993,8.392903899314721,0.884839915085563,0.10249931425199607,-7.125679445195969,33.3
,,0.007453158313712789,0.0008418607470263011,0.00010840259678589073,0.00840342165752498,8.421633111415021,0.8869194736930447,0.10018070987458344,-7.079895940978535,33.4
,,0.007453158313712789,0.0008418607470263011,0.00010840259678589073,0.00840342165752498,8.45036232351532,0.8869194736930447,0.10018070987458344,-7.079895940978535,33.5
,,0.007453158313712789,0.0008418607470263011,0.00010840259678589073,0.00840342165752498,8.479091535615618,0.8869194736930447,0.10018070987458344,-7.079895940978535,33.6
,,0.007453158313712789,0.0008418607470263011,0.00010840259678589073,0.00840342165752498,8.507820747715916,0.8869194736930447,0.10018070987458344,-7.079895940978535,33.7
,,0.007760822983026517,0.0006772332287769834,7.625410887274658e-05,0.008514310320676247,8.569130027933195,0.9115034207973425,0.0795405855871124,-7.297494841016314,33.8
,,0.007760822983026517,0.0006772332287769834,7.625410887274658e-05,0.008514310320676247,8.631099177831535,0.9115034207973425,0.0795405855871124,-7.297494841016314,33.9
,,0.008526419799244674,0.0008954191424059518,0.0001193118327118389,0.009541150774362465,8.671870233112898,0.8936468986692442,0.0938481283423365,-7.018218633777539,34.0
,,0.008526419799244674,0.0008954191424059518,0.0001193118327118389,0.009541150774362465,8.712641288394263,0.8936468986692442,0.0938481283423365,-7.018218633777539,34.1
,,0.008526419799244674,0.0008954191424059518,0.0001193118327118389,0.009541150774362465,8.753412343675626,0.8936468986692442,0.0938481283423365,-7.018218633777539,34.2
,,0.008526419799244674,0.0008954191424059518,0.0001193118327118389,0.009541150774362465,8.79418339895699,0.8936468986692442,0.0938481283423365,-7.018218633777539,34.3
,,0.008526419799244674,0.0008954191424059518,0.0001193118327118389,0.009541150774362465,8.834954454238353,0.8936468986692442,0.0938481283423365,-7.018218633777539,34.4
,,0.009094048573743654,0.0009163416257264002,0.00011831037121497893,0.010128700570685033,8.880750918437808,0.897849483285554,0.0904698109428291,-6.995121308970362,34.5
,,0.00986610897794796,0.000975612837150941,0.00013165231603134287,0.010973374131130245,8.929706211521378,0.8990952882904907,0.08890727915520857,-6.932444733497781,34.6
,,0.00986610897794796,0.000975612837150941,0.00013165231603134287,0.010973374131130245,8.98070938578032,0.8990952882904907,0.08890727915520857,-6.932444733497781,34.7
,,0.00986610897794796,0.000975612837150941,0.00013165231603134287,0.010973374131130245,9.031712560039265,0.8990952882904907,0.08890727915520857,-6.932444733497781,34.8
,,0.00986610897794796,0.000975612837150941,0.00013165231603134287,0.010973374131130245,9.082715734298208,0.8990952882904907,0.08890727915520857,-6.932444733497781,34.9
,,0.00986610897794796,0.000975612837150941,0.00013165231603134287,0.010973374131130245,9.133718908557153,0.8990952882904907,0.08890727915520857,-6.932444733497781,35.0
,,0.00986610897794796,0.000975612837150941,0.00013165231603134287,0.010973374131130245,9.184722082816098,0.8990952882904907,0.08890727915520857,-6.932444733497781,35.1
,,0.01147770301345915,0.001084991587448214,0.0001455171556601374,0.0127082117565675,9.24154876180891,0.903172156186929,0.08537720398682365,-6.826183045523723,35.2
,,0.01147770301345915,0.001084991587448214,0.0001455171556601374,0.0127082117565675,9.299136722076572,0.903172156186929,0.08537720398682365,-6.826183045523723,35.3
,,0.01147770301345915,0.001084991587448214,0.0001455171556601374,0.0127082117565675,9.287137565678657,0.903172156186929,0.08537720398682365,-6.826183045523723,35.4
,,0.01147770301345915,0.001084991587448214,0.0001455171556601374,0.0127082117565675,9.275138409280743,0.903172156186929,0.08537720398682365,-6.826183045523723,35.5
,,0.01147770301345915,0.001084991587448214,0.0001455171556601374,0.0127082117565675,9.263139252882828,0.903172156186929,0.08537720398682365,-6.826183045523723,35.6
,,0.01147770301345915,0.001084991587448214,0.0001455171556601374,0.0127082117565675,9.251140096484914,0.903172156186929,0.08537720398682365,-6.826183045523723,35.7
,,0.012499401613145302,0.001169000364675911,0.00012013069805678837,0.013788532675878002,9.240563122028874,0.9065070161535073,0.08478062112591493,-6.751606284536813,35.8
,,0.012067970695146977,0.0010788100526412199,0.00012291914837516478,0.013269699896163362,9.23616099032149,0.9094381025629797,0.08129875287934234,-6.831896648387258,35.9
,,0.012067970695146977,0.0010788100526412199,0.00012291914837516478,0.013269699896163362,9.303106896153881,0.9094381025629797,0.08129875287934234,-6.831896648387258,36.0
,,0.012067970695146977,0.0010788100526412199,0.00012291914837516478,0.013269699896163362,9.29948240746498,0.9094381025629797,0.08129875287934234,-6.831896648387258,36.1
,,0.012067970695146977,0.0010788100526412199,0.00012291914837516478,0.013269699896163362,9.295857918776077,0.9094381025629797,0.08129875287934234,-6.831896648387258,36.2
,,0.012067970695146977,0.0010788100526412199,0.00012291914837516478,0.013269699896163362,9.292233430087176,0.9094381025629797,0.08129875287934234,-6.831896648387258,36.3
,,0.014662498819107526,0.001338268483933001,0.00013263013872437575,0.016133397441764903,9.285733299834959,0.9088289600521693,0.08295019624748065,-6.6163786767682335,36.4
,,0.013057673013701102,0.0012049620710336856,0.00013158297924455278,0.014394218063979341,9.277736462910505,0.9071470888979469,0.08371153373374482,-6.721307188855501,36.5
,,0.013057673013701102,0.0012049620710336856,0.00013158297924455278,0.014394218063979341,9.340930563542859,0.9071470888979469,0.08371153373374482,-6.721307188855501,36.6
,,0.013057673013701102,0.0012049620710336856,0.00013158297924455278,0.014394218063979341,9.403826440934198,0.9071470888979469,0.08371153373374482,-6.721307188855501,36.7
,,0.013057673013701102,0.0012049620710336856,0.00013158297924455278,0.014394218063979341,9.466722318325534,0.9071470888979469,0.08371153373374482,-6.721307188855501,36.8
,,0.01654765032981968,0.0014989644637015364,0.00019661002499244686,0.018243224818513662,9.532153242598302,0.9070573045302126,0.08216554247472471,-6.502980766812773,36.9
,,0.01654765032981968,0.0014989644637015364,0.00019661002499244686,0.018243224818513662,9.597584166871071,0.9070573045302126,0.08216554247472471,-6.502980766812773,37.0
,,0.01725126624507122,0.0015674997278981874,0.00018693261591166437,0.01900569858888107,9.662592671144944,0.9076891419904846,0.08247524922947183,-6.458273459046887,37.1
,,0.01725126624507122,0.0015674997278981874,0.00018693261591166437,0.01900569858888107,9.727601175418817,0.9076891419904846,0.08247524922947183,-6.458273459046887,37.2
,,0.01725126624507122,0.0015674997278981874,0.00018693261591166437,0.01900569858888107,9.72324993285048,0.9076891419904846,0.08247524922947183,-6.458273459046887,37.3
,,0.01725126624507122,0.0015674997278981874,0.00018693261591166437,0.01900569858888107,9.718898690282142,0.9076891419904846,0.08247524922947183,-6.458273459046887,37.4
,,0.017998607884343605,0.0016401305379144095,0.00020403883520347265,0.01984277725746149,9.71415111037717,0.9070609245273658,0.08265629939970577,-6.412979444024373,37.5
,,0.017998607884343605,0.0016401305379144095,0.00020403883520347265,0.01984277725746149,9.709403530472198,0.9070609245273658,0.08265629939970577,-6.412979444024373,37.6
,,0.017998607884343605,0.0016401305379144095,0.00020403883520347265,0.01984277725746149,9.704655950567226,0.9070609245273658,0.08265629939970577,-6.412979444024373,37.7
,,0.018753205829921637,0.0017270730979981504,0.0001940426278925052,0.02067432155581229,9.69846445435235,0.9070772058611732,0.08353711116158045,-6.36132715413653,37.8
,,0.018753205829921637,0.0017270730979981504,0.0001940426278925052,0.02067432155581229,9.692843844694476,0.9070772058611732,0.08353711116158045,-6.36132715413653,37.9
,,0.018753205829921637,0.0017270730979981504,0.0001940426278925052,0.02067432155581229,9.687223235036601,0.9070772058611732,0.08353711116158045,-6.36132715413653,38.0
,,0.01498767677409336,0.0015435156856369258,0.00015626755960104343,0.01668746001933133,9.667249078339315,0.8981400858327822,0.09249554359074802,-6.473692551691497,38.1
,,0.01498767677409336,0.0015435156856369258,0.00015626755960104343,0.01668746001933133,9.64727492164203,0.8981400858327822,0.09249554359074802,-6.473692551691497,38.2
,,0.01498767677409336,0.0015435156856369258,0.00015626755960104343,0.01668746001933133,9.627300764944746,0.8981400858327822,0.09249554359074802,-6.473692551691497,38.3
,,0.020384355877250813,0.0019186365063635002,0.00020247228745011613,0.02250546467106443,9.61875544086836,0.9057513886153725,0.08525202809210673,-6.256140498156165,38.4
,,0.020384355877250813,0.0019186365063635002,0.00020247228745011613,0.02250546467106443,9.671124169896252,0.9057513886153725,0.08525202809210673,-6.256140498156165,38.5
,,0.02126017164046051,0.002017018062690542,0.000222170623882349,0.0234993603270334,9.722442902468451,0.9047127813093297,0.08583289224133421,-6.206135064824309,38.6
,,0.02126017164046051,0.002017018062690542,0.000222170623882349,0.0234993603270334,9.773761635040652,0.9047127813093297,0.08583289224133421,-6.206135064824309,38.7
,,0.02126017164046051,0.002017018062690542,0.000222170623882349,0.0234993603270334,9.82508036761285,0.9047127813093297,0.08583289224133421,-6.206135064824309,38.8
,,0.02126017164046051,0.002017018062690542,0.000222170623882349,0.0234993603270334,9.87639910018505,0.9047127813093297,0.08583289224133421,-6.206135064824309,38.9
,,0.02220544949154525,0.002150424382601588,0.00021294235461372546,0.024568816228760563,9.925038839716857,0.9038062430354815,0.08752657688424868,-6.142090069064315,39.0
,,0.02220544949154525,0.002150424382601588,0.00021294235461372546,0.024568816228760563,9.968542906297957,0.9038062430354815,0.08752657688424868,-6.142090069064315,39.1
,,0.02269727557281084,0.002217901352453621,0.00022895060756345236,0.025144127532827912,10.010891903699918,0.9026869412421454,0.08820752875827376,-6.1111938669431245,39.2
,,0.02269727557281084,0.002217901352453621,0.00022895060756345236,0.025144127532827912,10.05324090110188,0.9026869412421454,0.08820752875827376,-6.1111938669431245,39.3
,,0.02269727557281084,0.002217901352453621,0.00022895060756345236,0.025144127532827912,10.09558989850384,0.9026869412421454,0.08820752875827376,-6.1111938669431245,39.4
,,0.02269727557281084,0.002217901352453621,0.00022895060756345236,0.025144127532827912,10.137938895905801,0.9026869412421454,0.08820752875827376,-6.1111938669431245,39.5
,,0.02269727557281084,0.002217901352453621,0.00022895060756345236,0.025144127532827912,10.180287893307762,0.9026869412421454,0.08820752875827376,-6.1111938669431245,39.6
,,0.023872479180898715,0.0024110680612313257,0.0002342948666362542,0.026517842108766294,10.2163443950411,0.9002421495302186,0.09092248348647768,-6.027685450720193,39.7
,,0.023872479180898715,0.0024110680612313257,0.0002342948666362542,0.026517842108766294,10.198769359037634,0.9002421495302186,0.09092248348647768,-6.027685450720193,39.8
,,0.023872479180898715,0.0024110680612313257,0.0002342948666362542,0.026517842108766294,10.18119432303417,0.9002421495302186,0.09092248348647768,-6.027685450720193,39.9
,,0.023872479180898715,0.0024110680612313257,0.0002342948666362542,0.026517842108766294,10.163619287030706,0.9002421495302186,0.09092248348647768,-6.027685450720193,40.0
,,0.023872479180898715,0.0024110680612313257,0.0002342948666362542,0.026517842108766294,10.14604425102724,0.9002421495302186,0.09092248348647768,-6.027685450720193,40.1
,,0.023872479180898715,0.0024110680612313257,0.0002342948666362542,0.026517842108766294,10.128469215023776,0.9002421495302186,0.09092248348647768,-6.027685450720193,40.2
,,0.02534256771362273,0.002647024337226701,0.00024579823523372874,0.02823539028608316,10.10439660853157,0.8975462161794072,0.09374845930609939,-5.934319161511702,40.3
,,0.02534256771362273,0.002647024337226701,0.00024579823523372874,0.02823539028608316,10.12426260562297,0.8975462161794072,0.09374845930609939,-5.934319161511702,40.4
,,0.02534256771362273,0.002647024337226701,0.00024579823523372874,0.02823539028608316,10.144128602714371,0.8975462161794072,0.09374845930609939,-5.934319161511702,40.5
,,0.02534256771362273,0.002647024337226701,0.00024579823523372874,0.02823539028608316,10.163994599805775,0.8975462161794072,0.09374845930609939,-5.934319161511702,40.6
,,0.02534256771362273,0.002647024337226701,0.00024579823523372874,0.02823539028608316,10.183860596897178,0.8975462161794072,0.09374845930609939,-5.934319161511702,40.7
,,0.026066682066102735,0.0027511042896903233,0.0002660893597285123,0.02908387571552157,10.199664203147606,0.8962588865758145,0.09459207970078436,-5.895752888019861,40.8
,,0.026066682066102735,0.0027511042896903233,0.0002660893597285123,0.02908387571552157,10.215467809398033,0.8962588865758145,0.09459207970078436,-5.895752888019861,40.9
,,0.027099804980026128,0.002926050321245343,0.0002636294633229137,0.030289484764594383,10.228603618233148,0.8946934948098986,0.09660284233905578,-5.834101778567172,41.0
,,0.027099804980026128,0.002926050321245343,0.0002636294633229137,0.030289484764594383,10.236465150960978,0.8946934948098986,0.09660284233905578,-5.834101778567172,41.1
,,0.027099804980026128,0.002926050321245343,0.0002636294633229137,0.030289484764594383,10.244326683688811,0.8946934948098986,0.09660284233905578,-5.834101778567172,41.2
,,0.027099804980026128,0.002926050321245343,0.0002636294633229137,0.030289484764594383,10.252188216416643,0.8946934948098986,0.09660284233905578,-5.834101778567172,41.3
,,0.015679859174883976,0.003060847484649261,0.0002864979300597068,0.019027204589592943,10.205557242436706,0.8240758173935955,0.16086690350317734,-5.789063445595284,41.4
,,0.015679859174883976,0.003060847484649261,0.0002864979300597068,0.019027204589592943,10.158926268456765,0.8240758173935955,0.16086690350317734,-5.789063445595284,41.5
,,0.018174748549582065,0.002634361437955094,0.00020257690089677493,0.021011686888433932,10.134500187989072,0.8649828376981248,0.12537600869186763,-5.939114464894506,41.6
,,0.018174748549582065,0.002634361437955094,0.00020257690089677493,0.021011686888433932,10.110074107521378,0.8649828376981248,0.12537600869186763,-5.939114464894506,41.7
,,0.018174748549582065,0.002634361437955094,0.00020257690089677493,0.021011686888433932,10.053067958936703,0.8649828376981248,0.12537600869186763,-5.939114464894506,41.8
,,0.03048922105837246,0.003441978655826598,0.00031578006126711724,0.034246979775466174,10.020548571461697,0.8902747412551195,0.10050458984685008,-5.671708782308298,41.9
,,0.03048922105837246,0.003441978655826598,0.00031578006126711724,0.034246979775466174,10.012245871228943,0.8902747412551195,0.10050458984685008,-5.671708782308298,42.0
,,0.03048922105837246,0.003441978655826598,0.00031578006126711724,0.034246979775466174,10.00394317099619,0.8902747412551195,0.10050458984685008,-5.671708782308298,42.1
,,0.03048922105837246,0.003441978655826598,0.00031578006126711724,0.034246979775466174,9.995640470763433,0.8902747412551195,0.10050458984685008,-5.671708782308298,42.2
,,0.03200003496730081,0.003717046379485968,0.00032472632728905253,0.03604180767407583,9.984224579948565,0.887858768258114,0.10313151918180749,-5.5948259100784785,42.3
,,0.03356697651072841,0.0039329706291474495,0.000358797288279934,0.037858744428155795,9.971880798540045,0.8866373414582769,0.10388539526478521,-5.538360253359116,42.4
,,0.03356697651072841,0.0039329706291474495,0.000358797288279934,0.037858744428155795,9.954511608213437,0.8866373414582769,0.10388539526478521,-5.538360253359116,42.5
,,0.03356697651072841,0.0039329706291474495,0.000358797288279934,0.037858744428155795,9.93478703732595,0.8866373414582769,0.10388539526478521,-5.538360253359116,42.6
,,0.03356697651072841,0.0039329706291474495,0.000358797288279934,0.037858744428155795,9.915062466438464,0.8866373414582769,0.10388539526478521,-5.538360253359116,42.7
,,0.03356697651072841,0.0039329706291474495,0.000358797288279934,0.037858744428155795,9.895337895550977,0.8866373414582769,0.10388539526478521,-5.538360253359116,42.8
,,0.03356697651072841,0.0039329706291474495,0.000358797288279934,0.037858744428155795,9.875613324663487,0.8866373414582769,0.10388539526478521,-5.538360253359116,42.9
,,0.037479713484278795,0.00457855869437722,0.0004194334218456154,0.04247770560050163,9.851528197943686,0.8823384633052352,0.10778733525388787,-5.386371025933904,43.0
,,0.037479713484278795,0.00457855869437722,0.0004194334218456154,0.04247770560050163,9.827443071223884,0.8823384633052352,0.10778733525388787,-5.386371025933904,43.1
,,0.037479713484278795,0.00457855869437722,0.0004194334218456154,0.04247770560050163,9.797534439770214,0.8823384633052352,0.10778733525388787,-5.386371025933904,43.2
,,0.037479713484278795,0.00457855869437722,0.0004194334218456154,0.04247770560050163,9.767625808316541,0.8823384633052352,0.10778733525388787,-5.386371025933904,43.3
,,0.037479713484278795,0.00457855869437722,0.0004194334218456154,0.04247770560050163,9.737717176862873,0.8823384633052352,0.10778733525388787,-5.386371025933904,43.4
,,0.03981519406530986,0.004913661185200039,0.00046969892032971874,0.04519855417083962,9.706771534866999,0.8808953028634067,0.1087127956931451,-5.315735956140974,43.5
,,0.03981519406530986,0.004913661185200039,0.00046969892032971874,0.04519855417083962,9.675825892871128,0.8808953028634067,0.1087127956931451,-5.315735956140974,43.6
,,0.041405695888215306,0.005280300310582708,0.0004917602620364833,0.0471777564608345,9.641612539244969,0.8776529236312673,0.11192351452672933,-5.243772305877101,43.7
,,0.041405695888215306,0.005280300310582708,0.0004917602620364833,0.0471777564608345,9.605977003676935,0.8776529236312673,0.11192351452672933,-5.243772305877101,43.8
,,0.041405695888215306,0.005280300310582708,0.0004917602620364833,0.0471777564608345,9.564166625360249,0.8776529236312673,0.11192351452672933,-5.243772305877101,43.9
,,0.024919865779657376,0.004382817364867966,0.0003439587301114221,0.029646641874636764,9.495409595952093,0.8405628497498319,0.14783520451999474,-5.430063527391974,44.0
,,0.024919865779657376,0.004382817364867966,0.0003439587301114221,0.029646641874636764,9.426652566543938,0.8405628497498319,0.14783520451999474,-5.430063527391974,44.1
,,0.024919865779657376,0.004382817364867966,0.0003439587301114221,0.029646641874636764,9.35789553713578,0.8405628497498319,0.14783520451999474,-5.430063527391974,44.2
,,0.04488565304667012,0.005996317566413349,0.0005715845266880203,0.051453555139771484,9.311635089885469,0.872352802925669,0.11653845006675626,-5.116609737100024,44.3
,,0.04488565304667012,0.005996317566413349,0.0005715845266880203,0.051453555139771484,9.268250284198475,0.872352802925669,0.11653845006675626,-5.116609737100024,44.4
,,0.04488565304667012,0.005996317566413349,0.0005715845266880203,0.051453555139771484,9.226362185183717,0.872352802925669,0.11653845006675626,-5.116609737100024,44.5
,,0.04709577907698427,0.006362142576601808,0.0006328114745706361,0.054090733128156716,9.183436168574776,0.8706811010566383,0.11761982522085691,-5.057390075248989,44.6
,,0.04709577907698427,0.006362142576601808,0.0006328114745706361,0.054090733128156716,9.140510151965836,0.8706811010566383,0.11761982522085691,-5.057390075248989,44.7
,,0.04709577907698427,0.006362142576601808,0.0006328114745706361,0.054090733128156716,9.097584135356897,0.8706811010566383,0.11761982522085691,-5.057390075248989,44.8
,,0.04709577907698427,0.006362142576601808,0.0006328114745706361,0.054090733128156716,9.052123071866523,0.8706811010566383,0.11761982522085691,-5.057390075248989,44.9
,,0.04892644043229756,0.006866914053651244,0.0006716810594920019,0.05646503554544081,9.003192635218436,0.8664909170724512,0.12161356115901185,-4.981040465272913,45.0
,,0.04892644043229756,0.006866914053651244,0.0006716810594920019,0.05646503554544081,8.954684618569244,0.8664909170724512,0.12161356115901185,-4.981040465272913,45.1
,,0.051583170086512434,0.007327210223233945,0.0007459795127751646,0.05965635982252154,8.905114023295827,0.8646717674355767,0.12282362257825473,-4.916160432632182,45.2
,,0.051583170086512434,0.007327210223233945,0.0007459795127751646,0.05965635982252154,8.85554342802241,0.8646717674355767,0.12282362257825473,-4.916160432632182,45.3
,,0.051583170086512434,0.007327210223233945,0.0007459795127751646,0.05965635982252154,8.80597283274899,0.8646717674355767,0.12282362257825473,-4.916160432632182,45.4
,,0.051583170086512434,0.007327210223233945,0.0007459795127751646,0.05965635982252154,8.756798574812207,0.8646717674355767,0.12282362257825473,-4.916160432632182,45.5
,,0.05355097842288553,0.007924416151132974,0.0007923271387602542,0.06226772171277876,8.704096470823877,0.8600118480309783,0.12726362765745294,-4.8378066337140195,45.6
,,0.05531535011362609,0.008294696963823135,0.0008612081433145955,0.06447125522076382,8.650282388250433,0.857984692933527,0.12865728975526008,-4.792138888397272,45.7
,,0.05531535011362609,0.008294696963823135,0.0008612081433145955,0.06447125522076382,8.597912221986892,0.857984692933527,0.12865728975526008,-4.792138888397272,45.8
,,0.05531535011362609,0.008294696963823135,0.0008612081433145955,0.06447125522076382,8.545542055723349,0.857984692933527,0.12865728975526008,-4.792138888397272,45.9
,,0.05531535011362609,0.008294696963823135,0.0008612081433145955,0.06447125522076382,8.493171889459807,0.857984692933527,0.12865728975526008,-4.792138888397272,46.0
,,0.05531535011362609,0.008294696963823135,0.0008612081433145955,0.06447125522076382,8.455155270235675,0.857984692933527,0.12865728975526008,-4.792138888397272,46.1
,,0.05531535011362609,0.008294696963823135,0.0008612081433145955,0.06447125522076382,8.417138651011545,0.857984692933527,0.12865728975526008,-4.792138888397272,46.2
,,0.05756233515965317,0.009146473806738503,0.0009616539193981909,0.06767046288578986,8.37442990799379,0.8506271821548409,0.135161980821313,-4.694386850283974,46.3
,,0.05756233515965317,0.009146473806738503,0.0009616539193981909,0.06767046288578986,8.320292332355134,0.8506271821548409,0.135161980821313,-4.694386850283974,46.4
,,0.05756233515965317,0.009146473806738503,0.0009616539193981909,0.06767046288578986,8.266154756716478,0.8506271821548409,0.135161980821313,-4.694386850283974,46.5
,,0.05756233515965317,0.009146473806738503,0.0009616539193981909,0.06767046288578986,8.213067177533516,0.8506271821548409,0.135161980821313,-4.694386850283974,46.6
,,0.05756233515965317,0.009146473806738503,0.0009616539193981909,0.06767046288578986,8.159979598350551,0.8506271821548409,0.135161980821313,-4.694386850283974,46.7
,,0.04004632850727334,0.007321173565952753,0.0007432438091042965,0.048110745882330386,8.096598794581471,0.8323780430513164,0.1521733540331911,-4.916984640641721,46.8
,,0.04138927782284561,0.007207734191021503,0.0007832489000035263,0.04938026091387064,8.03662310925545,0.8381745470125613,0.1459638741802778,-4.9326006362953745,46.9
,,0.04138927782284561,0.007207734191021503,0.0007832489000035263,0.04938026091387064,7.9793264169698235,0.8381745470125613,0.1459638741802778,-4.9326006362953745,47.0
,,0.04138927782284561,0.007207734191021503,0.0007832489000035263,0.04938026091387064,7.922029724684196,0.8381745470125613,0.1459638741802778,-4.9326006362953745,47.1
,,0.04138927782284561,0.007207734191021503,0.0007832489000035263,0.04938026091387064,7.86588810157771,0.8381745470125613,0.1459638741802778,-4.9326006362953745,47.2
,,0.042551215413734925,0.007499675109386758,0.0008253377107955247,0.05087622823391721,7.808888962775026,0.8363673348207774,0.1474102025587466,-4.892895578126589,47.3
,,0.042551215413734925,0.007499675109386758,0.0008253377107955247,0.05087622823391721,7.751889823972346,0.8363673348207774,0.1474102025587466,-4.892895578126589,47.4
,,0.042551215413734925,0.007499675109386758,0.0008253377107955247,0.05087622823391721,7.694890685169662,0.8363673348207774,0.1474102025587466,-4.892895578126589,47.5
,,0.04399656873298436,0.007360804141306867,0.000857871932845806,0.05221524480713703,7.641684051922408,0.8426000662352673,0.14097040372969308,-4.911586093879872,47.6
,,0.04399656873298436,0.007360804141306867,0.000857871932845806,0.05221524480713703,7.5926332593807135,0.8426000662352673,0.14097040372969308,-4.911586093879872,47.7
,,0.04399656873298436,0.007360804141306867,0.000857871932845806,0.05221524480713703,7.54358246683902,0.8426000662352673,0.14097040372969308,-4.911586093879872,47.8
,,0.029989903812856985,0.007720580060323164,0.0009109773257205797,0.03862146119890073,7.468372537920034,0.7765087824722328,0.1999038829878066,-4.863865780420562,47.9
,,0.05481763058808416,0.00998503926971419,0.001076384280336293,0.06587905413813464,7.413232181031164,0.8320949853521428,0.15156622086251642,-4.606667379251367,48.0
,,0.029989903812856985,0.007720580060323164,0.0009109773257205797,0.03862146119890073,7.33802225211218,0.7765087824722328,0.1999038829878066,-4.863865780420562,48.1
,,0.029989903812856985,0.007720580060323164,0.0009109773257205797,0.03862146119890073,7.262812323193195,0.7765087824722328,0.1999038829878066,-4.863865780420562,48.2
,,0.05483579738351825,0.010536156673291441,0.0010736806635973067,0.066445634720407,7.208194216563287,0.8252731366666726,0.15856807926699723,-4.552942444369691,48.3
,,0.054317874035111145,0.010525926887399034,0.0011034372519401765,0.06594723817445036,7.153024279589266,0.8236565402697223,0.15961133746882286,-4.553913837980142,48.4
,,0.054317874035111145,0.010525926887399034,0.0011034372519401765,0.06594723817445036,7.097854342615245,0.8236565402697223,0.15961133746882286,-4.553913837980142,48.5
,,0.054317874035111145,0.010525926887399034,0.0011034372519401765,0.06594723817445036,7.042684405641223,0.8236565402697223,0.15961133746882286,-4.553913837980142,48.6
,,0.054317874035111145,0.010525926887399034,0.0011034372519401765,0.06594723817445036,6.987514468667205,0.8236565402697223,0.15961133746882286,-4.553913837980142,48.7
,,0.05431837325306854,0.01052591741723533,0.001103436186948601,0.06594772685725246,6.933582619349794,0.8236580067519794,0.15961001112319256,-4.553914737679338,48.8
,,0.053957960763978366,0.010528524908236631,0.0008893886122497256,0.06537587428446473,6.879206894590207,0.8253497387919506,0.16104602842364624,-4.5536670473369085,48.9
,,0.048098405192831054,0.007309008991102023,0.000948193882546073,0.05635560806647915,6.8456960998477125,0.853480369444198,0.12969443932678443,-4.91864758334344,49.0
,,0.048098405192831054,0.007309008991102023,0.000948193882546073,0.05635560806647915,6.81218530510522,0.853480369444198,0.12969443932678443,-4.91864758334344,49.1
,,0.048098405192831054,0.007309008991102023,0.000948193882546073,0.05635560806647915,6.778674510362725,0.853480369444198,0.12969443932678443,-4.91864758334344,49.2
,,0.048098405192831054,0.007309008991102023,0.000948193882546073,0.05635560806647915,6.745163715620231,0.853480369444198,0.12969443932678443,-4.91864758334344,49.3
,,0.048098405192831054,0.007309008991102023,0.000948193882546073,0.05635560806647915,6.763388504516011,0.853480369444198,0.12969443932678443,-4.91864758334344,49.4
,,0.0542309096418987,0.01122870627229528,0.0011599912594077275,0.06661960717360171,6.759725361503298,0.8140382680519305,0.16854957194561032,-4.489281719691356,49.5
,,0.0542309096418987,0.01122870627229528,0.0011599912594077275,0.06661960717360171,6.733857324978341,0.8140382680519305,0.16854957194561032,-4.489281719691356,49.6
,,0.05491655345863267,0.012024656380387513,0.0011394731599001688,0.06808068299892035,6.704705899434546,0.806639285030433,0.17662361555007025,-4.420796038834148,49.7
,,0.05491655345863267,0.012024656380387513,0.0011394731599001688,0.06808068299892035,6.675554473890753,0.806639285030433,0.17662361555007025,-4.420796038834148,49.8
,,0.05491655345863267,0.012024656380387513,0.0011394731599001688,0.06808068299892035,6.6219162872372905,0.806639285030433,0.17662361555007025,-4.420796038834148,49.9
,,0.05496979227359075,0.012061869399309007,0.0011717412090390558,0.06820340288193881,6.568157148270227,0.8059684700592483,0.1768514310083369,-4.417706091461055,50.0
,,0.05496979227359075,0.012061869399309007,0.0011717412090390558,0.06820340288193881,6.514398009303163,0.8059684700592483,0.1768514310083369,-4.417706091461055,50.1
,,0.05496979227359075,0.012061869399309007,0.0011717412090390558,0.06820340288193881,6.4606388703360995,0.8059684700592483,0.1768514310083369,-4.417706091461055,50.2
,,0.05496979227359075,0.012061869399309007,0.0011717412090390558,0.06820340288193881,6.409992921951149,0.8059684700592483,0.1768514310083369,-4.417706091461055,50.3
,,0.05587340114548307,0.013010570974898151,0.0011413313471840302,0.07002530346756525,6.356989144323284,0.7979030204612089,0.18579813768210898,-4.341993100034263,50.4
,,0.056121232614761,0.013073274014331674,0.0011682601946679614,0.07036276682376064,6.303964862704243,0.7975984337757672,0.18579817998170292,-4.337185284296853,50.5
,,0.056121232614761,0.013073274014331674,0.0011682601946679614,0.07036276682376064,6.250940581085201,0.7975984337757672,0.18579817998170292,-4.337185284296853,50.6
,,0.056121232614761,0.013073274014331674,0.0011682601946679614,0.07036276682376064,6.19791629946616,0.7975984337757672,0.18579817998170292,-4.337185284296853,50.7
,,0.056121232614761,0.013073274014331674,0.0011682601946679614,0.07036276682376064,6.144892017847118,0.7975984337757672,0.18579817998170292,-4.337185284296853,50.8
,,0.056121232614761,0.013073274014331674,0.0011682601946679614,0.07036276682376064,6.091867736228076,0.7975984337757672,0.18579817998170292,-4.337185284296853,50.9
,,0.057451943094354446,0.014089790260528678,0.001158541732199946,0.07270027508708307,6.040513221289027,0.7902575750303061,0.1938065604793298,-4.262304838879383,51.0
,,0.057451943094354446,0.014089790260528678,0.001158541732199946,0.07270027508708307,5.989158706349977,0.7902575750303061,0.1938065604793298,-4.262304838879383,51.1
,,0.057451943094354446,0.014089790260528678,0.001158541732199946,0.07270027508708307,5.937804191410928,0.7902575750303061,0.1938065604793298,-4.262304838879383,51.2
,,0.057451943094354446,0.014089790260528678,0.001158541732199946,0.07270027508708307,5.886449676471878,0.7902575750303061,0.1938065604793298,-4.262304838879383,51.3
,,0.057451943094354446,0.014089790260528678,0.001158541732199946,0.07270027508708307,5.83509516153283,0.7902575750303061,0.1938065604793298,-4.262304838879383,51.4
,,0.05808155796601437,0.014194888877641205,0.0011926136811517573,0.07346906052480734,5.784954718331127,0.7905580601020852,0.19320907027044673,-4.254873317362503,51.5
,,0.05808155796601437,0.014194888877641205,0.0011926136811517573,0.07346906052480734,5.734814275129423,0.7905580601020852,0.19320907027044673,-4.254873317362503,51.6
,,0.058944049226006615,0.015210947904095546,0.0011338470597622471,0.07528884418986441,5.6852338382407135,0.7829054869983224,0.20203455196810266,-4.185739853541997,51.7
,,0.058944049226006615,0.015210947904095546,0.0011338470597622471,0.07528884418986441,5.635653401352004,0.7829054869983224,0.20203455196810266,-4.185739853541997,51.8
,,0.058944049226006615,0.015210947904095546,0.0011338470597622471,0.07528884418986441,5.586072964463293,0.7829054869983224,0.20203455196810266,-4.185739853541997,51.9
,,0.058944049226006615,0.015210947904095546,0.0011338470597622471,0.07528884418986441,5.563439178666053,0.7829054869983224,0.20203455196810266,-4.185739853541997,52.0
,,0.05976260370021084,0.015322755700420543,0.001165051231330341,0.07625041063196172,5.541119702610463,0.7837676309530623,0.20095309092011285,-4.178416254838878,52.1
,,0.05976260370021084,0.015322755700420543,0.001165051231330341,0.07625041063196172,5.518800226554873,0.7837676309530623,0.20095309092011285,-4.178416254838878,52.2
,,0.05976260370021084,0.015322755700420543,0.001165051231330341,0.07625041063196172,5.4739841683414365,0.7837676309530623,0.20095309092011285,-4.178416254838878,52.3
,,0.05976260370021084,0.015322755700420543,0.001165051231330341,0.07625041063196172,5.429168110127999,0.7837676309530623,0.20095309092011285,-4.178416254838878,52.4
,,0.06035517635138912,0.01628110995238068,0.0011015173447271257,0.07773780364849693,5.3819372517707125,0.776394154693308,0.20943619691132703,-4.117749741838656,52.5
,,0.05078265529381721,0.007006447856333674,0.0007831700175023181,0.058572273167653205,5.380005824591647,0.8670084418349355,0.11962055555328892,-4.960924431566284,52.6
,,0.05078265529381721,0.007006447856333674,0.0007831700175023181,0.058572273167653205,5.378074397412582,0.8670084418349355,0.11962055555328892,-4.960924431566284,52.7
,,0.05078265529381721,0.007006447856333674,0.0007831700175023181,0.058572273167653205,5.376142970233517,0.8670084418349355,0.11962055555328892,-4.960924431566284,52.8
,,0.05078265529381721,0.007006447856333674,0.0007831700175023181,0.058572273167653205,5.374211543054452,0.8670084418349355,0.11962055555328892,-4.960924431566284,52.9
,,0.05078265529381721,0.007006447856333674,0.0007831700175023181,0.058572273167653205,5.375749489033103,0.8670084418349355,0.11962055555328892,-4.960924431566284,53.0
,,0.05078265529381721,0.007006447856333674,0.0007831700175023181,0.058572273167653205,5.377287435011754,0.8670084418349355,0.11962055555328892,-4.960924431566284,53.1
,,0.05949629753882878,0.016691472515826592,0.0010333452390947479,0.07722111529375011,5.333844008469571,0.7704666957023878,0.21615166334145805,-4.092857317769012,53.2
,,0.05870161343903659,0.016264436133015776,0.001032109406549221,0.07599815897860158,5.290959681708191,0.772408361307343,0.2140109227855805,-4.118774387163701,53.3
,,0.05870161343903659,0.016264436133015776,0.001032109406549221,0.07599815897860158,5.2480753549468115,0.772408361307343,0.2140109227855805,-4.118774387163701,53.4
,,0.05870161343903659,0.016264436133015776,0.001032109406549221,0.07599815897860158,5.20519102818543,0.772408361307343,0.2140109227855805,-4.118774387163701,53.5
,,0.05870161343903659,0.016264436133015776,0.001032109406549221,0.07599815897860158,5.165834547475596,0.772408361307343,0.2140109227855805,-4.118774387163701,53.6
,,0.05870161343903659,0.016264436133015776,0.001032109406549221,0.07599815897860158,5.127590045350876,0.772408361307343,0.2140109227855805,-4.118774387163701,53.7
,,0.05870161343903659,0.016264436133015776,0.001032109406549221,0.07599815897860158,5.089345543226155,0.772408361307343,0.2140109227855805,-4.118774387163701,53.8
,,0.05782261678706006,0.01645136805752551,0.0009853362927774456,0.07525932113736301,5.049920537852623,0.7683116976503476,0.21859575410597365,-4.107346640637522,53.9
,,0.05782261678706006,0.01645136805752551,0.0009853362927774456,0.07525932113736301,5.010495532479092,0.7683116976503476,0.21859575410597365,-4.107346640637522,54.0
,,0.05782261678706006,0.01645136805752551,0.0009853362927774456,0.07525932113736301,4.971070527105558,0.7683116976503476,0.21859575410597365,-4.107346640637522,54.1
,,0.05782261678706006,0.01645136805752551,0.0009853362927774456,0.07525932113736301,4.931645521732026,0.7683116976503476,0.21859575410597365,-4.107346640637522,54.2
,,0.05782261678706006,0.01645136805752551,0.0009853362927774456,0.07525932113736301,4.896912640152117,0.7683116976503476,0.21859575410597365,-4.107346640637522,54.3
,,0.05782261678706006,0.01645136805752551,0.0009853362927774456,0.07525932113736301,4.862179758572206,0.7683116976503476,0.21859575410597365,-4.107346640637522,54.4
,,0.057728496366914614,0.017065158792209285,0.000955308882339053,0.07574896404146295,4.825797721680646,0.7621027838125362,0.22528570533147194,-4.070716391527041,54.5
,,0.0576153975225933,0.01673498043025291,0.0009705952201200315,0.07532097317296625,4.790165489782649,0.7649316663804374,0.22218221200916888,-4.090254113709856,54.6
,,0.0576153975225933,0.01673498043025291,0.0009705952201200315,0.07532097317296625,4.754533257884653,0.7649316663804374,0.22218221200916888,-4.090254113709856,54.7
,,0.0576153975225933,0.01673498043025291,0.0009705952201200315,0.07532097317296625,4.729194250572774,0.7649316663804374,0.22218221200916888,-4.090254113709856,54.8
,,0.0576153975225933,0.01673498043025291,0.0009705952201200315,0.07532097317296625,4.700450124817833,0.7649316663804374,0.22218221200916888,-4.090254113709856,54.9
,,0.0576153975225933,0.01673498043025291,0.0009705952201200315,0.07532097317296625,4.671705999062894,0.7649316663804374,0.22218221200916888,-4.090254113709856,55.0
,,0.051401765995728585,0.007640195781254264,0.0006754546227735951,0.059717416399756446,4.684024311728392,0.8607499971472011,0.12793915480384754,-4.874332050313423,55.1
,,0.05165344055088416,0.007618162912068691,0.0007102434350078482,0.0599818468979607,4.696998798757929,0.8611512186137821,0.127007808296208,-4.87722002600491,55.2
,,0.05165344055088416,0.007618162912068691,0.0007102434350078482,0.0599818468979607,4.710830801483658,0.8611512186137821,0.127007808296208,-4.87722002600491,55.3
,,0.05165344055088416,0.007618162912068691,0.0007102434350078482,0.0599818468979607,4.724662804209388,0.8611512186137821,0.127007808296208,-4.87722002600491,55.4
,,0.05165344055088416,0.007618162912068691,0.0007102434350078482,0.0599818468979607,4.738494806935117,0.8611512186137821,0.127007808296208,-4.87722002600491,55.5
,,0.05165344055088416,0.007618162912068691,0.0007102434350078482,0.0599818468979607,4.74853430410542,0.8611512186137821,0.127007808296208,-4.87722002600491,55.6
,,0.05165344055088416,0.007618162912068691,0.0007102434350078482,0.0599818468979607,4.758573801275722,0.8611512186137821,0.127007808296208,-4.87722002600491,55.7
,,0.05836571131042976,0.017783133170054942,0.0009927137775769673,0.07714155825806167,4.7248855631717825,0.7566052932866476,0.23052597810592604,-4.029504845632843,55.8
,,0.058773907341457744,0.017553713172790406,0.0007816427276118392,0.07710926324186,4.718183331658039,0.7622159111689111,0.22764726875591634,-4.042489774652302,55.9
,,0.058773907341457744,0.017553713172790406,0.0007816427276118392,0.07710926324186,4.691411528114179,0.7622159111689111,0.22764726875591634,-4.042489774652302,56.0
,,0.058773907341457744,0.017553713172790406,0.0007816427276118392,0.07710926324186,4.6847092966004364,0.7622159111689111,0.22764726875591634,-4.042489774652302,56.1
,,0.058773907341457744,0.017553713172790406,0.0007816427276118392,0.07710926324186,4.678007065086693,0.7622159111689111,0.22764726875591634,-4.042489774652302,56.2
,,0.058773907341457744,0.017553713172790406,0.0007816427276118392,0.07710926324186,4.654803278411616,0.7622159111689111,0.22764726875591634,-4.042489774652302,56.3
,,0.05937324928726511,0.01830986598091639,0.0010485020122660777,0.07873161728044759,4.630832065277968,0.7541220584326802,0.23256052159700155,-4.000315239769999,56.4
,,0.05937324928726511,0.01830986598091639,0.0010485020122660777,0.07873161728044759,4.60686085214432,0.7541220584326802,0.23256052159700155,-4.000315239769999,56.5
,,0.05937324928726511,0.01830986598091639,0.0010485020122660777,0.07873161728044759,4.582889639010671,0.7541220584326802,0.23256052159700155,-4.000315239769999,56.6
,,0.05410514778442507,0.008180790531014328,0.0005354074908069583,0.06282134580624636,4.60105580649222,0.8612541977578164,0.13022310213228364,-4.80596649110372,56.7
,,0.05410514778442507,0.008180790531014328,0.0005354074908069583,0.06282134580624636,4.619221323095012,0.8612541977578164,0.13022310213228364,-4.80596649110372,56.8
,,0.05410514778442507,0.008180790531014328,0.0005354074908069583,0.06282134580624636,4.63783071513998,0.8612541977578164,0.13022310213228364,-4.80596649110372,56.9
,,0.05410514778442507,0.008180790531014328,0.0005354074908069583,0.06282134580624636,4.6382429745831715,0.8612541977578164,0.13022310213228364,-4.80596649110372,57.0
,,0.05511865334784764,0.008607668685678568,0.0007815111680327526,0.06450783320155896,4.636027154770705,0.8544489965369909,0.13343602254912737,-4.7551017654207,57.1
,,0.05511865334784764,0.008607668685678568,0.0007815111680327526,0.06450783320155896,4.633811334958239,0.8544489965369909,0.13343602254912737,-4.7551017654207,57.2
,,0.05511865334784764,0.008607668685678568,0.0007815111680327526,0.06450783320155896,4.631595515145772,0.8544489965369909,0.13343602254912737,-4.7551017654207,57.3
,,0.058152389071832934,0.017773205215486,0.0008588915574278631,0.0767844858447468,4.59023566655272,0.7573455553171673,0.23146870126111488,-4.03006328079674,57.4
,,0.058152389071832934,0.017773205215486,0.0008588915574278631,0.0767844858447468,4.570763749868164,0.7573455553171673,0.23146870126111488,-4.03006328079674,57.5
,,0.058152389071832934,0.017773205215486,0.0008588915574278631,0.0767844858447468,4.551291833183608,0.7573455553171673,0.23146870126111488,-4.03006328079674,57.6
,,0.058152389071832934,0.017773205215486,0.0008588915574278631,0.0767844858447468,4.535103305517888,0.7573455553171673,0.23146870126111488,-4.03006328079674,57.7
,,0.05583528407477889,0.008877874931165926,0.0008314201825540137,0.06554457918849883,4.556631638515443,0.8518673056730275,0.13544788968183252,-4.7241930601705455,57.8
,,0.05583528407477889,0.008877874931165926,0.0008314201825540137,0.06554457918849883,4.5781599715129975,0.8518673056730275,0.13544788968183252,-4.7241930601705455,57.9
,,0.05583528407477889,0.008877874931165926,0.0008314201825540137,0.06554457918849883,4.599809256824154,0.8518673056730275,0.13544788968183252,-4.7241930601705455,58.0
,,0.05625292749687742,0.017419035494242313,0.0008965278274637683,0.07456849081858351,4.583210187561884,0.7543793213374034,0.23359780120293444,-4.0501916768149515,58.1
,,0.05625292749687742,0.017419035494242313,0.0008965278274637683,0.07456849081858351,4.566611118299612,0.7543793213374034,0.23359780120293444,-4.0501916768149515,58.2
,,0.05625292749687742,0.017419035494242313,0.0008965278274637683,0.07456849081858351,4.550012049037341,0.7543793213374034,0.23359780120293444,-4.0501916768149515,58.3
,,0.05625292749687742,0.017419035494242313,0.0008965278274637683,0.07456849081858351,4.536698699611636,0.7543793213374034,0.23359780120293444,-4.0501916768149515,58.4
,,0.05432111399137701,0.008825990192473801,0.0008575429780394345,0.06400464716189025,4.559971885681543,0.8487057799721921,0.1378960838601261,-4.730054479343896,58.5
,,0.05432111399137701,0.008825990192473801,0.0008575429780394345,0.06400464716189025,4.583245071751452,0.8487057799721921,0.1378960838601261,-4.730054479343896,58.6
,,0.05432111399137701,0.008825990192473801,0.0008575429780394345,0.06400464716189025,4.606518257821359,0.8487057799721921,0.1378960838601261,-4.730054479343896,58.7
,,0.0542700905489779,0.017058799943934798,0.000940889122231005,0.07226977961514369,4.592624919935024,0.750937540393522,0.23604333699061442,-4.071089082655715,58.8
,,0.0542700905489779,0.017058799943934798,0.000940889122231005,0.07226977961514369,4.578731582048688,0.750937540393522,0.23604333699061442,-4.071089082655715,58.9
,,0.0542700905489779,0.017058799943934798,0.000940889122231005,0.07226977961514369,4.567529033314675,0.750937540393522,0.23604333699061442,-4.071089082655715,59.0
,,0.0542700905489779,0.017058799943934798,0.000940889122231005,0.07226977961514369,4.556326484580662,0.750937540393522,0.23604333699061442,-4.071089082655715,59.1
,,0.0542700905489779,0.017058799943934798,0.000940889122231005,0.07226977961514369,4.545123935846648,0.750937540393522,0.23604333699061442,-4.071089082655715,59.2
,,0.05304096813281715,0.017196753617609875,0.0012265960237967232,0.07146431777422375,4.532708947545188,0.7422021196702494,0.2406341255777372,-4.063034656139179,59.3
,,0.05304096813281715,0.017196753617609875,0.0012265960237967232,0.07146431777422375,4.520293959243727,0.7422021196702494,0.2406341255777372,-4.063034656139179,59.4
,,0.05241709096153754,0.016770655134485595,0.0009857712262849505,0.07017351732230807,4.508216471992623,0.746963996699567,0.2389883787278,-4.088124638049272,59.5
,,0.05241709096153754,0.016770655134485595,0.0009857712262849505,0.07017351732230807,4.496138984741519,0.746963996699567,0.2389883787278,-4.088124638049272,59.6
,,0.05241709096153754,0.016770655134485595,0.0009857712262849505,0.07017351732230807,4.486769202807706,0.746963996699567,0.2389883787278,-4.088124638049272,59.7
,,0.05241709096153754,0.016770655134485595,0.0009857712262849505,0.07017351732230807,4.477399420873894,0.746963996699567,0.2389883787278,-4.088124638049272,59.8
,,0.05241709096153754,0.016770655134485595,0.0009857712262849505,0.07017351732230807,4.468029638940082,0.746963996699567,0.2389883787278,-4.088124638049272,59.9
,,0.05148165200254718,0.016975634655362996,0.0012727138421289865,0.06973000050003916,4.457499291087517,0.7382998943549164,0.24344807878430264,-4.075976218586028,60.0
,,0.05148165200254718,0.016975634655362996,0.0012727138421289865,0.06973000050003916,4.446654633493303,0.7382998943549164,0.24344807878430264,-4.075976218586028,60.1
,,0.050842760429464395,0.016620525658067736,0.0012512603315431498,0.06871454641907528,4.436139417985741,0.7399126251868899,0.24187783408628963,-4.097116862012408,60.2
,,0.050842760429464395,0.016620525658067736,0.0012512603315431498,0.06871454641907528,4.425624202478181,0.7399126251868899,0.24187783408628963,-4.097116862012408,60.3
,,0.050842760429464395,0.016620525658067736,0.0012512603315431498,0.06871454641907528,4.41510898697062,0.7399126251868899,0.24187783408628963,-4.097116862012408,60.4
,,0.050842760429464395,0.016620525658067736,0.0012512603315431498,0.06871454641907528,4.407008571606909,0.7399126251868899,0.24187783408628963,-4.097116862012408,60.5
,,0.050842760429464395,0.016620525658067736,0.0012512603315431498,0.06871454641907528,4.354646642659157,0.7399126251868899,0.24187783408628963,-4.097116862012408,60.6
,,0.050195585265517415,0.016908445292230536,0.0013141001685536445,0.0684181307263016,4.301155151520054,0.733659115393239,0.24713398499398812,-4.079942060438524,60.7
,,0.050195585265517415,0.016908445292230536,0.0013141001685536445,0.0684181307263016,4.247663660380949,0.733659115393239,0.24713398499398812,-4.079942060438524,60.8
,,0.04962762838490391,0.016620811931360946,0.0012860025865622149,0.06753444290282706,4.19438720950021,0.7348491562492246,0.24610867013852544,-4.097099638078958,60.9
,,0.04962762838490391,0.016620811931360946,0.0012860025865622149,0.06753444290282706,4.14111075861947,0.7348491562492246,0.24610867013852544,-4.097099638078958,61.0
,,0.04962762838490391,0.016620811931360946,0.0012860025865622149,0.06753444290282706,4.08783430773873,0.7348491562492246,0.24610867013852544,-4.097099638078958,61.1
,,0.04962762838490391,0.016620811931360946,0.0012860025865622149,0.06753444290282706,4.080601808003049,0.7348491562492246,0.24610867013852544,-4.097099638078958,61.2
,,0.049266378504878895,0.016949148682185475,0.0013397922424304085,0.06755531942949478,4.071820762319038,0.7292745992607816,0.25089288046183744,-4.077537671656803,61.3
,,0.049266378504878895,0.016949148682185475,0.0013397922424304085,0.06755531942949478,4.063039716635028,0.7292745992607816,0.25089288046183744,-4.077537671656803,61.4
,,0.049266378504878895,0.016949148682185475,0.0013397922424304085,0.06755531942949478,4.054258670951017,0.7292745992607816,0.25089288046183744,-4.077537671656803,61.5
,,0.04881317005403338,0.01673425149956952,0.0013061730872024257,0.06685359464080531,4.045605683610241,0.7301502681538589,0.2503119179975322,-4.090297671965692,61.6
,,0.04881317005403338,0.01673425149956952,0.0013061730872024257,0.06685359464080531,4.036952696269465,0.7301502681538589,0.2503119179975322,-4.090297671965692,61.7
,,0.04881317005403338,0.01673425149956952,0.0013061730872024257,0.06685359464080531,4.028299708928687,0.7301502681538589,0.2503119179975322,-4.090297671965692,61.8
,,0.04881317005403338,0.01673425149956952,0.0013061730872024257,0.06685359464080531,4.020827224836724,0.7301502681538589,0.2503119179975322,-4.090297671965692,61.9
,,0.04865119278395924,0.01712796544002114,0.0013531472844348419,0.06713230550841522,4.01239839121184,0.7247061219707505,0.25513745297894025,-4.067042745444272,62.0
,,0.04865119278395924,0.01712796544002114,0.0013531472844348419,0.06713230550841522,4.003969557586958,0.7247061219707505,0.25513745297894025,-4.067042745444272,62.1
,,0.04836768434028167,0.01696990295698783,0.001314891455831361,0.06665247875310086,3.9956626020315062,0.725669701189192,0.2546027285774176,-4.076313918256311,62.2
,,0.04836768434028167,0.01696990295698783,0.001314891455831361,0.06665247875310086,3.987355646476055,0.725669701189192,0.2546027285774176,-4.076313918256311,62.3
,,0.04836768434028167,0.01696990295698783,0.001314891455831361,0.06665247875310086,3.979048690920604,0.725669701189192,0.2546027285774176,-4.076313918256311,62.4
,,0.04836768434028167,0.01696990295698783,0.001314891455831361,0.06665247875310086,3.9723908906768046,0.725669701189192,0.2546027285774176,-4.076313918256311,62.5
,,0.04836768434028167,0.01696990295698783,0.001314891455831361,0.06665247875310086,3.96498328543944,0.725669701189192,0.2546027285774176,-4.076313918256311,62.6
,,0.048391103600406396,0.017472018006045163,0.001355976222753509,0.06721909782920506,3.9565685619683366,0.719901116842744,0.2599263984535954,-4.047154648854402,62.7
,,0.048391103600406396,0.017472018006045163,0.001355976222753509,0.06721909782920506,3.9481538384972326,0.719901116842744,0.2599263984535954,-4.047154648854402,62.8
,,0.048314018287912035,0.017355554088768335,0.0013097809519549708,0.06697935332863533,3.9399159151788736,0.7213270341810929,0.25911797033352973,-4.053842703426763,62.9
,,0.048314018287912035,0.017355554088768335,0.0013097809519549708,0.06697935332863533,3.931677991860515,0.7213270341810929,0.25911797033352973,-4.053842703426763,63.0
,,0.048314018287912035,0.017355554088768335,0.0013097809519549708,0.06697935332863533,3.8823776301217165,0.7213270341810929,0.25911797033352973,-4.053842703426763,63.1
,,0.048314018287912035,0.017355554088768335,0.0013097809519549708,0.06697935332863533,3.832421094018882,0.7213270341810929,0.25911797033352973,-4.053842703426763,63.2
,,0.048314018287912035,0.017355554088768335,0.0013097809519549708,0.06697935332863533,3.782464557916048,0.7213270341810929,0.25911797033352973,-4.053842703426763,63.3
,,0.04852247274403454,0.01799368117881388,0.0013423070130608615,0.06785846093590928,3.7314187852637533,0.7150541299464908,0.2651648877773472,-4.017734628338362,63.4
,,0.048681866239585536,0.017910068293306394,0.00128879953636752,0.06788073406925946,3.68064162361365,0.7171676456815405,0.26384611979936096,-4.022392249778518,63.5
,,0.048681866239585536,0.017910068293306394,0.00128879953636752,0.06788073406925946,3.629864461963545,0.7171676456815405,0.26384611979936096,-4.022392249778518,63.6
,,0.048681866239585536,0.017910068293306394,0.00128879953636752,0.06788073406925946,3.5790873003134407,0.7171676456815405,0.26384611979936096,-4.022392249778518,63.7
,,0.048681866239585536,0.017910068293306394,0.00128879953636752,0.06788073406925946,3.5720378739375795,0.7171676456815405,0.26384611979936096,-4.022392249778518,63.8
,,0.048681866239585536,0.017910068293306394,0.00128879953636752,0.06788073406925946,3.564161577348812,0.7171676456815405,0.26384611979936096,-4.022392249778518,63.9
,,0.048681866239585536,0.017910068293306394,0.00128879953636752,0.06788073406925946,3.5562852807600445,0.7171676456815405,0.26384611979936096,-4.022392249778518,64.0
,,0.049014888952668687,0.018657875820689517,0.0013080110650052173,0.06898077583836343,3.54727031341537,0.7105586789502187,0.27047935593546923,-3.981486926018656,64.1
,,0.04942362749800325,0.018602502001393677,0.0012475028384535977,0.06927363233785053,3.5386277472504055,0.71345511748196,0.26853654664257337,-3.984459191105514,64.2
,,0.04942362749800325,0.018602502001393677,0.0012475028384535977,0.06927363233785053,3.5299851810854412,0.71345511748196,0.26853654664257337,-3.984459191105514,64.3
,,0.04942362749800325,0.018602502001393677,0.0012475028384535977,0.06927363233785053,3.5226618717231615,0.71345511748196,0.26853654664257337,-3.984459191105514,64.4
,,0.04942362749800325,0.018602502001393677,0.0012475028384535977,0.06927363233785053,3.5153385623608826,0.71345511748196,0.26853654664257337,-3.984459191105514,64.5
,,0.04942362749800325,0.018602502001393677,0.0012475028384535977,0.06927363233785053,3.508015252998603,0.71345511748196,0.26853654664257337,-3.984459191105514,64.6
,,0.04942362749800325,0.018602502001393677,0.0012475028384535977,0.06927363233785053,3.4585545630211265,0.71345511748196,0.26853654664257337,-3.984459191105514,64.7
,,0.041237604165955476,0.010896768008729045,0.0009902975289128911,0.053124669703597416,3.423188393914655,0.7762420810526566,0.20511690838787755,-4.519289046676337,64.8
,,0.041237604165955476,0.010896768008729045,0.0009902975289128911,0.053124669703597416,3.3878222248081826,0.7762420810526566,0.20511690838787755,-4.519289046676337,64.9
,,0.041237604165955476,0.010896768008729045,0.0009902975289128911,0.053124669703597416,3.3524560557017105,0.7762420810526566,0.20511690838787755,-4.519289046676337,65.0
,,0.041237604165955476,0.010896768008729045,0.0009902975289128911,0.053124669703597416,3.3197179658508964,0.7762420810526566,0.20511690838787755,-4.519289046676337,65.1
,,0.041237604165955476,0.010896768008729045,0.0009902975289128911,0.053124669703597416,3.286979876000082,0.7762420810526566,0.20511690838787755,-4.519289046676337,65.2
,,0.041237604165955476,0.010896768008729045,0.0009902975289128911,0.053124669703597416,3.2542417861492665,0.7762420810526566,0.20511690838787755,-4.519289046676337,65.3
,,0.051294097894575966,0.01941720057476468,0.0009351803955055705,0.07164647886484621,3.246363911551314,0.7159332699564631,0.2710140244490347,-3.9415959781697105,65.4
,,0.05136462535808978,0.011565320933964998,0.0009557098882757966,0.06388565618033057,3.2609807738907817,0.8040087310538445,0.1810315746201224,-4.459744233232842,65.5
,,0.05136462535808978,0.011565320933964998,0.0009557098882757966,0.06388565618033057,3.2755976362302497,0.8040087310538445,0.1810315746201224,-4.459744233232842,65.6
,,0.05136462535808978,0.011565320933964998,0.0009557098882757966,0.06388565618033057,3.2902144985697177,0.8040087310538445,0.1810315746201224,-4.459744233232842,65.7
,,0.05136462535808978,0.011565320933964998,0.0009557098882757966,0.06388565618033057,3.267114500245909,0.8040087310538445,0.1810315746201224,-4.459744233232842,65.8
,,0.05136462535808978,0.011565320933964998,0.0009557098882757966,0.06388565618033057,3.244014501922101,0.8040087310538445,0.1810315746201224,-4.459744233232842,65.9
,,0.05136462535808978,0.011565320933964998,0.0009557098882757966,0.06388565618033057,3.220914503598293,0.8040087310538445,0.1810315746201224,-4.459744233232842,66.0
,,0.052668784121218684,0.020256814762833707,0.0008725845406116339,0.07379818342466403,3.2130477371110318,0.7136867288201608,0.27448934137400044,-3.8992640105456515,66.1
,,0.05297993692966503,0.02133108911105834,0.0010491282661518123,0.07536015430687518,3.2037265107723463,0.7030232012785518,0.28305527380153317,-3.847589687743404,66.2
,,0.05297993692966503,0.02133108911105834,0.0010491282661518123,0.07536015430687518,3.1944052844336617,0.7030232012785518,0.28305527380153317,-3.847589687743404,66.3
,,0.05297993692966503,0.02133108911105834,0.0010491282661518123,0.07536015430687518,3.1850840580949766,0.7030232012785518,0.28305527380153317,-3.847589687743404,66.4
,,0.05297993692966503,0.02133108911105834,0.0010491282661518123,0.07536015430687518,3.1391968002518533,0.7030232012785518,0.28305527380153317,-3.847589687743404,66.5
,,0.05297993692966503,0.02133108911105834,0.0010491282661518123,0.07536015430687518,3.0933095424087305,0.7030232012785518,0.28305527380153317,-3.847589687743404,66.6
,,0.043249217823013796,0.021235797798024526,0.0008023762700282906,0.06528739189106661,3.041833817534148,0.6624436444815567,0.3252664439936106,-3.852066945966218,66.7
,,0.043249217823013796,0.021235797798024526,0.0008023762700282906,0.06528739189106661,3.0275246166158083,0.6624436444815567,0.3252664439936106,-3.852066945966218,66.8
,,0.05440125009124442,0.012904998699338565,0.0008641031437903044,0.06817035193437329,3.04045165585531,0.7980192055281714,0.1893051500124576,-4.3501405465989675,66.9
,,0.05440125009124442,0.012904998699338565,0.0008641031437903044,0.06817035193437329,3.0533786950948114,0.7980192055281714,0.1893051500124576,-4.3501405465989675,67.0
,,0.05440125009124442,0.012904998699338565,0.0008641031437903044,0.06817035193437329,3.066305734334313,0.7980192055281714,0.1893051500124576,-4.3501405465989675,67.1
,,0.05440125009124442,0.012904998699338565,0.0008641031437903044,0.06817035193437329,3.079232773573815,0.7980192055281714,0.1893051500124576,-4.3501405465989675,67.2
,,0.05556723490406519,0.022239129231408975,0.0007316255821741974,0.07853798971764836,3.071911088696644,0.7075204637123353,0.2831639734014174,-3.8059019636302494,67.3
,,0.05556723490406519,0.022239129231408975,0.0007316255821741974,0.07853798971764836,3.0645894038194728,0.7075204637123353,0.2831639734014174,-3.8059019636302494,67.4
,,0.055689659121375856,0.02351016271989201,0.0008930410793508305,0.0800928629206187,3.0551297038236727,0.6953136283387792,0.29353630102089506,-3.7503224951486236,67.5
,,0.055689659121375856,0.02351016271989201,0.0008930410793508305,0.0800928629206187,3.0456700038278726,0.6953136283387792,0.29353630102089506,-3.7503224951486236,67.6
,,0.055689659121375856,0.02351016271989201,0.0008930410793508305,0.0800928629206187,3.036210303832073,0.6953136283387792,0.29353630102089506,-3.7503224951486236,67.7
,,0.055689659121375856,0.02351016271989201,0.0008930410793508305,0.0800928629206187,3.026750603836273,0.6953136283387792,0.29353630102089506,-3.7503224951486236,67.8
,,0.055689659121375856,0.02351016271989201,0.0008930410793508305,0.0800928629206187,3.0172909038404727,0.6953136283387792,0.29353630102089506,-3.7503224951486236,67.9
,,0.05693078336247657,0.023281825131937387,0.0006669281116229164,0.08087953660603688,3.0099485238599284,0.7038960131508374,0.28785804307142415,-3.760082260053748,68.0
,,0.05693078336247657,0.023281825131937387,0.0006669281116229164,0.08087953660603688,3.0026061438793845,0.7038960131508374,0.28785804307142415,-3.760082260053748,68.1
,,0.05689734455021499,0.01397993383832159,0.0007871648310402573,0.07166444321957684,3.015242331582083,0.7939410674814554,0.1950748964237071,-4.270132274782694,68.2
,,0.05689734455021499,0.01397993383832159,0.0007871648310402573,0.07166444321957684,3.0278785192847812,0.7939410674814554,0.1950748964237071,-4.270132274782694,68.3
,,0.05689734455021499,0.01397993383832159,0.0007871648310402573,0.07166444321957684,3.04051470698748,0.7939410674814554,0.1950748964237071,-4.270132274782694,68.4
,,0.05689734455021499,0.01397993383832159,0.0007871648310402573,0.07166444321957684,3.053150894690179,0.7939410674814554,0.1950748964237071,-4.270132274782694,68.5
,,0.0580958489056393,0.024279766940536907,0.000616946090192162,0.08299256193636836,3.0448225639215716,0.7000127186118469,0.2925535297868328,-3.718111911661583,68.6
,,0.0580958489056393,0.024279766940536907,0.000616946090192162,0.08299256193636836,3.0376237953443175,0.7000127186118469,0.2925535297868328,-3.718111911661583,68.7
,,0.0580958489056393,0.024279766940536907,0.000616946090192162,0.08299256193636836,3.030425026767063,0.7000127186118469,0.2925535297868328,-3.718111911661583,68.8
,,0.057974308379330125,0.025706633517911203,0.0007825494980641149,0.08446349139530544,3.0212919626746175,0.686383044574835,0.3043520116590871,-3.6610062068491303,68.9
,,0.057974308379330125,0.025706633517911203,0.0007825494980641149,0.08446349139530544,3.0121588985821717,0.686383044574835,0.3043520116590871,-3.6610062068491303,69.0
,,0.057974308379330125,0.025706633517911203,0.0007825494980641149,0.08446349139530544,3.003025834489726,0.686383044574835,0.3043520116590871,-3.6610062068491303,69.1
,,0.057974308379330125,0.025706633517911203,0.0007825494980641149,0.08446349139530544,2.9938927703972804,0.686383044574835,0.3043520116590871,-3.6610062068491303,69.2
,,0.05897691098175898,0.025323401032500255,0.0005833856038245423,0.08488369761808377,2.986670671200703,0.6947966763549004,0.29833055984951945,-3.6760263687478676,69.3
,,0.05897691098175898,0.025323401032500255,0.0005833856038245423,0.08488369761808377,2.9794485720041264,0.6947966763549004,0.29833055984951945,-3.6760263687478676,69.4
,,0.05875020555618417,0.026741892258391776,0.0007562013625792046,0.08624829917715515,2.9705763001141383,0.6811752361111547,0.31005703896216635,-3.6215239447263645,69.5
,,0.05875020555618417,0.026741892258391776,0.0007562013625792046,0.08624829917715515,2.9615759698809168,0.6811752361111547,0.31005703896216635,-3.6215239447263645,69.6
,,0.05875020555618417,0.026741892258391776,0.0007562013625792046,0.08624829917715515,2.952575639647695,0.6811752361111547,0.31005703896216635,-3.6215239447263645,69.7
,,0.05875020555618417,0.026741892258391776,0.0007562013625792046,0.08624829917715515,2.943575309414473,0.6811752361111547,0.31005703896216635,-3.6215239447263645,69.8
,,0.05960827878207515,0.02630373004009935,0.000567341680654568,0.08647935050282907,2.935440202118482,0.6892775955819087,0.3041619749357259,-3.6380445232351155,69.9
,,0.05960827878207515,0.02630373004009935,0.000567341680654568,0.08647935050282907,2.928261444355409,0.6892775955819087,0.3041619749357259,-3.6380445232351155,70.0
,,0.05960827878207515,0.02630373004009935,0.000567341680654568,0.08647935050282907,2.9210826865923356,0.6892775955819087,0.3041619749357259,-3.6380445232351155,70.1
,,0.0593169530304372,0.027823123634132533,0.0007493982139191328,0.08788947487848886,2.9121042627668685,0.6749039417114,0.31656946036597955,-3.5818878186268623,70.2
,,0.059316839850572935,0.027823083846045395,0.0007493881394892878,0.08788931183610761,2.903125826202678,0.6749039059628155,0.3165695949233138,-3.5818892486645573,70.3
,,0.059316839850572935,0.027823083846045395,0.0007493881394892878,0.08788931183610761,2.894147389638487,0.6749039059628155,0.3165695949233138,-3.5818892486645573,70.4
,,0.059316839850572935,0.027823083846045395,0.0007493881394892878,0.08788931183610761,2.885168953074296,0.6749039059628155,0.3165695949233138,-3.5818892486645573,70.5
,,0.05836054189837201,0.014822873039544816,0.0005954350059451884,0.07377884994386202,2.89875634150944,0.7910199459977795,0.20090951608521235,-4.211583815585603,70.6
,,0.05836054189837201,0.014822873039544816,0.0005954350059451884,0.07377884994386202,2.9133508481783226,0.7910199459977795,0.20090951608521235,-4.211583815585603,70.7
,,0.05836054189837201,0.014822873039544816,0.0005954350059451884,0.07377884994386202,2.927945354847205,0.7910199459977795,0.20090951608521235,-4.211583815585603,70.8
,,0.05970156332048303,0.028876556319202332,0.0007655834944308254,0.08934370313411619,2.918991563309629,0.6682235146540035,0.32320751554091026,-3.544725213092138,70.9
,,0.05970156332048303,0.028876556319202332,0.0007655834944308254,0.08934370313411619,2.9100377717720525,0.6682235146540035,0.32320751554091026,-3.544725213092138,71.0
,,0.05970156332048303,0.028876556319202332,0.0007655834944308254,0.08934370313411619,2.9010839802344757,0.6682235146540035,0.32320751554091026,-3.544725213092138,71.1
,,0.06023223838653681,0.028346660426133232,0.0005940396975458505,0.08917293851021589,2.8928473021265315,0.6754542285228881,0.3178841125986418,-3.5632460537670996,71.2
,,0.06023223838653681,0.028346660426133232,0.0005940396975458505,0.08917293851021589,2.884610624018587,0.6754542285228881,0.3178841125986418,-3.5632460537670996,71.3
,,0.06023223838653681,0.028346660426133232,0.0005940396975458505,0.08917293851021589,2.8774631824601022,0.6754542285228881,0.3178841125986418,-3.5632460537670996,71.4
,,0.06023223838653681,0.028346660426133232,0.0005940396975458505,0.08917293851021589,2.870047129899428,0.6754542285228881,0.3178841125986418,-3.5632460537670996,71.5
,,0.059815199498505986,0.029921261961894773,0.0008063953027272712,0.09054285676312804,2.861059109088113,0.6606285866922708,0.33046518556591065,-3.5091859488945074,71.6
