HRV_ULF,HRV_VLF,HRV_LF,HRV_HF,HRV_VHF,HRV_TP,HRV_LFHF,HRV_LFn,HRV_HFn,HRV_LnHF,time
,,0.01513786890944489,0.0015976307555383494,0.00019504598610498884,0.016930545651088227,9.475198732227662,0.8941158319059781,0.0943638077864112,-6.439233524959868,0.0
,,0.01639832782491507,0.0018266573742283523,0.00020496305407100737,0.01842994825321443,9.226215582891303,0.8897652668153847,0.09911353787495082,-6.305267553804529,0.1
,,0.01639832782491507,0.0018266573742283523,0.00020496305407100737,0.01842994825321443,9.143221199779182,0.8897652668153847,0.09911353787495082,-6.305267553804529,0.2
,,0.01639832782491507,0.0018266573742283523,0.00020496305407100737,0.01842994825321443,9.101724008223123,0.8897652668153847,0.09911353787495082,-6.305267553804529,0.3
,,0.01639832782491507,0.0018266573742283523,0.00020496305407100737,0.01842994825321443,9.076825693289486,0.8897652668153847,0.09911353787495082,-6.305267553804529,0.4
,,0.01639832782491507,0.0018266573742283523,0.00020496305407100737,0.01842994825321443,9.060226816667063,0.8897652668153847,0.09911353787495082,-6.305267553804529,0.5
,,0.01651798405414715,0.0019073265011639929,0.00020392195972643222,0.018629232515037578,9.003091744589314,0.8866701320526104,0.10238352544176968,-6.262052755081876,0.6
,,0.01767549632737031,0.002084742949517125,0.00021532379825733817,0.019975563075144774,8.937517970177977,0.8848559743161185,0.1043646650497243,-6.173109716934964,0.7
,,0.01767549632737031,0.002084742949517125,0.00021532379825733817,0.019975563075144774,8.886516145635825,0.8848559743161185,0.1043646650497243,-6.173109716934964,0.8
,,0.01767549632737031,0.002084742949517125,0.00021532379825733817,0.019975563075144774,8.845714686002106,0.8848559743161185,0.1043646650497243,-6.173109716934964,0.9
,,0.01767549632737031,0.002084742949517125,0.00021532379825733817,0.019975563075144774,8.812331673574516,0.8848559743161185,0.1043646650497243,-6.173109716934964,1.0
,,0.01767549632737031,0.002084742949517125,0.00021532379825733817,0.019975563075144774,8.784512496551523,0.8848559743161185,0.1043646650497243,-6.173109716934964,1.1
,,0.017727704258314707,0.0021750170554935217,0.00021413187911000918,0.020116853192918237,8.735750359176786,0.8812364482808581,0.10811914938362208,-6.130718772866018,1.2
,,0.01893736220283259,0.0023645616952695605,0.00022583055083353598,0.021527754448935687,8.683827161034797,0.8796719717215483,0.10983782358157018,-6.047162603909657,1.3
,,0.01893736220283259,0.0023645616952695605,0.00022583055083353598,0.021527754448935687,8.638827055978405,0.8796719717215483,0.10983782358157018,-6.047162603909657,1.4
,,0.01893736220283259,0.0023645616952695605,0.00022583055083353598,0.021527754448935687,8.599451964054065,0.8796719717215483,0.10983782358157018,-6.047162603909657,1.5
,,0.01893736220283259,0.0023645616952695605,0.00022583055083353598,0.021527754448935687,8.564709235885529,0.8796719717215483,0.10983782358157018,-6.047162603909657,1.6
,,0.01893736220283259,0.0023645616952695605,0.00022583055083353598,0.021527754448935687,8.53382681084683,0.8796719717215483,0.10983782358157018,-6.047162603909657,1.7
,,0.01348639047817811,0.002195863518926012,0.00015278679370959284,0.015835040790813715,8.407926730097628,0.8516801855036513,0.1386711627670631,-6.121179907117778,1.8
,,0.020140032368786465,0.0026524391374578046,0.00023608112289110188,0.023028552629135373,8.367181562291936,0.8745678763721174,0.1151804535948985,-5.9322756330898825,1.9
,,0.020140032368786465,0.0026524391374578046,0.00023608112289110188,0.023028552629135373,8.330316886658213,0.8745678763721174,0.1151804535948985,-5.9322756330898825,2.0
,,0.020140032368786465,0.0026524391374578046,0.00023608112289110188,0.023028552629135373,8.296803545173011,0.8745678763721174,0.1151804535948985,-5.9322756330898825,2.1
,,0.020140032368786465,0.0026524391374578046,0.00023608112289110188,0.023028552629135373,8.266204407295218,0.8745678763721174,0.1151804535948985,-5.9322756330898825,2.2
,,0.019964908445858673,0.002743182400880135,0.00023373707007960133,0.02294182791681841,8.225029632736517,0.8702405282720568,0.11957122208510408,-5.898636572379984,2.3
,,0.014808252096091053,0.00247389218521663,0.00017246288418428546,0.017454607165491968,8.135460904258949,0.8483864435154519,0.14173290534475927,-6.001962585097806,2.4
,,0.014808252096091053,0.00247389218521663,0.00017246288418428546,0.017454607165491968,8.052782077971965,0.8483864435154519,0.14173290534475927,-6.001962585097806,2.5
,,0.014808252096091053,0.00247389218521663,0.00017246288418428546,0.017454607165491968,7.976227609187721,0.8483864435154519,0.14173290534475927,-6.001962585097806,2.6
,,0.014808252096091053,0.00247389218521663,0.00017246288418428546,0.017454607165491968,7.905141316745208,0.8483864435154519,0.14173290534475927,-6.001962585097806,2.7
,,0.020957853922750486,0.0030247063538159633,0.0002432056536647589,0.024225765930231208,7.871477436224793,0.8651059365102379,0.12485493183278255,-5.800941265329922,2.8
,,0.020957853922750486,0.0030247063538159633,0.0002432056536647589,0.024225765930231208,7.840057814405739,0.8651059365102379,0.12485493183278255,-5.800941265329922,2.9
,,0.015477670407544008,0.0026632207535703,0.00018373902955050642,0.018324630190664815,7.774624862342446,0.8446375313717848,0.14533557981033823,-5.928219079014425,3.0
,,0.015477670407544008,0.0026632207535703,0.00018373902955050642,0.018324630190664815,7.713281469783108,0.8446375313717848,0.14533557981033823,-5.928219079014425,3.1
,,0.015477670407544008,0.0026632207535703,0.00018373902955050642,0.018324630190664815,7.655655858591003,0.8446375313717848,0.14533557981033823,-5.928219079014425,3.2
,,0.015477670407544008,0.0026632207535703,0.00018373902955050642,0.018324630190664815,7.601419989233726,0.8446375313717848,0.14533557981033823,-5.928219079014425,3.3
,,0.021790927148990075,0.003280497991943002,0.0002517534448796176,0.025323178585812695,7.574024184700112,0.8605131095666813,0.12954526939919384,-5.719760041298718,3.4
,,0.016162666242629523,0.0028538569190989928,0.0001962476191561227,0.01921277078088464,7.520952584903886,0.8412459830473928,0.14853958086765812,-5.8590838946463775,3.5
,,0.016162666242629523,0.0028538569190989928,0.0001962476191561227,0.01921277078088464,7.4707497202317805,0.8412459830473928,0.14853958086765812,-5.8590838946463775,3.6
,,0.016162666242629523,0.0028538569190989928,0.0001962476191561227,0.01921277078088464,7.4231891115950495,0.8412459830473928,0.14853958086765812,-5.8590838946463775,3.7
,,0.016162666242629523,0.0028538569190989928,0.0001962476191561227,0.01921277078088464,7.3780675085294325,0.8412459830473928,0.14853958086765812,-5.8590838946463775,3.8
,,0.01594393535467367,0.0029214225130957784,0.00019359599901388162,0.019058953866783333,7.330055648359133,0.8365587883845695,0.15328346631801992,-5.835684619307736,3.9
,,0.016836557976720026,0.003049973560659152,0.00020954566641229503,0.020096077203791474,7.2859135787908675,0.8378032093518987,0.1517695981026447,-5.792622357036733,4.0
,,0.016836557976720026,0.003049973560659152,0.00020954566641229503,0.020096077203791474,7.243873512535376,0.8378032093518987,0.1517695981026447,-5.792622357036733,4.1
,,0.016836557976720026,0.003049973560659152,0.00020954566641229503,0.020096077203791474,7.203788798198743,0.8378032093518987,0.1517695981026447,-5.792622357036733,4.2
,,0.016836557976720026,0.003049973560659152,0.00020954566641229503,0.020096077203791474,7.165526116331958,0.8378032093518987,0.1517695981026447,-5.792622357036733,4.3
,,0.016836557976720026,0.003049973560659152,0.00020954566641229503,0.020096077203791474,7.128963998103696,0.8378032093518987,0.1517695981026447,-5.792622357036733,4.4
,,0.023057890475772364,0.0037206942663593717,0.0002654525782756469,0.02704403732040738,7.10870828220026,0.8526053341293433,0.13757909820482842,-5.593844997368666,4.5
,,0.017554375011154217,0.0032445153832088426,0.00022370617918625695,0.021022596573549317,7.072575696181117,0.8350241108294479,0.15433466421988518,-5.7307892825954925,4.6
,,0.017554375011154217,0.0032445153832088426,0.00022370617918625695,0.021022596573549317,7.037948634579437,0.8350241108294479,0.15433466421988518,-5.7307892825954925,4.7
,,0.017554375011154217,0.0032445153832088426,0.00022370617918625695,0.021022596573549317,7.004734922430889,0.8350241108294479,0.15433466421988518,-5.7307892825954925,4.8
,,0.017554375011154217,0.0032445153832088426,0.00022370617918625695,0.021022596573549317,6.972849758768282,0.8350241108294479,0.15433466421988518,-5.7307892825954925,4.9
,,0.023455954321647626,0.0038862150393531997,0.00026987497180372985,0.027612044332804557,6.954473900988888,0.8494827126501721,0.1407434738447154,-5.550319592616799,5.0
,,0.018297284804071504,0.0034364250102654767,0.00023821957491242958,0.021971929389249408,6.923128471980361,0.8327573095617237,0.1564006942397547,-5.673323589184291,5.1
,,0.018297284804071504,0.0034364250102654767,0.00023821957491242958,0.021971929389249408,6.892965889349512,0.8327573095617237,0.1564006942397547,-5.673323589184291,5.2
,,0.018297284804071504,0.0034364250102654767,0.00023821957491242958,0.021971929389249408,6.8639204394086955,0.8327573095617237,0.1564006942397547,-5.673323589184291,5.3
,,0.018297284804071504,0.0034364250102654767,0.00023821957491242958,0.021971929389249408,6.835931187647544,0.8327573095617237,0.1564006942397547,-5.673323589184291,5.4
,,0.018297284804071504,0.0034364250102654767,0.00023821957491242958,0.021971929389249408,6.808941552020721,0.8327573095617237,0.1564006942397547,-5.673323589184291,5.5
,,0.024935439186168543,0.004144414076799538,0.00028665188418331144,0.029366505147151393,6.795041489552012,0.8491115664332747,0.14112724874929675,-5.485993857009216,5.6
,,0.024935439186168543,0.004144414076799538,0.00028665188418331144,0.029366505147151393,6.781620739582224,0.8491115664332747,0.14112724874929675,-5.485993857009216,5.7
,,0.024935439186168543,0.004144414076799538,0.00028665188418331144,0.029366505147151393,6.768654930289379,0.8491115664332747,0.14112724874929675,-5.485993857009216,5.8
,,0.024935439186168543,0.004144414076799538,0.00028665188418331144,0.029366505147151393,6.7561213146396275,0.8491115664332747,0.14112724874929675,-5.485993857009216,5.9
,,0.024935439186168543,0.004144414076799538,0.00028665188418331144,0.029366505147151393,6.743998637207901,0.8491115664332747,0.14112724874929675,-5.485993857009216,6.0
,,0.02007095621382635,0.0037296150288558196,0.00027398048922878937,0.02407455173191096,6.722022995171462,0.8337001011413301,0.15491939664704923,-5.591450260074904,6.1
,,0.025057070434658574,0.004202787857958861,0.00028878425155463394,0.02954864254417207,6.709959324019287,0.8479939610491726,0.142232857285276,-5.472007198189979,6.2
,,0.025057070434658574,0.004202787857958861,0.00028878425155463394,0.02954864254417207,6.698272642590618,0.8479939610491726,0.142232857285276,-5.472007198189979,6.3
,,0.025057070434658574,0.004202787857958861,0.00028878425155463394,0.02954864254417207,6.686945551359755,0.8479939610491726,0.142232857285276,-5.472007198189979,6.4
,,0.025057070434658574,0.004202787857958861,0.00028878425155463394,0.02954864254417207,6.675961705317705,0.8479939610491726,0.142232857285276,-5.472007198189979,6.5
,,0.025057070434658574,0.004202787857958861,0.00028878425155463394,0.02954864254417207,6.665305735276911,0.8479939610491726,0.142232857285276,-5.472007198189979,6.6
,,0.02498084096729981,0.004194809058288996,0.0002887272221503573,0.029464377247739162,6.6548627026048885,0.8478319686602784,0.1423688348482189,-5.473907456597327,6.7
,,0.02498084096729981,0.004194809058288996,0.0002887272221503573,0.029464377247739162,6.644722366532055,0.8478319686602784,0.1423688348482189,-5.473907456597327,6.8
,,0.02498084096729981,0.004194809058288996,0.0002887272221503573,0.029464377247739162,6.634871754347016,0.8478319686602784,0.1423688348482189,-5.473907456597327,6.9
,,0.02498084096729981,0.004194809058288996,0.0002887272221503573,0.029464377247739162,6.625298624195359,0.8478319686602784,0.1423688348482189,-5.473907456597327,7.0
,,0.02498084096729981,0.004194809058288996,0.0002887272221503573,0.029464377247739162,6.615991414325693,0.8478319686602784,0.1423688348482189,-5.473907456597327,7.1
,,0.02590624721854709,0.0042289640537971785,0.00029901727760347797,0.030434228549947744,6.609277950961241,0.8512207620452916,0.13895420568511305,-5.465798220457638,7.2
,,0.020668148296170807,0.0038681247449715806,0.0002835182517626599,0.024819791292905048,6.592168734119767,0.8327285291105158,0.15584839934078404,-5.55498545140141,7.3
,,0.020668148296170807,0.0038681247449715806,0.0002835182517626599,0.024819791292905048,6.575515763060734,0.8327285291105158,0.15584839934078404,-5.55498545140141,7.4
,,0.020668148296170807,0.0038681247449715806,0.0002835182517626599,0.024819791292905048,6.5593010280822,0.8327285291105158,0.15584839934078404,-5.55498545140141,7.5
,,0.020668148296170807,0.0038681247449715806,0.0002835182517626599,0.024819791292905048,6.543507455051162,0.8327285291105158,0.15584839934078404,-5.55498545140141,7.6
,,0.025751082225788827,0.004153595554565231,0.0002980514053341087,0.030202729185688164,6.5390997778705655,0.8526077914174461,0.13752384855781344,-5.483780921155812,7.7
,,0.025751082225788827,0.004153595554565231,0.0002980514053341087,0.030202729185688164,6.534803687454035,0.8526077914174461,0.13752384855781344,-5.483780921155812,7.8
,,0.020948216685987234,0.0038367784909952582,0.0002870589376362826,0.025072054114618776,6.521366706551331,0.8355205596725698,0.15303008175776653,-5.563122199121756,7.9
,,0.020948216685987234,0.0038367784909952582,0.0002870589376362826,0.025072054114618776,6.4711747875889545,0.8355205596725698,0.15303008175776653,-5.563122199121756,8.0
,,0.020948216685987234,0.0038367784909952582,0.0002870589376362826,0.025072054114618776,6.427207447359988,0.8355205596725698,0.15303008175776653,-5.563122199121756,8.1
,,0.025376990502772225,0.004006524755990528,0.00029367912187659956,0.029677194380639354,6.394165989589411,0.8551007274234632,0.13500348801854,-5.519831057808411,8.2
,,0.025376990502772225,0.004006524755990528,0.00029367912187659956,0.029677194380639354,6.3611245318188345,0.8551007274234632,0.13500348801854,-5.519831057808411,8.3
,,0.025376990502772225,0.004006524755990528,0.00029367912187659956,0.029677194380639354,6.328083074048257,0.8551007274234632,0.13500348801854,-5.519831057808411,8.4
,,0.021010842808648414,0.0037268501233024484,0.00028595322838922103,0.025023646160340085,6.286338851107009,0.8396395422961361,0.1489331370585444,-5.592191873057375,8.5
,,0.021010842808648414,0.0037268501233024484,0.00028595322838922103,0.025023646160340085,6.248556517183661,0.8396395422961361,0.1489331370585444,-5.592191873057375,8.6
,,0.021010842808648414,0.0037268501233024484,0.00028595322838922103,0.025023646160340085,6.213046430295616,0.8396395422961361,0.1489331370585444,-5.592191873057375,8.7
,,0.02143555377469355,0.0036448655601237444,0.00030131814666698717,0.025381737481484277,6.180578001873392,0.8445266519020052,0.14360189340003368,-5.614435797569695,8.8
,,0.02143555377469355,0.0036448655601237444,0.00030131814666698717,0.025381737481484277,6.148109573451167,0.8445266519020052,0.14360189340003368,-5.614435797569695,8.9
,,0.02143555377469355,0.0036448655601237444,0.00030131814666698717,0.025381737481484277,6.115641145028943,0.8445266519020052,0.14360189340003368,-5.614435797569695,9.0
,,0.02067985245964809,0.0035175564836948153,0.0002779390444929156,0.024475347987835818,6.083147865676185,0.8449257787846742,0.14371834408413853,-5.649988711195683,9.1
,,0.02067985245964809,0.0035175564836948153,0.0002779390444929156,0.024475347987835818,6.054753296806162,0.8449257787846742,0.14371834408413853,-5.649988711195683,9.2
,,0.024152518934480678,0.003557518449083891,0.00027725178290509823,0.027987289166469666,6.039507325835015,0.86298171969498,0.12711193384695496,-5.638692042044946,9.3
,,0.024152518934480678,0.003557518449083891,0.00027725178290509823,0.027987289166469666,6.024261354863869,0.86298171969498,0.12711193384695496,-5.638692042044946,9.4
,,0.024152518934480678,0.003557518449083891,0.00027725178290509823,0.027987289166469666,6.009015383892722,0.86298171969498,0.12711193384695496,-5.638692042044946,9.5
,,0.020070440079814955,0.003248934357099514,0.0002650424422583315,0.0235844168791728,5.9861243838371125,0.8510042958721185,0.137757671675513,-5.729428226531438,9.6
,,0.020070440079814955,0.003248934357099514,0.0002650424422583315,0.0235844168791728,5.963233383781503,0.8510042958721185,0.137757671675513,-5.729428226531438,9.7
,,0.020070440079814955,0.003248934357099514,0.0002650424422583315,0.0235844168791728,5.963681137583104,0.8510042958721185,0.137757671675513,-5.729428226531438,9.8
,,0.020158290742098975,0.003106543945046116,0.00027415173297206546,0.023538986420117154,5.949880552006272,0.8563788764018773,0.13197441425902545,-5.7742444424005575,9.9
,,0.020158290742098975,0.003106543945046116,0.00027415173297206546,0.023538986420117154,5.93607996642944,0.8563788764018773,0.13197441425902545,-5.7742444424005575,10.0
,,0.020158290742098975,0.003106543945046116,0.00027415173297206546,0.023538986420117154,5.922279380852607,0.8563788764018773,0.13197441425902545,-5.7742444424005575,10.1
,,0.0193371165308296,0.002965778541528265,0.0002497122868886237,0.02255260735924649,5.908867602071352,0.8574226572920604,0.13150490736106868,-5.820615703755885,10.2
,,0.0193371165308296,0.002965778541528265,0.0002497122868886237,0.02255260735924649,5.8993934927413125,0.8574226572920604,0.13150490736106868,-5.820615703755885,10.3
,,0.01583638189647776,0.0030636385894903177,0.0002568914858024749,0.01915691197177055,5.889185120863376,0.8266667362576028,0.15992340487886916,-5.788151987882589,10.4
,,0.01583638189647776,0.0030636385894903177,0.0002568914858024749,0.01915691197177055,5.8789767489854405,0.8266667362576028,0.15992340487886916,-5.788151987882589,10.5
,,0.01583638189647776,0.0030636385894903177,0.0002568914858024749,0.01915691197177055,5.868768377107505,0.8266667362576028,0.15992340487886916,-5.788151987882589,10.6
,,0.01583638189647776,0.0030636385894903177,0.0002568914858024749,0.01915691197177055,5.8585600052295685,0.8266667362576028,0.15992340487886916,-5.788151987882589,10.7
,,0.018379299490482875,0.0026637326711298117,0.00023153596543709637,0.02127456812704978,5.8581967558846255,0.8639094049159247,0.1252073675584032,-5.928026880014255,10.8
,,0.018379299490482875,0.0026637326711298117,0.00023153596543709637,0.02127456812704978,5.857833506539682,0.8639094049159247,0.1252073675584032,-5.928026880014255,10.9
,,0.018314733074834173,0.0025245161011685897,0.00023737754322954648,0.021076626719232307,5.87587242723889,0.868959407917116,0.11977799553972185,-5.9817058777222485,11.0
,,0.018314733074834173,0.0025245161011685897,0.00023737754322954648,0.021076626719232307,5.893911347938098,0.868959407917116,0.11977799553972185,-5.9817058777222485,11.1
,,0.018314733074834173,0.0025245161011685897,0.00023737754322954648,0.021076626719232307,5.911950268637306,0.868959407917116,0.11977799553972185,-5.9817058777222485,11.2
,,0.018314733074834173,0.0025245161011685897,0.00023737754322954648,0.021076626719232307,5.929989189336514,0.868959407917116,0.11977799553972185,-5.9817058777222485,11.3
,,0.01749890901857968,0.002401094271060516,0.00021497277481588527,0.020114976064456083,5.938055719018769,0.8699443122629864,0.11936848760677074,-6.03183069926494,11.4
,,0.01749890901857968,0.002401094271060516,0.00021497277481588527,0.020114976064456083,5.95836125168254,0.8699443122629864,0.11936848760677074,-6.03183069926494,11.5
,,0.021572144439704826,0.0026542888635355615,0.0002394701593618999,0.024465903462602287,5.989159148772215,0.8817227809583751,0.10848930502782426,-5.931578508175124,11.6
,,0.021572144439704826,0.0026542888635355615,0.0002394701593618999,0.024465903462602287,6.019957045861891,0.8817227809583751,0.10848930502782426,-5.931578508175124,11.7
,,0.021572144439704826,0.0026542888635355615,0.0002394701593618999,0.024465903462602287,6.050754942951567,0.8817227809583751,0.10848930502782426,-5.931578508175124,11.8
,,0.021572144439704826,0.0026542888635355615,0.0002394701593618999,0.024465903462602287,6.084126008670224,0.8817227809583751,0.10848930502782426,-5.931578508175124,11.9
,,0.016666667288909233,0.0021720488903369693,0.00019946798123909404,0.0190381841604853,6.111038709247127,0.8754336626022209,0.11408907866566209,-6.132084367800535,12.0
,,0.01653693580424836,0.002052932552956278,0.00020329677901372294,0.018793165136218364,6.142726758957347,0.8799441543978255,0.10923825433746906,-6.188485994404504,12.1
,,0.01653693580424836,0.002052932552956278,0.00020329677901372294,0.018793165136218364,6.174414808667568,0.8799441543978255,0.10923825433746906,-6.188485994404504,12.2
,,0.01653693580424836,0.002052932552956278,0.00020329677901372294,0.018793165136218364,6.206102858377788,0.8799441543978255,0.10923825433746906,-6.188485994404504,12.3
,,0.01653693580424836,0.002052932552956278,0.00020329677901372294,0.018793165136218364,6.237790908088009,0.8799441543978255,0.10923825433746906,-6.188485994404504,12.4
,,0.01653693580424836,0.002052932552956278,0.00020329677901372294,0.018793165136218364,6.26101682941716,0.8799441543978255,0.10923825433746906,-6.188485994404504,12.5
,,0.015623819096523616,0.0018503181058407698,0.0001881991107313338,0.01766233631309572,6.298934066504991,0.8845839428920483,0.10476066546580554,-6.2923977055703375,12.6
,,0.015623819096523616,0.0018503181058407698,0.0001881991107313338,0.01766233631309572,6.336851303592821,0.8845839428920483,0.10476066546580554,-6.2923977055703375,12.7
,,0.015623819096523616,0.0018503181058407698,0.0001881991107313338,0.01766233631309572,6.37476854068065,0.8845839428920483,0.10476066546580554,-6.2923977055703375,12.8
,,0.015623819096523616,0.0018503181058407698,0.0001881991107313338,0.01766233631309572,6.4126857777684805,0.8845839428920483,0.10476066546580554,-6.2923977055703375,12.9
,,0.015623819096523616,0.0018503181058407698,0.0001881991107313338,0.01766233631309572,6.442787961447327,0.8845839428920483,0.10476066546580554,-6.2923977055703375,13.0
,,0.014933622112653682,0.001775497740049114,0.0001713546352153318,0.016880474487918126,6.481368437288093,0.8846683855564684,0.10518055883558797,-6.333674478435158,13.1
,,0.014663273599823367,0.0016670366046888274,0.00017368628019492265,0.016503996484707118,6.5247621895359655,0.8884680515662133,0.10100805621435582,-6.3967077170329505,13.2
,,0.014663273599823367,0.0016670366046888274,0.00017368628019492265,0.016503996484707118,6.56815594178384,0.8884680515662133,0.10100805621435582,-6.3967077170329505,13.3
,,0.014663273599823367,0.0016670366046888274,0.00017368628019492265,0.016503996484707118,6.611549694031711,0.8884680515662133,0.10100805621435582,-6.3967077170329505,13.4
,,0.014663273599823367,0.0016670366046888274,0.00017368628019492265,0.016503996484707118,6.654943446279584,0.8884680515662133,0.10100805621435582,-6.3967077170329505,13.5
,,0.014663273599823367,0.0016670366046888274,0.00017368628019492265,0.016503996484707118,6.689685618542971,0.8884680515662133,0.10100805621435582,-6.3967077170329505,13.6
,,0.008936574745794259,0.0015226081632163909,0.00016222223926986334,0.010621405148280512,6.687843324344233,0.8413740574843802,0.1433527995552344,-6.487330517740193,13.7
,,0.008936574745794259,0.0015226081632163909,0.00016222223926986334,0.010621405148280512,6.686001030145495,0.8413740574843802,0.1433527995552344,-6.487330517740193,13.8
,,0.008936574745794259,0.0015226081632163909,0.00016222223926986334,0.010621405148280512,6.684158735946757,0.8413740574843802,0.1433527995552344,-6.487330517740193,13.9
,,0.008936574745794259,0.0015226081632163909,0.00016222223926986334,0.010621405148280512,6.682316441748019,0.8413740574843802,0.1433527995552344,-6.487330517740193,14.0
,,0.008936574745794259,0.0015226081632163909,0.00016222223926986334,0.010621405148280512,6.688413262053727,0.8413740574843802,0.1433527995552344,-6.487330517740193,14.1
,,0.008936574745794259,0.0015226081632163909,0.00016222223926986334,0.010621405148280512,6.687253796338988,0.8413740574843802,0.1433527995552344,-6.487330517740193,14.2
,,0.019509669651989164,0.0020743155499237434,0.00022087551190910133,0.021804860713822007,6.730295560452518,0.8947394761215819,0.09513087825453724,-6.17812403517219,14.3
,,0.019509669651989164,0.0020743155499237434,0.00022087551190910133,0.021804860713822007,6.7733373245660475,0.8947394761215819,0.09513087825453724,-6.17812403517219,14.4
,,0.019509669651989164,0.0020743155499237434,0.00022087551190910133,0.021804860713822007,6.816379088679578,0.8947394761215819,0.09513087825453724,-6.17812403517219,14.5
,,0.019509669651989164,0.0020743155499237434,0.00022087551190910133,0.021804860713822007,6.85942085279311,0.8947394761215819,0.09513087825453724,-6.17812403517219,14.6
,,0.019509669651989164,0.0020743155499237434,0.00022087551190910133,0.021804860713822007,6.902548019394203,0.8947394761215819,0.09513087825453724,-6.17812403517219,14.7
,,0.012671153890021474,0.0013434988612947582,0.00012731584209040166,0.014141968593406634,6.946001507979791,0.8959964665689547,0.09500083757229764,-6.612477977475326,14.8
,,0.012187730370692039,0.001324730662501643,0.00014472501456862602,0.013657186047762308,6.986563729324412,0.8924042132887956,0.09699880032890791,-6.626546113790492,14.9
,,0.012187730370692039,0.001324730662501643,0.00014472501456862602,0.013657186047762308,7.027125950669031,0.8924042132887956,0.09699880032890791,-6.626546113790492,15.0
,,0.012187730370692039,0.001324730662501643,0.00014472501456862602,0.013657186047762308,7.0676881720136535,0.8924042132887956,0.09699880032890791,-6.626546113790492,15.1
,,0.012187730370692039,0.001324730662501643,0.00014472501456862602,0.013657186047762308,7.106116279919007,0.8924042132887956,0.09699880032890791,-6.626546113790492,15.2
,,0.012187730370692039,0.001324730662501643,0.00014472501456862602,0.013657186047762308,7.154328296374717,0.8924042132887956,0.09699880032890791,-6.626546113790492,15.3
,,0.018734076751657586,0.0020653973028613684,0.0002235654410542889,0.021023039495573242,7.200918934957796,0.8911212270519857,0.09824446666221946,-6.182432672595273,15.4
,,0.018734076751657586,0.0020653973028613684,0.0002235654410542889,0.021023039495573242,7.247509573540876,0.8911212270519857,0.09824446666221946,-6.182432672595273,15.5
,,0.018734076751657586,0.0020653973028613684,0.0002235654410542889,0.021023039495573242,7.294100212123953,0.8911212270519857,0.09824446666221946,-6.182432672595273,15.6
,,0.018734076751657586,0.0020653973028613684,0.0002235654410542889,0.021023039495573242,7.329984441578627,0.8911212270519857,0.09824446666221946,-6.182432672595273,15.7
,,0.018734076751657586,0.0020653973028613684,0.0002235654410542889,0.021023039495573242,7.3658686710333,0.8911212270519857,0.09824446666221946,-6.182432672595273,15.8
,,0.011069132002350119,0.0012294203969868305,0.00011488376970464478,0.012413436169041595,7.410164818032973,0.8917057172256547,0.09903949077797937,-6.701212442619696,15.9
,,0.010697763098501583,0.00123024067361644,0.0001331642262724431,0.012061167998390465,7.450612589030539,0.8869591319786918,0.10200012749848214,-6.7005454591317495,16.0
,,0.010697763098501583,0.00123024067361644,0.0001331642262724431,0.012061167998390465,7.491060360028101,0.8869591319786918,0.10200012749848214,-6.7005454591317495,16.1
,,0.010697763098501583,0.00123024067361644,0.0001331642262724431,0.012061167998390465,7.520582248567275,0.8869591319786918,0.10200012749848214,-6.7005454591317495,16.2
,,0.010697763098501583,0.00123024067361644,0.0001331642262724431,0.012061167998390465,7.550104137106452,0.8869591319786918,0.10200012749848214,-6.7005454591317495,16.3
,,0.010697763098501583,0.00123024067361644,0.0001331642262724431,0.012061167998390465,7.579626025645626,0.8869591319786918,0.10200012749848214,-6.7005454591317495,16.4
,,0.017918592042048574,0.002108080840372995,0.00019713344102820237,0.02022380632344977,7.615404279259262,0.8860148161759109,0.10423759042473857,-6.161977299715285,16.5
,,0.009978221956590202,0.0012157448055857352,0.00012905934321833385,0.01132302610539427,7.6475268104324226,0.8812327962254362,0.10736924866812385,-6.712398381290177,16.6
,,0.009978221956590202,0.0012157448055857352,0.00012905934321833385,0.01132302610539427,7.679649341605581,0.8812327962254362,0.10736924866812385,-6.712398381290177,16.7
,,0.009978221956590202,0.0012157448055857352,0.00012905934321833385,0.01132302610539427,7.708730214312922,0.8812327962254362,0.10736924866812385,-6.712398381290177,16.8
,,0.009978221956590202,0.0012157448055857352,0.00012905934321833385,0.01132302610539427,7.737811087020264,0.8812327962254362,0.10736924866812385,-6.712398381290177,16.9
,,0.009978221956590202,0.0012157448055857352,0.00012905934321833385,0.01132302610539427,7.766891959727604,0.8812327962254362,0.10736924866812385,-6.712398381290177,17.0
,,0.009596454087191685,0.0012016294650851196,0.00010738138059566915,0.010905464932872474,7.793231478588837,0.8799674425860541,0.11018599137970114,-6.724076755712842,17.1
,,0.016656322977521017,0.0022295921349638178,0.0002291546056950156,0.01911506971817985,7.813125607194287,0.8713712909809382,0.1166405442321411,-6.105936609357558,17.2
,,0.016656322977521017,0.0022295921349638178,0.0002291546056950156,0.01911506971817985,7.8216433769694955,0.8713712909809382,0.1166405442321411,-6.105936609357558,17.3
,,0.016656322977521017,0.0022295921349638178,0.0002291546056950156,0.01911506971817985,7.830161146744706,0.8713712909809382,0.1166405442321411,-6.105936609357558,17.4
,,0.016656322977521017,0.0022295921349638178,0.0002291546056950156,0.01911506971817985,7.838678916519913,0.8713712909809382,0.1166405442321411,-6.105936609357558,17.5
,,0.016656322977521017,0.0022295921349638178,0.0002291546056950156,0.01911506971817985,7.854841715379587,0.8713712909809382,0.1166405442321411,-6.105936609357558,17.6
,,0.008935684218247671,0.0012121786793685525,0.00010482753085754097,0.010252690428473763,7.869767270488355,0.8715453061404738,0.11823030138529209,-6.715335976979467,17.7
,,0.008711617179150668,0.0012382017158739159,0.00012348638367871672,0.0100733052787033,7.8804942145271015,0.8648221152960117,0.12291910962846399,-6.694095181099198,17.8
,,0.008711617179150668,0.0012382017158739159,0.00012348638367871672,0.0100733052787033,7.887328271727137,0.8648221152960117,0.12291910962846399,-6.694095181099198,17.9
,,0.008711617179150668,0.0012382017158739159,0.00012348638367871672,0.0100733052787033,7.894162328927171,0.8648221152960117,0.12291910962846399,-6.694095181099198,18.0
,,0.008711617179150668,0.0012382017158739159,0.00012348638367871672,0.0100733052787033,7.900996386127207,0.8648221152960117,0.12291910962846399,-6.694095181099198,18.1
,,0.008711617179150668,0.0012382017158739159,0.00012348638367871672,0.0100733052787033,7.907441636531667,0.8648221152960117,0.12291910962846399,-6.694095181099198,18.2
,,0.008318110312290515,0.0012363636552787467,0.00010285677381365609,0.009657330741382917,7.910039163611795,0.8613260263155668,0.1280233315382653,-6.695580743739515,18.3
,,0.015461215496070015,0.002511446715900155,0.0002393900471225977,0.018212052259092767,7.922378623213989,0.8489551466310263,0.1379002585854244,-5.986896311045364,18.4
,,0.015461215496070015,0.002511446715900155,0.0002393900471225977,0.018212052259092767,7.934718082816184,0.8489551466310263,0.1379002585854244,-5.986896311045364,18.5
,,0.015461215496070015,0.002511446715900155,0.0002393900471225977,0.018212052259092767,7.947057542418378,0.8489551466310263,0.1379002585854244,-5.986896311045364,18.6
,,0.015461215496070015,0.002511446715900155,0.0002393900471225977,0.018212052259092767,7.959397002020571,0.8489551466310263,0.1379002585854244,-5.986896311045364,18.7
,,0.007708528818639698,0.0012680327972013604,0.00010143485964907665,0.009077996475490135,7.949138193649074,0.8491442841437656,0.13968201030094554,-6.670288558000847,18.8
,,0.007708528818639698,0.0012680327972013604,0.00010143485964907665,0.009077996475490135,7.938879385277576,0.8491442841437656,0.13968201030094554,-6.670288558000847,18.9
,,0.007578695846525627,0.0013038555984852779,0.00012048076479394073,0.009003032209804846,7.92085159809493,0.8417937057108348,0.14482405128633222,-6.642429558967425,19.0
,,0.007578695846525627,0.0013038555984852779,0.00012048076479394073,0.009003032209804846,7.902823810912283,0.8417937057108348,0.14482405128633222,-6.642429558967425,19.1
,,0.007578695846525627,0.0013038555984852779,0.00012048076479394073,0.009003032209804846,7.884796023729637,0.8417937057108348,0.14482405128633222,-6.642429558967425,19.2
,,0.007578695846525627,0.0013038555984852779,0.00012048076479394073,0.009003032209804846,7.866768236546989,0.8417937057108348,0.14482405128633222,-6.642429558967425,19.3
,,0.007578695846525627,0.0013038555984852779,0.00012048076479394073,0.009003032209804846,7.848326208754875,0.8417937057108348,0.14482405128633222,-6.642429558967425,19.4
,,0.007072893318538714,0.0013399700190664143,0.0001195280825111972,0.008532391420116324,7.823207552364158,0.8289461852234491,0.15704507131579135,-6.615108039100649,19.5
,,0.007072893318538714,0.0013399700190664143,0.0001195280825111972,0.008532391420116324,7.787596531547534,0.8289461852234491,0.15704507131579135,-6.615108039100649,19.6
,,0.007072893318538714,0.0013399700190664143,0.0001195280825111972,0.008532391420116324,7.7519855107309095,0.8289461852234491,0.15704507131579135,-6.615108039100649,19.7
,,0.007072893318538714,0.0013399700190664143,0.0001195280825111972,0.008532391420116324,7.716374489914287,0.8289461852234491,0.15704507131579135,-6.615108039100649,19.8
,,0.007072893318538714,0.0013399700190664143,0.0001195280825111972,0.008532391420116324,7.680763469097663,0.8289461852234491,0.15704507131579135,-6.615108039100649,19.9
,,0.007072893318538714,0.0013399700190664143,0.0001195280825111972,0.008532391420116324,7.650827842243508,0.8289461852234491,0.15704507131579135,-6.615108039100649,20.0
,,0.006631377076135707,0.0013799763619792992,0.00011809518940831005,0.008129448627523317,7.610204757826584,0.8157228589506437,0.1697503022907615,-6.585688908960234,20.1
,,0.006631377076135707,0.0013799763619792992,0.00011809518940831005,0.008129448627523317,7.569581673409656,0.8157228589506437,0.1697503022907615,-6.585688908960234,20.2
,,0.006631377076135707,0.0013799763619792992,0.00011809518940831005,0.008129448627523317,7.5289585889927295,0.8157228589506437,0.1697503022907615,-6.585688908960234,20.3
,,0.006631377076135707,0.0013799763619792992,0.00011809518940831005,0.008129448627523317,7.4883355045758035,0.8157228589506437,0.1697503022907615,-6.585688908960234,20.4
,,0.006631377076135707,0.0013799763619792992,0.00011809518940831005,0.008129448627523317,7.447712420158878,0.8157228589506437,0.1697503022907615,-6.585688908960234,20.5
,,0.006631377076135707,0.0013799763619792992,0.00011809518940831005,0.008129448627523317,7.4022320740738365,0.8157228589506437,0.1697503022907615,-6.585688908960234,20.6
,,0.011495669654916284,0.002643011218602264,0.0002059420093078886,0.014344622882826437,7.351052118664457,0.8013922533076171,0.18425100751630846,-5.935836398721902,20.7
,,0.006276344215782082,0.001427030440689443,0.00011604638288314634,0.007819421039354672,7.30048123778729,0.8026609878395884,0.18249822250359524,-6.552159608767208,20.8
,,0.006276344215782082,0.001427030440689443,0.00011604638288314634,0.007819421039354672,7.2499103569101235,0.8026609878395884,0.18249822250359524,-6.552159608767208,20.9
,,0.006276344215782082,0.001427030440689443,0.00011604638288314634,0.007819421039354672,7.199339476032956,0.8026609878395884,0.18249822250359524,-6.552159608767208,21.0
,,0.006276344215782082,0.001427030440689443,0.00011604638288314634,0.007819421039354672,7.149179920737294,0.8026609878395884,0.18249822250359524,-6.552159608767208,21.1
,,0.006276344215782082,0.001427030440689443,0.00011604638288314634,0.007819421039354672,7.094207089034524,0.8026609878395884,0.18249822250359524,-6.552159608767208,21.2
,,0.006261491849017408,0.0014638997283262492,0.00010963718688047555,0.007835028764224133,7.037722795174446,0.7991664150115542,0.186840377027156,-6.526651357369103,21.3
,,0.006261491849017408,0.0014638997283262492,0.00010963718688047555,0.007835028764224133,6.981238501314371,0.7991664150115542,0.186840377027156,-6.526651357369103,21.4
,,0.005995747145975624,0.0014759797420644835,0.00011347245727883929,0.007585199345318947,6.922066042490189,0.790453470372638,0.19458680976859952,-6.518433277786604,21.5
,,0.005995747145975624,0.0014759797420644835,0.00011347245727883929,0.007585199345318947,6.862893583666009,0.790453470372638,0.19458680976859952,-6.518433277786604,21.6
,,0.005995747145975624,0.0014759797420644835,0.00011347245727883929,0.007585199345318947,6.8403055913039505,0.790453470372638,0.19458680976859952,-6.518433277786604,21.7
,,0.005995747145975624,0.0014759797420644835,0.00011347245727883929,0.007585199345318947,6.8177175989418926,0.790453470372638,0.19458680976859952,-6.518433277786604,21.8
,,0.006003481689584665,0.001514249352433216,0.0001066102119641581,0.007624341253982039,6.793910150517496,0.7874098875688661,0.19860723726687263,-6.492835439751837,21.9
,,0.006003481689584665,0.001514249352433216,0.0001066102119641581,0.007624341253982039,6.770102702093098,0.7874098875688661,0.19860723726687263,-6.492835439751837,22.0
,,0.005782458648598741,0.0015218357872544552,0.00011052249597676672,0.007414816931829963,6.744232772067484,0.7798518428386392,0.20524253009155127,-6.487837918100372,22.1
,,0.005782458648598741,0.0015218357872544552,0.00011052249597676672,0.007414816931829963,6.718362842041873,0.7798518428386392,0.20524253009155127,-6.487837918100372,22.2
,,0.005782458648598741,0.0015218357872544552,0.00011052249597676672,0.007414816931829963,6.648291682187988,0.7798518428386392,0.20524253009155127,-6.487837918100372,22.3
,,0.005782458648598741,0.0015218357872544552,0.00011052249597676672,0.007414816931829963,6.578220522334107,0.7798518428386392,0.20524253009155127,-6.487837918100372,22.4
,,0.005807655934973665,0.001564179713816482,0.00010274962097907381,0.007474585269769221,6.507064966305295,0.7769870468215259,0.20926642179637298,-6.4603937369279905,22.5
,,0.005807655934973665,0.001564179713816482,0.00010274962097907381,0.007474585269769221,6.435909410276483,0.7769870468215259,0.20926642179637298,-6.4603937369279905,22.6
,,0.005807655934973665,0.001564179713816482,0.00010274962097907381,0.007474585269769221,6.364753854247671,0.7769870468215259,0.20926642179637298,-6.4603937369279905,22.7
,,0.005625999847878609,0.0015673784975277698,0.00010596317348464965,0.007299341518891029,6.291728532211578,0.7707544349470791,0.21472875237736483,-6.458350802000431,22.8
,,0.005625999847878609,0.0015673784975277698,0.00010596317348464965,0.007299341518891029,6.221594477416452,0.7707544349470791,0.21472875237736483,-6.458350802000431,22.9
,,0.005625999847878609,0.0015673784975277698,0.00010596317348464965,0.007299341518891029,6.151460422621325,0.7707544349470791,0.21472875237736483,-6.458350802000431,23.0
,,0.009256446578442839,0.0027604151663217827,0.00016667959450878097,0.012183541339273402,6.078374464645355,0.7597500858477714,0.22656919605333792,-5.892374187985064,23.1
,,0.009256446578442839,0.0027604151663217827,0.00016667959450878097,0.012183541339273402,6.005288506669386,0.7597500858477714,0.22656919605333792,-5.892374187985064,23.2
,,0.009256446578442839,0.0027604151663217827,0.00016667959450878097,0.012183541339273402,5.932202548693416,0.7597500858477714,0.22656919605333792,-5.892374187985064,23.3
,,0.009008034233570848,0.0027443610164280055,0.0001718260655507022,0.011924221315549556,5.85985170456272,0.7554400405017719,0.23015012417198877,-5.898207012018867,23.4
,,0.009008034233570848,0.0027443610164280055,0.0001718260655507022,0.011924221315549556,5.787500860432025,0.7554400405017719,0.23015012417198877,-5.898207012018867,23.5
,,0.009008034233570848,0.0027443610164280055,0.0001718260655507022,0.011924221315549556,5.715150016301329,0.7554400405017719,0.23015012417198877,-5.898207012018867,23.6
,,0.009008034233570848,0.0027443610164280055,0.0001718260655507022,0.011924221315549556,5.642799172170633,0.7554400405017719,0.23015012417198877,-5.898207012018867,23.7
,,0.005543964891616853,0.001654275002189257,9.098320080319777e-05,0.007289223094609307,5.5713097824658036,0.7605700662004503,0.22694805478140245,-6.404392431274119,23.8
,,0.005543964891616853,0.001654275002189257,9.098320080319777e-05,0.007289223094609307,5.500656767962562,0.7605700662004503,0.22694805478140245,-6.404392431274119,23.9
,,0.005408446460765155,0.0016332273602575208,9.318230531870392e-05,0.00713485612634138,5.433354789362675,0.7580316077849918,0.22890824024156026,-6.417197246113547,24.0
,,0.005408446460765155,0.0016332273602575208,9.318230531870392e-05,0.00713485612634138,5.3660528107627865,0.7580316077849918,0.22890824024156026,-6.417197246113547,24.1
,,0.005408446460765155,0.0016332273602575208,9.318230531870392e-05,0.00713485612634138,5.298750832162899,0.7580316077849918,0.22890824024156026,-6.417197246113547,24.2
,,0.005408446460765155,0.0016332273602575208,9.318230531870392e-05,0.00713485612634138,5.231448853563011,0.7580316077849918,0.22890824024156026,-6.417197246113547,24.3
,,0.005408446460765155,0.0016332273602575208,9.318230531870392e-05,0.00713485612634138,5.164146874963123,0.7580316077849918,0.22890824024156026,-6.417197246113547,24.4
,,0.005427451619403797,0.0016806934431872788,8.420516252105029e-05,0.007192350225112126,5.098263601729584,0.7546144792078983,0.2336779203714426,-6.388548806928561,24.5
,,0.008778435862002904,0.0026714701938078643,0.0001425568758769389,0.011592462931687707,5.036744816980447,0.7572537357878686,0.2304488881741832,-5.925126323728496,24.6
,,0.008778435862002904,0.0026714701938078643,0.0001425568758769389,0.011592462931687707,4.97522603223131,0.7572537357878686,0.2304488881741832,-5.925126323728496,24.7
,,0.008778435862002904,0.0026714701938078643,0.0001425568758769389,0.011592462931687707,4.913707247482174,0.7572537357878686,0.2304488881741832,-5.925126323728496,24.8
,,0.008778435862002904,0.0026714701938078643,0.0001425568758769389,0.011592462931687707,4.852188462733037,0.7572537357878686,0.2304488881741832,-5.925126323728496,24.9
,,0.008778435862002904,0.0026714701938078643,0.0001425568758769389,0.011592462931687707,4.7906696779839,0.7572537357878686,0.2304488881741832,-5.925126323728496,25.0
,,0.008778435862002904,0.0026714701938078643,0.0001425568758769389,0.011592462931687707,4.731917098011403,0.7572537357878686,0.2304488881741832,-5.925126323728496,25.1
,,0.005184811525388129,0.0016467751057440846,7.893052551691119e-05,0.006910517156649124,4.677890774753538,0.7502783667065257,0.23829983609252736,-6.4089363849279355,25.2
,,0.005184811525388129,0.0016467751057440846,7.893052551691119e-05,0.006910517156649124,4.623864451495673,0.7502783667065257,0.23829983609252736,-6.4089363849279355,25.3
,,0.005184811525388129,0.0016467751057440846,7.893052551691119e-05,0.006910517156649124,4.569838128237809,0.7502783667065257,0.23829983609252736,-6.4089363849279355,25.4
,,0.005184811525388129,0.0016467751057440846,7.893052551691119e-05,0.006910517156649124,4.515811804979943,0.7502783667065257,0.23829983609252736,-6.4089363849279355,25.5
,,0.005184811525388129,0.0016467751057440846,7.893052551691119e-05,0.006910517156649124,4.461785481722078,0.7502783667065257,0.23829983609252736,-6.4089363849279355,25.6
,,0.005184811525388129,0.0016467751057440846,7.893052551691119e-05,0.006910517156649124,4.408996402215119,0.7502783667065257,0.23829983609252736,-6.4089363849279355,25.7
,,0.0050558604000597585,0.001644046772549632,7.298375135170527e-05,0.006772890923961095,4.359490805711966,0.7464848403468546,0.24273929567259567,-6.410594532296875,25.8
,,0.0050558604000597585,0.001644046772549632,7.298375135170527e-05,0.006772890923961095,4.309985209208813,0.7464848403468546,0.24273929567259567,-6.410594532296875,25.9
,,0.0050558604000597585,0.001644046772549632,7.298375135170527e-05,0.006772890923961095,4.260479612705661,0.7464848403468546,0.24273929567259567,-6.410594532296875,26.0
,,0.0050558604000597585,0.001644046772549632,7.298375135170527e-05,0.006772890923961095,4.210974016202507,0.7464848403468546,0.24273929567259567,-6.410594532296875,26.1
,,0.0050558604000597585,0.001644046772549632,7.298375135170527e-05,0.006772890923961095,4.1614684196993545,0.7464848403468546,0.24273929567259567,-6.410594532296875,26.2
,,0.0050558604000597585,0.001644046772549632,7.298375135170527e-05,0.006772890923961095,4.1158105465205335,0.7464848403468546,0.24273929567259567,-6.410594532296875,26.3
,,0.004948566690798996,0.00157973286523543,5.348688793416696e-05,0.006581786443968594,4.0780134892918,0.751857680726447,0.24001581921319598,-6.450499518873455,26.4
,,0.004924645441892116,0.0016426628649092911,6.876147955378475e-05,0.0066360697863551915,4.038534318766687,0.7421027205015182,0.24753550185485776,-6.411436655803225,26.5
,,0.004924645441892116,0.0016426628649092911,6.876147955378475e-05,0.0066360697863551915,3.999055148241573,0.7421027205015182,0.24753550185485776,-6.411436655803225,26.6
,,0.004924645441892116,0.0016426628649092911,6.876147955378475e-05,0.0066360697863551915,3.9595759777164603,0.7421027205015182,0.24753550185485776,-6.411436655803225,26.7
,,0.004924645441892116,0.0016426628649092911,6.876147955378475e-05,0.0066360697863551915,3.92106148562135,0.7421027205015182,0.24753550185485776,-6.411436655803225,26.8
,,0.004924645441892116,0.0016426628649092911,6.876147955378475e-05,0.0066360697863551915,3.8825469935262404,0.7421027205015182,0.24753550185485776,-6.411436655803225,26.9
,,0.002580150301795414,0.001574588403417945,5.025815993274942e-05,0.004204996865146108,3.8303731423789733,0.6135914923460385,0.3744564987596569,-6.453761372020689,27.0
,,0.004803137331715665,0.0016469543443173524,6.638636167790034e-05,0.006516478037710918,3.7941712491022437,0.7370756571141445,0.25273688252863163,-6.40882754868248,27.1
,,0.004803137331715665,0.0016469543443173524,6.638636167790034e-05,0.006516478037710918,3.7579693558255145,0.7370756571141445,0.25273688252863163,-6.40882754868248,27.2
,,0.004803137331715665,0.0016469543443173524,6.638636167790034e-05,0.006516478037710918,3.7217674625487844,0.7370756571141445,0.25273688252863163,-6.40882754868248,27.3
,,0.004803137331715665,0.0016469543443173524,6.638636167790034e-05,0.006516478037710918,3.6855655692720553,0.7370756571141445,0.25273688252863163,-6.40882754868248,27.4
,,0.004803137331715665,0.0016469543443173524,6.638636167790034e-05,0.006516478037710918,3.6560403045939305,0.7370756571141445,0.25273688252863163,-6.40882754868248,27.5
,,0.0046936255271851175,0.001575677190224222,4.900126430364536e-05,0.006318303981712985,3.627295332536858,0.7428616193158543,0.24938293484844848,-6.45307013706461,27.6
,,0.006702276156850418,0.0017259224325824277,7.032968293068886e-05,0.008498528272363534,3.6098566352659764,0.7886396258332905,0.20308486096292408,-6.361993627897139,27.7
,,0.006702276156850418,0.0017259224325824277,7.032968293068886e-05,0.008498528272363534,3.592417937995095,0.7886396258332905,0.20308486096292408,-6.361993627897139,27.8
,,0.006702276156850418,0.0017259224325824277,7.032968293068886e-05,0.008498528272363534,3.5749792407242134,0.7886396258332905,0.20308486096292408,-6.361993627897139,27.9
,,0.006702276156850418,0.0017259224325824277,7.032968293068886e-05,0.008498528272363534,3.5575405434533316,0.7886396258332905,0.20308486096292408,-6.361993627897139,28.0
,,0.006702276156850418,0.0017259224325824277,7.032968293068886e-05,0.008498528272363534,3.546013954611906,0.7886396258332905,0.20308486096292408,-6.361993627897139,28.1
,,0.006702276156850418,0.0017259224325824277,7.032968293068886e-05,0.008498528272363534,3.53448736577048,0.7886396258332905,0.20308486096292408,-6.361993627897139,28.2
,,0.0062082153997531885,0.0015346096641640058,6.331447339752132e-05,0.007806139537314715,3.5249878745750456,0.795299055323932,0.1965900887152097,-6.4794792207271765,28.3
,,0.0062082153997531885,0.0015346096641640058,6.331447339752132e-05,0.007806139537314715,3.5154883833796107,0.795299055323932,0.1965900887152097,-6.4794792207271765,28.4
,,0.0062082153997531885,0.0015346096641640058,6.331447339752132e-05,0.007806139537314715,3.505988892184176,0.795299055323932,0.1965900887152097,-6.4794792207271765,28.5
,,0.0062082153997531885,0.0015346096641640058,6.331447339752132e-05,0.007806139537314715,3.4964894009887417,0.795299055323932,0.1965900887152097,-6.4794792207271765,28.6
,,0.0062082153997531885,0.0015346096641640058,6.331447339752132e-05,0.007806139537314715,3.492689519117647,0.795299055323932,0.1965900887152097,-6.4794792207271765,28.7
,,0.0062082153997531885,0.0015346096641640058,6.331447339752132e-05,0.007806139537314715,3.4882805627143383,0.795299055323932,0.1965900887152097,-6.4794792207271765,28.8
,,0.004651845921562018,0.0017955481721825142,6.715131145163414e-05,0.006514545405196166,3.4656878275930287,0.7140706883171907,0.275621407251278,-6.322444915260927,28.9
,,0.004544559213043069,0.0017374187608695168,7.062822879929548e-05,0.006352606202711881,3.443406711492961,0.7153850038906914,0.2734970035019368,-6.3553547379525295,29.0
,,0.004544559213043069,0.0017374187608695168,7.062822879929548e-05,0.006352606202711881,3.421125595392895,0.7153850038906914,0.2734970035019368,-6.3553547379525295,29.1
,,0.004544559213043069,0.0017374187608695168,7.062822879929548e-05,0.006352606202711881,3.398844479292827,0.7153850038906914,0.2734970035019368,-6.3553547379525295,29.2
,,0.004544559213043069,0.0017374187608695168,7.062822879929548e-05,0.006352606202711881,3.378074825350064,0.7153850038906914,0.2734970035019368,-6.3553547379525295,29.3
,,0.004616263181785793,0.001849767693472607,7.112891762547388e-05,0.006537159792883874,3.355803856675796,0.7061573111324122,0.28296198227955205,-6.292695218872502,29.4
,,0.004616263181785793,0.001849767693472607,7.112891762547388e-05,0.006537159792883874,3.3362210529656346,0.7061573111324122,0.28296198227955205,-6.292695218872502,29.5
,,0.004616263181785793,0.001849767693472607,7.112891762547388e-05,0.006537159792883874,3.3166382492554716,0.7061573111324122,0.28296198227955205,-6.292695218872502,29.6
,,0.004517181247890658,0.0018066657325777576,5.540343082131544e-05,0.006379250411289731,3.2971141373782387,0.708105334742204,0.28320972153411567,-6.316272269222207,29.7
,,0.004517181247890658,0.0018066657325777576,5.540343082131544e-05,0.006379250411289731,3.2775900255010058,0.708105334742204,0.28320972153411567,-6.316272269222207,29.8
,,0.004517181247890658,0.0018066657325777576,5.540343082131544e-05,0.006379250411289731,3.259285369686114,0.708105334742204,0.28320972153411567,-6.316272269222207,29.9
,,0.004626624920422482,0.0019299742538259426,7.693457718836446e-05,0.006633533751436789,3.2396927244669107,0.6974600708740465,0.29094210207461746,-6.25024861614088,30.0
,,0.004626624920422482,0.0019299742538259426,7.693457718836446e-05,0.006633533751436789,3.222162560848921,0.6974600708740465,0.29094210207461746,-6.25024861614088,30.1
,,0.004626624920422482,0.0019299742538259426,7.693457718836446e-05,0.006633533751436789,3.2046323972309323,0.6974600708740465,0.29094210207461746,-6.25024861614088,30.2
,,0.004626624920422482,0.0019299742538259426,7.693457718836446e-05,0.006633533751436789,3.187102233612943,0.6974600708740465,0.29094210207461746,-6.25024861614088,30.3
,,0.004542809783719626,0.0019044188879734716,6.161673123705175e-05,0.0065088454029301485,3.169424041811372,0.6979440288556471,0.29258935649572215,-6.263578362622588,30.4
,,0.0046964978047615395,0.0020351282242952492,8.500971844237928e-05,0.006816635747499168,3.1518591363335604,0.6889759081647501,0.29855317192823166,-6.197196452590898,30.5
,,0.0046964978047615395,0.0020351282242952492,8.500971844237928e-05,0.006816635747499168,3.1342942308557484,0.6889759081647501,0.29855317192823166,-6.197196452590898,30.6
,,0.0046964978047615395,0.0020351282242952492,8.500971844237928e-05,0.006816635747499168,3.116729325377937,0.6889759081647501,0.29855317192823166,-6.197196452590898,30.7
,,0.0046964978047615395,0.0020351282242952492,8.500971844237928e-05,0.006816635747499168,3.1007078639229135,0.6889759081647501,0.29855317192823166,-6.197196452590898,30.8
,,0.0046964978047615395,0.0020351282242952492,8.500971844237928e-05,0.006816635747499168,3.08468640246789,0.6889759081647501,0.29855317192823166,-6.197196452590898,30.9
,,0.0046964978047615395,0.0020351282242952492,8.500971844237928e-05,0.006816635747499168,3.068664941012867,0.6889759081647501,0.29855317192823166,-6.197196452590898,31.0
,,0.004836995160706201,0.0021595087479523716,9.451936447395438e-05,0.007091023273132527,3.0547471715487737,0.6821293591057997,0.3045412015688376,-6.137874514656062,31.1
,,0.004836995160706201,0.0021595087479523716,9.451936447395438e-05,0.007091023273132527,3.0408294020846807,0.6821293591057997,0.3045412015688376,-6.137874514656062,31.2
,,0.004836995160706201,0.0021595087479523716,9.451936447395438e-05,0.007091023273132527,3.026911632620588,0.6821293591057997,0.3045412015688376,-6.137874514656062,31.3
,,0.004836995160706201,0.0021595087479523716,9.451936447395438e-05,0.007091023273132527,3.0138801271838522,0.6821293591057997,0.3045412015688376,-6.137874514656062,31.4
,,0.004836995160706201,0.0021595087479523716,9.451936447395438e-05,0.007091023273132527,3.0008486217471173,0.6821293591057997,0.3045412015688376,-6.137874514656062,31.5
,,0.004836995160706201,0.0021595087479523716,9.451936447395438e-05,0.007091023273132527,2.9878171163103824,0.6821293591057997,0.3045412015688376,-6.137874514656062,31.6
,,0.00311382220826043,0.0022984892948655976,9.60362676344691e-05,0.005508347770760497,2.963721442609819,0.5652915062460785,0.4172738161280369,-6.075503200172562,31.7
,,0.005070817312856699,0.002303684959034755,0.0001052438659241028,0.0074797461378155565,2.949344951811166,0.6779397615141013,0.3079897253982929,-6.073245282027838,31.8
,,0.005070817312856699,0.002303684959034755,0.0001052438659241028,0.0074797461378155565,2.934968461012512,0.6779397615141013,0.3079897253982929,-6.073245282027838,31.9
,,0.005070817312856699,0.002303684959034755,0.0001052438659241028,0.0074797461378155565,2.9210893103126145,0.6779397615141013,0.3079897253982929,-6.073245282027838,32.0
,,0.005070817312856699,0.002303684959034755,0.0001052438659241028,0.0074797461378155565,2.9072101596127164,0.6779397615141013,0.3079897253982929,-6.073245282027838,32.1
,,0.005070817312856699,0.002303684959034755,0.0001052438659241028,0.0074797461378155565,2.893331008912819,0.6779397615141013,0.3079897253982929,-6.073245282027838,32.2
,,0.005414833819008341,0.0024458490853570326,0.0001067105980541739,0.007967393502419547,2.8796107404855196,0.6796242481765158,0.3069823380273956,-6.013362942166366,32.3
,,0.005414833819008341,0.0024458490853570326,0.0001067105980541739,0.007967393502419547,2.86589047205822,0.6796242481765158,0.3069823380273956,-6.013362942166366,32.4
,,0.005434067348463136,0.002464656622685124,0.00011774827734381516,0.008016472248492074,2.853084270790767,0.6778626782479416,0.30744903073153335,-6.005702782332726,32.5
,,0.005434067348463136,0.002464656622685124,0.00011774827734381516,0.008016472248492074,2.8395693034793856,0.6778626782479416,0.30744903073153335,-6.005702782332726,32.6
,,0.005434067348463136,0.002464656622685124,0.00011774827734381516,0.008016472248492074,2.8260543361680055,0.6778626782479416,0.30744903073153335,-6.005702782332726,32.7
,,0.005434067348463136,0.002464656622685124,0.00011774827734381516,0.008016472248492074,2.8125393688566245,0.6778626782479416,0.30744903073153335,-6.005702782332726,32.8
,,0.005908598477114895,0.002614707013738184,0.00011864739917912682,0.008641952890032206,2.7997113833311937,0.6837110260031601,0.30255973933322844,-5.946603228377765,32.9
,,0.005908598477114895,0.002614707013738184,0.00011864739917912682,0.008641952890032206,2.786883397805764,0.6837110260031601,0.30255973933322844,-5.946603228377765,33.0
,,0.005908598477114895,0.002614707013738184,0.00011864739917912682,0.008641952890032206,2.774055412280333,0.6837110260031601,0.30255973933322844,-5.946603228377765,33.1
,,0.005997592951917054,0.00264615060712804,0.00013138574732464027,0.008775129306369735,2.7630313043512036,0.6834763047381526,0.30155118115550034,-5.93464929611552,33.2
,,0.005997592951917054,0.00264615060712804,0.00013138574732464027,0.008775129306369735,2.752007196422074,0.6834763047381526,0.30155118115550034,-5.93464929611552,33.3
,,0.005997592951917054,0.00264615060712804,0.00013138574732464027,0.008775129306369735,2.740983088492944,0.6834763047381526,0.30155118115550034,-5.93464929611552,33.4
,,0.005997592951917054,0.00264615060712804,0.00013138574732464027,0.008775129306369735,2.729958980563814,0.6834763047381526,0.30155118115550034,-5.93464929611552,33.5
,,0.00657139792165871,0.002777981583634133,0.00013068446005874582,0.009480063965351589,2.7201723063605976,0.6931807576063117,0.29303405481094824,-5.886030664033322,33.6
,,0.00657139792165871,0.002777981583634133,0.00013068446005874582,0.009480063965351589,2.7103856321573803,0.6931807576063117,0.29303405481094824,-5.886030664033322,33.7
,,0.00657139792165871,0.002777981583634133,0.00013068446005874582,0.009480063965351589,2.7015140860203766,0.6931807576063117,0.29303405481094824,-5.886030664033322,33.8
,,0.006711353812417158,0.0028115565088463433,0.00014414144204782266,0.009667051763311323,2.692911667535844,0.6942503233393539,0.29083908700239347,-5.874017031253373,33.9
,,0.006711353812417158,0.0028115565088463433,0.00014414144204782266,0.009667051763311323,2.684309249051311,0.6942503233393539,0.29083908700239347,-5.874017031253373,34.0
,,0.006711353812417158,0.0028115565088463433,0.00014414144204782266,0.009667051763311323,2.6757068305667784,0.6942503233393539,0.29083908700239347,-5.874017031253373,34.1
,,0.006711353812417158,0.0028115565088463433,0.00014414144204782266,0.009667051763311323,2.667104412082245,0.6942503233393539,0.29083908700239347,-5.874017031253373,34.2
,,0.0035069652022089544,0.0009469839134240136,6.089558697174472e-05,0.004514844702604713,2.674954990505723,0.7767631963477524,0.20974894504736294,-6.962228451803136,34.3
,,0.0035069652022089544,0.0009469839134240136,6.089558697174472e-05,0.004514844702604713,2.6820895629685553,0.7767631963477524,0.20974894504736294,-6.962228451803136,34.4
,,0.007658464942658946,0.0029578515248705876,0.00015671784458690227,0.010773034312116436,2.6769799851521565,0.7108920960221455,0.27456067057578115,-5.823292110385162,34.5
,,0.007658464942658946,0.0029578515248705876,0.00015671784458690227,0.010773034312116436,2.6718704073357578,0.7108920960221455,0.27456067057578115,-5.823292110385162,34.6
,,0.007658464942658946,0.0029578515248705876,0.00015671784458690227,0.010773034312116436,2.666760829519359,0.7108920960221455,0.27456067057578115,-5.823292110385162,34.7
,,0.007658464942658946,0.0029578515248705876,0.00015671784458690227,0.010773034312116436,2.6616512517029607,0.7108920960221455,0.27456067057578115,-5.823292110385162,34.8
,,0.007658464942658946,0.0029578515248705876,0.00015671784458690227,0.010773034312116436,2.656541673886562,0.7108920960221455,0.27456067057578115,-5.823292110385162,34.9
,,0.008469363329950685,0.003034427282947972,0.00015255104908540974,0.011656341661984067,2.6709475779408116,0.7265884593596483,0.2603241540906816,-5.7977325764133,35.0
,,0.008813529799295616,0.003073199927276489,0.00016814472176060778,0.012054874448332713,2.6703412260963564,0.7311175107688159,0.2549342127492284,-5.785035938634569,35.1
,,0.008813529799295616,0.003073199927276489,0.00016814472176060778,0.012054874448332713,2.6697348742519007,0.7311175107688159,0.2549342127492284,-5.785035938634569,35.2
,,0.008813529799295616,0.003073199927276489,0.00016814472176060778,0.012054874448332713,2.6691285224074455,0.7311175107688159,0.2549342127492284,-5.785035938634569,35.3
,,0.008813529799295616,0.003073199927276489,0.00016814472176060778,0.012054874448332713,2.6685221705629902,0.7311175107688159,0.2549342127492284,-5.785035938634569,35.4
,,0.008813529799295616,0.003073199927276489,0.00016814472176060778,0.012054874448332713,2.667915818718535,0.7311175107688159,0.2549342127492284,-5.785035938634569,35.5
,,0.008813529799295616,0.003073199927276489,0.00016814472176060778,0.012054874448332713,2.666529174253026,0.7311175107688159,0.2549342127492284,-5.785035938634569,35.6
,,0.0030776686279876367,0.000895127954079855,6.721490033389196e-05,0.004040011482401384,2.660965967188337,0.7617970001803731,0.22156569553802125,-7.018543884455653,35.7
,,0.00201279874708195,0.0008642626926417274,8.116794679968739e-05,0.0029582293865233643,2.641536206898439,0.6804065824819202,0.2921554009905382,-7.053633792962339,35.8
,,0.00201279874708195,0.0008642626926417274,8.116794679968739e-05,0.0029582293865233643,2.6221064466085418,0.6804065824819202,0.2921554009905382,-7.053633792962339,35.9
,,0.00201279874708195,0.0008642626926417274,8.116794679968739e-05,0.0029582293865233643,2.602676686318644,0.6804065824819202,0.2921554009905382,-7.053633792962339,36.0
,,0.00201279874708195,0.0008642626926417274,8.116794679968739e-05,0.0029582293865233643,2.583246926028746,0.6804065824819202,0.2921554009905382,-7.053633792962339,36.1
,,0.00201279874708195,0.0008642626926417274,8.116794679968739e-05,0.0029582293865233643,2.563817165738848,0.6804065824819202,0.2921554009905382,-7.053633792962339,36.2
,,0.00201279874708195,0.0008642626926417274,8.116794679968739e-05,0.0029582293865233643,2.5423603078029595,0.6804065824819202,0.2921554009905382,-7.053633792962339,36.3
,,0.01203361295174898,0.003212953066142645,0.00018620404642160813,0.015432770064313234,2.5386087427753856,0.779744200270017,0.2081903023730188,-5.740564806442611,36.4
,,0.01203361295174898,0.003212953066142645,0.00018620404642160813,0.015432770064313234,2.5348571777478117,0.779744200270017,0.2081903023730188,-5.740564806442611,36.5
,,0.01203361295174898,0.003212953066142645,0.00018620404642160813,0.015432770064313234,2.531105612720238,0.779744200270017,0.2081903023730188,-5.740564806442611,36.6
,,0.01203361295174898,0.003212953066142645,0.00018620404642160813,0.015432770064313234,2.527354047692664,0.779744200270017,0.2081903023730188,-5.740564806442611,36.7
,,0.01203361295174898,0.003212953066142645,0.00018620404642160813,0.015432770064313234,2.52360248266509,0.779744200270017,0.2081903023730188,-5.740564806442611,36.8
,,0.01203361295174898,0.003212953066142645,0.00018620404642160813,0.015432770064313234,2.538034696355518,0.779744200270017,0.2081903023730188,-5.740564806442611,36.9
,,0.01408903499322696,0.0032480713095531175,0.00019308065682082206,0.0175301869596009,2.559559270081325,0.8037013538814943,0.18528446485131295,-5.729693902012037,37.0
,,0.01408903499322696,0.0032480713095531175,0.00019308065682082206,0.0175301869596009,2.5810838438071326,0.8037013538814943,0.18528446485131295,-5.729693902012037,37.1
,,0.01408903499322696,0.0032480713095531175,0.00019308065682082206,0.0175301869596009,2.6026084175329394,0.8037013538814943,0.18528446485131295,-5.729693902012037,37.2
,,0.01408903499322696,0.0032480713095531175,0.00019308065682082206,0.0175301869596009,2.6241329912587466,0.8037013538814943,0.18528446485131295,-5.729693902012037,37.3
,,0.01408903499322696,0.0032480713095531175,0.00019308065682082206,0.0175301869596009,2.64715887971606,0.8037013538814943,0.18528446485131295,-5.729693902012037,37.4
,,0.01408903499322696,0.0032480713095531175,0.00019308065682082206,0.0175301869596009,2.6701847681733737,0.8037013538814943,0.18528446485131295,-5.729693902012037,37.5
,,0.01408903499322696,0.0032480713095531175,0.00019308065682082206,0.0175301869596009,2.693210656630687,0.8037013538814943,0.18528446485131295,-5.729693902012037,37.6
,,0.016490493575358256,0.0032683213876884116,0.0001964336752978139,0.01995524863834448,2.7250265110077025,0.8263737462870487,0.16378254397734013,-5.723478762973916,37.7
,,0.016490493575358256,0.0032683213876884116,0.0001964336752978139,0.01995524863834448,2.7568423653847183,0.8263737462870487,0.16378254397734013,-5.723478762973916,37.8
,,0.016490493575358256,0.0032683213876884116,0.0001964336752978139,0.01995524863834448,2.7886582197617344,0.8263737462870487,0.16378254397734013,-5.723478762973916,37.9
,,0.016490493575358256,0.0032683213876884116,0.0001964336752978139,0.01995524863834448,2.821762063543062,0.8263737462870487,0.16378254397734013,-5.723478762973916,38.0
,,0.016490493575358256,0.0032683213876884116,0.0001964336752978139,0.01995524863834448,2.8548659073243896,0.8263737462870487,0.16378254397734013,-5.723478762973916,38.1
,,0.016490493575358256,0.0032683213876884116,0.0001964336752978139,0.01995524863834448,2.8879697511057176,0.8263737462870487,0.16378254397734013,-5.723478762973916,38.2
,,0.017546465648002597,0.0032941322918010538,0.0001518813454021942,0.020992479285205843,2.9245864385895453,0.8358453239188486,0.15691963998376063,-5.715612486587766,38.3
,,0.01855813225902292,0.0031922943329478455,0.0001908625115455015,0.021941289103516264,2.9674365691798443,0.8458086565227761,0.14549256052764262,-5.747015394075489,38.4
,,0.01855813225902292,0.0031922943329478455,0.0001908625115455015,0.021941289103516264,3.0112578096213127,0.8458086565227761,0.14549256052764262,-5.747015394075489,38.5
,,0.01855813225902292,0.0031922943329478455,0.0001908625115455015,0.021941289103516264,3.055079050062781,0.8458086565227761,0.14549256052764262,-5.747015394075489,38.6
,,0.01855813225902292,0.0031922943329478455,0.0001908625115455015,0.021941289103516264,3.0989002905042495,0.8458086565227761,0.14549256052764262,-5.747015394075489,38.7
,,0.01855813225902292,0.0031922943329478455,0.0001908625115455015,0.021941289103516264,3.1427215309457184,0.8458086565227761,0.14549256052764262,-5.747015394075489,38.8
,,0.01855813225902292,0.0031922943329478455,0.0001908625115455015,0.021941289103516264,3.1865427713871863,0.8458086565227761,0.14549256052764262,-5.747015394075489,38.9
,,0.02065310516256328,0.0031182341763263976,0.00018409847730589796,0.023955437816195576,3.240487992252041,0.8621468461995846,0.13016811465738481,-5.770488406507883,39.0
,,0.02065310516256328,0.0031182341763263976,0.00018409847730589796,0.023955437816195576,3.2952814243068076,0.8621468461995846,0.13016811465738481,-5.770488406507883,39.1
,,0.02065310516256328,0.0031182341763263976,0.00018409847730589796,0.023955437816195576,3.3500748563615743,0.8621468461995846,0.13016811465738481,-5.770488406507883,39.2
,,0.02065310516256328,0.0031182341763263976,0.00018409847730589796,0.023955437816195576,3.404868288416342,0.8621468461995846,0.13016811465738481,-5.770488406507883,39.3
,,0.02065310516256328,0.0031182341763263976,0.00018409847730589796,0.023955437816195576,3.4596617204711095,0.8621468461995846,0.13016811465738481,-5.770488406507883,39.4
,,0.02065310516256328,0.0031182341763263976,0.00018409847730589796,0.023955437816195576,3.5144551525258763,0.8621468461995846,0.13016811465738481,-5.770488406507883,39.5
,,0.002247258602007111,0.0009242295319418957,6.0400826399141844e-05,0.0032318889603481487,3.516850590248892,0.6953390508085493,0.2859719326007831,-6.986550105979013,39.6
,,0.0022223678708217106,0.0009745738203784965,8.586293779795829e-05,0.0032828046289981655,3.5284208759300597,0.6769723215298148,0.2968723181908981,-6.933510289829778,39.7
,,0.0022223678708217106,0.0009745738203784965,8.586293779795829e-05,0.0032828046289981655,3.5294105242834513,0.6769723215298148,0.2968723181908981,-6.933510289829778,39.8
,,0.0022223678708217106,0.0009745738203784965,8.586293779795829e-05,0.0032828046289981655,3.530400172636843,0.6769723215298148,0.2968723181908981,-6.933510289829778,39.9
,,0.0022223678708217106,0.0009745738203784965,8.586293779795829e-05,0.0032828046289981655,3.531389820990234,0.6769723215298148,0.2968723181908981,-6.933510289829778,40.0
,,0.0022223678708217106,0.0009745738203784965,8.586293779795829e-05,0.0032828046289981655,3.5323794693436255,0.6769723215298148,0.2968723181908981,-6.933510289829778,40.1
,,0.0022223678708217106,0.0009745738203784965,8.586293779795829e-05,0.0032828046289981655,3.533369117697018,0.6769723215298148,0.2968723181908981,-6.933510289829778,40.2
,,0.024852298647444898,0.003131374479056879,0.00017090305627419475,0.028154576182775972,3.604902357732347,0.8827090305358141,0.1112207997282001,-5.76628324013064,40.3
,,0.024852298647444898,0.003131374479056879,0.00017090305627419475,0.028154576182775972,3.676435597767676,0.8827090305358141,0.1112207997282001,-5.76628324013064,40.4
,,0.024852298647444898,0.003131374479056879,0.00017090305627419475,0.028154576182775972,3.748082465373021,0.8827090305358141,0.1112207997282001,-5.76628324013064,40.5
,,0.024852298647444898,0.003131374479056879,0.00017090305627419475,0.028154576182775972,3.8197293329783664,0.8827090305358141,0.1112207997282001,-5.76628324013064,40.6
,,0.024852298647444898,0.003131374479056879,0.00017090305627419475,0.028154576182775972,3.891376200583712,0.8827090305358141,0.1112207997282001,-5.76628324013064,40.7
,,0.024852298647444898,0.003131374479056879,0.00017090305627419475,0.028154576182775972,3.963023068189057,0.8827090305358141,0.1112207997282001,-5.76628324013064,40.8
,,0.027448842167441194,0.003308373629663118,0.00016883405343927837,0.030926049850543588,4.038485852158867,0.8875637949267137,0.10697692222742655,-5.711298560900355,40.9
,,0.027448842167441194,0.003308373629663118,0.00016883405343927837,0.030926049850543588,4.113948636128677,0.8875637949267137,0.10697692222742655,-5.711298560900355,41.0
,,0.027448842167441194,0.003308373629663118,0.00016883405343927837,0.030926049850543588,4.189411420098486,0.8875637949267137,0.10697692222742655,-5.711298560900355,41.1
,,0.027448842167441194,0.003308373629663118,0.00016883405343927837,0.030926049850543588,4.264789460013147,0.8875637949267137,0.10697692222742655,-5.711298560900355,41.2
,,0.027448842167441194,0.003308373629663118,0.00016883405343927837,0.030926049850543588,4.3401674999278095,0.8875637949267137,0.10697692222742655,-5.711298560900355,41.3
,,0.027448842167441194,0.003308373629663118,0.00016883405343927837,0.030926049850543588,4.415545539842471,0.8875637949267137,0.10697692222742655,-5.711298560900355,41.4
,,0.028456362828952964,0.0034201685358976465,0.00016708447506400646,0.032043615839914615,4.49121590132377,0.8880509294305905,0.10673478776503645,-5.678065449619583,41.5
,,0.03012285027189831,0.003590901965375506,0.00016780136183533063,0.033881553599109146,4.566505011337201,0.8890634304529157,0.10598398195854639,-5.629351864201209,41.6
,,0.03012285027189831,0.003590901965375506,0.00016780136183533063,0.033881553599109146,4.6417941213506335,0.8890634304529157,0.10598398195854639,-5.629351864201209,41.7
,,0.03012285027189831,0.003590901965375506,0.00016780136183533063,0.033881553599109146,4.7170832313640645,0.8890634304529157,0.10598398195854639,-5.629351864201209,41.8
,,0.03012285027189831,0.003590901965375506,0.00016780136183533063,0.033881553599109146,4.792103213725026,0.8890634304529157,0.10598398195854639,-5.629351864201209,41.9
,,0.002573327514538029,0.001735803931436449,9.990507750708335e-05,0.004409036523481562,4.780796201852921,0.5836484911914545,0.3936923457521701,-6.356284611843428,42.0
,,0.002573327514538029,0.001735803931436449,9.990507750708335e-05,0.004409036523481562,4.769489189980818,0.5836484911914545,0.3936923457521701,-6.356284611843428,42.1
,,0.002573327514538029,0.001735803931436449,9.990507750708335e-05,0.004409036523481562,4.758182178108713,0.5836484911914545,0.3936923457521701,-6.356284611843428,42.2
,,0.03281367378659071,0.004002202139082491,0.0001309172788298983,0.0369467932045031,4.814377240697249,0.8881332029268336,0.10832339675408419,-5.520910534580294,42.3
,,0.03281367378659071,0.004002202139082491,0.0001309172788298983,0.0369467932045031,4.870572303285784,0.8881332029268336,0.10832339675408419,-5.520910534580294,42.4
,,0.03281367378659071,0.004002202139082491,0.0001309172788298983,0.0369467932045031,4.94069362944993,0.8881332029268336,0.10832339675408419,-5.520910534580294,42.5
,,0.033513061794701836,0.004214174728416124,0.00017411529181701516,0.03790135181493498,5.007734414611796,0.8842181133364234,0.11118797949458714,-5.4693015006685375,42.6
,,0.033513061794701836,0.004214174728416124,0.00017411529181701516,0.03790135181493498,5.074775199773661,0.8842181133364234,0.11118797949458714,-5.4693015006685375,42.7
,,0.033513061794701836,0.004214174728416124,0.00017411529181701516,0.03790135181493498,5.141815984935526,0.8842181133364234,0.11118797949458714,-5.4693015006685375,42.8
,,0.033513061794701836,0.004214174728416124,0.00017411529181701516,0.03790135181493498,5.208856770097392,0.8842181133364234,0.11118797949458714,-5.4693015006685375,42.9
,,0.033513061794701836,0.004214174728416124,0.00017411529181701516,0.03790135181493498,5.273373897222882,0.8842181133364234,0.11118797949458714,-5.4693015006685375,43.0
,,0.03515057734869918,0.004509397250494508,0.00013645588014728845,0.03979643047934098,5.3349625721390534,0.8832595518069507,0.11331160096972553,-5.401591781739616,43.1
,,0.0009711874630345036,0.0026929204375148786,0.00013640573003251573,0.003800513630581898,5.303622288644012,0.25554110771227645,0.708567498836352,-5.917129009772226,43.2
,,0.0009711874630345036,0.0026929204375148786,0.00013640573003251573,0.003800513630581898,5.272282005148968,0.25554110771227645,0.708567498836352,-5.917129009772226,43.3
,,0.0009711874630345036,0.0026929204375148786,0.00013640573003251573,0.003800513630581898,5.240941721653925,0.25554110771227645,0.708567498836352,-5.917129009772226,43.4
,,0.0009711874630345036,0.0026929204375148786,0.00013640573003251573,0.003800513630581898,5.209601438158882,0.25554110771227645,0.708567498836352,-5.917129009772226,43.5
,,0.0009711874630345036,0.0026929204375148786,0.00013640573003251573,0.003800513630581898,5.178261154663838,0.25554110771227645,0.708567498836352,-5.917129009772226,43.6
,,0.0009711874630345036,0.0026929204375148786,0.00013640573003251573,0.003800513630581898,5.139791158981786,0.25554110771227645,0.708567498836352,-5.917129009772226,43.7
,,0.02392066498181314,0.005318784140820831,0.00018696347949011374,0.029426412602124082,5.166897076052633,0.8128977631505948,0.18074864281747025,-5.2365105467074535,43.8
,,0.02392066498181314,0.005318784140820831,0.00018696347949011374,0.029426412602124082,5.194002993123481,0.8128977631505948,0.18074864281747025,-5.2365105467074535,43.9
,,0.02392066498181314,0.005318784140820831,0.00018696347949011374,0.029426412602124082,5.221108910194327,0.8128977631505948,0.18074864281747025,-5.2365105467074535,44.0
,,0.02392066498181314,0.005318784140820831,0.00018696347949011374,0.029426412602124082,5.2482148272651745,0.8128977631505948,0.18074864281747025,-5.2365105467074535,44.1
,,0.02392066498181314,0.005318784140820831,0.00018696347949011374,0.029426412602124082,5.275320744336022,0.8128977631505948,0.18074864281747025,-5.2365105467074535,44.2
,,0.02392066498181314,0.005318784140820831,0.00018696347949011374,0.029426412602124082,5.302426661406869,0.8128977631505948,0.18074864281747025,-5.2365105467074535,44.3
,,0.02392066498181314,0.005318784140820831,0.00018696347949011374,0.029426412602124082,5.311827285569401,0.8128977631505948,0.18074864281747025,-5.2365105467074535,44.4
,,0.036216788292438615,0.005572280359977133,0.0001966533656911081,0.04198572201810685,5.34625368543126,0.8625977249318157,0.13271845980340696,-5.189950908469442,44.5
,,0.004593484282383733,0.003738878714770024,0.00017268565247144577,0.008505048649625202,5.314794050042561,0.5400891248971464,0.43960697566789203,-5.588969521392386,44.6
,,0.004593484282383733,0.003738878714770024,0.00017268565247144577,0.008505048649625202,5.2833344146538606,0.5400891248971464,0.43960697566789203,-5.588969521392386,44.7
,,0.004593484282383733,0.003738878714770024,0.00017268565247144577,0.008505048649625202,5.251874779265162,0.5400891248971464,0.43960697566789203,-5.588969521392386,44.8
,,0.004593484282383733,0.003738878714770024,0.00017268565247144577,0.008505048649625202,5.220415143876462,0.5400891248971464,0.43960697566789203,-5.588969521392386,44.9
,,0.004593484282383733,0.003738878714770024,0.00017268565247144577,0.008505048649625202,5.181551529431141,0.5400891248971464,0.43960697566789203,-5.588969521392386,45.0
,,0.0049394209699051535,0.0038803552100487295,0.00017363148552191203,0.008993407665475794,5.143242382681896,0.549226850781687,0.4314666202606129,-5.551828580555676,45.1
,,0.0049394209699051535,0.0038803552100487295,0.00017363148552191203,0.008993407665475794,5.104933235932651,0.549226850781687,0.4314666202606129,-5.551828580555676,45.2
,,0.021556019972195882,0.005996810874099813,0.00019109761975408276,0.027743928466049776,5.095644720234693,0.7769635074778241,0.21614858477731827,-5.116527472044798,45.3
,,0.021556019972195882,0.005996810874099813,0.00019109761975408276,0.027743928466049776,5.086356204536736,0.7769635074778241,0.21614858477731827,-5.116527472044798,45.4
,,0.021556019972195882,0.005996810874099813,0.00019109761975408276,0.027743928466049776,5.077067688838778,0.7769635074778241,0.21614858477731827,-5.116527472044798,45.5
,,0.021556019972195882,0.005996810874099813,0.00019109761975408276,0.027743928466049776,5.06777917314082,0.7769635074778241,0.21614858477731827,-5.116527472044798,45.6
,,0.021556019972195882,0.005996810874099813,0.00019109761975408276,0.027743928466049776,5.04964199969023,0.7769635074778241,0.21614858477731827,-5.116527472044798,45.7
,,0.021556019972195882,0.005996810874099813,0.00019109761975408276,0.027743928466049776,5.03150482623964,0.7769635074778241,0.21614858477731827,-5.116527472044798,45.8
,,0.03237407405349315,0.006177657427760436,0.00019110121825743393,0.038742832699511016,5.033941767428325,0.8356145330050105,0.15945291031438716,-5.086816136369494,45.9
,,0.03237407405349315,0.006177657427760436,0.00019110121825743393,0.038742832699511016,5.036378708617009,0.8356145330050105,0.15945291031438716,-5.086816136369494,46.0
,,0.03237407405349315,0.006177657427760436,0.00019110121825743393,0.038742832699511016,5.0388156498056915,0.8356145330050105,0.15945291031438716,-5.086816136369494,46.1
,,0.03237407405349315,0.006177657427760436,0.00019110121825743393,0.038742832699511016,5.041252590994375,0.8356145330050105,0.15945291031438716,-5.086816136369494,46.2
,,0.03237407405349315,0.006177657427760436,0.00019110121825743393,0.038742832699511016,5.040176688480559,0.8356145330050105,0.15945291031438716,-5.086816136369494,46.3
,,0.03237407405349315,0.006177657427760436,0.00019110121825743393,0.038742832699511016,5.033015371043854,0.8356145330050105,0.15945291031438716,-5.086816136369494,46.4
,,0.03237407405349315,0.006177657427760436,0.00019110121825743393,0.038742832699511016,5.025854053607148,0.8356145330050105,0.15945291031438716,-5.086816136369494,46.5
,,0.0032865501962681828,0.0042317054022453044,0.0001865132721727023,0.007704768870686189,4.962894477913723,0.4265605174442412,0.5492319722068999,-5.465150198794979,46.6
,,0.0032865501962681828,0.0042317054022453044,0.0001865132721727023,0.007704768870686189,4.899934902220297,0.4265605174442412,0.5492319722068999,-5.465150198794979,46.7
,,0.0032865501962681828,0.0042317054022453044,0.0001865132721727023,0.007704768870686189,4.836975326526872,0.4265605174442412,0.5492319722068999,-5.465150198794979,46.8
,,0.0032865501962681828,0.0042317054022453044,0.0001865132721727023,0.007704768870686189,4.774015750833446,0.4265605174442412,0.5492319722068999,-5.465150198794979,46.9
,,0.0032865501962681828,0.0042317054022453044,0.0001865132721727023,0.007704768870686189,4.700932194716636,0.4265605174442412,0.5492319722068999,-5.465150198794979,47.0
,,0.0032865501962681828,0.0042317054022453044,0.0001865132721727023,0.007704768870686189,4.627848638599825,0.4265605174442412,0.5492319722068999,-5.465150198794979,47.1
,,0.007142824230070451,0.004295133883017537,0.0001590472826221099,0.011597005395710099,4.565844516980639,0.615919712576204,0.37036577430638856,-5.45027255219996,47.2
,,0.0075949968687974954,0.004248666028714537,0.0001873607718862286,0.012031023669398259,4.505398086811715,0.6312843426711806,0.3531425209910702,-5.461150220911646,47.3
,,0.0075949968687974954,0.004248666028714537,0.0001873607718862286,0.012031023669398259,4.4449516566427905,0.6312843426711806,0.3531425209910702,-5.461150220911646,47.4
,,0.0075949968687974954,0.004248666028714537,0.0001873607718862286,0.012031023669398259,4.384505226473866,0.6312843426711806,0.3531425209910702,-5.461150220911646,47.5
,,0.0075949968687974954,0.004248666028714537,0.0001873607718862286,0.012031023669398259,4.376456790636694,0.6312843426711806,0.3531425209910702,-5.461150220911646,47.6
,,0.0075949968687974954,0.004248666028714537,0.0001873607718862286,0.012031023669398259,4.370297675105197,0.6312843426711806,0.3531425209910702,-5.461150220911646,47.7
,,0.0075949968687974954,0.004248666028714537,0.0001873607718862286,0.012031023669398259,4.3641385595737,0.6312843426711806,0.3531425209910702,-5.461150220911646,47.8
,,0.028862517517096967,0.006408311881556612,0.0001593695574973971,0.035430198956150974,4.391933191589851,0.8146304104252341,0.1808714619268057,-5.050159399745555,47.9
,,0.016396733251376125,0.006435111007280292,0.00018883272190391598,0.02302067698056033,4.395278973107363,0.7122611235639267,0.2795361323524231,-5.045986187534228,48.0
,,0.016396733251376125,0.006435111007280292,0.00018883272190391598,0.02302067698056033,4.3986247546248745,0.7122611235639267,0.2795361323524231,-5.045986187534228,48.1
,,0.016396733251376125,0.006435111007280292,0.00018883272190391598,0.02302067698056033,4.401970536142386,0.7122611235639267,0.2795361323524231,-5.045986187534228,48.2
,,0.016396733251376125,0.006435111007280292,0.00018883272190391598,0.02302067698056033,4.334613843705362,0.7122611235639267,0.2795361323524231,-5.045986187534228,48.3
,,0.016396733251376125,0.006435111007280292,0.00018883272190391598,0.02302067698056033,4.267257151268337,0.7122611235639267,0.2795361323524231,-5.045986187534228,48.4
,,0.027925382466923915,0.006446565495170897,0.00015848523361339738,0.03453043319570821,4.222198113031244,0.8087179882352232,0.18669228557411033,-5.044207771361859,48.5
,,0.027925382466923915,0.006446565495170897,0.00015848523361339738,0.03453043319570821,4.17713907479415,0.8087179882352232,0.18669228557411033,-5.044207771361859,48.6
,,0.027925382466923915,0.006446565495170897,0.00015848523361339738,0.03453043319570821,4.132080036557056,0.8087179882352232,0.18669228557411033,-5.044207771361859,48.7
,,0.009777294161805929,0.004106333140526529,0.0001832652266742481,0.014066892529006704,4.062636057290515,0.6950571451118015,0.2919147304252908,-5.495224828623931,48.8
,,0.009777294161805929,0.004106333140526529,0.0001832652266742481,0.014066892529006704,3.988689179873557,0.6950571451118015,0.2919147304252908,-5.495224828623931,48.9
,,0.009777294161805929,0.004106333140526529,0.0001832652266742481,0.014066892529006704,3.9147423024566,0.6950571451118015,0.2919147304252908,-5.495224828623931,49.0
,,0.009777294161805929,0.004106333140526529,0.0001832652266742481,0.014066892529006704,3.840795425039642,0.6950571451118015,0.2919147304252908,-5.495224828623931,49.1
,,0.010912101751915185,0.004212016481749531,0.00016033140710464952,0.015284449640769365,3.769469538660901,0.713934882078352,0.2755752794994006,-5.469813771672117,49.2
,,0.010912101751915185,0.004212016481749531,0.00016033140710464952,0.015284449640769365,3.69814365228216,0.713934882078352,0.2755752794994006,-5.469813771672117,49.3
,,0.01157345411607253,0.0041549521259711215,0.00018798391111149546,0.015916390153155147,3.6292521784472362,0.7271406395990044,0.2610486477140971,-5.483454372769716,49.4
,,0.01157345411607253,0.0041549521259711215,0.00018798391111149546,0.015916390153155147,3.560068383045676,0.7271406395990044,0.2610486477140971,-5.483454372769716,49.5
,,0.01157345411607253,0.0041549521259711215,0.00018798391111149546,0.015916390153155147,3.4900284053860693,0.7271406395990044,0.2610486477140971,-5.483454372769716,49.6
,,0.01157345411607253,0.0041549521259711215,0.00018798391111149546,0.015916390153155147,3.4199884277264623,0.7271406395990044,0.2610486477140971,-5.483454372769716,49.7
,,0.02858614416385505,0.006584712476654629,0.0001559463596044192,0.0353268030001141,3.3693963172575048,0.8091913713155057,0.18639423659801205,-5.023004608118354,49.8
,,0.02858614416385505,0.006584712476654629,0.0001559463596044192,0.0353268030001141,3.3188042067885464,0.8091913713155057,0.18639423659801205,-5.023004608118354,49.9
,,0.02858614416385505,0.006584712476654629,0.0001559463596044192,0.0353268030001141,3.3545390905526524,0.8091913713155057,0.18639423659801205,-5.023004608118354,50.0
,,0.02890791947649108,0.006590204918062615,0.00018515819951333236,0.03568328259406703,3.390839076307646,0.8101250046232442,0.18468606134230353,-5.022170835645766,50.1
,,0.02890791947649108,0.006590204918062615,0.00018515819951333236,0.03568328259406703,3.4271390620626407,0.8101250046232442,0.18468606134230353,-5.022170835645766,50.2
,,0.02890791947649108,0.006590204918062615,0.00018515819951333236,0.03568328259406703,3.3794839764489835,0.8101250046232442,0.18468606134230353,-5.022170835645766,50.3
,,0.02890791947649108,0.006590204918062615,0.00018515819951333236,0.03568328259406703,3.3318288908353275,0.8101250046232442,0.18468606134230353,-5.022170835645766,50.4
,,0.029715398781047515,0.006607661052201287,0.00015305101020713808,0.036476110843455936,3.285556495716304,0.8146537033121957,0.1811503721040684,-5.019525537632093,50.5
,,0.029715398781047515,0.006607661052201287,0.00015305101020713808,0.036476110843455936,3.2423646415995613,0.8146537033121957,0.1811503721040684,-5.019525537632093,50.6
,,0.018483072172169778,0.006633080844500685,0.00018369323512714499,0.025299846251797608,3.1777901099708847,0.7305606519587651,0.2621787017393195,-5.015685900287352,50.7
,,0.018483072172169778,0.006633080844500685,0.00018369323512714499,0.025299846251797608,3.113215578342208,0.7305606519587651,0.2621787017393195,-5.015685900287352,50.8
,,0.018483072172169778,0.006633080844500685,0.00018369323512714499,0.025299846251797608,3.0486410467135316,0.7305606519587651,0.2621787017393195,-5.015685900287352,50.9
,,0.018483072172169778,0.006633080844500685,0.00018369323512714499,0.025299846251797608,2.9840665150848555,0.7305606519587651,0.2621787017393195,-5.015685900287352,51.0
,,0.0313123913728587,0.006609255494611914,0.00014955038316979397,0.038071197250640405,2.945850221513747,0.8224693110309785,0.17360251244793037,-5.019284264652467,51.1
,,0.0313123913728587,0.006609255494611914,0.00014955038316979397,0.038071197250640405,3.000562886353854,0.8224693110309785,0.17360251244793037,-5.019284264652467,51.2
,,0.03218613603975685,0.006589970621827721,0.00017996899259998552,0.038956075654184553,3.05710619250442,0.8262160779611152,0.16916412937297098,-5.0222063884704164,51.3
,,0.03218613603975685,0.006589970621827721,0.00017996899259998552,0.038956075654184553,3.1136494986549867,0.8262160779611152,0.16916412937297098,-5.0222063884704164,51.4
,,0.03218613603975685,0.006589970621827721,0.00017996899259998552,0.038956075654184553,3.1701928048055534,0.8262160779611152,0.16916412937297098,-5.0222063884704164,51.5
,,0.03218613603975685,0.006589970621827721,0.00017996899259998552,0.038956075654184553,3.22673611095612,0.8262160779611152,0.16916412937297098,-5.0222063884704164,51.6
,,0.03218613603975685,0.006589970621827721,0.00017996899259998552,0.038956075654184553,3.2832794171066864,0.8262160779611152,0.16916412937297098,-5.0222063884704164,51.7
,,0.02296105651010063,0.004483001630481282,0.00020891597822250322,0.027652974118804415,3.291084551229315,0.8303286442700131,0.1621164367789567,-5.407462450105737,51.8
,,0.02296105651010063,0.004483001630481282,0.00020891597822250322,0.027652974118804415,3.2988896853519427,0.8303286442700131,0.1621164367789567,-5.407462450105737,51.9
,,0.02296105651010063,0.004483001630481282,0.00020891597822250322,0.027652974118804415,3.3066948194745707,0.8303286442700131,0.1621164367789567,-5.407462450105737,52.0
,,0.02296105651010063,0.004483001630481282,0.00020891597822250322,0.027652974118804415,3.3144999535971977,0.8303286442700131,0.1621164367789567,-5.407462450105737,52.1
,,0.02296105651010063,0.004483001630481282,0.00020891597822250322,0.027652974118804415,3.322305087719826,0.8303286442700131,0.1621164367789567,-5.407462450105737,52.2
,,0.02296105651010063,0.004483001630481282,0.00020891597822250322,0.027652974118804415,3.330110221842454,0.8303286442700131,0.1621164367789567,-5.407462450105737,52.3
,,0.027051241787537744,0.004597230009803381,0.0002119151282958074,0.031860386925636926,3.347445904465925,0.8490556580708242,0.1442929748635335,-5.382301328647206,52.4
,,0.027051241787537744,0.004597230009803381,0.0002119151282958074,0.031860386925636926,3.3397558113900687,0.8490556580708242,0.1442929748635335,-5.382301328647206,52.5
,,0.027051241787537744,0.004597230009803381,0.0002119151282958074,0.031860386925636926,3.3979517535647714,0.8490556580708242,0.1442929748635335,-5.382301328647206,52.6
,,0.027051241787537744,0.004597230009803381,0.0002119151282958074,0.031860386925636926,3.4561476957394737,0.8490556580708242,0.1442929748635335,-5.382301328647206,52.7
,,0.027051241787537744,0.004597230009803381,0.0002119151282958074,0.031860386925636926,3.514343637914177,0.8490556580708242,0.1442929748635335,-5.382301328647206,52.8
,,0.027051241787537744,0.004597230009803381,0.0002119151282958074,0.031860386925636926,3.572539580088879,0.8490556580708242,0.1442929748635335,-5.382301328647206,52.9
,,0.028543730709423582,0.004619359562948033,0.00021615944687778952,0.03337924971924941,3.6344218372252692,0.8551339814256746,0.1383901556146753,-5.37749920623603,53.0
,,0.0387296754975364,0.006152760873984988,0.0001611656037687993,0.045043601975290185,3.6971937407194018,0.8598263415697206,0.13659566740155998,-5.090854375300128,53.1
,,0.0387296754975364,0.006152760873984988,0.0001611656037687993,0.045043601975290185,3.7599656442135343,0.8598263415697206,0.13659566740155998,-5.090854375300128,53.2
,,0.0387296754975364,0.006152760873984988,0.0001611656037687993,0.045043601975290185,3.7937169166563804,0.8598263415697206,0.13659566740155998,-5.090854375300128,53.3
,,0.0387296754975364,0.006152760873984988,0.0001611656037687993,0.045043601975290185,3.827468189099227,0.8598263415697206,0.13659566740155998,-5.090854375300128,53.4
,,0.0387296754975364,0.006152760873984988,0.0001611656037687993,0.045043601975290185,3.861219461542073,0.8598263415697206,0.13659566740155998,-5.090854375300128,53.5
,,0.03269915912306795,0.004692158923411318,0.0002166688771355429,0.03760798692361481,3.903398381705604,0.8694737952734048,0.12476495838348149,-5.3618624776197406,53.6
,,0.02520780786036339,0.004819595828730335,0.00021166901964847008,0.030239072708742196,3.923844552196596,0.8336170921364181,0.15938305632424293,-5.335065207395996,53.7
,,0.02520780786036339,0.004819595828730335,0.00021166901964847008,0.030239072708742196,3.944290722687588,0.8336170921364181,0.15938305632424293,-5.335065207395996,53.8
,,0.02520780786036339,0.004819595828730335,0.00021166901964847008,0.030239072708742196,3.944162778539306,0.8336170921364181,0.15938305632424293,-5.335065207395996,53.9
,,0.02520780786036339,0.004819595828730335,0.00021166901964847008,0.030239072708742196,3.9440348343910236,0.8336170921364181,0.15938305632424293,-5.335065207395996,54.0
,,0.02520780786036339,0.004819595828730335,0.00021166901964847008,0.030239072708742196,3.9439068902427414,0.8336170921364181,0.15938305632424293,-5.335065207395996,54.1
,,0.04199541329565527,0.005753825200538443,0.00015366657679816807,0.047902905072991886,3.969634201538748,0.8766777971328651,0.12011432692382794,-5.1578903930875235,54.2
,,0.028632786353528884,0.004983599367196181,0.00021026560325474743,0.03382665132397981,3.975945366012573,0.8464564251215437,0.1473276003428484,-5.301602884516823,54.3
,,0.028632786353528884,0.004983599367196181,0.00021026560325474743,0.03382665132397981,3.982256530486398,0.8464564251215437,0.1473276003428484,-5.301602884516823,54.4
,,0.028632786353528884,0.004983599367196181,0.00021026560325474743,0.03382665132397981,3.988567694960223,0.8464564251215437,0.1473276003428484,-5.301602884516823,54.5
,,0.028632786353528884,0.004983599367196181,0.00021026560325474743,0.03382665132397981,4.050677117690768,0.8464564251215437,0.1473276003428484,-5.301602884516823,54.6
,,0.028632786353528884,0.004983599367196181,0.00021026560325474743,0.03382665132397981,4.112786540421313,0.8464564251215437,0.1473276003428484,-5.301602884516823,54.7
,,0.028632786353528884,0.004983599367196181,0.00021026560325474743,0.03382665132397981,4.174895963151857,0.8464564251215437,0.1473276003428484,-5.301602884516823,54.8
,,0.0438921088917603,0.005491351887389377,0.00014708872105689632,0.04953054950020657,4.265099742198173,0.8861623651394629,0.11086797830430843,-5.204580808348011,54.9
,,0.043865345969048196,0.005277688704219256,0.000138137223182799,0.04928117189645025,4.359284990728154,0.8901035482926054,0.10709340912810984,-5.24426702251548,55.0
,,0.043865345969048196,0.005277688704219256,0.000138137223182799,0.04928117189645025,4.453470239258136,0.8901035482926054,0.10709340912810984,-5.24426702251548,55.1
,,0.043865345969048196,0.005277688704219256,0.000138137223182799,0.04928117189645025,4.536576053290493,0.8901035482926054,0.10709340912810984,-5.24426702251548,55.2
,,0.043865345969048196,0.005277688704219256,0.000138137223182799,0.04928117189645025,4.6181241758725875,0.8901035482926054,0.10709340912810984,-5.24426702251548,55.3
,,0.043865345969048196,0.005277688704219256,0.000138137223182799,0.04928117189645025,4.699672298454682,0.8901035482926054,0.10709340912810984,-5.24426702251548,55.4
,,0.04448611253527464,0.00512013672163325,0.00013862815362298886,0.04974487741053088,4.785932831778184,0.8942852983261554,0.10292791917805245,-5.274574136843257,55.5
,,0.03434368329608052,0.00545698917164443,0.00020622065423627745,0.04000689312196123,4.842256621398667,0.858444148396718,0.13640122353437367,-5.210858075085595,55.6
,,0.03434368329608052,0.00545698917164443,0.00020622065423627745,0.04000689312196123,4.89858041101915,0.858444148396718,0.13640122353437367,-5.210858075085595,55.7
,,0.03434368329608052,0.00545698917164443,0.00020622065423627745,0.04000689312196123,4.954904200639634,0.858444148396718,0.13640122353437367,-5.210858075085595,55.8
,,0.03434368329608052,0.00545698917164443,0.00020622065423627745,0.04000689312196123,4.977274242712467,0.858444148396718,0.13640122353437367,-5.210858075085595,55.9
,,0.03434368329608052,0.00545698917164443,0.00020622065423627745,0.04000689312196123,5.024093135283943,0.858444148396718,0.13640122353437367,-5.210858075085595,56.0
,,0.04820198421447631,0.005458653704682051,0.0002175831403846273,0.053878221059542986,5.102622743289356,0.894646914218017,0.10131466105106689,-5.210553093863805,56.1
,,0.045063825473540264,0.004739450780874589,0.00012831215662687784,0.04993158841104173,5.189625580105194,0.9025113541866612,0.09491888665465568,-5.351834019002284,56.2
,,0.045063825473540264,0.004739450780874589,0.00012831215662687784,0.04993158841104173,5.276628416921032,0.9025113541866612,0.09491888665465568,-5.351834019002284,56.3
,,0.045063825473540264,0.004739450780874589,0.00012831215662687784,0.04993158841104173,5.3636312537368696,0.9025113541866612,0.09491888665465568,-5.351834019002284,56.4
,,0.045063825473540264,0.004739450780874589,0.00012831215662687784,0.04993158841104173,5.428336436352777,0.9025113541866612,0.09491888665465568,-5.351834019002284,56.5
,,0.045063825473540264,0.004739450780874589,0.00012831215662687784,0.04993158841104173,5.493041618968684,0.9025113541866612,0.09491888665465568,-5.351834019002284,56.6
,,0.045063825473540264,0.004739450780874589,0.00012831215662687784,0.04993158841104173,5.5577468015845914,0.9025113541866612,0.09491888665465568,-5.351834019002284,56.7
,,0.04570454305191002,0.004620473476974764,0.00012865223969570368,0.050453668768580484,5.651630757766036,0.9058715484407363,0.0915785430424857,-5.377258094945963,56.8
,,0.04570454305191002,0.004620473476974764,0.00012865223969570368,0.050453668768580484,5.745514713947478,0.9058715484407363,0.0915785430424857,-5.377258094945963,56.9
,,0.04570454305191002,0.004620473476974764,0.00012865223969570368,0.050453668768580484,5.839398670128922,0.9058715484407363,0.0915785430424857,-5.377258094945963,57.0
,,0.04570454305191002,0.004620473476974764,0.00012865223969570368,0.050453668768580484,5.9332826263103655,0.9058715484407363,0.0915785430424857,-5.377258094945963,57.1
,,0.04570454305191002,0.004620473476974764,0.00012865223969570368,0.050453668768580484,6.0245455914535935,0.9058715484407363,0.0915785430424857,-5.377258094945963,57.2
,,0.04570454305191002,0.004620473476974764,0.00012865223969570368,0.050453668768580484,6.115808556596821,0.9058715484407363,0.0915785430424857,-5.377258094945963,57.3
,,0.0463710546623219,0.004590754838816915,0.00013231216845855263,0.05109412166959737,6.207252367523428,0.9075614404761195,0.08984898240355818,-5.383710815529291,57.4
,,0.0463710546623219,0.004590754838816915,0.00013231216845855263,0.05109412166959737,6.298696178450035,0.9075614404761195,0.08984898240355818,-5.383710815529291,57.5
,,0.0463710546623219,0.004590754838816915,0.00013231216845855263,0.05109412166959737,6.390139989376641,0.9075614404761195,0.08984898240355818,-5.383710815529291,57.6
,,0.0463710546623219,0.004590754838816915,0.00013231216845855263,0.05109412166959737,6.481583800303248,0.9075614404761195,0.08984898240355818,-5.383710815529291,57.7
,,0.0463710546623219,0.004590754838816915,0.00013231216845855263,0.05109412166959737,6.553579744039207,0.9075614404761195,0.08984898240355818,-5.383710815529291,57.8
,,0.0463710546623219,0.004590754838816915,0.00013231216845855263,0.05109412166959737,6.625575687775165,0.9075614404761195,0.08984898240355818,-5.383710815529291,57.9
,,0.046321108624709575,0.004589842891648107,0.00010429709030316707,0.051015248606660846,6.697460695004149,0.9079855511801157,0.08997001910226564,-5.383909483894594,58.0
,,0.046965319868773246,0.004644726794472495,0.00013801252985190987,0.051748059193097655,6.769023666057349,0.9075764502301886,0.08975654095819743,-5.372022725567229,58.1
,,0.046965319868773246,0.004644726794472495,0.00013801252985190987,0.051748059193097655,6.8405866371105475,0.9075764502301886,0.08975654095819743,-5.372022725567229,58.2
,,0.046965319868773246,0.004644726794472495,0.00013801252985190987,0.051748059193097655,6.912149608163747,0.9075764502301886,0.08975654095819743,-5.372022725567229,58.3
,,0.046965319868773246,0.004644726794472495,0.00013801252985190987,0.051748059193097655,6.983712579216946,0.9075764502301886,0.08975654095819743,-5.372022725567229,58.4
,,0.04565801158528779,0.006482236175615249,0.0001882259963804796,0.052328473757283514,7.0155431508880595,0.8725271024923161,0.12387588840603242,-5.0386897393178955,58.5
,,0.04565801158528779,0.006482236175615249,0.0001882259963804796,0.052328473757283514,7.047373722559174,0.8725271024923161,0.12387588840603242,-5.0386897393178955,58.6
,,0.047422128203775074,0.004763719792245589,0.00014496715738327806,0.05233081515340394,7.136978143974628,0.9061989205549463,0.09103087307700243,-5.346726446967532,58.7
,,0.047422128203775074,0.004763719792245589,0.00014496715738327806,0.05233081515340394,7.226582565390084,0.9061989205549463,0.09103087307700243,-5.346726446967532,58.8
,,0.047422128203775074,0.004763719792245589,0.00014496715738327806,0.05233081515340394,7.316186986805539,0.9061989205549463,0.09103087307700243,-5.346726446967532,58.9
,,0.047422128203775074,0.004763719792245589,0.00014496715738327806,0.05233081515340394,7.405791408220994,0.9061989205549463,0.09103087307700243,-5.346726446967532,59.0
,,0.047321421402972734,0.0048202137600932855,0.00014606381350525463,0.052287698976571276,7.4692867709771065,0.9050201544377809,0.09218638139446708,-5.334937003335925,59.1
,,0.047321421402972734,0.0048202137600932855,0.00014606381350525463,0.052287698976571276,7.532782133733219,0.9050201544377809,0.09218638139446708,-5.334937003335925,59.2
,,0.04478267330443404,0.007254745251336863,0.0002203421555624568,0.05225776071133336,7.548891771403364,0.8569573723567883,0.13882617916621703,-4.926099506792892,59.3
,,0.04478267330443404,0.007254745251336863,0.0002203421555624568,0.05225776071133336,7.565001409073507,0.8569573723567883,0.13882617916621703,-4.926099506792892,59.4
,,0.04478267330443404,0.007254745251336863,0.0002203421555624568,0.05225776071133336,7.581111046743652,0.8569573723567883,0.13882617916621703,-4.926099506792892,59.5
,,0.04478267330443404,0.007254745251336863,0.0002203421555624568,0.05225776071133336,7.597220684413794,0.8569573723567883,0.13882617916621703,-4.926099506792892,59.6
,,0.04765109394460396,0.0050105059907322325,0.00015529835904465824,0.052816898294380854,7.6550472683433215,0.902194098544282,0.09486558568444554,-5.296218372830993,59.7
,,0.04765109394460396,0.0050105059907322325,0.00015529835904465824,0.052816898294380854,7.709902664773098,0.902194098544282,0.09486558568444554,-5.296218372830993,59.8
,,0.04803849469158227,0.005157531448321328,0.00016389193189940822,0.05335991807180301,7.762308134217541,0.9002730219139385,0.09665553536609951,-5.267297215447282,59.9
,,0.04803849469158227,0.005157531448321328,0.00016389193189940822,0.05335991807180301,7.814713603661987,0.9002730219139385,0.09665553536609951,-5.267297215447282,60.0
,,0.04803849469158227,0.005157531448321328,0.00016389193189940822,0.05335991807180301,7.86711907310643,0.9002730219139385,0.09665553536609951,-5.267297215447282,60.1
,,0.04803849469158227,0.005157531448321328,0.00016389193189940822,0.05335991807180301,7.919524542550876,0.9002730219139385,0.09665553536609951,-5.267297215447282,60.2
,,0.03289545492571598,0.005238020791180671,0.00016529702635277734,0.03829877274324943,7.934003623392789,0.858916685039579,0.13676732741009118,-5.251811563606925,60.3
,,0.03289545492571598,0.005238020791180671,0.00016529702635277734,0.03829877274324943,7.938952155733861,0.858916685039579,0.13676732741009118,-5.251811563606925,60.4
,,0.0482246410163262,0.005403584443518259,0.0001739787611835465,0.05380220422102801,7.976956118391824,0.8963320688165807,0.10043425769917297,-5.22069275978357,60.5
,,0.0482246410163262,0.005403584443518259,0.0001739787611835465,0.05380220422102801,8.01496008104979,0.8963320688165807,0.10043425769917297,-5.22069275978357,60.6
,,0.0482246410163262,0.005403584443518259,0.0001739787611835465,0.05380220422102801,8.052964043707753,0.8963320688165807,0.10043425769917297,-5.22069275978357,60.7
,,0.04810373383791771,0.0054832501093709215,0.00017492321746401544,0.05376190716475265,8.089071575003988,0.8947549738238352,0.10199136151490264,-5.206057268176371,60.8
,,0.04810373383791771,0.0054832501093709215,0.00017492321746401544,0.05376190716475265,8.125179106300223,0.8947549738238352,0.10199136151490264,-5.206057268176371,60.9
,,0.04810373383791771,0.0054832501093709215,0.00017492321746401544,0.05376190716475265,8.157600322634769,0.8947549738238352,0.10199136151490264,-5.206057268176371,61.0
,,0.048353496817828294,0.005667042208682521,0.00018383901991720521,0.05420437804642802,8.185571849888877,0.8920588808603572,0.10454952926179677,-5.173087953669485,61.1
,,0.048353496817828294,0.005667042208682521,0.00018383901991720521,0.05420437804642802,8.213543377142985,0.8920588808603572,0.10454952926179677,-5.173087953669485,61.2
,,0.048353496817828294,0.005667042208682521,0.00018383901991720521,0.05420437804642802,8.241514904397093,0.8920588808603572,0.10454952926179677,-5.173087953669485,61.3
,,0.04824564338342878,0.005744195018889419,0.00018446578253007584,0.054174304184848275,8.267819199728411,0.8905632312103114,0.10603172676274046,-5.1595654960560475,61.4
,,0.04824564338342878,0.005744195018889419,0.00018446578253007584,0.054174304184848275,8.294123495059726,0.8905632312103114,0.10603172676274046,-5.1595654960560475,61.5
,,0.04824564338342878,0.005744195018889419,0.00018446578253007584,0.054174304184848275,8.312000142670357,0.8905632312103114,0.10603172676274046,-5.1595654960560475,61.6
,,0.04843098274814039,0.005934410989682239,0.00019334236437671212,0.05455873610219934,8.348634751207875,0.8876852032902585,0.10877104958160888,-5.126987499369945,61.7
,,0.04843098274814039,0.005934410989682239,0.00019334236437671212,0.05455873610219934,8.385269359745395,0.8876852032902585,0.10877104958160888,-5.126987499369945,61.8
,,0.04831790909184207,0.005994084268272059,0.00019305711363710936,0.05450505047375124,8.420652588971347,0.8864849894068294,0.10997300646769816,-5.116982251415709,61.9
,,0.04831790909184207,0.005994084268272059,0.00019305711363710936,0.05450505047375124,8.456035818197298,0.8864849894068294,0.10997300646769816,-5.116982251415709,62.0
,,0.04831790909184207,0.005994084268272059,0.00019305711363710936,0.05450505047375124,8.49141904742325,0.8864849894068294,0.10997300646769816,-5.116982251415709,62.1
,,0.04831790909184207,0.005994084268272059,0.00019305711363710936,0.05450505047375124,8.500947021204913,0.8864849894068294,0.10997300646769816,-5.116982251415709,62.2
,,0.04844469886596212,0.006187524436645598,0.0002018442736000231,0.05483406757620775,8.526997176714767,0.8834781187559038,0.11284087995197964,-5.085220201738263,62.3
,,0.04844469886596212,0.006187524436645598,0.0002018442736000231,0.05483406757620775,8.553047332224619,0.8834781187559038,0.11284087995197964,-5.085220201738263,62.4
,,0.04276249748901302,0.010106307450927087,0.0002766261249841741,0.05314543106492428,8.534120648420416,0.8046316801301863,0.1901632416638201,-4.594595549962167,62.5
,,0.04276249748901302,0.010106307450927087,0.0002766261249841741,0.05314543106492428,8.515193964616213,0.8046316801301863,0.1901632416638201,-4.594595549962167,62.6
,,0.04276249748901302,0.010106307450927087,0.0002766261249841741,0.05314543106492428,8.49626728081201,0.8046316801301863,0.1901632416638201,-4.594595549962167,62.7
,,0.04276249748901302,0.010106307450927087,0.0002766261249841741,0.05314543106492428,8.477340597007807,0.8046316801301863,0.1901632416638201,-4.594595549962167,62.8
,,0.04243441804152983,0.010217441215974817,0.00028579921367807035,0.052937658471182716,8.42934289820407,0.8015922741393925,0.19300893751348694,-4.583659095811311,62.9
,,0.0482308034679625,0.00642137315937017,0.00020591806544303256,0.0548580946927757,8.419336782204285,0.8791920998728022,0.11705425052277299,-5.048123296398629,63.0
,,0.0482308034679625,0.00642137315937017,0.00020591806544303256,0.0548580946927757,8.4093306662045,0.8791920998728022,0.11705425052277299,-5.048123296398629,63.1
,,0.0482308034679625,0.00642137315937017,0.00020591806544303256,0.0548580946927757,8.399324550204714,0.8791920998728022,0.11705425052277299,-5.048123296398629,63.2
,,0.0482308034679625,0.00642137315937017,0.00020591806544303256,0.0548580946927757,8.389318434204927,0.8791920998728022,0.11705425052277299,-5.048123296398629,63.3
,,0.04823439639362822,0.006607726603461157,0.00021402775886096437,0.05505615075595034,8.376671273685707,0.8760946003551684,0.12001795462874798,-5.019515617187596,63.4
,,0.04823439639362822,0.006607726603461157,0.00021402775886096437,0.05505615075595034,8.35931170242508,0.8760946003551684,0.12001795462874798,-5.019515617187596,63.5
,,0.04804313676955101,0.006558553540571,0.00020881855201425757,0.05481050886213627,8.37220847428895,0.8765314857848321,0.11965868729786094,-5.026985197203324,63.6
,,0.04804313676955101,0.006558553540571,0.00020881855201425757,0.05481050886213627,8.385105246152822,0.8765314857848321,0.11965868729786094,-5.026985197203324,63.7
,,0.04804313676955101,0.006558553540571,0.00020881855201425757,0.05481050886213627,8.398002018016692,0.8765314857848321,0.11965868729786094,-5.026985197203324,63.8
,,0.04804313676955101,0.006558553540571,0.00020881855201425757,0.05481050886213627,8.410898789880562,0.8765314857848321,0.11965868729786094,-5.026985197203324,63.9
,,0.04799350089183271,0.006719680717102273,0.0002161032563065948,0.05492928486524158,8.421507627520764,0.8737324909577018,0.12233330059890121,-5.002714637911797,64.0
,,0.0477703167683806,0.00661983713017238,0.00020903143206553175,0.05459918533061851,8.401330851177148,0.8749272810411629,0.12124424732872453,-5.017684512028866,64.1
,,0.0477703167683806,0.00661983713017238,0.00020903143206553175,0.05459918533061851,8.372680846023107,0.8749272810411629,0.12124424732872453,-5.017684512028866,64.2
,,0.0477703167683806,0.00661983713017238,0.00020903143206553175,0.05459918533061851,8.344030840869063,0.8749272810411629,0.12124424732872453,-5.017684512028866,64.3
,,0.0477703167683806,0.00661983713017238,0.00020903143206553175,0.05459918533061851,8.315380835715022,0.8749272810411629,0.12124424732872453,-5.017684512028866,64.4
,,0.04766033231597486,0.006764735921322947,0.0002159440514993284,0.054641012288797135,8.284595476438446,0.8722446806818492,0.12380326860653527,-4.99603205414157,64.5
,,0.04766033231597486,0.006764735921322947,0.0002159440514993284,0.054641012288797135,8.253810117161866,0.8722446806818492,0.12380326860653527,-4.99603205414157,64.6
,,0.04741222161493162,0.006610340372891786,0.00020673514185724925,0.05422929712968065,8.224612552651294,0.8742916490610768,0.12189611008758272,-5.019120132814674,64.7
,,0.04741222161493162,0.006610340372891786,0.00020673514185724925,0.05422929712968065,8.190621155604635,0.8742916490610768,0.12189611008758272,-5.019120132814674,64.8
,,0.04741222161493162,0.006610340372891786,0.00020673514185724925,0.05422929712968065,8.156629758557973,0.8742916490610768,0.12189611008758272,-5.019120132814674,64.9
,,0.04185638727529513,0.009798933673424808,0.0002608414025126188,0.05191616235123256,8.086377011267821,0.8062303795130459,0.18874533920922928,-4.625481708059925,65.0
,,0.04185638727529513,0.009798933673424808,0.0002608414025126188,0.05191616235123256,8.01612426397767,0.8062303795130459,0.18874533920922928,-4.625481708059925,65.1
,,0.047003150690393514,0.006517954922251764,0.00020148866462125107,0.053722594277266535,7.982619134303185,0.8749233227235185,0.12132613865615063,-5.033194614477186,65.2
,,0.047003150690393514,0.006517954922251764,0.00020148866462125107,0.053722594277266535,7.949114004628702,0.8749233227235185,0.12132613865615063,-5.033194614477186,65.3
,,0.047003150690393514,0.006517954922251764,0.00020148866462125107,0.053722594277266535,7.91299361662702,0.8749233227235185,0.12132613865615063,-5.033194614477186,65.4
,,0.047003150690393514,0.006517954922251764,0.00020148866462125107,0.053722594277266535,7.876873228625337,0.8749233227235185,0.12132613865615063,-5.033194614477186,65.5
,,0.04682863464677478,0.006613542749380187,0.0002069906816952904,0.05364916807785026,7.83912014572189,0.8728678621599834,0.12327391059975583,-5.018635800561977,65.6
,,0.04682863464677478,0.006613542749380187,0.0002069906816952904,0.05364916807785026,7.801367062818443,0.8728678621599834,0.12327391059975583,-5.018635800561977,65.7
,,0.046548786880296185,0.0063558324732289695,0.0001938241598404842,0.05309844351336564,7.766652382370308,0.876650685035225,0.11969903546474231,-5.058382387919191,65.8
,,0.046548786880296185,0.0063558324732289695,0.0001938241598404842,0.05309844351336564,7.731937701922176,0.876650685035225,0.11969903546474231,-5.058382387919191,65.9
,,0.046548786880296185,0.0063558324732289695,0.0001938241598404842,0.05309844351336564,7.697333957981018,0.876650685035225,0.11969903546474231,-5.058382387919191,66.0
,,0.041958956871396225,0.008761335170817515,0.00022841288446752227,0.050948704926681264,7.63080358072681,0.8235529623722151,0.17196384448683605,-4.737406968888101,66.1
,,0.041958956871396225,0.008761335170817515,0.00022841288446752227,0.050948704926681264,7.564273203472605,0.8235529623722151,0.17196384448683605,-4.737406968888101,66.2
,,0.041958956871396225,0.008761335170817515,0.00022841288446752227,0.050948704926681264,7.497742826218399,0.8235529623722151,0.17196384448683605,-4.737406968888101,66.3
,,0.04608926888836032,0.006118236400739155,0.0001836715157095307,0.05239117680480901,7.465512346223709,0.8797143278547194,0.1167799002403313,-5.096481393800665,66.4
,,0.04608926888836032,0.006118236400739155,0.0001836715157095307,0.05239117680480901,7.47163157511647,0.8797143278547194,0.1167799002403313,-5.096481393800665,66.5
,,0.04608926888836032,0.006118236400739155,0.0001836715157095307,0.05239117680480901,7.477750804009231,0.8797143278547194,0.1167799002403313,-5.096481393800665,66.6
,,0.04592077702484732,0.006162363750785353,0.00018780640533705136,0.05227094718096973,7.446462798699616,0.8785143469059938,0.11789271255120633,-5.089294849263773,66.7
,,0.04592077702484732,0.006162363750785353,0.00018780640533705136,0.05227094718096973,7.415174793389999,0.8785143469059938,0.11789271255120633,-5.089294849263773,66.8
,,0.04564606951755896,0.005825099309039176,0.0001720686984060313,0.05164323752500417,7.388690405229643,0.883873120763555,0.1127950064365897,-5.1455792309136115,66.9
,,0.04564606951755896,0.005825099309039176,0.0001720686984060313,0.05164323752500417,7.362206017069286,0.883873120763555,0.1127950064365897,-5.1455792309136115,67.0
,,0.04564606951755896,0.005825099309039176,0.0001720686984060313,0.05164323752500417,7.33744119974819,0.883873120763555,0.1127950064365897,-5.1455792309136115,67.1
,,0.04564606951755896,0.005825099309039176,0.0001720686984060313,0.05164323752500417,7.312676382427092,0.883873120763555,0.1127950064365897,-5.1455792309136115,67.2
,,0.04550963047228633,0.00584627522606706,0.00017580978680729466,0.05153171548516068,7.332820135355642,0.8831382779288902,0.11345004083457266,-5.141950534019301,67.3
,,0.04550963047228633,0.00584627522606706,0.00017580978680729466,0.05153171548516068,7.352963888284192,0.8831382779288902,0.11345004083457266,-5.141950534019301,67.4
,,0.04252710471883637,0.006935238793196712,0.00017278339948255137,0.049635126911515635,7.35245328312441,0.8567945196281916,0.1397244093998216,-4.971139792758873,67.5
,,0.04252710471883637,0.006935238793196712,0.00017278339948255137,0.049635126911515635,7.351942677964628,0.8567945196281916,0.1397244093998216,-4.971139792758873,67.6
,,0.04252710471883637,0.006935238793196712,0.00017278339948255137,0.049635126911515635,7.309715126545461,0.8567945196281916,0.1397244093998216,-4.971139792758873,67.7
,,0.04514643659756296,0.005491195895603579,0.00016339272234234308,0.05080102521550889,7.293607224298151,0.8886914467974231,0.10809222594049517,-5.2046092155607795,67.8
,,0.04514643659756296,0.005491195895603579,0.00016339272234234308,0.05080102521550889,7.279949249036173,0.8886914467974231,0.10809222594049517,-5.2046092155607795,67.9
,,0.04514643659756296,0.005491195895603579,0.00016339272234234308,0.05080102521550889,7.266291273774193,0.8886914467974231,0.10809222594049517,-5.2046092155607795,68.0
,,0.042871430095681284,0.006262877471693301,0.00015557311412393052,0.04928988068149852,7.235429811263792,0.8697815759122649,0.12706213496767782,-5.073115539466528,68.1
,,0.042871430095681284,0.006262877471693301,0.00015557311412393052,0.04928988068149852,7.204568348753391,0.8697815759122649,0.12706213496767782,-5.073115539466528,68.2
,,0.042871430095681284,0.006262877471693301,0.00015557311412393052,0.04928988068149852,7.21163327484552,0.8697815759122649,0.12706213496767782,-5.073115539466528,68.3
,,0.042871430095681284,0.006262877471693301,0.00015557311412393052,0.04928988068149852,7.218698200937648,0.8697815759122649,0.12706213496767782,-5.073115539466528,68.4
,,0.04485846368116912,0.005109105629955933,0.000150778974860802,0.05011834828598585,7.2168924005365565,0.8950507192535013,0.10194082216760816,-5.2767309135769125,68.5
,,0.04485846368116912,0.005109105629955933,0.000150778974860802,0.05011834828598585,7.215086600135466,0.8950507192535013,0.10194082216760816,-5.2767309135769125,68.6
,,0.04463801509093296,0.004752918851170856,0.0001353541780165991,0.049526288120120415,7.220925857985563,0.9012994267341113,0.09596759683752573,-5.348996354676982,68.7
,,0.04463801509093296,0.004752918851170856,0.0001353541780165991,0.049526288120120415,7.22866154719739,0.9012994267341113,0.09596759683752573,-5.348996354676982,68.8
,,0.04463801509093296,0.004752918851170856,0.0001353541780165991,0.049526288120120415,7.236397236409216,0.9012994267341113,0.09596759683752573,-5.348996354676982,68.9
,,0.04463801509093296,0.004752918851170856,0.0001353541780165991,0.049526288120120415,7.244132925621043,0.9012994267341113,0.09596759683752573,-5.348996354676982,69.0
,,0.04469213898693432,0.004736921486461095,0.00013854070068233576,0.049567601174077755,7.255413481142865,0.9016401425192804,0.09556487250261268,-5.352367829705832,69.1
,,0.04469213898693432,0.004736921486461095,0.00013854070068233576,0.049567601174077755,7.266694036664687,0.9016401425192804,0.09556487250261268,-5.352367829705832,69.2
,,0.04450518949244601,0.0043980953675087885,0.00012379061341346182,0.04902707547336826,7.286528930844064,0.9077675766448978,0.08970747949054915,-5.426583702794357,69.3
,,0.04450518949244601,0.0043980953675087885,0.00012379061341346182,0.04902707547336826,7.308031056946234,0.9077675766448978,0.08970747949054915,-5.426583702794357,69.4
,,0.04450518949244601,0.0043980953675087885,0.00012379061341346182,0.04902707547336826,7.329533183048403,0.9077675766448978,0.08970747949054915,-5.426583702794357,69.5
,,0.04450518949244601,0.0043980953675087885,0.00012379061341346182,0.04902707547336826,7.351035309150572,0.9077675766448978,0.08970747949054915,-5.426583702794357,69.6
,,0.04427251624352336,0.0050002356973442704,0.00012771594880251066,0.04940046788967014,7.3596983461398535,0.896196293978441,0.10121838741510872,-5.298270228190212,69.7
,,0.04448773316371278,0.004061942233029323,0.00011271364729665623,0.04866238904403876,7.394589438998807,0.9142118592544239,0.0834719033081858,-5.506094037237396,69.8
,,0.04448773316371278,0.004061942233029323,0.00011271364729665623,0.04866238904403876,7.430731911169327,0.9142118592544239,0.0834719033081858,-5.506094037237396,69.9
,,0.04448773316371278,0.004061942233029323,0.00011271364729665623,0.04866238904403876,7.466874383339849,0.9142118592544239,0.0834719033081858,-5.506094037237396,70.0
,,0.04448773316371278,0.004061942233029323,0.00011271364729665623,0.04866238904403876,7.503016855510372,0.9142118592544239,0.0834719033081858,-5.506094037237396,70.1
,,0.04448773316371278,0.004061942233029323,0.00011271364729665623,0.04866238904403876,7.539159327680892,0.9142118592544239,0.0834719033081858,-5.506094037237396,70.2
,,0.044888316357167876,0.004537526039680091,0.00011624865486140255,0.04954209105170937,7.564950199741079,0.9060642254747759,0.09158931210521706,-5.395373340635163,70.3
,,0.044594674981454044,0.0037719362534525134,0.00010298771805597093,0.048469598952962524,7.6148669345717135,0.9200545485167122,0.07782066150605044,-5.5801668142867875,70.4
,,0.044594674981454044,0.0037719362534525134,0.00010298771805597093,0.048469598952962524,7.7097605087164025,0.9200545485167122,0.07782066150605044,-5.5801668142867875,70.5
,,0.044594674981454044,0.0037719362534525134,0.00010298771805597093,0.048469598952962524,7.804654082861093,0.9200545485167122,0.07782066150605044,-5.5801668142867875,70.6
,,0.044594674981454044,0.0037719362534525134,0.00010298771805597093,0.048469598952962524,7.8995476570057805,0.9200545485167122,0.07782066150605044,-5.5801668142867875,70.7
,,0.044594674981454044,0.0037719362534525134,0.00010298771805597093,0.048469598952962524,7.9944412311504705,0.9200545485167122,0.07782066150605044,-5.5801668142867875,70.8
,,0.04487558635028908,0.0037721360010756363,0.00010563289646765636,0.04875335524783237,8.091234514611628,0.920461496899422,0.07737182357809824,-5.580113859432584,70.9
,,0.04479506553928757,0.003527239778751006,9.476600194545365e-05,0.04841707131998403,8.156094150970675,0.9251915557477867,0.07285115936566668,-5.647239646270654,71.0
,,0.04479506553928757,0.003527239778751006,9.476600194545365e-05,0.04841707131998403,8.220953787329725,0.9251915557477867,0.07285115936566668,-5.647239646270654,71.1
,,0.04479506553928757,0.003527239778751006,9.476600194545365e-05,0.04841707131998403,8.285813423688776,0.9251915557477867,0.07285115936566668,-5.647239646270654,71.2
