HRV_ULF,HRV_VLF,HRV_LF,HRV_HF,HRV_VHF,HRV_TP,HRV_LFHF,HRV_LFn,HRV_HFn,HRV_LnHF,time
,,0.048916467735306224,0.00953694153020377,0.0003393208136397621,0.05879273007914976,5.129156719728893,0.8320155854210612,0.16221293886786095,-4.65258243924155,0.0
,,0.048916467735306224,0.00953694153020377,0.0003393208136397621,0.05879273007914976,5.129156719728893,0.8320155854210612,0.16221293886786095,-4.65258243924155,0.1
,,0.048916467735306224,0.00953694153020377,0.0003393208136397621,0.05879273007914976,5.129156719728893,0.8320155854210612,0.16221293886786095,-4.65258243924155,0.2
,,0.048916467735306224,0.00953694153020377,0.0003393208136397621,0.05879273007914976,5.129156719728893,0.8320155854210612,0.16221293886786095,-4.65258243924155,0.3
,,0.048940905938174184,0.009660541895619794,0.00034979596431668257,0.05895124379811066,5.116537811834235,0.8301929320741949,0.16387341934131347,-4.639705535476029,0.4
,,0.03443686833652088,0.007533737464652057,0.0003201817699383467,0.04229078757111129,5.025618258622511,0.8142877045885191,0.17814133756634815,-4.888364017060615,0.5
,,0.03443686833652088,0.007533737464652057,0.0003201817699383467,0.04229078757111129,4.9606757206141365,0.8142877045885191,0.17814133756634815,-4.888364017060615,0.6
,,0.03443686833652088,0.007533737464652057,0.0003201817699383467,0.04229078757111129,4.911968817107856,0.8142877045885191,0.17814133756634815,-4.888364017060615,0.7
,,0.03443686833652088,0.007533737464652057,0.0003201817699383467,0.04229078757111129,4.874085669936304,0.8142877045885191,0.17814133756634815,-4.888364017060615,0.8
,,0.03443686833652088,0.007533737464652057,0.0003201817699383467,0.04229078757111129,4.843779152199063,0.8142877045885191,0.17814133756634815,-4.888364017060615,0.9
,,0.03443686833652088,0.007533737464652057,0.0003201817699383467,0.04229078757111129,4.818982910414047,0.8142877045885191,0.17814133756634815,-4.888364017060615,1.0
,,0.04872945283901922,0.009506510404951683,0.0003375613109314642,0.05857352455490236,4.84455960764219,0.8319364970660753,0.1623004672706865,-4.655778409306035,1.1
,,0.048595633106165215,0.00926611529414452,0.0003138092545116965,0.05817555765482143,4.875320031424251,0.8353273275780579,0.1592784954314326,-4.681391049355774,1.2
,,0.048595633106165215,0.00926611529414452,0.0003138092545116965,0.05817555765482143,4.901686108951732,0.8353273275780579,0.1592784954314326,-4.681391049355774,1.3
,,0.048595633106165215,0.00926611529414452,0.0003138092545116965,0.05817555765482143,4.924536709475548,0.8353273275780579,0.1592784954314326,-4.681391049355774,1.4
,,0.048595633106165215,0.00926611529414452,0.0003138092545116965,0.05817555765482143,4.944530984933888,0.8353273275780579,0.1592784954314326,-4.681391049355774,1.5
,,0.048595633106165215,0.00926611529414452,0.0003138092545116965,0.05817555765482143,4.9621729926912455,0.8353273275780579,0.1592784954314326,-4.681391049355774,1.6
,,0.05024287424898565,0.007286065164253339,0.0003288205621470268,0.05785775997538602,5.06959386428611,0.8683860949742972,0.12593064728660414,-4.921791636673293,1.7
,,0.050063525668053416,0.00703589411768542,0.000301273541877311,0.057400693327616145,5.177270300051372,0.8721763234167638,0.12257507200353569,-4.956730500871931,1.8
,,0.050063525668053416,0.00703589411768542,0.000301273541877311,0.057400693327616145,5.274179092240108,0.8721763234167638,0.12257507200353569,-4.956730500871931,1.9
,,0.050063525668053416,0.00703589411768542,0.000301273541877311,0.057400693327616145,5.3618584756489645,0.8721763234167638,0.12257507200353569,-4.956730500871931,2.0
,,0.050063525668053416,0.00703589411768542,0.000301273541877311,0.057400693327616145,5.441567006020652,0.8721763234167638,0.12257507200353569,-4.956730500871931,2.1
,,0.050063525668053416,0.00703589411768542,0.000301273541877311,0.057400693327616145,5.51434435983828,0.8721763234167638,0.12257507200353569,-4.956730500871931,2.2
,,0.050063525668053416,0.00703589411768542,0.000301273541877311,0.057400693327616145,5.581056934171105,0.8721763234167638,0.12257507200353569,-4.956730500871931,2.3
,,0.048726532149373586,0.009158169397978339,0.0003196921760159938,0.05820439372336792,5.5706368051263055,0.8371624379588862,0.1573449839801615,-4.693108967650525,2.4
,,0.03248770036418029,0.008960510898253057,0.0003001425091562199,0.04174835377158957,5.4958297234411555,0.7781791958055289,0.21463147857942194,-4.714928033726556,2.5
,,0.03248770036418029,0.008960510898253057,0.0003001425091562199,0.04174835377158957,5.426563907066016,0.7781791958055289,0.21463147857942194,-4.714928033726556,2.6
,,0.03248770036418029,0.008960510898253057,0.0003001425091562199,0.04174835377158957,5.3622456490033885,0.7781791958055289,0.21463147857942194,-4.714928033726556,2.7
,,0.03248770036418029,0.008960510898253057,0.0003001425091562199,0.04174835377158957,5.3023631328761125,0.7781791958055289,0.21463147857942194,-4.714928033726556,2.8
,,0.03248770036418029,0.008960510898253057,0.0003001425091562199,0.04174835377158957,5.246472784490655,0.7781791958055289,0.21463147857942194,-4.714928033726556,2.9
,,0.03248770036418029,0.008960510898253057,0.0003001425091562199,0.04174835377158957,5.194188265033294,0.7781791958055289,0.21463147857942194,-4.714928033726556,3.0
,,0.04892218659875192,0.008984997493118813,0.0003141119060991424,0.05822129599796987,5.202022219843679,0.8402799312550135,0.15432493109449355,-4.71219903775402,3.1
,,0.0500999235527029,0.006654532421153815,0.0002961193405629813,0.0570505753144197,5.272527358093161,0.8781668419045724,0.11664268737833154,-5.012457089384942,3.2
,,0.0500999235527029,0.006654532421153815,0.0002961193405629813,0.0570505753144197,5.338885135269144,0.8781668419045724,0.11664268737833154,-5.012457089384942,3.3
,,0.0500999235527029,0.006654532421153815,0.0002961193405629813,0.0570505753144197,5.401451039463642,0.8781668419045724,0.11664268737833154,-5.012457089384942,3.4
,,0.0500999235527029,0.006654532421153815,0.0002961193405629813,0.0570505753144197,5.460541060091779,0.8781668419045724,0.11664268737833154,-5.012457089384942,3.5
,,0.0500999235527029,0.006654532421153815,0.0002961193405629813,0.0570505753144197,5.516437025550828,0.8781668419045724,0.11664268737833154,-5.012457089384942,3.6
,,0.04923241370753696,0.008830000907496256,0.0003118117540735454,0.05837422636910677,5.51799353062355,0.8433929967008882,0.15126540353037268,-4.7296001615920655,3.7
,,0.04923241370753696,0.008830000907496256,0.0003118117540735454,0.05837422636910677,5.519470214923312,0.8433929967008882,0.15126540353037268,-4.7296001615920655,3.8
,,0.04954380123348117,0.008681680345877971,0.0002968446468118683,0.058522326226171005,5.524151120819872,0.8465794924489064,0.14834817591368318,-4.746540180810873,3.9
,,0.04954380123348117,0.008681680345877971,0.0002968446468118683,0.058522326226171005,5.528603689843429,0.8465794924489064,0.14834817591368318,-4.746540180810873,4.0
,,0.04954380123348117,0.008681680345877971,0.0002968446468118683,0.058522326226171005,5.532844231770626,0.8465794924489064,0.14834817591368318,-4.746540180810873,4.1
,,0.04954380123348117,0.008681680345877971,0.0002968446468118683,0.058522326226171005,5.536887539189581,0.8465794924489064,0.14834817591368318,-4.746540180810873,4.2
,,0.04954380123348117,0.008681680345877971,0.0002968446468118683,0.058522326226171005,5.540747059907674,0.8465794924489064,0.14834817591368318,-4.746540180810873,4.3
,,0.04956991753183002,0.0086895646625663,0.00031191822158513826,0.05857140041598146,5.5443867708869545,0.8463160720040537,0.14835849238454124,-4.745632437327216,4.4
,,0.049904782534622945,0.008552611034064761,0.00029809449718205057,0.058755488065869756,5.550705205082363,0.8493637646014541,0.1455627604433577,-4.76151865855256,4.5
,,0.049904782534622945,0.008552611034064761,0.00029809449718205057,0.058755488065869756,5.556754769737542,0.8493637646014541,0.1455627604433577,-4.76151865855256,4.6
,,0.049904782534622945,0.008552611034064761,0.00029809449718205057,0.058755488065869756,5.562552269198754,0.8493637646014541,0.1455627604433577,-4.76151865855256,4.7
,,0.049904782534622945,0.008552611034064761,0.00029809449718205057,0.058755488065869756,5.568113136028898,0.8493637646014541,0.1455627604433577,-4.76151865855256,4.8
,,0.049904782534622945,0.008552611034064761,0.00029809449718205057,0.058755488065869756,5.573451568185834,0.8493637646014541,0.1455627604433577,-4.76151865855256,4.9
,,0.049904782534622945,0.008552611034064761,0.00029809449718205057,0.058755488065869756,5.578580650062106,0.8493637646014541,0.1455627604433577,-4.76151865855256,5.0
,,0.04989144770213349,0.008553127979569392,0.00031327151247558194,0.05875784719417846,5.583475695618727,0.8491027170763427,0.1455657139939737,-4.761458217374967,5.1
,,0.050238083005472216,0.008427359514302409,0.00030104395860204174,0.05896648647837666,5.590604601008458,0.8519768771350282,0.14291778292391166,-4.776271780908689,5.2
,,0.050238083005472216,0.008427359514302409,0.00030104395860204174,0.05896648647837666,5.597469472865235,0.8519768771350282,0.14291778292391166,-4.776271780908689,5.3
,,0.050238083005472216,0.008427359514302409,0.00030104395860204174,0.05896648647837666,5.604084713018129,0.8519768771350282,0.14291778292391166,-4.776271780908689,5.4
,,0.050238083005472216,0.008427359514302409,0.00030104395860204174,0.05896648647837666,5.610463694594135,0.8519768771350282,0.14291778292391166,-4.776271780908689,5.5
,,0.050238083005472216,0.008427359514302409,0.00030104395860204174,0.05896648647837666,5.6166188522551925,0.8519768771350282,0.14291778292391166,-4.776271780908689,5.6
,,0.05015059135087756,0.008426857774590575,0.0003152445996073283,0.05889269372507546,5.622388874527974,0.8515587958158607,0.14308833985297176,-4.776331319682087,5.7
,,0.05034221058078756,0.008279608340957235,0.0003029832402708905,0.05892480216201569,5.630149482262275,0.8543467051848557,0.1405114321502884,-4.793959613520494,5.8
,,0.05034221058078756,0.008279608340957235,0.0003029832402708905,0.05892480216201569,5.6376514030720974,0.8543467051848557,0.1405114321502884,-4.793959613520494,5.9
,,0.05034221058078756,0.008279608340957235,0.0003029832402708905,0.05892480216201569,5.644907359265206,0.8543467051848557,0.1405114321502884,-4.793959613520494,6.0
,,0.05034221058078756,0.008279608340957235,0.0003029832402708905,0.05892480216201569,5.651929252355309,0.8543467051848557,0.1405114321502884,-4.793959613520494,6.1
,,0.05034221058078756,0.008279608340957235,0.0003029832402708905,0.05892480216201569,5.658728228204458,0.8543467051848557,0.1405114321502884,-4.793959613520494,6.2
,,0.05034221058078756,0.008279608340957235,0.0003029832402708905,0.05892480216201569,5.6653147360583205,0.8543467051848557,0.1405114321502884,-4.793959613520494,6.3
,,0.049344012198155644,0.007960959337148445,0.00026625760629188486,0.05757122914159597,5.673513732363181,0.8570949923058694,0.13828016972798218,-4.8332057666454995,6.4
,,0.048859321336822775,0.007910443792868656,0.0002976196945309856,0.05706738482422242,5.681135627549701,0.8561689218336898,0.13861584541212488,-4.839571393483288,6.5
,,0.048859321336822775,0.007910443792868656,0.0002976196945309856,0.05706738482422242,5.688530003476925,0.8561689218336898,0.13861584541212488,-4.839571393483288,6.6
,,0.048859321336822775,0.007910443792868656,0.0002976196945309856,0.05706738482422242,5.695706897759228,0.8561689218336898,0.13861584541212488,-4.839571393483288,6.7
,,0.048859321336822775,0.007910443792868656,0.0002976196945309856,0.05706738482422242,5.702675766120305,0.8561689218336898,0.13861584541212488,-4.839571393483288,6.8
,,0.048859321336822775,0.007910443792868656,0.0002976196945309856,0.05706738482422242,5.709445523956781,0.8561689218336898,0.13861584541212488,-4.839571393483288,6.9
,,0.04763035403439561,0.00758697669005122,0.000262330491118574,0.055479661215565405,5.717452060678949,0.8585191940759799,0.13675239761418395,-4.881322094984784,7.0
,,0.04763035403439561,0.00758697669005122,0.000262330491118574,0.055479661215565405,5.725236193603279,0.8585191940759799,0.13675239761418395,-4.881322094984784,7.1
,,0.04686881256620291,0.007530258532532473,0.0002913483960801167,0.0546904194948155,5.7320694539960275,0.8569839653661084,0.13768880549995272,-4.888825904090071,7.2
,,0.04686881256620291,0.007530258532532473,0.0002913483960801167,0.0546904194948155,5.738718031675458,0.8569839653661084,0.13768880549995272,-4.888825904090071,7.3
,,0.04686881256620291,0.007530258532532473,0.0002913483960801167,0.0546904194948155,5.745189313950104,0.8569839653661084,0.13768880549995272,-4.888825904090071,7.4
,,0.04686881256620291,0.007530258532532473,0.0002913483960801167,0.0546904194948155,5.751490299322785,0.8569839653661084,0.13768880549995272,-4.888825904090071,7.5
,,0.04686881256620291,0.007530258532532473,0.0002913483960801167,0.0546904194948155,5.7576276227377345,0.8569839653661084,0.13768880549995272,-4.888825904090071,7.6
,,0.04517235890386972,0.005322705499676556,0.0002770454495139458,0.050772109853060216,5.792616101406646,0.8897081298099141,0.10483522380852442,-5.235773552326837,7.7
,,0.04517235890386972,0.005322705499676556,0.0002770454495139458,0.050772109853060216,5.826718795805459,0.8897081298099141,0.10483522380852442,-5.235773552326837,7.8
,,0.04517235890386972,0.005322705499676556,0.0002770454495139458,0.050772109853060216,5.859968922844301,0.8897081298099141,0.10483522380852442,-5.235773552326837,7.9
,,0.044468468065787255,0.007203935303586002,0.000285222161380573,0.05195762553075383,5.863831062711363,0.8558602825193825,0.13865020254480215,-4.933127832332573,8.0
,,0.044468468065787255,0.007203935303586002,0.000285222161380573,0.05195762553075383,5.86759900404508,0.8558602825193825,0.13865020254480215,-4.933127832332573,8.1
,,0.044468468065787255,0.007203935303586002,0.000285222161380573,0.05195762553075383,5.871276151611721,0.8558602825193825,0.13865020254480215,-4.933127832332573,8.2
,,0.044468468065787255,0.007203935303586002,0.000285222161380573,0.05195762553075383,5.874865748045822,0.8558602825193825,0.13865020254480215,-4.933127832332573,8.3
,,0.042988521785840554,0.006995520794657664,0.00025479160377213947,0.05023883418427036,5.8780455580229996,0.8556831081741173,0.13924528521101595,-4.962485221219029,8.4
,,0.042988521785840554,0.006995520794657664,0.00025479160377213947,0.05023883418427036,5.88115141893094,0.8556831081741173,0.13924528521101595,-4.962485221219029,8.5
,,0.042988521785840554,0.006995520794657664,0.00025479160377213947,0.05023883418427036,5.884185880737547,0.8556831081741173,0.13924528521101595,-4.962485221219029,8.6
,,0.04184392272418442,0.006999746795768267,0.00028061527120576396,0.04912428479115845,5.8852510352725,0.851797087775935,0.1424905589063783,-4.961881302614152,8.7
,,0.04184392272418442,0.006999746795768267,0.00028061527120576396,0.04912428479115845,5.886292253750487,0.851797087775935,0.1424905589063783,-4.961881302614152,8.8
,,0.04184392272418442,0.006999746795768267,0.00028061527120576396,0.04912428479115845,5.887310334040075,0.851797087775935,0.1424905589063783,-4.961881302614152,8.9
,,0.04184392272418442,0.006999746795768267,0.00028061527120576396,0.04912428479115845,5.896741031374347,0.851797087775935,0.1424905589063783,-4.961881302614152,9.0
,,0.04032212211479136,0.006899552012797167,0.00025169266044129955,0.047473366788029825,5.904685570601248,0.8493630185284938,0.1453352159244129,-4.9762987951682565,9.1
,,0.04032212211479136,0.006899552012797167,0.00025169266044129955,0.047473366788029825,5.912630109828148,0.8493630185284938,0.1453352159244129,-4.9762987951682565,9.2
,,0.04032212211479136,0.006899552012797167,0.00025169266044129955,0.047473366788029825,5.92057464905505,0.8493630185284938,0.1453352159244129,-4.9762987951682565,9.3
,,0.039160651675743084,0.006968778103913501,0.0002785955172078875,0.046408025296864476,5.926723325373925,0.8438336133726626,0.1501632111975327,-4.966315377481303,9.4
,,0.039160651675743084,0.006968778103913501,0.0002785955172078875,0.046408025296864476,5.938372464889377,0.8438336133726626,0.1501632111975327,-4.966315377481303,9.5
,,0.039160651675743084,0.006968778103913501,0.0002785955172078875,0.046408025296864476,5.950021604404828,0.8438336133726626,0.1501632111975327,-4.966315377481303,9.6
,,0.039160651675743084,0.006968778103913501,0.0002785955172078875,0.046408025296864476,5.961670743920279,0.8438336133726626,0.1501632111975327,-4.966315377481303,9.7
,,0.039160651675743084,0.006968778103913501,0.0002785955172078875,0.046408025296864476,5.973319883435731,0.8438336133726626,0.1501632111975327,-4.966315377481303,9.8
,,0.03761594403788075,0.007000167333119795,0.0002512634086784893,0.04486737477967904,5.9822371872649205,0.8383807660375409,0.15601909778528547,-4.961821225481138,9.9
,,0.03761594403788075,0.007000167333119795,0.0002512634086784893,0.04486737477967904,5.99115449109411,0.8383807660375409,0.15601909778528547,-4.961821225481138,10.0
,,0.03651966831449264,0.007144321408097196,0.0002823391077432635,0.0439463288303331,5.990996740003724,0.8310061223882175,0.1625692429435873,-4.941437446484738,10.1
,,0.03651966831449264,0.007144321408097196,0.0002823391077432635,0.0439463288303331,5.98952185736159,0.8310061223882175,0.1625692429435873,-4.941437446484738,10.2
,,0.03651966831449264,0.007144321408097196,0.0002823391077432635,0.0439463288303331,5.988046974719455,0.8310061223882175,0.1625692429435873,-4.941437446484738,10.3
,,0.03651966831449264,0.007144321408097196,0.0002823391077432635,0.0439463288303331,5.9865720920773215,0.8310061223882175,0.1625692429435873,-4.941437446484738,10.4
,,0.03651966831449264,0.007144321408097196,0.0002823391077432635,0.0439463288303331,5.985097209435188,0.8310061223882175,0.1625692429435873,-4.941437446484738,10.5
,,0.036571333211688754,0.006246953162407001,0.00028429992075375147,0.043102586294849504,5.991873010738513,0.8484718982178293,0.14493221171634132,-5.075661428112546,10.6
,,0.036571333211688754,0.006246953162407001,0.00028429992075375147,0.043102586294849504,5.980300994657509,0.8484718982178293,0.14493221171634132,-5.075661428112546,10.7
,,0.0333155443425913,0.007400971024202309,0.0002881089400226395,0.04100462430681624,5.951257258626304,0.8124826139927155,0.18049113116668739,-4.906144067893738,10.8
,,0.0333155443425913,0.007400971024202309,0.0002881089400226395,0.04100462430681624,5.922213522595098,0.8124826139927155,0.18049113116668739,-4.906144067893738,10.9
,,0.0333155443425913,0.007400971024202309,0.0002881089400226395,0.04100462430681624,5.893169786563894,0.8124826139927155,0.18049113116668739,-4.906144067893738,11.0
,,0.0333155443425913,0.007400971024202309,0.0002881089400226395,0.04100462430681624,5.864126050532688,0.8124826139927155,0.18049113116668739,-4.906144067893738,11.1
,,0.0333155443425913,0.007400971024202309,0.0002881089400226395,0.04100462430681624,5.835082314501484,0.8124826139927155,0.18049113116668739,-4.906144067893738,11.2
,,0.03069973210767245,0.007471627223372511,0.0002537241079224185,0.03842508343896738,5.801675596385087,0.7989503043353043,0.19444661025239143,-4.896642469105739,11.3
,,0.029825251305333804,0.00774589164556345,0.0002961118311486895,0.03786725478204594,5.785341229539502,0.7876264460415783,0.20455382071255987,-4.860592686424874,11.4
,,0.029825251305333804,0.00774589164556345,0.0002961118311486895,0.03786725478204594,5.787839096324347,0.7876264460415783,0.20455382071255987,-4.860592686424874,11.5
,,0.029825251305333804,0.00774589164556345,0.0002961118311486895,0.03786725478204594,5.790336963109191,0.7876264460415783,0.20455382071255987,-4.860592686424874,11.6
,,0.029825251305333804,0.00774589164556345,0.0002961118311486895,0.03786725478204594,5.792834829894036,0.7876264460415783,0.20455382071255987,-4.860592686424874,11.7
,,0.029825251305333804,0.00774589164556345,0.0002961118311486895,0.03786725478204594,5.795332696678881,0.7876264460415783,0.20455382071255987,-4.860592686424874,11.8
,,0.029825251305333804,0.00774589164556345,0.0002961118311486895,0.03786725478204594,5.797830563463726,0.7876264460415783,0.20455382071255987,-4.860592686424874,11.9
,,0.01538993481124883,0.007958755844664153,0.0002622087860771408,0.023610899441990123,5.779031212968236,0.6518148471666879,0.33707973998271884,-4.833482592263696,12.0
,,0.026998219294825834,0.008353993154051553,0.0003147945467883722,0.03566700699566576,5.754441205761768,0.7569521966927768,0.23422187219316518,-4.785015632388989,12.1
,,0.026998219294825834,0.008353993154051553,0.0003147945467883722,0.03566700699566576,5.706697676742959,0.7569521966927768,0.23422187219316518,-4.785015632388989,12.2
,,0.026998219294825834,0.008353993154051553,0.0003147945467883722,0.03566700699566576,5.658954147724149,0.7569521966927768,0.23422187219316518,-4.785015632388989,12.3
,,0.026998219294825834,0.008353993154051553,0.0003147945467883722,0.03566700699566576,5.611210618705339,0.7569521966927768,0.23422187219316518,-4.785015632388989,12.4
,,0.026998219294825834,0.008353993154051553,0.0003147945467883722,0.03566700699566576,5.5634670896865295,0.7569521966927768,0.23422187219316518,-4.785015632388989,12.5
,,0.031818579316922384,0.009725402995908823,0.0003192541736969567,0.04186323648652816,5.516167156245124,0.7600601861531129,0.232313691251237,-4.633013951168203,12.6
,,0.02490780870496437,0.009135750872035732,0.00034202757374129824,0.0343855871507414,5.484509672434541,0.724367700797784,0.2656854696703573,-4.695559895262993,12.7
,,0.02490780870496437,0.009135750872035732,0.00034202757374129824,0.0343855871507414,5.452852188623958,0.724367700797784,0.2656854696703573,-4.695559895262993,12.8
,,0.02490780870496437,0.009135750872035732,0.00034202757374129824,0.0343855871507414,5.41973779111925,0.724367700797784,0.2656854696703573,-4.695559895262993,12.9
,,0.02490780870496437,0.009135750872035732,0.00034202757374129824,0.0343855871507414,5.386623393614539,0.724367700797784,0.2656854696703573,-4.695559895262993,13.0
,,0.02490780870496437,0.009135750872035732,0.00034202757374129824,0.0343855871507414,5.35350899610983,0.724367700797784,0.2656854696703573,-4.695559895262993,13.1
,,0.02490780870496437,0.009135750872035732,0.00034202757374129824,0.0343855871507414,5.3203945986051195,0.724367700797784,0.2656854696703573,-4.695559895262993,13.2
,,0.02357499787752584,0.010114263039848229,0.0003801360696421523,0.03406939698701622,5.2828852669015225,0.691969919118622,0.2968723820883227,-4.593808669163204,13.3
,,0.02357499787752584,0.010114263039848229,0.0003801360696421523,0.03406939698701622,5.245400072940263,0.691969919118622,0.2968723820883227,-4.593808669163204,13.4
,,0.02357499787752584,0.010114263039848229,0.0003801360696421523,0.03406939698701622,5.206464871313442,0.691969919118622,0.2968723820883227,-4.593808669163204,13.5
,,0.02357499787752584,0.010114263039848229,0.0003801360696421523,0.03406939698701622,5.167529669686622,0.691969919118622,0.2968723820883227,-4.593808669163204,13.6
,,0.02357499787752584,0.010114263039848229,0.0003801360696421523,0.03406939698701622,5.128594468059802,0.691969919118622,0.2968723820883227,-4.593808669163204,13.7
,,0.02357499787752584,0.010114263039848229,0.0003801360696421523,0.03406939698701622,5.089659266432981,0.691969919118622,0.2968723820883227,-4.593808669163204,13.8
,,0.023231281643309176,0.011377699545739603,0.0004335732471342275,0.03504255443618301,5.047512501528763,0.6629448685202536,0.3246823677326336,-4.476100019599318,13.9
,,0.023231281643309176,0.011377699545739603,0.0004335732471342275,0.03504255443618301,5.005365736624545,0.6629448685202536,0.3246823677326336,-4.476100019599318,14.0
,,0.023231281643309176,0.011377699545739603,0.0004335732471342275,0.03504255443618301,4.963240213107763,0.6629448685202536,0.3246823677326336,-4.476100019599318,14.1
,,0.023231281643309176,0.011377699545739603,0.0004335732471342275,0.03504255443618301,4.919690415565782,0.6629448685202536,0.3246823677326336,-4.476100019599318,14.2
,,0.023231281643309176,0.011377699545739603,0.0004335732471342275,0.03504255443618301,4.8761406180238005,0.6629448685202536,0.3246823677326336,-4.476100019599318,14.3
,,0.023231281643309176,0.011377699545739603,0.0004335732471342275,0.03504255443618301,4.832590820481819,0.6629448685202536,0.3246823677326336,-4.476100019599318,14.4
,,0.023944512211379634,0.012838206963081343,0.0004983906594414131,0.03728110983390239,4.7870773779178855,0.6422692971872089,0.3443622526335479,-4.355329635091373,14.5
,,0.023944512211379634,0.012838206963081343,0.0004983906594414131,0.03728110983390239,4.741563935353953,0.6422692971872089,0.3443622526335479,-4.355329635091373,14.6
,,0.023944512211379634,0.012838206963081343,0.0004983906594414131,0.03728110983390239,4.696161909869996,0.6422692971872089,0.3443622526335479,-4.355329635091373,14.7
,,0.023944512211379634,0.012838206963081343,0.0004983906594414131,0.03728110983390239,4.64932672231076,0.6422692971872089,0.3443622526335479,-4.355329635091373,14.8
,,0.023944512211379634,0.012838206963081343,0.0004983906594414131,0.03728110983390239,4.6024915347515245,0.6422692971872089,0.3443622526335479,-4.355329635091373,14.9
,,0.023944512211379634,0.012838206963081343,0.0004983906594414131,0.03728110983390239,4.555656347192288,0.6422692971872089,0.3443622526335479,-4.355329635091373,15.0
,,0.025605263113057185,0.014361234154314947,0.0005697469020533733,0.0405362441694255,4.507908328893873,0.6316634320149961,0.35428132153266734,-4.243222775161225,15.1
,,0.025605263113057185,0.014361234154314947,0.0005697469020533733,0.0405362441694255,4.460160310595456,0.6316634320149961,0.35428132153266734,-4.243222775161225,15.2
,,0.025605263113057185,0.014361234154314947,0.0005697469020533733,0.0405362441694255,4.41241229229704,0.6316634320149961,0.35428132153266734,-4.243222775161225,15.3
,,0.025605263113057185,0.014361234154314947,0.0005697469020533733,0.0405362441694255,4.3633533321650395,0.6316634320149961,0.35428132153266734,-4.243222775161225,15.4
,,0.025605263113057185,0.014361234154314947,0.0005697469020533733,0.0405362441694255,4.314535379601936,0.6316634320149961,0.35428132153266734,-4.243222775161225,15.5
,,0.025605263113057185,0.014361234154314947,0.0005697469020533733,0.0405362441694255,4.265717427038831,0.6316634320149961,0.35428132153266734,-4.243222775161225,15.6
,,0.027547885000150124,0.015306310555999831,0.0006256630389899005,0.04347985859513986,4.217086473928535,0.6335780724739847,0.3520322064182324,-4.179490080979269,15.7
,,0.0282783022337745,0.015932639713805177,0.0006492350697825054,0.04486017701736218,4.1681787771840675,0.63036537334282,0.35516221230332606,-4.139385461706778,15.8
,,0.0282783022337745,0.015932639713805177,0.0006492350697825054,0.04486017701736218,4.119271080439601,0.63036537334282,0.35516221230332606,-4.139385461706778,15.9
,,0.0282783022337745,0.015932639713805177,0.0006492350697825054,0.04486017701736218,4.069237263511165,0.63036537334282,0.35516221230332606,-4.139385461706778,16.0
,,0.0282783022337745,0.015932639713805177,0.0006492350697825054,0.04486017701736218,4.01920344658273,0.63036537334282,0.35516221230332606,-4.139385461706778,16.1
,,0.0282783022337745,0.015932639713805177,0.0006492350697825054,0.04486017701736218,3.9697679121982596,0.63036537334282,0.35516221230332606,-4.139385461706778,16.2
,,0.0282783022337745,0.015932639713805177,0.0006492350697825054,0.04486017701736218,3.920332377813789,0.63036537334282,0.35516221230332606,-4.139385461706778,16.3
,,0.03177064832393352,0.017377651233839924,0.0007296266262214901,0.04987792618399493,3.8714899705860653,0.6369681090335354,0.34840364392327416,-4.052570310173817,16.4
,,0.03177064832393352,0.017377651233839924,0.0007296266262214901,0.04987792618399493,3.822647563358342,0.6369681090335354,0.34840364392327416,-4.052570310173817,16.5
,,0.03177064832393352,0.017377651233839924,0.0007296266262214901,0.04987792618399493,3.773805156130619,0.6369681090335354,0.34840364392327416,-4.052570310173817,16.6
,,0.03177064832393352,0.017377651233839924,0.0007296266262214901,0.04987792618399493,3.6998220293846846,0.6369681090335354,0.34840364392327416,-4.052570310173817,16.7
,,0.03177064832393352,0.017377651233839924,0.0007296266262214901,0.04987792618399493,3.6258389026387507,0.6369681090335354,0.34840364392327416,-4.052570310173817,16.8
,,0.03177064832393352,0.017377651233839924,0.0007296266262214901,0.04987792618399493,3.551855775892817,0.6369681090335354,0.34840364392327416,-4.052570310173817,16.9
,,0.036021524979525016,0.018564760457696512,0.0007995447194149943,0.05538583015663652,3.504828164771408,0.6503743805527991,0.3351897119749503,-3.986490094334451,17.0
,,0.036021524979525016,0.018564760457696512,0.0007995447194149943,0.05538583015663652,3.4578005536499985,0.6503743805527991,0.3351897119749503,-3.986490094334451,17.1
,,0.036021524979525016,0.018564760457696512,0.0007995447194149943,0.05538583015663652,3.4107729425285886,0.6503743805527991,0.3351897119749503,-3.986490094334451,17.2
,,0.036021524979525016,0.018564760457696512,0.0007995447194149943,0.05538583015663652,3.36374533140718,0.6503743805527991,0.3351897119749503,-3.986490094334451,17.3
,,0.036021524979525016,0.018564760457696512,0.0007995447194149943,0.05538583015663652,3.317024972018775,0.6503743805527991,0.3351897119749503,-3.986490094334451,17.4
,,0.036021524979525016,0.018564760457696512,0.0007995447194149943,0.05538583015663652,3.27030461263037,0.6503743805527991,0.3351897119749503,-3.986490094334451,17.5
,,0.03840419540031152,0.01823186594091052,0.0008068068106740103,0.057442868151896045,3.2254299785014497,0.6685633332019459,0.3173912885530026,-4.004584340021551,17.6
,,0.03840419540031152,0.01823186594091052,0.0008068068106740103,0.057442868151896045,3.182413456775778,0.6685633332019459,0.3173912885530026,-4.004584340021551,17.7
,,0.03840419540031152,0.01823186594091052,0.0008068068106740103,0.057442868151896045,3.139396935050107,0.6685633332019459,0.3173912885530026,-4.004584340021551,17.8
,,0.03840419540031152,0.01823186594091052,0.0008068068106740103,0.057442868151896045,3.0963804133244346,0.6685633332019459,0.3173912885530026,-4.004584340021551,17.9
,,0.03840419540031152,0.01823186594091052,0.0008068068106740103,0.057442868151896045,3.0533638915987638,0.6685633332019459,0.3173912885530026,-4.004584340021551,18.0
,,0.03840419540031152,0.01823186594091052,0.0008068068106740103,0.057442868151896045,3.011833527980464,0.6685633332019459,0.3173912885530026,-4.004584340021551,18.1
,,0.03840419540031152,0.01823186594091052,0.0008068068106740103,0.057442868151896045,2.970303164362164,0.6685633332019459,0.3173912885530026,-4.004584340021551,18.2
,,0.03840419540031152,0.01823186594091052,0.0008068068106740103,0.057442868151896045,2.9287728007438636,0.6685633332019459,0.3173912885530026,-4.004584340021551,18.3
,,0.03954296680186428,0.017019728255369553,0.0007751874919587769,0.057337882549192615,2.8921496629121872,0.6896481879661093,0.2968321727048013,-4.073382122158874,18.4
,,0.03954296680186428,0.017019728255369553,0.0007751874919587769,0.057337882549192615,2.855526525080511,0.6896481879661093,0.2968321727048013,-4.073382122158874,18.5
,,0.03954296680186428,0.017019728255369553,0.0007751874919587769,0.057337882549192615,2.8189033872488345,0.6896481879661093,0.2968321727048013,-4.073382122158874,18.6
,,0.03954296680186428,0.017019728255369553,0.0007751874919587769,0.057337882549192615,2.782280249417158,0.6896481879661093,0.2968321727048013,-4.073382122158874,18.7
,,0.03954296680186428,0.017019728255369553,0.0007751874919587769,0.057337882549192615,2.745657111585482,0.6896481879661093,0.2968321727048013,-4.073382122158874,18.8
,,0.03954296680186428,0.017019728255369553,0.0007751874919587769,0.057337882549192615,2.711765809440067,0.6896481879661093,0.2968321727048013,-4.073382122158874,18.9
,,0.03954296680186428,0.017019728255369553,0.0007751874919587769,0.057337882549192615,2.6778745072946526,0.6896481879661093,0.2968321727048013,-4.073382122158874,19.0
,,0.039538320768608685,0.015306222114722766,0.0007224958827601556,0.055567038766091606,2.6497794827502896,0.7115426995317223,0.2754550621125235,-4.179495859088386,19.1
,,0.039538320768608685,0.015306222114722766,0.0007224958827601556,0.055567038766091606,2.621684458205927,0.7115426995317223,0.2754550621125235,-4.179495859088386,19.2
,,0.039538320768608685,0.015306222114722766,0.0007224958827601556,0.055567038766091606,2.5935894336615646,0.7115426995317223,0.2754550621125235,-4.179495859088386,19.3
,,0.039538320768608685,0.015306222114722766,0.0007224958827601556,0.055567038766091606,2.565494409117202,0.7115426995317223,0.2754550621125235,-4.179495859088386,19.4
,,0.039538320768608685,0.015306222114722766,0.0007224958827601556,0.055567038766091606,2.5373993845728395,0.7115426995317223,0.2754550621125235,-4.179495859088386,19.5
,,0.039538320768608685,0.015306222114722766,0.0007224958827601556,0.055567038766091606,2.501053676083017,0.7115426995317223,0.2754550621125235,-4.179495859088386,19.6
,,0.039538320768608685,0.015306222114722766,0.0007224958827601556,0.055567038766091606,2.464707967593194,0.7115426995317223,0.2754550621125235,-4.179495859088386,19.7
,,0.039538320768608685,0.015306222114722766,0.0007224958827601556,0.055567038766091606,2.4433928961377123,0.7115426995317223,0.2754550621125235,-4.179495859088386,19.8
,,0.038996614669016855,0.01444300277416909,0.0007077862363088914,0.05414740367949483,2.4233765096361894,0.7201936199903994,0.266734908651558,-4.237545218786058,19.9
,,0.038766515405172286,0.013521928837893157,0.0006020859052760347,0.05289053014834148,2.4052145863020957,0.7329575879924869,0.25565878806599884,-4.303442553018435,20.0
,,0.038766515405172286,0.013521928837893157,0.0006020859052760347,0.05289053014834148,2.3870526629680024,0.7329575879924869,0.25565878806599884,-4.303442553018435,20.1
,,0.038766515405172286,0.013521928837893157,0.0006020859052760347,0.05289053014834148,2.3688907396339087,0.7329575879924869,0.25565878806599884,-4.303442553018435,20.2
,,0.038766515405172286,0.013521928837893157,0.0006020859052760347,0.05289053014834148,2.355091798385006,0.7329575879924869,0.25565878806599884,-4.303442553018435,20.3
,,0.038766515405172286,0.013521928837893157,0.0006020859052760347,0.05289053014834148,2.344163755151681,0.7329575879924869,0.25565878806599884,-4.303442553018435,20.4
,,0.038766515405172286,0.013521928837893157,0.0006020859052760347,0.05289053014834148,2.3332357119183564,0.7329575879924869,0.25565878806599884,-4.303442553018435,20.5
,,0.038766515405172286,0.013521928837893157,0.0006020859052760347,0.05289053014834148,2.322307668685032,0.7329575879924869,0.25565878806599884,-4.303442553018435,20.6
,,0.047690895160397505,0.017917596808848697,0.00044332241234362984,0.06605181438158983,2.309098985701797,0.7220224850279066,0.27126577788365414,-4.021971987077522,20.7
,,0.037612909000539374,0.011882852686357035,0.0005424095704634406,0.05003817125735985,2.301486197022751,0.7516843252941042,0.23747575876105284,-4.43265886875883,20.8
,,0.037612909000539374,0.011882852686357035,0.0005424095704634406,0.05003817125735985,2.293873408343705,0.7516843252941042,0.23747575876105284,-4.43265886875883,20.9
,,0.037612909000539374,0.011882852686357035,0.0005424095704634406,0.05003817125735985,2.3075578369449947,0.7516843252941042,0.23747575876105284,-4.43265886875883,21.0
,,0.037612909000539374,0.011882852686357035,0.0005424095704634406,0.05003817125735985,2.3068193429500012,0.7516843252941042,0.23747575876105284,-4.43265886875883,21.1
,,0.037612909000539374,0.011882852686357035,0.0005424095704634406,0.05003817125735985,2.306080848955008,0.7516843252941042,0.23747575876105284,-4.43265886875883,21.2
,,0.037612909000539374,0.011882852686357035,0.0005424095704634406,0.05003817125735985,2.305342354960015,0.7516843252941042,0.23747575876105284,-4.43265886875883,21.3
,,0.037612909000539374,0.011882852686357035,0.0005424095704634406,0.05003817125735985,2.3046038609650226,0.7516843252941042,0.23747575876105284,-4.43265886875883,21.4
,,0.03729035857640824,0.011340313577417903,0.0005812419240470734,0.04921191407787322,2.305231931068377,0.7577506235055146,0.23043837635481776,-4.479391328735229,21.5
,,0.03640090648421474,0.010531414823566298,0.0004866716718897078,0.04741899297967074,2.307284309171675,0.7676440218757994,0.22209275570405468,-4.553392600649538,21.6
,,0.03640090648421474,0.010531414823566298,0.0004866716718897078,0.04741899297967074,2.3153954327970663,0.7676440218757994,0.22209275570405468,-4.553392600649538,21.7
,,0.03640090648421474,0.010531414823566298,0.0004866716718897078,0.04741899297967074,2.3235065564224566,0.7676440218757994,0.22209275570405468,-4.553392600649538,21.8
,,0.03640090648421474,0.010531414823566298,0.0004866716718897078,0.04741899297967074,2.331617680047848,0.7676440218757994,0.22209275570405468,-4.553392600649538,21.9
,,0.03640090648421474,0.010531414823566298,0.0004866716718897078,0.04741899297967074,2.3397288036732387,0.7676440218757994,0.22209275570405468,-4.553392600649538,22.0
,,0.03640090648421474,0.010531414823566298,0.0004866716718897078,0.04741899297967074,2.3478399272986294,0.7676440218757994,0.22209275570405468,-4.553392600649538,22.1
,,0.04031059880780748,0.01343946515346164,0.0003486183900217384,0.05409868235129086,2.350873362781664,0.7451308803798549,0.24842499982147825,-4.309559739808323,22.2
,,0.04031059880780748,0.01343946515346164,0.0003486183900217384,0.05409868235129086,2.3583017324635858,0.7451308803798549,0.24842499982147825,-4.309559739808323,22.3
,,0.03530876901322073,0.009468670022336548,0.0004886570285373186,0.045266096064094596,2.373836663633126,0.7800268210279327,0.20917796862643886,-4.659766822794075,22.4
,,0.03530876901322073,0.009468670022336548,0.0004886570285373186,0.045266096064094596,2.3893715948026655,0.7800268210279327,0.20917796862643886,-4.659766822794075,22.5
,,0.03530876901322073,0.009468670022336548,0.0004886570285373186,0.045266096064094596,2.4049065259722058,0.7800268210279327,0.20917796862643886,-4.659766822794075,22.6
,,0.03530876901322073,0.009468670022336548,0.0004886570285373186,0.045266096064094596,2.4204414571417456,0.7800268210279327,0.20917796862643886,-4.659766822794075,22.7
,,0.03530876901322073,0.009468670022336548,0.0004886570285373186,0.045266096064094596,2.435976388311285,0.7800268210279327,0.20917796862643886,-4.659766822794075,22.8
,,0.03530876901322073,0.009468670022336548,0.0004886570285373186,0.045266096064094596,2.454722882758223,0.7800268210279327,0.20917796862643886,-4.659766822794075,22.9
,,0.03527260222344544,0.009160561849561159,0.0004717052177410949,0.04490486929074769,2.4748190903801355,0.785496156220036,0.20399929883436102,-4.692847764888817,23.0
,,0.0188802976327103,0.008644138229564648,0.0004427989303791832,0.027967234792654134,2.4764007303284394,0.6750863205707199,0.3090809046246901,-4.750873849076575,23.1
,,0.0188802976327103,0.008644138229564648,0.0004427989303791832,0.027967234792654134,2.4779823702767434,0.6750863205707199,0.3090809046246901,-4.750873849076575,23.2
,,0.0188802976327103,0.008644138229564648,0.0004427989303791832,0.027967234792654134,2.479564010225047,0.6750863205707199,0.3090809046246901,-4.750873849076575,23.3
,,0.0188802976327103,0.008644138229564648,0.0004427989303791832,0.027967234792654134,2.481145650173351,0.6750863205707199,0.3090809046246901,-4.750873849076575,23.4
,,0.0188802976327103,0.008644138229564648,0.0004427989303791832,0.027967234792654134,2.4846909351436057,0.6750863205707199,0.3090809046246901,-4.750873849076575,23.5
,,0.0188802976327103,0.008644138229564648,0.0004427989303791832,0.027967234792654134,2.4882362201138615,0.6750863205707199,0.3090809046246901,-4.750873849076575,23.6
,,0.03439675778979089,0.00841691902396529,0.0004243228722615936,0.043237999686017776,2.5129198103351356,0.7955214866453235,0.1946648569565335,-4.7775114293329795,23.7
,,0.033466223565125616,0.00800039598962409,0.0003994172326449261,0.04186603678739463,2.538675066318876,0.7993645000379377,0.19109513590340402,-4.8282642398243105,23.8
,,0.033466223565125616,0.00800039598962409,0.0003994172326449261,0.04186603678739463,2.5644303223026164,0.7993645000379377,0.19109513590340402,-4.8282642398243105,23.9
,,0.033466223565125616,0.00800039598962409,0.0003994172326449261,0.04186603678739463,2.590185578286357,0.7993645000379377,0.19109513590340402,-4.8282642398243105,24.0
,,0.033466223565125616,0.00800039598962409,0.0003994172326449261,0.04186603678739463,2.616853665009278,0.7993645000379377,0.19109513590340402,-4.8282642398243105,24.1
,,0.033466223565125616,0.00800039598962409,0.0003994172326449261,0.04186603678739463,2.643521751732199,0.7993645000379377,0.19109513590340402,-4.8282642398243105,24.2
,,0.033466223565125616,0.00800039598962409,0.0003994172326449261,0.04186603678739463,2.6701898384551197,0.7993645000379377,0.19109513590340402,-4.8282642398243105,24.3
,,0.0335464300429992,0.00783388495780418,0.0003814253776337388,0.04176174037843712,2.69795959785027,0.8032814183271025,0.18758521284829063,-4.849296728834301,24.4
,,0.03261969092259809,0.007516648138838788,0.00036114316085865346,0.04049748222229553,2.726367554212477,0.8054745414429643,0.18560778908622036,-4.890634966604093,24.5
,,0.03261969092259809,0.007516648138838788,0.00036114316085865346,0.04049748222229553,2.754775510574684,0.8054745414429643,0.18560778908622036,-4.890634966604093,24.6
,,0.03261969092259809,0.007516648138838788,0.00036114316085865346,0.04049748222229553,2.782996467484083,0.8054745414429643,0.18560778908622036,-4.890634966604093,24.7
,,0.03261969092259809,0.007516648138838788,0.00036114316085865346,0.04049748222229553,2.811494168027653,0.8054745414429643,0.18560778908622036,-4.890634966604093,24.8
,,0.03261969092259809,0.007516648138838788,0.00036114316085865346,0.04049748222229553,2.8399918685712224,0.8054745414429643,0.18560778908622036,-4.890634966604093,24.9
,,0.03261969092259809,0.007516648138838788,0.00036114316085865346,0.04049748222229553,2.868489569114792,0.8054745414429643,0.18560778908622036,-4.890634966604093,25.0
,,0.03183320646015641,0.007160399308666565,0.0003276057167043411,0.039321211485527315,2.8981658414773968,0.8095683031504011,0.1821001703190667,-4.9391895301977975,25.1
,,0.03183320646015641,0.007160399308666565,0.0003276057167043411,0.039321211485527315,2.9278421138400006,0.8095683031504011,0.1821001703190667,-4.9391895301977975,25.2
,,0.03183320646015641,0.007160399308666565,0.0003276057167043411,0.039321211485527315,2.9575183862026053,0.8095683031504011,0.1821001703190667,-4.9391895301977975,25.3
,,0.03183320646015641,0.007160399308666565,0.0003276057167043411,0.039321211485527315,2.986601531408463,0.8095683031504011,0.1821001703190667,-4.9391895301977975,25.4
,,0.03183320646015641,0.007160399308666565,0.0003276057167043411,0.039321211485527315,3.0156846766143195,0.8095683031504011,0.1821001703190667,-4.9391895301977975,25.5
,,0.03183320646015641,0.007160399308666565,0.0003276057167043411,0.039321211485527315,3.0447678218201766,0.8095683031504011,0.1821001703190667,-4.9391895301977975,25.6
,,0.03183320646015641,0.007160399308666565,0.0003276057167043411,0.039321211485527315,3.073850967026034,0.8095683031504011,0.1821001703190667,-4.9391895301977975,25.7
,,0.031169690052295126,0.006941357037342552,0.0003005250578354428,0.03841157214747312,3.1034307914886927,0.8114661366274122,0.1807100477609372,-4.970257985056607,25.8
,,0.031169690052295126,0.006941357037342552,0.0003005250578354428,0.03841157214747312,3.1330106159513518,0.8114661366274122,0.1807100477609372,-4.970257985056607,25.9
,,0.031169690052295126,0.006941357037342552,0.0003005250578354428,0.03841157214747312,3.1613452215321143,0.8114661366274122,0.1807100477609372,-4.970257985056607,26.0
,,0.031169690052295126,0.006941357037342552,0.0003005250578354428,0.03841157214747312,3.189679827112878,0.8114661366274122,0.1807100477609372,-4.970257985056607,26.1
,,0.031169690052295126,0.006941357037342552,0.0003005250578354428,0.03841157214747312,3.218014432693641,0.8114661366274122,0.1807100477609372,-4.970257985056607,26.2
,,0.031169690052295126,0.006941357037342552,0.0003005250578354428,0.03841157214747312,3.2463490382744036,0.8114661366274122,0.1807100477609372,-4.970257985056607,26.3
,,0.03040705773769535,0.006880850594982149,0.00024740945065537763,0.037535317783332876,3.273890892600941,0.8100919223120912,0.18331670014626894,-4.979013001687222,26.4
,,0.009028378392147575,0.008403588103722227,0.00026044428539750145,0.017692410781267306,3.264269012455833,0.5102966748718499,0.47498264694486586,-4.779096509132655,26.5
,,0.009028378392147575,0.008403588103722227,0.00026044428539750145,0.017692410781267306,3.252801407051241,0.5102966748718499,0.47498264694486586,-4.779096509132655,26.6
,,0.009028378392147575,0.008403588103722227,0.00026044428539750145,0.017692410781267306,3.241333801646648,0.5102966748718499,0.47498264694486586,-4.779096509132655,26.7
,,0.009028378392147575,0.008403588103722227,0.00026044428539750145,0.017692410781267306,3.2298661962420563,0.5102966748718499,0.47498264694486586,-4.779096509132655,26.8
,,0.009028378392147575,0.008403588103722227,0.00026044428539750145,0.017692410781267306,3.218398590837464,0.5102966748718499,0.47498264694486586,-4.779096509132655,26.9
,,0.009028378392147575,0.008403588103722227,0.00026044428539750145,0.017692410781267306,3.206930985432872,0.5102966748718499,0.47498264694486586,-4.779096509132655,27.0
,,0.008271512451922472,0.008690778490503762,0.0002807211404656135,0.017243012082891845,3.194101261458853,0.4797022940167915,0.5040174215922849,-4.745492759079353,27.1
,,0.008271512451922472,0.008690778490503762,0.0002807211404656135,0.017243012082891845,3.181271537484834,0.4797022940167915,0.5040174215922849,-4.745492759079353,27.2
,,0.008271512451922472,0.008690778490503762,0.0002807211404656135,0.017243012082891845,3.168441813510816,0.4797022940167915,0.5040174215922849,-4.745492759079353,27.3
,,0.008271512451922472,0.008690778490503762,0.0002807211404656135,0.017243012082891845,3.153201777096789,0.4797022940167915,0.5040174215922849,-4.745492759079353,27.4
,,0.008271512451922472,0.008690778490503762,0.0002807211404656135,0.017243012082891845,3.1379617406827625,0.4797022940167915,0.5040174215922849,-4.745492759079353,27.5
,,0.008271512451922472,0.008690778490503762,0.0002807211404656135,0.017243012082891845,3.1227217042687356,0.4797022940167915,0.5040174215922849,-4.745492759079353,27.6
,,0.03064047985571812,0.0068120034776300836,0.00025873522880656425,0.03771121856215477,3.1468845076641476,0.8125030434966501,0.18063599473463565,-4.989069005666546,27.7
,,0.030164351701456826,0.006900025490416756,0.0002593379800977292,0.03732371517197131,3.1696430452205027,0.8081819176486778,0.1848697392160578,-4.976230173122449,27.8
,,0.030164351701456826,0.006900025490416756,0.0002593379800977292,0.03732371517197131,3.192401582776856,0.8081819176486778,0.1848697392160578,-4.976230173122449,27.9
,,0.030164351701456826,0.006900025490416756,0.0002593379800977292,0.03732371517197131,3.215160120333211,0.8081819176486778,0.1848697392160578,-4.976230173122449,28.0
,,0.030164351701456826,0.006900025490416756,0.0002593379800977292,0.03732371517197131,3.2350320709348908,0.8081819176486778,0.1848697392160578,-4.976230173122449,28.1
,,0.030164351701456826,0.006900025490416756,0.0002593379800977292,0.03732371517197131,3.2549040215365714,0.8081819176486778,0.1848697392160578,-4.976230173122449,28.2
,,0.030550393584033428,0.006887232454528243,0.0002549395866721461,0.03769256562523381,3.2754889956648228,0.8105150996561784,0.18272124330845468,-4.978085950335163,28.3
,,0.014776023135939105,0.007012384314132944,0.0002583107038328768,0.022046718153904923,3.270199874164087,0.6702141803051975,0.3180693047001604,-4.960077505362742,28.4
,,0.014776023135939105,0.007012384314132944,0.0002583107038328768,0.022046718153904923,3.264910752663351,0.6702141803051975,0.3180693047001604,-4.960077505362742,28.5
,,0.014776023135939105,0.007012384314132944,0.0002583107038328768,0.022046718153904923,3.259621631162615,0.6702141803051975,0.3180693047001604,-4.960077505362742,28.6
,,0.014776023135939105,0.007012384314132944,0.0002583107038328768,0.022046718153904923,3.254332509661879,0.6702141803051975,0.3180693047001604,-4.960077505362742,28.7
,,0.014776023135939105,0.007012384314132944,0.0002583107038328768,0.022046718153904923,3.2490433881611436,0.6702141803051975,0.3180693047001604,-4.960077505362742,28.8
,,0.014776023135939105,0.007012384314132944,0.0002583107038328768,0.022046718153904923,3.242455581706449,0.6702141803051975,0.3180693047001604,-4.960077505362742,28.9
,,0.030624455784825907,0.006998432524261396,0.0002566298436188852,0.03787951815270619,3.2592218631328036,0.8084700460382713,0.1847550567050023,-4.962069080107308,29.0
,,0.030389400214944795,0.007137564648229081,0.0002613416776758566,0.037788306540849734,3.2746744625448234,0.8042011668899053,0.18888289266186792,-4.942383646495798,29.1
,,0.030389400214944795,0.007137564648229081,0.0002613416776758566,0.037788306540849734,3.290127061956843,0.8042011668899053,0.18888289266186792,-4.942383646495798,29.2
,,0.030389400214944795,0.007137564648229081,0.0002613416776758566,0.037788306540849734,3.3055796613688617,0.8042011668899053,0.18888289266186792,-4.942383646495798,29.3
,,0.030389400214944795,0.007137564648229081,0.0002613416776758566,0.037788306540849734,3.3210322607808815,0.8042011668899053,0.18888289266186792,-4.942383646495798,29.4
,,0.030389400214944795,0.007137564648229081,0.0002613416776758566,0.037788306540849734,3.336484860192901,0.8042011668899053,0.18888289266186792,-4.942383646495798,29.5
,,0.03082698927623464,0.007121219141940654,0.0002622090127453173,0.03821041743092061,3.352728807945027,0.806769235954194,0.18636852514932292,-4.9446763404154055,29.6
,,0.03082698927623464,0.007121219141940654,0.0002622090127453173,0.03821041743092061,3.371253395447063,0.806769235954194,0.18636852514932292,-4.9446763404154055,29.7
,,0.030699133238374633,0.007254668449235816,0.00026758907632548254,0.03822139076393593,3.3831014914562534,0.8031924695775597,0.18980650113027836,-4.926110093313151,29.8
,,0.030699133238374633,0.007254668449235816,0.00026758907632548254,0.03822139076393593,3.3949495874654434,0.8031924695775597,0.18980650113027836,-4.926110093313151,29.9
,,0.030699133238374633,0.007254668449235816,0.00026758907632548254,0.03822139076393593,3.4067976834746343,0.8031924695775597,0.18980650113027836,-4.926110093313151,30.0
,,0.030699133238374633,0.007254668449235816,0.00026758907632548254,0.03822139076393593,3.418645779483825,0.8031924695775597,0.18980650113027836,-4.926110093313151,30.1
,,0.031087486295963543,0.007219149699793895,0.0002706792476931851,0.03857731524345063,3.4313229290555394,0.8058488803531072,0.18713458036765554,-4.9310181031244955,30.2
,,0.031087486295963543,0.007219149699793895,0.0002706792476931851,0.03857731524345063,3.4440000786272535,0.8058488803531072,0.18713458036765554,-4.9310181031244955,30.3
,,0.031087486295963543,0.007219149699793895,0.0002706792476931851,0.03857731524345063,3.4566772281989673,0.8058488803531072,0.18713458036765554,-4.9310181031244955,30.4
,,0.031043283764166606,0.00732607678628012,0.00023833534884708287,0.03860769589929381,3.467222423512856,0.8040698374008491,0.18975690249399535,-4.916315133342725,30.5
,,0.031043283764166606,0.00732607678628012,0.00023833534884708287,0.03860769589929381,3.475899715249396,0.8040698374008491,0.18975690249399535,-4.916315133342725,30.6
,,0.031043283764166606,0.00732607678628012,0.00023833534884708287,0.03860769589929381,3.484577006985935,0.8040698374008491,0.18975690249399535,-4.916315133342725,30.7
,,0.0314154962577044,0.007270892409638134,0.0002816275796669421,0.038968016247009477,3.4941804405895147,0.8061866957396201,0.18658615731295083,-4.923876242612786,30.8
,,0.0314154962577044,0.007270892409638134,0.0002816275796669421,0.038968016247009477,3.503783874193094,0.8061866957396201,0.18658615731295083,-4.923876242612786,30.9
,,0.0314154962577044,0.007270892409638134,0.0002816275796669421,0.038968016247009477,3.513387307796673,0.8061866957396201,0.18658615731295083,-4.923876242612786,31.0
,,0.031392511709325124,0.007330961512912184,0.0002484995725057233,0.03897197279474303,3.522562532641195,0.805515078096321,0.18810855564132656,-4.915648596664142,31.1
,,0.031392511709325124,0.007330961512912184,0.0002484995725057233,0.03897197279474303,3.536815445628073,0.805515078096321,0.18810855564132656,-4.915648596664142,31.2
,,0.031392511709325124,0.007330961512912184,0.0002484995725057233,0.03897197279474303,3.5510683586149514,0.805515078096321,0.18810855564132656,-4.915648596664142,31.3
,,0.031392511709325124,0.007330961512912184,0.0002484995725057233,0.03897197279474303,3.5572147101142124,0.805515078096321,0.18810855564132656,-4.915648596664142,31.4
,,0.031392511709325124,0.007330961512912184,0.0002484995725057233,0.03897197279474303,3.563361061613473,0.805515078096321,0.18810855564132656,-4.915648596664142,31.5
,,0.03102765245166504,0.01685347691031104,0.0007606264209811857,0.04864175578295727,3.5423834329231467,0.6378810129739658,0.34648167277333425,-4.0831982986443505,31.6
,,0.03102765245166504,0.01685347691031104,0.0007606264209811857,0.04864175578295727,3.5214058042328205,0.6378810129739658,0.34648167277333425,-4.0831982986443505,31.7
,,0.03170493673356217,0.0072536274572763786,0.00029553388971095156,0.039254098080549506,3.5285379973862057,0.8076847586334442,0.18478650158747545,-4.92625359630867,31.8
,,0.03170493673356217,0.0072536274572763786,0.00029553388971095156,0.039254098080549506,3.5356701905395904,0.8076847586334442,0.18478650158747545,-4.92625359630867,31.9
,,0.03170493673356217,0.0072536274572763786,0.00029553388971095156,0.039254098080549506,3.541452670518001,0.8076847586334442,0.18478650158747545,-4.92625359630867,32.0
,,0.03170493673356217,0.0072536274572763786,0.00029553388971095156,0.039254098080549506,3.5657497181700206,0.8076847586334442,0.18478650158747545,-4.92625359630867,32.1
,,0.03170493673356217,0.0072536274572763786,0.00029553388971095156,0.039254098080549506,3.5900467658220405,0.8076847586334442,0.18478650158747545,-4.92625359630867,32.2
,,0.035136271611164255,0.01775215919246251,0.0008365826308923243,0.05372501343451909,3.587770032429234,0.6540021000457991,0.33042633324045845,-4.031248125813047,32.3
,,0.03198352951938396,0.0071643064317102505,0.00030325315495963287,0.03945108910605385,3.613104641557172,0.8107134744342464,0.18159971230327512,-4.938644021869544,32.4
,,0.031912419766329844,0.0071273424451987685,0.00030359815561394244,0.03934336036714255,3.6385856479976617,0.8111259299798238,0.18115744000228154,-4.9438168426201194,32.5
,,0.031912419766329844,0.0071273424451987685,0.00030359815561394244,0.03934336036714255,3.6640666544381526,0.8111259299798238,0.18115744000228154,-4.9438168426201194,32.6
,,0.031912419766329844,0.0071273424451987685,0.00030359815561394244,0.03934336036714255,3.6684093556276234,0.8111259299798238,0.18115744000228154,-4.9438168426201194,32.7
,,0.031912419766329844,0.0071273424451987685,0.00030359815561394244,0.03934336036714255,3.671680391054629,0.8111259299798238,0.18115744000228154,-4.9438168426201194,32.8
,,0.031912419766329844,0.0071273424451987685,0.00030359815561394244,0.03934336036714255,3.674951426481634,0.8111259299798238,0.18115744000228154,-4.9438168426201194,32.9
,,0.031912419766329844,0.0071273424451987685,0.00030359815561394244,0.03934336036714255,3.678222461908639,0.8111259299798238,0.18115744000228154,-4.9438168426201194,33.0
,,0.03206517675943989,0.006952837083964533,0.0003103710121388209,0.03932838485554324,3.682986250850161,0.8153189325526136,0.1767892861479804,-4.968605489181831,33.1
,,0.03206517675943989,0.006952837083964533,0.0003103710121388209,0.03932838485554324,3.687750039791683,0.8153189325526136,0.1767892861479804,-4.968605489181831,33.2
,,0.03206517675943989,0.006952837083964533,0.0003103710121388209,0.03932838485554324,3.6925138287332047,0.8153189325526136,0.1767892861479804,-4.968605489181831,33.3
,,0.03206517675943989,0.006952837083964533,0.0003103710121388209,0.03932838485554324,3.696175945002497,0.8153189325526136,0.1767892861479804,-4.968605489181831,33.4
,,0.03206517675943989,0.006952837083964533,0.0003103710121388209,0.03932838485554324,3.699199864304732,0.8153189325526136,0.1767892861479804,-4.968605489181831,33.5
,,0.03206517675943989,0.006952837083964533,0.0003103710121388209,0.03932838485554324,3.702223783606968,0.8153189325526136,0.1767892861479804,-4.968605489181831,33.6
,,0.03206517675943989,0.006952837083964533,0.0003103710121388209,0.03932838485554324,3.705247702909204,0.8153189325526136,0.1767892861479804,-4.968605489181831,33.7
,,0.03187277550258597,0.006806685491181368,0.0002695166645396586,0.038948977658306995,3.709057813959839,0.818321235083514,0.17475902836000742,-4.989849989317938,33.8
,,0.03214978259185246,0.006744153934307064,0.00031486237139957094,0.03920879889755909,3.7138067058568347,0.8199634647276561,0.17200613443751564,-4.99907923317133,33.9
,,0.03214978259185246,0.006744153934307064,0.00031486237139957094,0.03920879889755909,3.718555597753831,0.8199634647276561,0.17200613443751564,-4.99907923317133,34.0
,,0.03214978259185246,0.006744153934307064,0.00031486237139957094,0.03920879889755909,3.7221259178317934,0.8199634647276561,0.17200613443751564,-4.99907923317133,34.1
,,0.03214978259185246,0.006744153934307064,0.00031486237139957094,0.03920879889755909,3.7256962379097547,0.8199634647276561,0.17200613443751564,-4.99907923317133,34.2
,,0.03214978259185246,0.006744153934307064,0.00031486237139957094,0.03920879889755909,3.729266557987716,0.8199634647276561,0.17200613443751564,-4.99907923317133,34.3
,,0.03214978259185246,0.006744153934307064,0.00031486237139957094,0.03920879889755909,3.7328368780656773,0.8199634647276561,0.17200613443751564,-4.99907923317133,34.4
,,0.031829181922163954,0.0065402326393092305,0.00027269572966470506,0.03864211029113789,3.737514029757186,0.8236916069633908,0.16925143554618846,-5.029782542385869,34.5
,,0.03214966146338536,0.006514261922620053,0.00031698133288279954,0.03898090471888821,3.742953390353267,0.8247541121796291,0.16711417986826677,-5.0337613637531575,34.6
,,0.03214966146338536,0.006514261922620053,0.00031698133288279954,0.03898090471888821,3.7483927509493475,0.8247541121796291,0.16711417986826677,-5.0337613637531575,34.7
,,0.03214966146338536,0.006514261922620053,0.00031698133288279954,0.03898090471888821,3.753335432288627,0.8247541121796291,0.16711417986826677,-5.0337613637531575,34.8
,,0.03214966146338536,0.006514261922620053,0.00031698133288279954,0.03898090471888821,3.7582781136279064,0.8247541121796291,0.16711417986826677,-5.0337613637531575,34.9
,,0.03214966146338536,0.006514261922620053,0.00031698133288279954,0.03898090471888821,3.763220794967185,0.8247541121796291,0.16711417986826677,-5.0337613637531575,35.0
,,0.03214966146338536,0.006514261922620053,0.00031698133288279954,0.03898090471888821,3.768163476306464,0.8247541121796291,0.16711417986826677,-5.0337613637531575,35.1
,,0.037436488388451206,0.012849830139406736,0.0005920406709584629,0.050878359198816406,3.7506407225028737,0.735803767612893,0.25255983765501744,-4.3544246864514875,35.2
,,0.03210980983341257,0.0062860715910235485,0.0003173407589923149,0.03871322218342843,3.7575035749406442,0.8294274674753755,0.16237531356184456,-5.069418951708276,35.3
,,0.03210980983341257,0.0062860715910235485,0.0003173407589923149,0.03871322218342843,3.7651591786326417,0.8294274674753755,0.16237531356184456,-5.069418951708276,35.4
,,0.03210980983341257,0.0062860715910235485,0.0003173407589923149,0.03871322218342843,3.809978516796283,0.8294274674753755,0.16237531356184456,-5.069418951708276,35.5
,,0.03210980983341257,0.0062860715910235485,0.0003173407589923149,0.03871322218342843,3.8547978549599247,0.8294274674753755,0.16237531356184456,-5.069418951708276,35.6
,,0.03210980983341257,0.0062860715910235485,0.0003173407589923149,0.03871322218342843,3.899617193123567,0.8294274674753755,0.16237531356184456,-5.069418951708276,35.7
,,0.03210980983341257,0.0062860715910235485,0.0003173407589923149,0.03871322218342843,3.944436531287209,0.8294274674753755,0.16237531356184456,-5.069418951708276,35.8
,,0.031587927794276195,0.006030276789657161,0.0002729136420162632,0.03789111822594962,3.990701796146171,0.8336499230746718,0.15914750136688613,-5.11096236719748,35.9
,,0.03668494034963068,0.011118357863354498,0.0005842257986808029,0.04838752401166598,4.015425625466625,0.7581487397616404,0.22977736700629525,-4.499157675223371,36.0
,,0.03668494034963068,0.011118357863354498,0.0005842257986808029,0.04838752401166598,4.041511573356505,0.7581487397616404,0.22977736700629525,-4.499157675223371,36.1
,,0.03668494034963068,0.011118357863354498,0.0005842257986808029,0.04838752401166598,4.067597521246385,0.7581487397616404,0.22977736700629525,-4.499157675223371,36.2
,,0.03668494034963068,0.011118357863354498,0.0005842257986808029,0.04838752401166598,4.093683469136265,0.7581487397616404,0.22977736700629525,-4.499157675223371,36.3
,,0.03668494034963068,0.011118357863354498,0.0005842257986808029,0.04838752401166598,4.119769417026147,0.7581487397616404,0.22977736700629525,-4.499157675223371,36.4
,,0.03668494034963068,0.011118357863354498,0.0005842257986808029,0.04838752401166598,4.145855364916026,0.7581487397616404,0.22977736700629525,-4.499157675223371,36.5
,,0.03668494034963068,0.011118357863354498,0.0005842257986808029,0.04838752401166598,4.171941312805907,0.7581487397616404,0.22977736700629525,-4.499157675223371,36.6
,,0.03216324562103365,0.005925457416169074,0.0003189539881333223,0.038407657025336044,4.18227424491982,0.8374175388989962,0.15427802357900353,-5.128497393899595,36.7
,,0.03216324562103365,0.005925457416169074,0.0003189539881333223,0.038407657025336044,4.194011442872791,0.8374175388989962,0.15427802357900353,-5.128497393899595,36.8
,,0.03216324562103365,0.005925457416169074,0.0003189539881333223,0.038407657025336044,4.205748640825762,0.8374175388989962,0.15427802357900353,-5.128497393899595,36.9
,,0.03216324562103365,0.005925457416169074,0.0003189539881333223,0.038407657025336044,4.217485838778733,0.8374175388989962,0.15427802357900353,-5.128497393899595,37.0
,,0.03216324562103365,0.005925457416169074,0.0003189539881333223,0.038407657025336044,4.229223036731704,0.8374175388989962,0.15427802357900353,-5.128497393899595,37.1
,,0.03216324562103365,0.005925457416169074,0.0003189539881333223,0.038407657025336044,4.240960234684675,0.8374175388989962,0.15427802357900353,-5.128497393899595,37.2
,,0.0362254268415183,0.009782052813530185,0.0005234167203946297,0.046530896375443116,4.232820822718012,0.7785241562772993,0.21022704429766167,-4.627205917827187,37.3
,,0.03229159544808449,0.005811206214956394,0.0003235597085714621,0.038426361371612344,4.271150240864178,0.8403500694692384,0.15122967690741207,-5.147967119518921,37.4
,,0.03229159544808449,0.005811206214956394,0.0003235597085714621,0.038426361371612344,4.309479659010344,0.8403500694692384,0.15122967690741207,-5.147967119518921,37.5
,,0.03229159544808449,0.005811206214956394,0.0003235597085714621,0.038426361371612344,4.347809077156509,0.8403500694692384,0.15122967690741207,-5.147967119518921,37.6
,,0.03229159544808449,0.005811206214956394,0.0003235597085714621,0.038426361371612344,4.386138495302675,0.8403500694692384,0.15122967690741207,-5.147967119518921,37.7
,,0.03229159544808449,0.005811206214956394,0.0003235597085714621,0.038426361371612344,4.424467913448841,0.8403500694692384,0.15122967690741207,-5.147967119518921,37.8
,,0.03229159544808449,0.005811206214956394,0.0003235597085714621,0.038426361371612344,4.462797331595007,0.8403500694692384,0.15122967690741207,-5.147967119518921,37.9
,,0.0173305735948949,0.006003010918158361,0.0003425075252382945,0.023676092038291557,4.446253754479995,0.7319862402488555,0.2535473721106354,-5.115494115930416,38.0
,,0.03256566268330202,0.005752700910988346,0.00033237923771375775,0.03865074283200413,4.461845573228021,0.842562401060415,0.1488380426733976,-5.15808581080835,38.1
,,0.03256566268330202,0.005752700910988346,0.00033237923771375775,0.03865074283200413,4.477437391976046,0.842562401060415,0.1488380426733976,-5.15808581080835,38.2
,,0.03256566268330202,0.005752700910988346,0.00033237923771375775,0.03865074283200413,4.493029210724073,0.842562401060415,0.1488380426733976,-5.15808581080835,38.3
,,0.03256566268330202,0.005752700910988346,0.00033237923771375775,0.03865074283200413,4.508621029472098,0.842562401060415,0.1488380426733976,-5.15808581080835,38.4
,,0.03256566268330202,0.005752700910988346,0.00033237923771375775,0.03865074283200413,4.524212848220124,0.842562401060415,0.1488380426733976,-5.15808581080835,38.5
,,0.033702015651967905,0.005974696988393162,0.0003546728486333732,0.04003138548899444,4.5387895001730145,0.8418898132125199,0.14925031735501001,-5.12022189569016,38.6
,,0.033702015651967905,0.005974696988393162,0.0003546728486333732,0.04003138548899444,4.553366152125905,0.8418898132125199,0.14925031735501001,-5.12022189569016,38.7
,,0.03290376050244968,0.0057345590771735126,0.00034564590348880607,0.038983965483112,4.570101295946959,0.8440331837638149,0.1471004554335999,-5.161244414150942,38.8
,,0.03290376050244968,0.0057345590771735126,0.00034564590348880607,0.038983965483112,4.58683643976801,0.8440331837638149,0.1471004554335999,-5.161244414150942,38.9
,,0.03290376050244968,0.0057345590771735126,0.00034564590348880607,0.038983965483112,4.603571583589064,0.8440331837638149,0.1471004554335999,-5.161244414150942,39.0
,,0.03290376050244968,0.0057345590771735126,0.00034564590348880607,0.038983965483112,4.6203067274101155,0.8440331837638149,0.1471004554335999,-5.161244414150942,39.1
,,0.03412619884139943,0.005974485588724703,0.0003707991461368233,0.04047148357626096,4.635926019736975,0.8432159097181348,0.14762210477080487,-5.120257278808147,39.2
,,0.03412619884139943,0.005974485588724703,0.0003707991461368233,0.04047148357626096,4.651545312063836,0.8432159097181348,0.14762210477080487,-5.120257278808147,39.3
,,0.03412619884139943,0.005974485588724703,0.0003707991461368233,0.04047148357626096,4.667164604390696,0.8432159097181348,0.14762210477080487,-5.120257278808147,39.4
,,0.0329748904051127,0.006847187689462694,0.0003358069268553786,0.04015788502143077,4.673591956892073,0.8211311523880112,0.1705066809621225,-4.983917267292127,39.5
,,0.0329748904051127,0.006847187689462694,0.0003358069268553786,0.04015788502143077,4.68001930939345,0.8211311523880112,0.1705066809621225,-4.983917267292127,39.6
,,0.0329748904051127,0.006847187689462694,0.0003358069268553786,0.04015788502143077,4.686446661894827,0.8211311523880112,0.1705066809621225,-4.983917267292127,39.7
,,0.03470520918899287,0.006027022745840404,0.00039452308557983947,0.04112675502041312,4.702419402698697,0.8438596522328851,0.14654749062620948,-5.111502130497907,39.8
,,0.03470520918899287,0.006027022745840404,0.00039452308557983947,0.04112675502041312,4.718392143502567,0.8438596522328851,0.14654749062620948,-5.111502130497907,39.9
,,0.03470520918899287,0.006027022745840404,0.00039452308557983947,0.04112675502041312,4.734364884306437,0.8438596522328851,0.14654749062620948,-5.111502130497907,40.0
,,0.03470520918899287,0.006027022745840404,0.00039452308557983947,0.04112675502041312,4.750765833869365,0.8438596522328851,0.14654749062620948,-5.111502130497907,40.1
,,0.032081705669357696,0.006289431976350999,0.0002637423903943681,0.03863488003610306,4.759862597831768,0.8303819149788576,0.16279154925481135,-5.068884518174155,40.2
,,0.032081705669357696,0.006289431976350999,0.0002637423903943681,0.03863488003610306,4.768959361794171,0.8303819149788576,0.16279154925481135,-5.068884518174155,40.3
,,0.03227479334069505,0.006165208278400254,0.0002935017708997082,0.03873350338999501,4.779546098287936,0.8332526241102098,0.1591699107701357,-5.088833358929967,40.4
,,0.03227479334069505,0.006165208278400254,0.0002935017708997082,0.03873350338999501,4.7901328347817005,0.8332526241102098,0.1591699107701357,-5.088833358929967,40.5
,,0.03227479334069505,0.006165208278400254,0.0002935017708997082,0.03873350338999501,4.827843551465052,0.8332526241102098,0.1591699107701357,-5.088833358929967,40.6
,,0.03227479334069505,0.006165208278400254,0.0002935017708997082,0.03873350338999501,4.865554268148404,0.8332526241102098,0.1591699107701357,-5.088833358929967,40.7
,,0.03227479334069505,0.006165208278400254,0.0002935017708997082,0.03873350338999501,4.875155162988043,0.8332526241102098,0.1591699107701357,-5.088833358929967,40.8
,,0.031205822924948307,0.005825697777181866,0.00023833704863257082,0.03726985775076274,4.886107089298653,0.8372938564357593,0.15631124261703525,-5.145476496630491,40.9
,,0.031205822924948307,0.005825697777181866,0.00023833704863257082,0.03726985775076274,4.897059015609261,0.8372938564357593,0.15631124261703525,-5.145476496630491,41.0
,,0.03601062802214358,0.006223637385705492,0.0004610425587993254,0.0426953079666484,4.912783444493323,0.8434329142273296,0.14576864958011568,-5.079400754454696,41.1
,,0.03601062802214358,0.006223637385705492,0.0004610425587993254,0.0426953079666484,4.928507873377384,0.8434329142273296,0.14576864958011568,-5.079400754454696,41.2
,,0.03601062802214358,0.006223637385705492,0.0004610425587993254,0.0426953079666484,4.970806083306272,0.8434329142273296,0.14576864958011568,-5.079400754454696,41.3
,,0.03601062802214358,0.006223637385705492,0.0004610425587993254,0.0426953079666484,4.9854929507144154,0.8434329142273296,0.14576864958011568,-5.079400754454696,41.4
,,0.03520870224761381,0.006079324077258734,0.000403501916617481,0.04169152824149003,5.0000938924104155,0.8445049565867264,0.14581677222397407,-5.102861760687569,41.5
,,0.03520870224761381,0.006079324077258734,0.000403501916617481,0.04169152824149003,5.014694834106415,0.8445049565867264,0.14581677222397407,-5.102861760687569,41.6
,,0.03671297270485722,0.006359372775992542,0.0005020671889147903,0.04357441266976455,5.029090225733194,0.8425351130511427,0.1459428225501979,-5.057825526620349,41.7
,,0.03671297270485722,0.006359372775992542,0.0005020671889147903,0.04357441266976455,5.043485617359973,0.8425351130511427,0.1459428225501979,-5.057825526620349,41.8
,,0.03671297270485722,0.006359372775992542,0.0005020671889147903,0.04357441266976455,5.057881008986753,0.8425351130511427,0.1459428225501979,-5.057825526620349,41.9
,,0.03671297270485722,0.006359372775992542,0.0005020671889147903,0.04357441266976455,5.072276400613533,0.8425351130511427,0.1459428225501979,-5.057825526620349,42.0
,,0.03671297270485722,0.006359372775992542,0.0005020671889147903,0.04357441266976455,5.085179038725795,0.8425351130511427,0.1459428225501979,-5.057825526620349,42.1
,,0.02969257996460185,0.005167387209302527,0.0002068541973533066,0.03506682137125768,5.097782791057447,0.8467428413383142,0.14735830073089962,-5.265388093583663,42.2
,,0.03748064040976234,0.006520269435973579,0.0005499230253093311,0.04455083287104525,5.110410735938431,0.8413005547674505,0.14635572481544498,-5.032839579361585,42.3
,,0.03748064040976234,0.006520269435973579,0.0005499230253093311,0.04455083287104525,5.123038680819415,0.8413005547674505,0.14635572481544498,-5.032839579361585,42.4
,,0.03748064040976234,0.006520269435973579,0.0005499230253093311,0.04455083287104525,5.1356666257004,0.8413005547674505,0.14635572481544498,-5.032839579361585,42.5
,,0.03748064040976234,0.006520269435973579,0.0005499230253093311,0.04455083287104525,5.148294570581384,0.8413005547674505,0.14635572481544498,-5.032839579361585,42.6
,,0.03748064040976234,0.006520269435973579,0.0005499230253093311,0.04455083287104525,5.160922515462367,0.8413005547674505,0.14635572481544498,-5.032839579361585,42.7
,,0.029110718333216337,0.004952828974832225,0.0002022085746027199,0.03426575588265128,5.174200570387748,0.849557162343384,0.14454165236552793,-5.307796355584104,42.8
,,0.029110718333216337,0.004952828974832225,0.0002022085746027199,0.03426575588265128,5.1865398444667665,0.849557162343384,0.14454165236552793,-5.307796355584104,42.9
,,0.038097342599597364,0.006656956563090775,0.0005985343546612464,0.04535283351734939,5.197160705679866,0.8400212212765826,0.14678149184535969,-5.012092871382489,43.0
,,0.038097342599597364,0.006656956563090775,0.0005985343546612464,0.04535283351734939,5.2077815668929635,0.8400212212765826,0.14678149184535969,-5.012092871382489,43.1
,,0.038097342599597364,0.006656956563090775,0.0005985343546612464,0.04535283351734939,5.218402428106063,0.8400212212765826,0.14678149184535969,-5.012092871382489,43.2
,,0.038097342599597364,0.006656956563090775,0.0005985343546612464,0.04535283351734939,5.229023289319161,0.8400212212765826,0.14678149184535969,-5.012092871382489,43.3
,,0.02866935277833106,0.004801758786049835,0.0002034064063576566,0.03367451797073855,5.242395897026417,0.8513663893643043,0.14259324484532548,-5.3387730144210375,43.4
,,0.02866935277833106,0.004801758786049835,0.0002034064063576566,0.03367451797073855,5.254661673120124,0.8513663893643043,0.14259324484532548,-5.3387730144210375,43.5
,,0.03859686682502999,0.006764996610355297,0.0006457300361292507,0.046007593471514535,5.263218401080939,0.8389238365385733,0.14704087086284626,-4.995993518415639,43.6
,,0.03859686682502999,0.006764996610355297,0.0006457300361292507,0.046007593471514535,5.271775129041756,0.8389238365385733,0.14704087086284626,-4.995993518415639,43.7
,,0.03859686682502999,0.006764996610355297,0.0006457300361292507,0.046007593471514535,5.2803318570025715,0.8389238365385733,0.14704087086284626,-4.995993518415639,43.8
,,0.03859686682502999,0.006764996610355297,0.0006457300361292507,0.046007593471514535,5.288888584963387,0.8389238365385733,0.14704087086284626,-4.995993518415639,43.9
,,0.03859686682502999,0.006764996610355297,0.0006457300361292507,0.046007593471514535,5.2974453129242045,0.8389238365385733,0.14704087086284626,-4.995993518415639,44.0
,,0.03790922867488093,0.006685676441347605,0.0005664290472681074,0.045161334163496644,5.305611344017095,0.8394178200679133,0.14803983463251083,-5.007787885612066,44.1
,,0.03790922867488093,0.006685676441347605,0.0005664290472681074,0.045161334163496644,5.336242810252855,0.8394178200679133,0.14803983463251083,-5.007787885612066,44.2
,,0.028709827721344713,0.004661850539753538,0.0002398281837603774,0.03361150644485863,5.347913623223599,0.8541666458313802,0.13869805411434144,-5.368342798137406,44.3
,,0.028709827721344713,0.004661850539753538,0.0002398281837603774,0.03361150644485863,5.359584436194341,0.8541666458313802,0.13869805411434144,-5.368342798137406,44.4
,,0.028709827721344713,0.004661850539753538,0.0002398281837603774,0.03361150644485863,5.371255249165084,0.8541666458313802,0.13869805411434144,-5.368342798137406,44.5
,,0.028709827721344713,0.004661850539753538,0.0002398281837603774,0.03361150644485863,5.3829260621358275,0.8541666458313802,0.13869805411434144,-5.368342798137406,44.6
,,0.03836651219027538,0.006760420669001269,0.0006036360149381543,0.0457305688742148,5.389226927927167,0.8389686184706168,0.14783154540666857,-4.996670161721218,44.7
,,0.03836651219027538,0.006760420669001269,0.0006036360149381543,0.0457305688742148,5.395527793718505,0.8389686184706168,0.14783154540666857,-4.996670161721218,44.8
,,0.03836651219027538,0.006760420669001269,0.0006036360149381543,0.0457305688742148,5.400382732814524,0.8389686184706168,0.14783154540666857,-4.996670161721218,44.9
,,0.03911679368058878,0.006837674383857999,0.0007262268054420573,0.046680694869888836,5.427285864874386,0.8379651114795397,0.14647756214675822,-4.985307607521527,45.0
,,0.03911679368058878,0.006837674383857999,0.0007262268054420573,0.046680694869888836,5.454188996934248,0.8379651114795397,0.14647756214675822,-4.985307607521527,45.1
,,0.03911679368058878,0.006837674383857999,0.0007262268054420573,0.046680694869888836,5.48109212899411,0.8379651114795397,0.14647756214675822,-4.985307607521527,45.2
,,0.03911679368058878,0.006837674383857999,0.0007262268054420573,0.046680694869888836,5.5079952610539715,0.8379651114795397,0.14647756214675822,-4.985307607521527,45.3
,,0.038551391667455595,0.006762767162091188,0.0007296699649120416,0.04604382879445883,5.534673510341845,0.8372759754526558,0.1468767333029667,-4.996323129180847,45.4
,,0.038551391667455595,0.006762767162091188,0.0007296699649120416,0.04604382879445883,5.5613517596297175,0.8372759754526558,0.1468767333029667,-4.996323129180847,45.5
,,0.038551391667455595,0.006762767162091188,0.0007296699649120416,0.04604382879445883,5.58803000891759,0.8372759754526558,0.1468767333029667,-4.996323129180847,45.6
,,0.028483657525107106,0.00454169738368274,0.00026190245525361584,0.03328725736404346,5.597403472891198,0.8556925316374923,0.13643951900310755,-5.3944544637441245,45.7
,,0.028483657525107106,0.00454169738368274,0.00026190245525361584,0.03328725736404346,5.606776936864805,0.8556925316374923,0.13643951900310755,-5.3944544637441245,45.8
,,0.028483657525107106,0.00454169738368274,0.00026190245525361584,0.03328725736404346,5.616150400838412,0.8556925316374923,0.13643951900310755,-5.3944544637441245,45.9
,,0.038472201241550597,0.006698447224456263,0.0007527059133946082,0.04592335437940147,5.619655665686969,0.8377480643880617,0.14586145361064468,-5.005879536988988,46.0
,,0.038472201241550597,0.006698447224456263,0.0007527059133946082,0.04592335437940147,5.623160930535526,0.8377480643880617,0.14586145361064468,-5.005879536988988,46.1
,,0.038472201241550597,0.006698447224456263,0.0007527059133946082,0.04592335437940147,5.626666195384084,0.8377480643880617,0.14586145361064468,-5.005879536988988,46.2
,,0.02845169996687826,0.004498527917051852,0.000273710743387758,0.033223938627317866,5.655793027763544,0.8563614412496022,0.13540019946199297,-5.404005065268437,46.3
,,0.02845169996687826,0.004498527917051852,0.000273710743387758,0.033223938627317866,5.664325125659165,0.8563614412496022,0.13540019946199297,-5.404005065268437,46.4
,,0.02845169996687826,0.004498527917051852,0.000273710743387758,0.033223938627317866,5.672857223554785,0.8563614412496022,0.13540019946199297,-5.404005065268437,46.5
,,0.03812872846738696,0.00656996527683553,0.0007641062644550148,0.04546280000867751,5.675598445064046,0.8386797218849106,0.14451299250335478,-5.025246731608331,46.6
,,0.03812872846738696,0.00656996527683553,0.0007641062644550148,0.04546280000867751,5.678339666573307,0.8386797218849106,0.14451299250335478,-5.025246731608331,46.7
,,0.03812872846738696,0.00656996527683553,0.0007641062644550148,0.04546280000867751,5.681080888082568,0.8386797218849106,0.14451299250335478,-5.025246731608331,46.8
,,0.038201288098174004,0.006500440899633555,0.0007721141769682584,0.04547384317477581,5.684635804254514,0.8400716858557521,0.14294901081154557,-5.0358852736680895,46.9
,,0.038201288098174004,0.006500440899633555,0.0007721141769682584,0.04547384317477581,5.7178551646391576,0.8400716858557521,0.14294901081154557,-5.0358852736680895,47.0
,,0.038201288098174004,0.006500440899633555,0.0007721141769682584,0.04547384317477581,5.720252811175101,0.8400716858557521,0.14294901081154557,-5.0358852736680895,47.1
,,0.03756370992212221,0.006382507879446219,0.0006659678532215136,0.04461218565478994,5.722747043693996,0.8420055949016041,0.14306646907717552,-5.054194174310233,47.2
,,0.03756370992212221,0.006382507879446219,0.0006659678532215136,0.04461218565478994,5.72524127621289,0.8420055949016041,0.14306646907717552,-5.054194174310233,47.3
,,0.03756370992212221,0.006382507879446219,0.0006659678532215136,0.04461218565478994,5.727735508731785,0.8420055949016041,0.14306646907717552,-5.054194174310233,47.4
,,0.028549913096163188,0.004434694816870514,0.0002963858963504958,0.0332809938093842,5.736367936639792,0.8578443678599827,0.13325007186594498,-5.418296478018827,47.5
,,0.028549913096163188,0.004434694816870514,0.0002963858963504958,0.0332809938093842,5.745224183002828,0.8578443678599827,0.13325007186594498,-5.418296478018827,47.6
,,0.028549913096163188,0.004434694816870514,0.0002963858963504958,0.0332809938093842,5.754080429365863,0.8578443678599827,0.13325007186594498,-5.418296478018827,47.7
,,0.028549913096163188,0.004434694816870514,0.0002963858963504958,0.0332809938093842,5.761858781049392,0.8578443678599827,0.13325007186594498,-5.418296478018827,47.8
,,0.03686679787848657,0.006162831267812948,0.0006603606507025849,0.0436899897970021,5.764573436376363,0.8438271111937014,0.141058198833359,-5.089218985632064,47.9
,,0.03686679787848657,0.006162831267812948,0.0006603606507025849,0.0436899897970021,5.767288091703335,0.8438271111937014,0.141058198833359,-5.089218985632064,48.0
,,0.03686679787848657,0.006162831267812948,0.0006603606507025849,0.0436899897970021,5.770002747030306,0.8438271111937014,0.141058198833359,-5.089218985632064,48.1
,,0.0367236926932971,0.006058602186151603,0.0007528601080919473,0.04353515498754065,5.773885235409111,0.8435411038230385,0.13916574290100764,-5.106276167858786,48.2
,,0.0367236926932971,0.006058602186151603,0.0007528601080919473,0.04353515498754065,5.777767723787917,0.8435411038230385,0.13916574290100764,-5.106276167858786,48.3
,,0.0367236926932971,0.006058602186151603,0.0007528601080919473,0.04353515498754065,5.781650212166722,0.8435411038230385,0.13916574290100764,-5.106276167858786,48.4
,,0.0367236926932971,0.006058602186151603,0.0007528601080919473,0.04353515498754065,5.795490030530488,0.8435411038230385,0.13916574290100764,-5.106276167858786,48.5
,,0.03612614409988924,0.005929096383187534,0.0006483982521263947,0.04270363873520317,5.809681110253075,0.8459734385610632,0.13884288455962007,-5.127883458159061,48.6
,,0.03612614409988924,0.005929096383187534,0.0006483982521263947,0.04270363873520317,5.823872189975662,0.8459734385610632,0.13884288455962007,-5.127883458159061,48.7
,,0.036002560093114123,0.005838704039707091,0.0007340414094329497,0.042575305542254166,5.82840466531946,0.8456207098122438,0.13713827688006672,-5.143246417776952,48.8
,,0.036002560093114123,0.005838704039707091,0.0007340414094329497,0.042575305542254166,5.832937140663259,0.8456207098122438,0.13713827688006672,-5.143246417776952,48.9
,,0.036002560093114123,0.005838704039707091,0.0007340414094329497,0.042575305542254166,5.837469616007057,0.8456207098122438,0.13713827688006672,-5.143246417776952,49.0
,,0.036002560093114123,0.005838704039707091,0.0007340414094329497,0.042575305542254166,5.842002091350857,0.8456207098122438,0.13713827688006672,-5.143246417776952,49.1
,,0.036002560093114123,0.005838704039707091,0.0007340414094329497,0.042575305542254166,5.8538387522951805,0.8456207098122438,0.13713827688006672,-5.143246417776952,49.2
,,0.035394053737894504,0.005700122647400647,0.0006324073093769312,0.04172658369467208,5.866154960189873,0.8482375168042776,0.1366065022027786,-5.167267587285289,49.3
,,0.035323183358905906,0.0056308130199933205,0.0007108231058178036,0.04166481948471703,5.8776905806225725,0.8477939853276627,0.13514550379988435,-5.179501438731877,49.4
,,0.035323183358905906,0.0056308130199933205,0.0007108231058178036,0.04166481948471703,5.889226201055271,0.8477939853276627,0.13514550379988435,-5.179501438731877,49.5
,,0.035323183358905906,0.0056308130199933205,0.0007108231058178036,0.04166481948471703,5.90076182148797,0.8477939853276627,0.13514550379988435,-5.179501438731877,49.6
,,0.035323183358905906,0.0056308130199933205,0.0007108231058178036,0.04166481948471703,5.9122974419206695,0.8477939853276627,0.13514550379988435,-5.179501438731877,49.7
,,0.035323183358905906,0.0056308130199933205,0.0007108231058178036,0.04166481948471703,5.923833062353368,0.8477939853276627,0.13514550379988435,-5.179501438731877,49.8
,,0.035323183358905906,0.0056308130199933205,0.0007108231058178036,0.04166481948471703,5.934017651315099,0.8477939853276627,0.13514550379988435,-5.179501438731877,49.9
,,0.02951924171493046,0.004414256184154567,0.00032627118416393675,0.034259769083248966,5.948802878448862,0.8616299089232231,0.12884664147701105,-5.42291593382985,50.0
,,0.02951924171493046,0.004414256184154567,0.00032627118416393675,0.034259769083248966,5.958815603009175,0.8616299089232231,0.12884664147701105,-5.42291593382985,50.1
,,0.02951924171493046,0.004414256184154567,0.00032627118416393675,0.034259769083248966,5.968828327569486,0.8616299089232231,0.12884664147701105,-5.42291593382985,50.2
,,0.02951924171493046,0.004414256184154567,0.00032627118416393675,0.034259769083248966,5.978841052129798,0.8616299089232231,0.12884664147701105,-5.42291593382985,50.3
,,0.02951924171493046,0.004414256184154567,0.00032627118416393675,0.034259769083248966,5.988853776690109,0.8616299089232231,0.12884664147701105,-5.42291593382985,50.4
,,0.02951924171493046,0.004414256184154567,0.00032627118416393675,0.034259769083248966,5.998806029650013,0.8616299089232231,0.12884664147701105,-5.42291593382985,50.5
,,0.03498774967723257,0.0054463204183911994,0.0006753872420043204,0.04110945733762809,6.005834463048756,0.8510876071625438,0.13248339363035333,-5.2128150509139015,50.6
,,0.03443409134792237,0.00531687418321114,0.0006586469582997047,0.040409612489433214,6.013649235225934,0.8521262448860802,0.13157449071310592,-5.236869707856116,50.7
,,0.03443409134792237,0.00531687418321114,0.0006586469582997047,0.040409612489433214,6.021464007403112,0.8521262448860802,0.13157449071310592,-5.236869707856116,50.8
,,0.03443409134792237,0.00531687418321114,0.0006586469582997047,0.040409612489433214,6.029278779580289,0.8521262448860802,0.13157449071310592,-5.236869707856116,50.9
,,0.03443409134792237,0.00531687418321114,0.0006586469582997047,0.040409612489433214,6.037093551757466,0.8521262448860802,0.13157449071310592,-5.236869707856116,51.0
,,0.03479899205899318,0.005347484764368333,0.0006514045598749182,0.04079788138323643,6.045254603019203,0.8529607636266094,0.13107260924008612,-5.2311289661247535,51.1
,,0.03479899205899318,0.005347484764368333,0.0006514045598749182,0.04079788138323643,6.053714540061554,0.8529607636266094,0.13107260924008612,-5.2311289661247535,51.2
,,0.03479899205899318,0.005347484764368333,0.0006514045598749182,0.04079788138323643,6.062150284554569,0.8529607636266094,0.13107260924008612,-5.2311289661247535,51.3
,,0.03434883394786196,0.0052360182622852814,0.0006352318394661136,0.04022008404961335,6.071170050117164,0.8540219335566546,0.1301841700734988,-5.252193943109153,51.4
,,0.03434883394786196,0.0052360182622852814,0.0006352318394661136,0.04022008404961335,6.080189815679759,0.8540219335566546,0.1301841700734988,-5.252193943109153,51.5
,,0.03434883394786196,0.0052360182622852814,0.0006352318394661136,0.04022008404961335,6.089209581242354,0.8540219335566546,0.1301841700734988,-5.252193943109153,51.6
,,0.03434883394786196,0.0052360182622852814,0.0006352318394661136,0.04022008404961335,6.098229346804948,0.8540219335566546,0.1301841700734988,-5.252193943109153,51.7
,,0.03497637188368473,0.005316695487902854,0.0006305986727997354,0.04092366604438732,6.106018215516438,0.854673475385809,0.12991738037682574,-5.23690331751192,51.8
,,0.03497637188368473,0.005316695487902854,0.0006305986727997354,0.04092366604438732,6.113807084227927,0.854673475385809,0.12991738037682574,-5.23690331751192,51.9
,,0.03497637188368473,0.005316695487902854,0.0006305986727997354,0.04092366604438732,6.123314365805338,0.854673475385809,0.12991738037682574,-5.23690331751192,52.0
,,0.03457373807896815,0.00521513376515987,0.0006154678416122842,0.0404043396857403,6.133387307445395,0.8556936791413543,0.12907360461085374,-5.256190540779764,52.1
,,0.03457373807896815,0.00521513376515987,0.0006154678416122842,0.0404043396857403,6.143460249085452,0.8556936791413543,0.12907360461085374,-5.256190540779764,52.2
,,0.03457373807896815,0.00521513376515987,0.0006154678416122842,0.0404043396857403,6.15353319072551,0.8556936791413543,0.12907360461085374,-5.256190540779764,52.3
,,0.019331766574689595,0.0053686622369049745,0.0006139025313764635,0.025314331342971032,6.127202740144227,0.7636688606455093,0.21207995440083696,-5.227176519391171,52.4
,,0.019331766574689595,0.0053686622369049745,0.0006139025313764635,0.025314331342971032,6.100872289562945,0.7636688606455093,0.21207995440083696,-5.227176519391171,52.5
,,0.019331766574689595,0.0053686622369049745,0.0006139025313764635,0.025314331342971032,6.077488678209985,0.7636688606455093,0.21207995440083696,-5.227176519391171,52.6
,,0.03519052889103553,0.005271203397511009,0.0005999485157191209,0.04106168080426566,6.088273307860857,0.8570162789678057,0.12837281120171326,-5.24549659382264,52.7
,,0.03519052889103553,0.005271203397511009,0.0005999485157191209,0.04106168080426566,6.099057937511729,0.8570162789678057,0.12837281120171326,-5.24549659382264,52.8
,,0.03519052889103553,0.005271203397511009,0.0005999485157191209,0.04106168080426566,6.109842567162601,0.8570162789678057,0.12837281120171326,-5.24549659382264,52.9
,,0.03519052889103553,0.005271203397511009,0.0005999485157191209,0.04106168080426566,6.120627196813474,0.8570162789678057,0.12837281120171326,-5.24549659382264,53.0
,,0.0365531317003794,0.005496151656642077,0.000602624055886955,0.04265190741290844,6.131521213970883,0.8570104813018687,0.12886062992293487,-5.203707130439507,53.1
,,0.0365531317003794,0.005496151656642077,0.000602624055886955,0.04265190741290844,6.142415231128291,0.8570104813018687,0.12886062992293487,-5.203707130439507,53.2
,,0.03613278831351252,0.005398608926772909,0.0005900905506161657,0.04212148779090159,6.148354337884549,0.8578231731244153,0.12816757455416924,-5.221613964751238,53.3
,,0.03613278831351252,0.005398608926772909,0.0005900905506161657,0.04212148779090159,6.154293444640805,0.8578231731244153,0.12816757455416924,-5.221613964751238,53.4
,,0.03613278831351252,0.005398608926772909,0.0005900905506161657,0.04212148779090159,6.160232551397063,0.8578231731244153,0.12816757455416924,-5.221613964751238,53.5
,,0.03613278831351252,0.005398608926772909,0.0005900905506161657,0.04212148779090159,6.166171658153321,0.8578231731244153,0.12816757455416924,-5.221613964751238,53.6
,,0.03613278831351252,0.005398608926772909,0.0005900905506161657,0.04212148779090159,6.177480712088982,0.8578231731244153,0.12816757455416924,-5.221613964751238,53.7
,,0.037716988851309925,0.005679824659119721,0.000597563607230573,0.04399437711766022,6.188206862495447,0.857313850595911,0.12910342255623675,-5.17083491659885,53.8
,,0.03736746352519549,0.005601197637670263,0.000587663709369258,0.043556324872235014,6.199275397965628,0.8579113052996669,0.12859665396702805,-5.184774840236961,53.9
,,0.03736746352519549,0.005601197637670263,0.000587663709369258,0.043556324872235014,6.209837176010475,0.8579113052996669,0.12859665396702805,-5.184774840236961,54.0
,,0.03736746352519549,0.005601197637670263,0.000587663709369258,0.043556324872235014,6.220398954055321,0.8579113052996669,0.12859665396702805,-5.184774840236961,54.1
,,0.03736746352519549,0.005601197637670263,0.000587663709369258,0.043556324872235014,6.2309607321001685,0.8579113052996669,0.12859665396702805,-5.184774840236961,54.2
,,0.03736746352519549,0.005601197637670263,0.000587663709369258,0.043556324872235014,6.241522510145014,0.8579113052996669,0.12859665396702805,-5.184774840236961,54.3
,,0.03748438864748211,0.0056810941529854405,0.0005744840136846679,0.043739966814152216,6.251495377678648,0.8569825580058261,0.1298833667872675,-5.170611432232489,54.4
,,0.03740122233497946,0.0056504966500093975,0.0005720852357110913,0.04362380422069995,6.261701693449754,0.8573581099383394,0.12952782892162756,-5.176011835030469,54.5
,,0.03740122233497946,0.0056504966500093975,0.0005720852357110913,0.04362380422069995,6.2719080092208594,0.8573581099383394,0.12952782892162756,-5.176011835030469,54.6
,,0.03740122233497946,0.0056504966500093975,0.0005720852357110913,0.04362380422069995,6.2757692862727605,0.8573581099383394,0.12952782892162756,-5.176011835030469,54.7
,,0.03740122233497946,0.0056504966500093975,0.0005720852357110913,0.04362380422069995,6.279630563324661,0.8573581099383394,0.12952782892162756,-5.176011835030469,54.8
,,0.03740122233497946,0.0056504966500093975,0.0005720852357110913,0.04362380422069995,6.283491840376562,0.8573581099383394,0.12952782892162756,-5.176011835030469,54.9
,,0.03740122233497946,0.0056504966500093975,0.0005720852357110913,0.04362380422069995,6.293221316553512,0.8573581099383394,0.12952782892162756,-5.176011835030469,55.0
,,0.03741542147291054,0.005723190104167653,0.0005628001747388967,0.0437014117518171,6.302044215274418,0.8561604756705558,0.130961217835936,-5.163228918534322,55.1
,,0.03741542147291054,0.005723190104167653,0.0005628001747388967,0.0437014117518171,6.310867113995323,0.8561604756705558,0.130961217835936,-5.163228918534322,55.2
,,0.03741542147291054,0.005723190104167653,0.0005628001747388967,0.0437014117518171,6.313232031578389,0.8561604756705558,0.130961217835936,-5.163228918534322,55.3
,,0.03741542147291054,0.005723190104167653,0.0005628001747388967,0.0437014117518171,6.315596949161452,0.8561604756705558,0.130961217835936,-5.163228918534322,55.4
,,0.03741542147291054,0.005723190104167653,0.0005628001747388967,0.0437014117518171,6.317961866744517,0.8561604756705558,0.130961217835936,-5.163228918534322,55.5
,,0.03741542147291054,0.005723190104167653,0.0005628001747388967,0.0437014117518171,6.32611766071394,0.8561604756705558,0.130961217835936,-5.163228918534322,55.6
,,0.03763708270405082,0.005851668455193585,0.0005629674443334942,0.04405171860357789,6.333099492307811,0.8543839808554922,0.13283632604332288,-5.1410284523858785,55.7
,,0.03763708270405082,0.005851668455193585,0.0005629674443334942,0.04405171860357789,6.340081323901681,0.8543839808554922,0.13283632604332288,-5.1410284523858785,55.8
,,0.03763708270405082,0.005851668455193585,0.0005629674443334942,0.04405171860357789,6.346249460832866,0.8543839808554922,0.13283632604332288,-5.1410284523858785,55.9
,,0.03763708270405082,0.005851668455193585,0.0005629674443334942,0.04405171860357789,6.352417597764052,0.8543839808554922,0.13283632604332288,-5.1410284523858785,56.0
,,0.03763708270405082,0.005851668455193585,0.0005629674443334942,0.04405171860357789,6.358585734695235,0.8543839808554922,0.13283632604332288,-5.1410284523858785,56.1
,,0.03763708270405082,0.005851668455193585,0.0005629674443334942,0.04405171860357789,6.36465728564347,0.8543839808554922,0.13283632604332288,-5.1410284523858785,56.2
,,0.03763708270405082,0.005851668455193585,0.0005629674443334942,0.04405171860357789,6.370728836591703,0.8543839808554922,0.13283632604332288,-5.1410284523858785,56.3
,,0.03803096813449455,0.006023007754934666,0.0005713796639191411,0.04462535555334836,6.375494019025709,0.8522277898498668,0.13496828608422692,-5.112168517367893,56.4
,,0.03803096813449455,0.006023007754934666,0.0005713796639191411,0.04462535555334836,6.374121006070603,0.8522277898498668,0.13496828608422692,-5.112168517367893,56.5
,,0.03803096813449455,0.006023007754934666,0.0005713796639191411,0.04462535555334836,6.372747993115498,0.8522277898498668,0.13496828608422692,-5.112168517367893,56.6
,,0.03803096813449455,0.006023007754934666,0.0005713796639191411,0.04462535555334836,6.371374980160391,0.8522277898498668,0.13496828608422692,-5.112168517367893,56.7
,,0.03803096813449455,0.006023007754934666,0.0005713796639191411,0.04462535555334836,6.370001967205285,0.8522277898498668,0.13496828608422692,-5.112168517367893,56.8
,,0.03803096813449455,0.006023007754934666,0.0005713796639191411,0.04462535555334836,6.373692650606738,0.8522277898498668,0.13496828608422692,-5.112168517367893,56.9
,,0.038578338995261786,0.00623876124540481,0.0005883648225160629,0.04540546506318266,6.375931910771959,0.8496408734406578,0.13740110880316814,-5.076973634672793,57.0
,,0.038578338995261786,0.00623876124540481,0.0005883648225160629,0.04540546506318266,6.37817117093718,0.8496408734406578,0.13740110880316814,-5.076973634672793,57.1
,,0.038578338995261786,0.00623876124540481,0.0005883648225160629,0.04540546506318266,6.3795293959822335,0.8496408734406578,0.13740110880316814,-5.076973634672793,57.2
,,0.038578338995261786,0.00623876124540481,0.0005883648225160629,0.04540546506318266,6.38088762102729,0.8496408734406578,0.13740110880316814,-5.076973634672793,57.3
,,0.038578338995261786,0.00623876124540481,0.0005883648225160629,0.04540546506318266,6.382245846072343,0.8496408734406578,0.13740110880316814,-5.076973634672793,57.4
,,0.038578338995261786,0.00623876124540481,0.0005883648225160629,0.04540546506318266,6.383604071117399,0.8496408734406578,0.13740110880316814,-5.076973634672793,57.5
,,0.037970213792480154,0.005707138032173846,0.00047199769627223967,0.044149349520926244,6.389827209562372,0.8600401637737096,0.12926890416513911,-5.166037601251884,57.6
,,0.03920924541721189,0.006473615495670972,0.0006111760591614244,0.04629403697204428,6.389424432209365,0.8469610338992318,0.13983691894444664,-5.040020517322344,57.7
,,0.03920924541721189,0.006473615495670972,0.0006111760591614244,0.04629403697204428,6.388208729065615,0.8469610338992318,0.13983691894444664,-5.040020517322344,57.8
,,0.03920924541721189,0.006473615495670972,0.0006111760591614244,0.04629403697204428,6.386993025921864,0.8469610338992318,0.13983691894444664,-5.040020517322344,57.9
,,0.03920924541721189,0.006473615495670972,0.0006111760591614244,0.04629403697204428,6.385777322778112,0.8469610338992318,0.13983691894444664,-5.040020517322344,58.0
,,0.03920924541721189,0.006473615495670972,0.0006111760591614244,0.04629403697204428,6.384561619634361,0.8469610338992318,0.13983691894444664,-5.040020517322344,58.1
,,0.03962707065143882,0.006573753611923008,0.0005449041847149735,0.0467457284480768,6.38302698995017,0.8477153307270613,0.14062789970691886,-5.024670283614511,58.2
,,0.03962707065143882,0.006573753611923008,0.0005449041847149735,0.0467457284480768,6.3810128133156105,0.8477153307270613,0.14062789970691886,-5.024670283614511,58.3
,,0.039900577545869745,0.006727165019403884,0.0006378443351630749,0.0472655869004367,6.377213565923311,0.8441781888780713,0.14232691183068183,-5.001601469333662,58.4
,,0.039900577545869745,0.006727165019403884,0.0006378443351630749,0.0472655869004367,6.373414318531012,0.8441781888780713,0.14232691183068183,-5.001601469333662,58.5
,,0.039900577545869745,0.006727165019403884,0.0006378443351630749,0.0472655869004367,6.369615071138712,0.8441781888780713,0.14232691183068183,-5.001601469333662,58.6
,,0.039900577545869745,0.006727165019403884,0.0006378443351630749,0.0472655869004367,6.365815823746414,0.8441781888780713,0.14232691183068183,-5.001601469333662,58.7
,,0.04035471383519857,0.006835955274295488,0.0005651276726529788,0.04775579678214704,6.361705919611011,0.8450223125642565,0.14314398952403265,-4.985559056422009,58.8
,,0.04035471383519857,0.006835955274295488,0.0005651276726529788,0.04775579678214704,6.357596015475609,0.8450223125642565,0.14314398952403265,-4.985559056422009,58.9
,,0.04035471383519857,0.006835955274295488,0.0005651276726529788,0.04775579678214704,6.348885473168171,0.8450223125642565,0.14314398952403265,-4.985559056422009,59.0
,,0.040591678094254464,0.006980461978125138,0.0006664975101787772,0.04823863758255838,6.339194253060644,0.8414764621986583,0.14470686420565618,-4.964640178420238,59.1
,,0.040591678094254464,0.006980461978125138,0.0006664975101787772,0.04823863758255838,6.329503032953117,0.8414764621986583,0.14470686420565618,-4.964640178420238,59.2
,,0.040591678094254464,0.006980461978125138,0.0006664975101787772,0.04823863758255838,6.319811812845588,0.8414764621986583,0.14470686420565618,-4.964640178420238,59.3
,,0.040591678094254464,0.006980461978125138,0.0006664975101787772,0.04823863758255838,6.310120592738061,0.8414764621986583,0.14470686420565618,-4.964640178420238,59.4
,,0.041062388312330715,0.007097097472170626,0.0006852764861598066,0.048844762270661146,6.300104466639909,0.840671269619323,0.14529904829598347,-4.948069385255653,59.5
,,0.041062388312330715,0.007097097472170626,0.0006852764861598066,0.048844762270661146,6.293012160102918,0.840671269619323,0.14529904829598347,-4.948069385255653,59.6
,,0.041062388312330715,0.007097097472170626,0.0006852764861598066,0.048844762270661146,6.285339064856712,0.840671269619323,0.14529904829598347,-4.948069385255653,59.7
,,0.03980093189746923,0.005868498253919287,0.0006568744824964176,0.046326304633884936,6.288736326385528,0.8591432494349488,0.1266774524818634,-5.138156511958554,59.8
,,0.03980093189746923,0.005868498253919287,0.0006568744824964176,0.046326304633884936,6.292133587914344,0.8591432494349488,0.1266774524818634,-5.138156511958554,59.9
,,0.03980093189746923,0.005868498253919287,0.0006568744824964176,0.046326304633884936,6.2955308494431605,0.8591432494349488,0.1266774524818634,-5.138156511958554,60.0
,,0.041706539825844914,0.0073496097200031925,0.0007142707438370486,0.04977042028968516,6.286276588811311,0.8379784535291241,0.14767023620104705,-4.913108066486504,60.1
,,0.041706539825844914,0.0073496097200031925,0.0007142707438370486,0.04977042028968516,6.277022328179462,0.8379784535291241,0.14767023620104705,-4.913108066486504,60.2
,,0.041706539825844914,0.0073496097200031925,0.0007142707438370486,0.04977042028968516,6.267768067547611,0.8379784535291241,0.14767023620104705,-4.913108066486504,60.3
,,0.041706539825844914,0.0073496097200031925,0.0007142707438370486,0.04977042028968516,6.2579297858461835,0.8379784535291241,0.14767023620104705,-4.913108066486504,60.4
,,0.041706539825844914,0.0073496097200031925,0.0007142707438370486,0.04977042028968516,6.248091504144757,0.8379784535291241,0.14767023620104705,-4.913108066486504,60.5
,,0.041745967993916736,0.007439630407403172,0.0007219881880488048,0.04990758658936871,6.237549172132377,0.8364653722368022,0.1490681260269147,-4.900934107795356,60.6
,,0.04222022413357878,0.007574653274651665,0.0007391579798161281,0.05053403538804657,6.226591130400634,0.835480954754024,0.14989211165280084,-4.8829477009575015,60.7
,,0.04222022413357878,0.007574653274651665,0.0007391579798161281,0.05053403538804657,6.215427683727201,0.835480954754024,0.14989211165280084,-4.8829477009575015,60.8
,,0.04222022413357878,0.007574653274651665,0.0007391579798161281,0.05053403538804657,6.204264237053768,0.835480954754024,0.14989211165280084,-4.8829477009575015,60.9
,,0.04222022413357878,0.007574653274651665,0.0007391579798161281,0.05053403538804657,6.193100790380335,0.835480954754024,0.14989211165280084,-4.8829477009575015,61.0
,,0.04222022413357878,0.007574653274651665,0.0007391579798161281,0.05053403538804657,6.181371683644254,0.835480954754024,0.14989211165280084,-4.8829477009575015,61.1
,,0.04222022413357878,0.007574653274651665,0.0007391579798161281,0.05053403538804657,6.169642576908173,0.835480954754024,0.14989211165280084,-4.8829477009575015,61.2
,,0.042145971515507814,0.007634502774061149,0.0007440768802429927,0.05052455116981196,6.1573198978330685,0.8341681527037438,0.1511048113698575,-4.875077466982185,61.3
,,0.0404953476766749,0.005770509525388556,0.0007239850998262589,0.04698984230188972,6.195284170740274,0.8617893930460447,0.12280333882194135,-5.154994896400982,61.4
,,0.0404953476766749,0.005770509525388556,0.0007239850998262589,0.04698984230188972,6.233248443647479,0.8617893930460447,0.12280333882194135,-5.154994896400982,61.5
,,0.0404953476766749,0.005770509525388556,0.0007239850998262589,0.04698984230188972,6.2712127165546825,0.8617893930460447,0.12280333882194135,-5.154994896400982,61.6
,,0.0404953476766749,0.005770509525388556,0.0007239850998262589,0.04698984230188972,6.275008748458053,0.8617893930460447,0.12280333882194135,-5.154994896400982,61.7
,,0.0404953476766749,0.005770509525388556,0.0007239850998262589,0.04698984230188972,6.278804780361423,0.8617893930460447,0.12280333882194135,-5.154994896400982,61.8
,,0.0404953476766749,0.005770509525388556,0.0007239850998262589,0.04698984230188972,6.282600812264794,0.8617893930460447,0.12280333882194135,-5.154994896400982,61.9
,,0.04240960737623613,0.007809862399816233,0.0007611451740376506,0.050980614950090014,6.268759343504801,0.8318771246238419,0.1531927852863698,-4.852367933747179,62.0
,,0.04253499793525549,0.007904633157733872,0.0007679378538629271,0.05120756894685229,6.2546520512761985,0.830638884251702,0.15436454649776468,-4.840306215756287,62.1
,,0.04253499793525549,0.007904633157733872,0.0007679378538629271,0.05120756894685229,6.240544759047595,0.830638884251702,0.15436454649776468,-4.840306215756287,62.2
,,0.04253499793525549,0.007904633157733872,0.0007679378538629271,0.05120756894685229,6.225967424243798,0.830638884251702,0.15436454649776468,-4.840306215756287,62.3
,,0.04253499793525549,0.007904633157733872,0.0007679378538629271,0.05120756894685229,6.211390089440004,0.830638884251702,0.15436454649776468,-4.840306215756287,62.4
,,0.04253499793525549,0.007904633157733872,0.0007679378538629271,0.05120756894685229,6.196812754636207,0.830638884251702,0.15436454649776468,-4.840306215756287,62.5
,,0.04253499793525549,0.007904633157733872,0.0007679378538629271,0.05120756894685229,6.18223541983241,0.830638884251702,0.15436454649776468,-4.840306215756287,62.6
,,0.04110583414766171,0.007781578067396438,0.0007508643046075267,0.049638276519665674,6.166562903360914,0.8281076022326523,0.15676567787992268,-4.855996124934086,62.7
,,0.04110583414766171,0.007781578067396438,0.0007508643046075267,0.049638276519665674,6.151473290418613,0.8281076022326523,0.15676567787992268,-4.855996124934086,62.8
,,0.04110583414766171,0.007781578067396438,0.0007508643046075267,0.049638276519665674,6.136041292412595,0.8281076022326523,0.15676567787992268,-4.855996124934086,62.9
,,0.04110583414766171,0.007781578067396438,0.0007508643046075267,0.049638276519665674,6.120609294406578,0.8281076022326523,0.15676567787992268,-4.855996124934086,63.0
,,0.04110583414766171,0.007781578067396438,0.0007508643046075267,0.049638276519665674,6.1051772964005595,0.8281076022326523,0.15676567787992268,-4.855996124934086,63.1
,,0.04110583414766171,0.007781578067396438,0.0007508643046075267,0.049638276519665674,6.089745298394542,0.8281076022326523,0.15676567787992268,-4.855996124934086,63.2
,,0.04110583414766171,0.007781578067396438,0.0007508643046075267,0.049638276519665674,6.074313300388524,0.8281076022326523,0.15676567787992268,-4.855996124934086,63.3
,,0.037789097157955025,0.0050904879700836275,0.0006931665168152002,0.04357275164485385,6.083484180947308,0.8672644194234196,0.11682732391046592,-5.280381584629004,63.4
,,0.037789097157955025,0.0050904879700836275,0.0006931665168152002,0.04357275164485385,6.09242161326862,0.8672644194234196,0.11682732391046592,-5.280381584629004,63.5
,,0.037789097157955025,0.0050904879700836275,0.0006931665168152002,0.04357275164485385,6.101359045589931,0.8672644194234196,0.11682732391046592,-5.280381584629004,63.6
,,0.037789097157955025,0.0050904879700836275,0.0006931665168152002,0.04357275164485385,6.110296477911241,0.8672644194234196,0.11682732391046592,-5.280381584629004,63.7
,,0.037789097157955025,0.0050904879700836275,0.0006931665168152002,0.04357275164485385,6.119233910232553,0.8672644194234196,0.11682732391046592,-5.280381584629004,63.8
,,0.037789097157955025,0.0050904879700836275,0.0006931665168152002,0.04357275164485385,6.128171342553864,0.8672644194234196,0.11682732391046592,-5.280381584629004,63.9
,,0.038455475216338256,0.007534394636715484,0.0006120661523194814,0.046601936005373226,6.11133674824449,0.8251905073622762,0.16167557150086564,-4.888276790314868,64.0
,,0.03835976721883581,0.007565981367450811,0.0007093957582105335,0.04663514434449715,6.0950314191618356,0.8225506269578466,0.16223776025137535,-4.884093215442742,64.1
,,0.03835976721883581,0.007565981367450811,0.0007093957582105335,0.04663514434449715,6.078726090079181,0.8225506269578466,0.16223776025137535,-4.884093215442742,64.2
,,0.03835976721883581,0.007565981367450811,0.0007093957582105335,0.04663514434449715,6.062420760996526,0.8225506269578466,0.16223776025137535,-4.884093215442742,64.3
,,0.03835976721883581,0.007565981367450811,0.0007093957582105335,0.04663514434449715,6.046115431913872,0.8225506269578466,0.16223776025137535,-4.884093215442742,64.4
,,0.03835976721883581,0.007565981367450811,0.0007093957582105335,0.04663514434449715,6.029810102831218,0.8225506269578466,0.16223776025137535,-4.884093215442742,64.5
,,0.03835976721883581,0.007565981367450811,0.0007093957582105335,0.04663514434449715,6.013504773748563,0.8225506269578466,0.16223776025137535,-4.884093215442742,64.6
,,0.037117730396334606,0.007457885644291051,0.0005977405062020017,0.04517335654682766,5.99733947078452,0.8216730664646887,0.16509478627208163,-4.898483330637372,64.7
,,0.03716172896999602,0.007514198419470175,0.0006881097533683077,0.0453640371428345,5.980824801285951,0.8191891928178161,0.1656421891158134,-4.890960925542041,64.8
,,0.03716172896999602,0.007514198419470175,0.0006881097533683077,0.0453640371428345,5.964310131787383,0.8191891928178161,0.1656421891158134,-4.890960925542041,64.9
,,0.03716172896999602,0.007514198419470175,0.0006881097533683077,0.0453640371428345,5.947795462288815,0.8191891928178161,0.1656421891158134,-4.890960925542041,65.0
,,0.03716172896999602,0.007514198419470175,0.0006881097533683077,0.0453640371428345,5.931280792790248,0.8191891928178161,0.1656421891158134,-4.890960925542041,65.1
,,0.03716172896999602,0.007514198419470175,0.0006881097533683077,0.0453640371428345,5.9147661232916775,0.8191891928178161,0.1656421891158134,-4.890960925542041,65.2
,,0.03716172896999602,0.007514198419470175,0.0006881097533683077,0.0453640371428345,5.89825145379311,0.8191891928178161,0.1656421891158134,-4.890960925542041,65.3
,,0.03596423538935092,0.007436609895658269,0.000586079144050484,0.043986924429059666,5.881827280917605,0.8176119575569004,0.16906410239369504,-4.901340193167046,65.4
,,0.03533996403453799,0.004640713426603227,0.0006334219165627409,0.04061409937770396,5.896281935331912,0.8701402856649008,0.11426360544020467,-5.37288716882972,65.5
,,0.03533996403453799,0.004640713426603227,0.0006334219165627409,0.04061409937770396,5.910736589746217,0.8701402856649008,0.11426360544020467,-5.37288716882972,65.6
,,0.03533996403453799,0.004640713426603227,0.0006334219165627409,0.04061409937770396,5.925191244160524,0.8701402856649008,0.11426360544020467,-5.37288716882972,65.7
,,0.03533996403453799,0.004640713426603227,0.0006334219165627409,0.04061409937770396,5.93964589857483,0.8701402856649008,0.11426360544020467,-5.37288716882972,65.8
,,0.03533996403453799,0.004640713426603227,0.0006334219165627409,0.04061409937770396,5.9541005529891375,0.8701402856649008,0.11426360544020467,-5.37288716882972,65.9
,,0.03533996403453799,0.004640713426603227,0.0006334219165627409,0.04061409937770396,5.970006630639677,0.8701402856649008,0.11426360544020467,-5.37288716882972,66.0
,,0.035289636755373256,0.007509771279037635,0.00058280301419767,0.04338221104860856,5.953512285827691,0.8134586942982736,0.1731071583839548,-4.891550269190827,66.1
,,0.019731621361782546,0.007645483050497176,0.0006620366950429411,0.028039141107322665,5.913480808807276,0.7037170392009426,0.2726717990837634,-4.873640256443883,66.2
,,0.019731621361782546,0.007645483050497176,0.0006620366950429411,0.028039141107322665,5.87344933178686,0.7037170392009426,0.2726717990837634,-4.873640256443883,66.3
,,0.019731621361782546,0.007645483050497176,0.0006620366950429411,0.028039141107322665,5.833417854766445,0.7037170392009426,0.2726717990837634,-4.873640256443883,66.4
,,0.019731621361782546,0.007645483050497176,0.0006620366950429411,0.028039141107322665,5.79338637774603,0.7037170392009426,0.2726717990837634,-4.873640256443883,66.5
,,0.019731621361782546,0.007645483050497176,0.0006620366950429411,0.028039141107322665,5.748138725966875,0.7037170392009426,0.2726717990837634,-4.873640256443883,66.6
,,0.019731621361782546,0.007645483050497176,0.0006620366950429411,0.028039141107322665,5.7095169899857,0.7037170392009426,0.2726717990837634,-4.873640256443883,66.7
,,0.03637802802612835,0.007792400339050903,0.0006772308937532687,0.04484765925893252,5.694090559356948,0.8111466379124963,0.17375266553067326,-4.854606335746767,66.8
,,0.03588913997916406,0.007882822420211386,0.0006665322358099404,0.044438494635185385,5.677380022487897,0.807613765358016,0.17738725141175118,-4.843069264088028,66.9
,,0.03588913997916406,0.007882822420211386,0.0006665322358099404,0.044438494635185385,5.660669485618846,0.807613765358016,0.17738725141175118,-4.843069264088028,67.0
,,0.03588913997916406,0.007882822420211386,0.0006665322358099404,0.044438494635185385,5.643958948749795,0.807613765358016,0.17738725141175118,-4.843069264088028,67.1
,,0.03588913997916406,0.007882822420211386,0.0006665322358099404,0.044438494635185385,5.627567338421182,0.807613765358016,0.17738725141175118,-4.843069264088028,67.2
,,0.03588913997916406,0.007882822420211386,0.0006665322358099404,0.044438494635185385,5.61117572809257,0.807613765358016,0.17738725141175118,-4.843069264088028,67.3
,,0.03588913997916406,0.007882822420211386,0.0006665322358099404,0.044438494635185385,5.595859803452329,0.807613765358016,0.17738725141175118,-4.843069264088028,67.4
,,0.03679056633494439,0.004974745673336981,0.0006255284193374224,0.04239084042761879,5.612128746541284,0.8678895243363548,0.11735425915490458,-5.303381030615591,67.5
,,0.036609268681689525,0.008246308112847777,0.0006858944646591067,0.045541471259196414,5.5955533230775165,0.8038666224314577,0.1810725012794258,-4.79798968026721,67.6
,,0.036609268681689525,0.008246308112847777,0.0006858944646591067,0.045541471259196414,5.57897789961375,0.8038666224314577,0.1810725012794258,-4.79798968026721,67.7
,,0.036609268681689525,0.008246308112847777,0.0006858944646591067,0.045541471259196414,5.562713132893086,0.8038666224314577,0.1810725012794258,-4.79798968026721,67.8
,,0.036609268681689525,0.008246308112847777,0.0006858944646591067,0.045541471259196414,5.546448366172424,0.8038666224314577,0.1810725012794258,-4.79798968026721,67.9
,,0.036609268681689525,0.008246308112847777,0.0006858944646591067,0.045541471259196414,5.530183599451759,0.8038666224314577,0.1810725012794258,-4.79798968026721,68.0
,,0.036609268681689525,0.008246308112847777,0.0006858944646591067,0.045541471259196414,5.514899510531187,0.8038666224314577,0.1810725012794258,-4.79798968026721,68.1
,,0.03781390341600877,0.008505889069503739,0.0007155675371045652,0.04703536002261707,5.499683651309402,0.8039462948264,0.18084030961841602,-4.766996523676632,68.2
,,0.03781390341600877,0.008505889069503739,0.0007155675371045652,0.04703536002261707,5.484467792087616,0.8039462948264,0.18084030961841602,-4.766996523676632,68.3
,,0.03804895665781555,0.008758872440570043,0.0007256225420561392,0.047533451640441725,5.468123409511064,0.8004669415894738,0.1842675450296554,-4.737688099148463,68.4
,,0.03804895665781555,0.008758872440570043,0.0007256225420561392,0.047533451640441725,5.452103932925133,0.8004669415894738,0.1842675450296554,-4.737688099148463,68.5
,,0.03804895665781555,0.008758872440570043,0.0007256225420561392,0.047533451640441725,5.436084456339202,0.8004669415894738,0.1842675450296554,-4.737688099148463,68.6
,,0.03804895665781555,0.008758872440570043,0.0007256225420561392,0.047533451640441725,5.420064979753272,0.8004669415894738,0.1842675450296554,-4.737688099148463,68.7
,,0.0395651023175073,0.009074933418376615,0.0007639038739974083,0.04940393960988133,5.393150429961843,0.800849135310534,0.1836884566299148,-4.702239235676141,68.8
,,0.0395651023175073,0.009074933418376615,0.0007639038739974083,0.04940393960988133,5.3662358801704135,0.800849135310534,0.1836884566299148,-4.702239235676141,68.9
,,0.0395651023175073,0.009074933418376615,0.0007639038739974083,0.04940393960988133,5.3393213303789855,0.800849135310534,0.1836884566299148,-4.702239235676141,69.0
,,0.040192833708239145,0.009420544906267906,0.0007872060021362179,0.05040058461664327,5.323675195835402,0.7974676090357626,0.1869134054281794,-4.664862346390864,69.1
,,0.040192833708239145,0.009420544906267906,0.0007872060021362179,0.05040058461664327,5.308029061291818,0.7974676090357626,0.1869134054281794,-4.664862346390864,69.2
,,0.040192833708239145,0.009420544906267906,0.0007872060021362179,0.05040058461664327,5.292382926748234,0.7974676090357626,0.1869134054281794,-4.664862346390864,69.3
,,0.040192833708239145,0.009420544906267906,0.0007872060021362179,0.05040058461664327,5.27673679220465,0.7974676090357626,0.1869134054281794,-4.664862346390864,69.4
,,0.04055108049167152,0.009450972094875781,0.0008053351508635404,0.05080738773741084,5.261359211962168,0.7981335450909764,0.1860157058993367,-4.661637675584329,69.5
,,0.04055108049167152,0.009450972094875781,0.0008053351508635404,0.05080738773741084,5.246685682030638,0.7981335450909764,0.1860157058993367,-4.661637675584329,69.6
,,0.04055108049167152,0.009450972094875781,0.0008053351508635404,0.05080738773741084,5.232427861818471,0.7981335450909764,0.1860157058993367,-4.661637675584329,69.7
,,0.04100670539707142,0.00974624342036463,0.0008306816800955764,0.05158363049753163,5.2172451389810695,0.7949557834831665,0.188940625666722,-4.630873358434741,69.8
,,0.04100670539707142,0.00974624342036463,0.0008306816800955764,0.05158363049753163,5.202062416143667,0.7949557834831665,0.188940625666722,-4.630873358434741,69.9
,,0.04100670539707142,0.00974624342036463,0.0008306816800955764,0.05158363049753163,5.186879693306265,0.7949557834831665,0.188940625666722,-4.630873358434741,70.0
,,0.04100670539707142,0.00974624342036463,0.0008306816800955764,0.05158363049753163,5.1716969704688625,0.7949557834831665,0.188940625666722,-4.630873358434741,70.1
,,0.04107981603071212,0.009683028305800066,0.0008444997875527951,0.05160734412406497,5.156903341066481,0.7960071716140925,0.18762888248079368,-4.6373805851100816,70.2
,,0.04107981603071212,0.009683028305800066,0.0008444997875527951,0.05160734412406497,5.14270328400312,0.7960071716140925,0.18762888248079368,-4.6373805851100816,70.3
,,0.041687386393792054,0.009994489603814372,0.0008769242723332742,0.052558800269939705,5.111074383066827,0.7931571150727843,0.19015825232849892,-4.605721377484781,70.4
,,0.041687386393792054,0.009994489603814372,0.0008769242723332742,0.052558800269939705,5.0794454821305335,0.7931571150727843,0.19015825232849892,-4.605721377484781,70.5
,,0.041687386393792054,0.009994489603814372,0.0008769242723332742,0.052558800269939705,5.0478165811942395,0.7931571150727843,0.19015825232849892,-4.605721377484781,70.6
,,0.041687386393792054,0.009994489603814372,0.0008769242723332742,0.052558800269939705,5.016187680257947,0.7931571150727843,0.19015825232849892,-4.605721377484781,70.7
,,0.041687386393792054,0.009994489603814372,0.0008769242723332742,0.052558800269939705,4.984558779321653,0.7931571150727843,0.19015825232849892,-4.605721377484781,70.8
,,0.041820261408847134,0.009921211424342538,0.0008928152898409966,0.05263428812303067,4.9534209933841495,0.7945440681385079,0.18849331449400586,-4.613080245751952,70.9
,,0.041820261408847134,0.009921211424342538,0.0008928152898409966,0.05263428812303067,4.939920708110006,0.7945440681385079,0.18849331449400586,-4.613080245751952,71.0
,,0.02668134163711123,0.010236557625277073,0.0009315796175454312,0.037849478879933736,4.909092428896995,0.7049328663612486,0.27045438743686595,-4.581789885294913,71.1
,,0.02668134163711123,0.010236557625277073,0.0009315796175454312,0.037849478879933736,4.878264149683982,0.7049328663612486,0.27045438743686595,-4.581789885294913,71.2
,,0.02668134163711123,0.010236557625277073,0.0009315796175454312,0.037849478879933736,4.84743587047097,0.7049328663612486,0.27045438743686595,-4.581789885294913,71.3
,,0.02668134163711123,0.010236557625277073,0.0009315796175454312,0.037849478879933736,4.816607591257958,0.7049328663612486,0.27045438743686595,-4.581789885294913,71.4
,,0.02668134163711123,0.010236557625277073,0.0009315796175454312,0.037849478879933736,4.785779312044946,0.7049328663612486,0.27045438743686595,-4.581789885294913,71.5
,,0.04269463018165171,0.010164681897896823,0.0009484100599856937,0.05380772213953423,4.77266009759463,0.793466597060845,0.18890749308320026,-4.588836126253091,71.6
,,0.043458660918374636,0.010460898906479449,0.0009897499542568472,0.05490930977911093,4.760126052193392,0.791462524173042,0.1905123001647905,-4.560110886515842,71.7
,,0.043458660918374636,0.010460898906479449,0.0009897499542568472,0.05490930977911093,4.747592006792153,0.791462524173042,0.1905123001647905,-4.560110886515842,71.8
,,0.043458660918374636,0.010460898906479449,0.0009897499542568472,0.05490930977911093,4.735057961390915,0.791462524173042,0.1905123001647905,-4.560110886515842,71.9
,,0.043458660918374636,0.010460898906479449,0.0009897499542568472,0.05490930977911093,4.722523915989675,0.791462524173042,0.1905123001647905,-4.560110886515842,72.0
