HRV_ULF,HRV_VLF,HRV_LF,HRV_HF,HRV_VHF,HRV_TP,HRV_LFHF,HRV_LFn,HRV_HFn,HRV_LnHF,time
,,0.031610458985181236,0.025212344601137908,0.0004615563713558571,0.057284359957675,1.253769115298962,0.5518165692788899,0.4401261464694071,-3.68042153928499,0.0
,,0.03037136598945748,0.025205526466589766,0.000541421654864493,0.05611831411091174,1.2293589005225627,0.5412023948087924,0.44914974489030063,-3.680692004278664,0.1
,,0.030710547771482723,0.025987705546542478,0.0005521388733312171,0.05725039219135642,1.2134838380614277,0.5364251072522671,0.45393061168349624,-3.650131716390421,0.2
,,0.030710547771482723,0.025987705546542478,0.0005521388733312171,0.05725039219135642,1.2055463068308603,0.5364251072522671,0.45393061168349624,-3.650131716390421,0.3
,,0.030710547771482723,0.025987705546542478,0.0005521388733312171,0.05725039219135642,1.2007837880925198,0.5364251072522671,0.45393061168349624,-3.650131716390421,0.4
,,0.030710547771482723,0.025987705546542478,0.0005521388733312171,0.05725039219135642,1.1976087756002927,0.5364251072522671,0.45393061168349624,-3.650131716390421,0.5
,,0.030710547771482723,0.025987705546542478,0.0005521388733312171,0.05725039219135642,1.195340909534416,0.5364251072522671,0.45393061168349624,-3.650131716390421,0.6
,,0.030710547771482723,0.025987705546542478,0.0005521388733312171,0.05725039219135642,1.1936400099850089,0.5364251072522671,0.45393061168349624,-3.650131716390421,0.7
,,0.030710547771482723,0.025987705546542478,0.0005521388733312171,0.05725039219135642,1.1923170881132477,0.5364251072522671,0.45393061168349624,-3.650131716390421,0.8
,,0.030580451321035606,0.027120521498755514,0.0005483383778485517,0.058249311197639674,1.1858429873089773,0.5249924967743612,0.4655938575262409,-3.6074645867896784,0.9
,,0.030580451321035606,0.027120521498755514,0.0005483383778485517,0.058249311197639674,1.1805459957418467,0.5249924967743612,0.4655938575262409,-3.6074645867896784,1.0
,,0.030580451321035606,0.027120521498755514,0.0005483383778485517,0.058249311197639674,1.1761318361025712,0.5249924967743612,0.4655938575262409,-3.6074645867896784,1.1
,,0.030580451321035606,0.027120521498755514,0.0005483383778485517,0.058249311197639674,1.1723967779462614,0.5249924967743612,0.4655938575262409,-3.6074645867896784,1.2
,,0.030580451321035606,0.027120521498755514,0.0005483383778485517,0.058249311197639674,1.169195299526567,0.5249924967743612,0.4655938575262409,-3.6074645867896784,1.3
,,0.030580451321035606,0.027120521498755514,0.0005483383778485517,0.058249311197639674,1.1664206848961656,0.5249924967743612,0.4655938575262409,-3.6074645867896784,1.4
,,0.030580451321035606,0.027120521498755514,0.0005483383778485517,0.058249311197639674,1.1639928970945639,0.5249924967743612,0.4655938575262409,-3.6074645867896784,1.5
,,0.030123387863387557,0.027240582057464317,0.0005351571228127687,0.05789912704366464,1.1605714098597764,0.5202736103546085,0.4704834675127455,-3.6030474301807898,1.6
,,0.030873955601581134,0.028178342344604177,0.0005410711096915994,0.059593369055876914,1.1569653644034632,0.5180770292183445,0.4728435863087911,-3.569201598067052,1.7
,,0.030873955601581134,0.028178342344604177,0.0005410711096915994,0.059593369055876914,1.1537389026793936,0.5180770292183445,0.4728435863087911,-3.569201598067052,1.8
,,0.030873955601581134,0.028178342344604177,0.0005410711096915994,0.059593369055876914,1.1508350871277309,0.5180770292183445,0.4728435863087911,-3.569201598067052,1.9
,,0.030873955601581134,0.028178342344604177,0.0005410711096915994,0.059593369055876914,1.148207825438131,0.5180770292183445,0.4728435863087911,-3.569201598067052,2.0
,,0.030873955601581134,0.028178342344604177,0.0005410711096915994,0.059593369055876914,1.1458194057203133,0.5180770292183445,0.4728435863087911,-3.569201598067052,2.1
,,0.030873955601581134,0.028178342344604177,0.0005410711096915994,0.059593369055876914,1.14363867467361,0.5180770292183445,0.4728435863087911,-3.569201598067052,2.2
,,0.030873955601581134,0.028178342344604177,0.0005410711096915994,0.059593369055876914,1.1416396712141321,0.5180770292183445,0.4728435863087911,-3.569201598067052,2.3
,,0.021074863861526787,0.030553013715108546,0.0006221674250377058,0.05225004500167304,1.1235652923007828,0.40334632938310333,0.5847461703455039,-3.488291949617596,2.4
,,0.021074863861526787,0.030553013715108546,0.0006221674250377058,0.05225004500167304,1.106881250226922,0.40334632938310333,0.5847461703455039,-3.488291949617596,2.5
,,0.021074863861526787,0.030553013715108546,0.0006221674250377058,0.05225004500167304,1.0914330631214955,0.40334632938310333,0.5847461703455039,-3.488291949617596,2.6
,,0.021074863861526787,0.030553013715108546,0.0006221674250377058,0.05225004500167304,1.0770883179521709,0.40334632938310333,0.5847461703455039,-3.488291949617596,2.7
,,0.021074863861526787,0.030553013715108546,0.0006221674250377058,0.05225004500167304,1.0637328655531444,0.40334632938310333,0.5847461703455039,-3.488291949617596,2.8
,,0.021074863861526787,0.030553013715108546,0.0006221674250377058,0.05225004500167304,1.0512677766473864,0.40334632938310333,0.5847461703455039,-3.488291949617596,2.9
,,0.021074863861526787,0.030553013715108546,0.0006221674250377058,0.05225004500167304,1.0396068870258708,0.40334632938310333,0.5847461703455039,-3.488291949617596,3.0
,,0.030995367001943535,0.02833470758329645,0.0004866299960610557,0.05981670458130104,1.0413035803082635,0.518172427232523,0.47369221995144817,-3.5636678093962852,3.1
,,0.030995367001943535,0.02833470758329645,0.0004866299960610557,0.05981670458130104,1.0428974436947533,0.518172427232523,0.47369221995144817,-3.5636678093962852,3.2
,,0.030995367001943535,0.02833470758329645,0.0004866299960610557,0.05981670458130104,1.04439755041145,0.518172427232523,0.47369221995144817,-3.5636678093962852,3.3
,,0.030995367001943535,0.02833470758329645,0.0004866299960610557,0.05981670458130104,1.045811936744335,0.518172427232523,0.47369221995144817,-3.5636678093962852,3.4
,,0.030995367001943535,0.02833470758329645,0.0004866299960610557,0.05981670458130104,1.0471477460587266,0.518172427232523,0.47369221995144817,-3.5636678093962852,3.5
,,0.02065718316745822,0.02781870374377205,0.00046857188313077883,0.048944458794361045,1.038915767728947,0.4220535618597577,0.5683728950942467,-3.58204668797311,3.6
,,0.030995367001943535,0.02833470758329645,0.0004866299960610557,0.05981670458130104,1.0403627494219332,0.518172427232523,0.47369221995144817,-3.5636678093962852,3.7
,,0.03081615295662638,0.027409762580970623,0.0004438741354919,0.058669789673088904,1.0425143850028231,0.5252473739608677,0.46718699238056305,-3.5968560304718067,3.8
,,0.03081615295662638,0.027409762580970623,0.0004438741354919,0.058669789673088904,1.0445584388046683,0.5252473739608677,0.46718699238056305,-3.5968560304718067,3.9
,,0.03081615295662638,0.027409762580970623,0.0004438741354919,0.058669789673088904,1.04650278266496,0.5252473739608677,0.46718699238056305,-3.5968560304718067,4.0
,,0.03081615295662638,0.027409762580970623,0.0004438741354919,0.058669789673088904,1.048354538722381,0.5252473739608677,0.46718699238056305,-3.5968560304718067,4.1
,,0.03081615295662638,0.027409762580970623,0.0004438741354919,0.058669789673088904,1.0501201665910846,0.5252473739608677,0.46718699238056305,-3.5968560304718067,4.2
,,0.03081615295662638,0.027409762580970623,0.0004438741354919,0.058669789673088904,1.0518055386475744,0.5252473739608677,0.46718699238056305,-3.5968560304718067,4.3
,,0.030100667791430794,0.025512860375219475,0.00038986108782829604,0.05600338925447857,1.0546503783732812,0.53747939530327,0.4555592208766047,-3.668572625508623,4.4
,,0.030100667791430794,0.025512860375219475,0.00038986108782829604,0.05600338925447857,1.0573715294152617,0.53747939530327,0.4555592208766047,-3.668572625508623,4.5
,,0.030100667791430794,0.025512860375219475,0.00038986108782829604,0.05600338925447857,1.0599768867958814,0.53747939530327,0.4555592208766047,-3.668572625508623,4.6
,,0.030100667791430794,0.025512860375219475,0.00038986108782829604,0.05600338925447857,1.0624736876189753,0.53747939530327,0.4555592208766047,-3.668572625508623,4.7
,,0.030100667791430794,0.025512860375219475,0.00038986108782829604,0.05600338925447857,1.0648685782043918,0.53747939530327,0.4555592208766047,-3.668572625508623,4.8
,,0.030100667791430794,0.025512860375219475,0.00038986108782829604,0.05600338925447857,1.0671676731663917,0.53747939530327,0.4555592208766047,-3.668572625508623,4.9
,,0.030100667791430794,0.025512860375219475,0.00038986108782829604,0.05600338925447857,1.0693766075416464,0.53747939530327,0.4555592208766047,-3.668572625508623,5.0
,,0.028838235203475174,0.024412481663750412,0.0003675097476508536,0.05361822661487644,1.0715287997763183,0.5378438830252915,0.4553019225924406,-3.7126607338804756,5.1
,,0.026870058218260807,0.03780810287523159,0.0005320467770226247,0.06521020787051501,1.0647206291202764,0.41205294532438047,0.5797881054191001,-3.2752318375501845,5.2
,,0.026870058218260807,0.03780810287523159,0.0005320467770226247,0.06521020787051501,1.0581646129329767,0.41205294532438047,0.5797881054191001,-3.2752318375501845,5.3
,,0.026870058218260807,0.03780810287523159,0.0005320467770226247,0.06521020787051501,1.051846997334306,0.41205294532438047,0.5797881054191001,-3.2752318375501845,5.4
,,0.026870058218260807,0.03780810287523159,0.0005320467770226247,0.06521020787051501,1.0457550108641593,0.41205294532438047,0.5797881054191001,-3.2752318375501845,5.5
,,0.026870058218260807,0.03780810287523159,0.0005320467770226247,0.06521020787051501,1.039876778305246,0.41205294532438047,0.5797881054191001,-3.2752318375501845,5.6
,,0.026870058218260807,0.03780810287523159,0.0005320467770226247,0.06521020787051501,1.034201243420778,0.41205294532438047,0.5797881054191001,-3.2752318375501845,5.7
,,0.027347903830465238,0.02175099985132427,0.00031355238793709535,0.04941245606972661,1.0379828679334653,0.5534617383089444,0.4401926473889728,-3.8280955523282114,5.8
,,0.02973191843353845,0.039119800481119474,0.0005081490752348061,0.06935986798989273,1.0333501908197844,0.42866169292408474,0.5640120377221608,-3.241126534004409,5.9
,,0.02973191843353845,0.039119800481119474,0.0005081490752348061,0.06935986798989273,1.028869404759011,0.42866169292408474,0.5640120377221608,-3.241126534004409,6.0
,,0.02973191843353845,0.039119800481119474,0.0005081490752348061,0.06935986798989273,1.024533160184069,0.42866169292408474,0.5640120377221608,-3.241126534004409,6.1
,,0.02973191843353845,0.039119800481119474,0.0005081490752348061,0.06935986798989273,1.0203345741670617,0.42866169292408474,0.5640120377221608,-3.241126534004409,6.2
,,0.02973191843353845,0.039119800481119474,0.0005081490752348061,0.06935986798989273,1.0162671939630858,0.42866169292408474,0.5640120377221608,-3.241126534004409,6.3
,,0.02973191843353845,0.039119800481119474,0.0005081490752348061,0.06935986798989273,1.0123249639192322,0.42866169292408474,0.5640120377221608,-3.241126534004409,6.4
,,0.01749664111576799,0.01944023045882962,0.0002731839245707287,0.03721005549916834,1.0106234085500232,0.47021271215677296,0.5224456184770839,-3.9404106251420457,6.5
,,0.01749664111576799,0.01944023045882962,0.0002731839245707287,0.03721005549916834,1.0089726458784025,0.47021271215677296,0.5224456184770839,-3.9404106251420457,6.6
,,0.02576276541833014,0.01784752172119728,0.00024546599440948455,0.04385575313393691,1.0153626451093278,0.587443233266336,0.40695964487693015,-4.025890619544147,6.7
,,0.02576276541833014,0.01784752172119728,0.00024546599440948455,0.04385575313393691,1.021567426971241,0.587443233266336,0.40695964487693015,-4.025890619544147,6.8
,,0.02576276541833014,0.01784752172119728,0.00024546599440948455,0.04385575313393691,1.0275949293513849,0.587443233266336,0.40695964487693015,-4.025890619544147,6.9
,,0.02576276541833014,0.01784752172119728,0.00024546599440948455,0.04385575313393691,1.0334526429320883,0.587443233266336,0.40695964487693015,-4.025890619544147,7.0
,,0.02576276541833014,0.01784752172119728,0.00024546599440948455,0.04385575313393691,1.0391476422466612,0.587443233266336,0.40695964487693015,-4.025890619544147,7.1
,,0.024773814129828545,0.017320336027907876,0.00024244627432387408,0.042336596432060294,1.0445063188379577,0.5851631027917975,0.40911026127720745,-4.055873974886632,7.2
,,0.024773814129828545,0.017320336027907876,0.00024244627432387408,0.042336596432060294,1.0497201663321922,0.5851631027917975,0.40911026127720745,-4.055873974886632,7.3
,,0.024453581763868498,0.015807595506618845,0.00021918781059463192,0.04048036508108197,1.0563499159155976,0.6040850104708319,0.3905003197218283,-4.147264726195015,7.4
,,0.024453581763868498,0.015807595506618845,0.00021918781059463192,0.04048036508108197,1.0628051984047027,0.6040850104708319,0.3905003197218283,-4.147264726195015,7.5
,,0.024453581763868498,0.015807595506618845,0.00021918781059463192,0.04048036508108197,1.0690928112187663,0.6040850104708319,0.3905003197218283,-4.147264726195015,7.6
,,0.024453581763868498,0.015807595506618845,0.00021918781059463192,0.04048036508108197,1.0752192031914436,0.6040850104708319,0.3905003197218283,-4.147264726195015,7.7
,,0.024453581763868498,0.015807595506618845,0.00021918781059463192,0.04048036508108197,1.0811904966331671,0.6040850104708319,0.3905003197218283,-4.147264726195015,7.8
,,0.023570633707270763,0.015476059442458692,0.0002210666111029937,0.03926775976083245,1.0867135961487278,0.6002540977848511,0.39411617919429304,-4.1684610012066425,7.9
,,0.023570633707270763,0.015476059442458692,0.0002210666111029937,0.03926775976083245,1.0921003228367436,0.6002540977848511,0.39411617919429304,-4.1684610012066425,8.0
,,0.023302900430126488,0.014179194722975677,0.00020346387406030417,0.03768555902716247,1.0988241878567553,0.6183509288884517,0.37625008329465925,-4.255979549125749,8.1
,,0.023302900430126488,0.014179194722975677,0.00020346387406030417,0.03768555902716247,1.1053860320329114,0.6183509288884517,0.37625008329465925,-4.255979549125749,8.2
,,0.023302900430126488,0.014179194722975677,0.00020346387406030417,0.03768555902716247,1.111791641823921,0.6183509288884517,0.37625008329465925,-4.255979549125749,8.3
,,0.023302900430126488,0.014179194722975677,0.00020346387406030417,0.03768555902716247,1.118046531384554,0.6183509288884517,0.37625008329465925,-4.255979549125749,8.4
,,0.023302900430126488,0.014179194722975677,0.00020346387406030417,0.03768555902716247,1.1241559583972651,0.6183509288884517,0.37625008329465925,-4.255979549125749,8.5
,,0.022736744015647566,0.014125480441212307,0.00021088961489075517,0.03707311407175063,1.129736076613115,0.6132946903689634,0.3810168310618339,-4.259774988990925,8.6
,,0.022736744015647566,0.014125480441212307,0.00021088961489075517,0.03707311407175063,1.1351893739604229,0.6132946903689634,0.3810168310618339,-4.259774988990925,8.7
,,0.022581143679587214,0.013087459969423674,0.00019851337605468898,0.03586711702506558,1.141820988582626,0.6295778850529437,0.3648874248877477,-4.33610076147794,8.8
,,0.022581143679587214,0.013087459969423674,0.00019851337605468898,0.03586711702506558,1.148305233991003,0.6295778850529437,0.3648874248877477,-4.33610076147794,8.9
,,0.022581143679587214,0.013087459969423674,0.00019851337605468898,0.03586711702506558,1.1535456113247533,0.6295778850529437,0.3648874248877477,-4.33610076147794,9.0
,,0.022581143679587214,0.013087459969423674,0.00019851337605468898,0.03586711702506558,1.1593284378757573,0.6295778850529437,0.3648874248877477,-4.33610076147794,9.1
,,0.022581143679587214,0.013087459969423674,0.00019851337605468898,0.03586711702506558,1.1653692085668392,0.6295778850529437,0.3648874248877477,-4.33610076147794,9.2
,,0.03260762155617634,0.033296308403337936,0.0003706633292023346,0.06627459328871661,1.163120127535765,0.49200787116301853,0.5023992868320883,-3.402308746899646,9.3
,,0.03260762155617634,0.033296308403337936,0.0003706633292023346,0.06627459328871661,1.160871046504691,0.49200787116301853,0.5023992868320883,-3.402308746899646,9.4
,,0.022069788597635438,0.01229484285166796,0.0001999232536737449,0.034564554702977146,1.1676856095003263,0.6385092701840739,0.3557066757353298,-4.398575384878548,9.5
,,0.022069788597635438,0.01229484285166796,0.0001999232536737449,0.034564554702977146,1.1745001724959614,0.6385092701840739,0.3557066757353298,-4.398575384878548,9.6
,,0.022069788597635438,0.01229484285166796,0.0001999232536737449,0.034564554702977146,1.1813147354915967,0.6385092701840739,0.3557066757353298,-4.398575384878548,9.7
,,0.022069788597635438,0.01229484285166796,0.0001999232536737449,0.034564554702977146,1.1881292984872318,0.6385092701840739,0.3557066757353298,-4.398575384878548,9.8
,,0.022069788597635438,0.01229484285166796,0.0001999232536737449,0.034564554702977146,1.1955456129614073,0.6385092701840739,0.3557066757353298,-4.398575384878548,9.9
,,0.022069788597635438,0.01229484285166796,0.0001999232536737449,0.034564554702977146,1.2029619274355827,0.6385092701840739,0.3557066757353298,-4.398575384878548,10.0
,,0.02962982392622037,0.029031227681030877,0.00032986862451637,0.05899092023176762,1.2017735159559368,0.50227770324329,0.4921304425659233,-3.5393832117595068,10.1
,,0.021823446079088777,0.01182239288766205,0.00020864888243213347,0.03385448784918296,1.209755354348426,0.6446249069343242,0.34921198454778485,-4.437759843528559,10.2
,,0.021823446079088777,0.01182239288766205,0.00020864888243213347,0.03385448784918296,1.2177371927409153,0.6446249069343242,0.34921198454778485,-4.437759843528559,10.3
,,0.021823446079088777,0.01182239288766205,0.00020864888243213347,0.03385448784918296,1.2257190311334045,0.6446249069343242,0.34921198454778485,-4.437759843528559,10.4
,,0.021823446079088777,0.01182239288766205,0.00020864888243213347,0.03385448784918296,1.2337008695258938,0.6446249069343242,0.34921198454778485,-4.437759843528559,10.5
,,0.021823446079088777,0.01182239288766205,0.00020864888243213347,0.03385448784918296,1.2419243575402426,0.6446249069343242,0.34921198454778485,-4.437759843528559,10.6
,,0.021823446079088777,0.01182239288766205,0.00020864888243213347,0.03385448784918296,1.2502607902485585,0.6446249069343242,0.34921198454778485,-4.437759843528559,10.7
,,0.02178782276087002,0.011202615714488572,0.00017838253269412404,0.03316882100805272,1.2596966180908937,0.656876611790946,0.33774536971841124,-4.491607982012216,10.8
,,0.021866179225363908,0.011584545445762349,0.00022410262019313394,0.03367482729131939,1.2684951469222256,0.649333077084571,0.34401202255753166,-4.458083358314494,10.9
,,0.021866179225363908,0.011584545445762349,0.00022410262019313394,0.03367482729131939,1.2772936757535578,0.649333077084571,0.34401202255753166,-4.458083358314494,11.0
,,0.021866179225363908,0.011584545445762349,0.00022410262019313394,0.03367482729131939,1.2860922045848897,0.649333077084571,0.34401202255753166,-4.458083358314494,11.1
,,0.021866179225363908,0.011584545445762349,0.00022410262019313394,0.03367482729131939,1.2948907334162219,0.649333077084571,0.34401202255753166,-4.458083358314494,11.2
,,0.021866179225363908,0.011584545445762349,0.00022410262019313394,0.03367482729131939,1.303689262247554,0.649333077084571,0.34401202255753166,-4.458083358314494,11.3
,,0.021780401068978016,0.011002959584727263,0.00019149860400550237,0.032974859257710785,1.3180195252550035,0.6605153610742076,0.33367722660269883,-4.509590989215052,11.4
,,0.021868468660553197,0.011332633489881347,0.00023888977479993753,0.03343999192523448,1.3317962999868007,0.6539615413020126,0.33889462399449677,-4.4800687958335725,11.5
,,0.02197274518621947,0.011426986254346412,0.00024226662206850105,0.033641998062634376,1.3454974301469431,0.6531343692877815,0.33966431580763273,-4.471777505728373,11.6
,,0.02197274518621947,0.011426986254346412,0.00024226662206850105,0.033641998062634376,1.3591985603070855,0.6531343692877815,0.33966431580763273,-4.471777505728373,11.7
,,0.02197274518621947,0.011426986254346412,0.00024226662206850105,0.033641998062634376,1.372899690467228,0.6531343692877815,0.33966431580763273,-4.471777505728373,11.8
,,0.02197274518621947,0.011426986254346412,0.00024226662206850105,0.033641998062634376,1.3866008206273703,0.6531343692877815,0.33966431580763273,-4.471777505728373,11.9
,,0.02197274518621947,0.011426986254346412,0.00024226662206850105,0.033641998062634376,1.4003019507875127,0.6531343692877815,0.33966431580763273,-4.471777505728373,12.0
,,0.022478855566784237,0.018585365028691708,0.00021359894266593247,0.04127781953814188,1.4015862975684403,0.5445746848622451,0.4502506488143906,-3.9853808343877786,12.1
,,0.022478855566784237,0.018585365028691708,0.00021359894266593247,0.04127781953814188,1.402870644349368,0.5445746848622451,0.4502506488143906,-3.9853808343877786,12.2
,,0.022478855566784237,0.018585365028691708,0.00021359894266593247,0.04127781953814188,1.4041549911302955,0.5445746848622451,0.4502506488143906,-3.9853808343877786,12.3
,,0.022139964859634507,0.011328620796736088,0.0002618944480696287,0.03373048010444022,1.4137154119833149,0.6563785866990978,0.3358570871703901,-4.480422941560587,12.4
,,0.022139964859634507,0.011328620796736088,0.0002618944480696287,0.03373048010444022,1.4232758328363349,0.6563785866990978,0.3358570871703901,-4.480422941560587,12.5
,,0.022139964859634507,0.011328620796736088,0.0002618944480696287,0.03373048010444022,1.436739992847194,0.6563785866990978,0.3358570871703901,-4.480422941560587,12.6
,,0.022062003674214445,0.010861921631840238,0.00026062861526972075,0.033184553921324404,1.4471536770526812,0.6648274895157592,0.32731859700727706,-4.522492034287774,12.7
,,0.022062003674214445,0.010861921631840238,0.00026062861526972075,0.033184553921324404,1.4572298560913444,0.6648274895157592,0.32731859700727706,-4.522492034287774,12.8
,,0.022062003674214445,0.010861921631840238,0.00026062861526972075,0.033184553921324404,1.4673060351300073,0.6648274895157592,0.32731859700727706,-4.522492034287774,12.9
,,0.022062003674214445,0.010861921631840238,0.00026062861526972075,0.033184553921324404,1.47738221416867,0.6648274895157592,0.32731859700727706,-4.522492034287774,13.0
,,0.022062003674214445,0.010861921631840238,0.00026062861526972075,0.033184553921324404,1.4874583932073333,0.6648274895157592,0.32731859700727706,-4.522492034287774,13.1
,,0.022240722605115892,0.011202532807734634,0.0002803362749392052,0.033723591687789725,1.4970256520675485,0.6595004117894291,0.3321868237359405,-4.49161538269995,13.2
,,0.02193758509833294,0.010623232569467548,0.0002772748465224533,0.03283809251432294,1.5074787728386911,0.6680529658890649,0.32350333883839416,-4.544711924411808,13.3
,,0.02193758509833294,0.010623232569467548,0.0002772748465224533,0.03283809251432294,1.5173147070628585,0.6680529658890649,0.32350333883839416,-4.544711924411808,13.4
,,0.02193758509833294,0.010623232569467548,0.0002772748465224533,0.03283809251432294,1.5271506412870262,0.6680529658890649,0.32350333883839416,-4.544711924411808,13.5
,,0.02193758509833294,0.010623232569467548,0.0002772748465224533,0.03283809251432294,1.536986575511194,0.6680529658890649,0.32350333883839416,-4.544711924411808,13.6
,,0.02193758509833294,0.010623232569467548,0.0002772748465224533,0.03283809251432294,1.5468225097353616,0.6680529658890649,0.32350333883839416,-4.544711924411808,13.7
,,0.02193758509833294,0.010623232569467548,0.0002772748465224533,0.03283809251432294,1.5566584439595292,0.6680529658890649,0.32350333883839416,-4.544711924411808,13.8
,,0.01914514749571833,0.014791853131246317,0.0002307045328038277,0.03416770515976847,1.5579304460520778,0.560328749214952,0.4329191282258931,-4.213678713878034,13.9
,,0.01914514749571833,0.014791853131246317,0.0002307045328038277,0.03416770515976847,1.5592024481446263,0.560328749214952,0.4329191282258931,-4.213678713878034,14.0
,,0.01914514749571833,0.014791853131246317,0.0002307045328038277,0.03416770515976847,1.5604581471545058,0.560328749214952,0.4329191282258931,-4.213678713878034,14.1
,,0.01914514749571833,0.014791853131246317,0.0002307045328038277,0.03416770515976847,1.5669426778170352,0.560328749214952,0.4329191282258931,-4.213678713878034,14.2
,,0.01914514749571833,0.014791853131246317,0.0002307045328038277,0.03416770515976847,1.573427208479565,0.560328749214952,0.4329191282258931,-4.213678713878034,14.3
,,0.01914514749571833,0.014791853131246317,0.0002307045328038277,0.03416770515976847,1.5799117391420945,0.560328749214952,0.4329191282258931,-4.213678713878034,14.4
,,0.01914514749571833,0.014791853131246317,0.0002307045328038277,0.03416770515976847,1.586396269804624,0.560328749214952,0.4329191282258931,-4.213678713878034,14.5
,,0.021389811522642636,0.009709299052030777,0.00029579189066245915,0.03139490246533587,1.6029776863811251,0.681314794535827,0.3092635520289043,-4.634671187540958,14.6
,,0.021389811522642636,0.009709299052030777,0.00029579189066245915,0.03139490246533587,1.6195591029576264,0.681314794535827,0.3092635520289043,-4.634671187540958,14.7
,,0.021389811522642636,0.009709299052030777,0.00029579189066245915,0.03139490246533587,1.6300669491489808,0.681314794535827,0.3092635520289043,-4.634671187540958,14.8
,,0.021389811522642636,0.009709299052030777,0.00029579189066245915,0.03139490246533587,1.6461002936576319,0.681314794535827,0.3092635520289043,-4.634671187540958,14.9
,,0.021389811522642636,0.009709299052030777,0.00029579189066245915,0.03139490246533587,1.662133638166283,0.681314794535827,0.3092635520289043,-4.634671187540958,15.0
,,0.021389811522642636,0.009709299052030777,0.00029579189066245915,0.03139490246533587,1.6781669826749344,0.681314794535827,0.3092635520289043,-4.634671187540958,15.1
,,0.021389811522642636,0.009709299052030777,0.00029579189066245915,0.03139490246533587,1.6942003271835855,0.681314794535827,0.3092635520289043,-4.634671187540958,15.2
,,0.02191001827593881,0.00947954470827467,0.00024360445562915647,0.03163316743984263,1.711436684126144,0.6926280246075733,0.2996710565358999,-4.658618990421823,15.3
,,0.02191001827593881,0.00947954470827467,0.00024360445562915647,0.03163316743984263,1.7286730410687026,0.6926280246075733,0.2996710565358999,-4.658618990421823,15.4
,,0.02191001827593881,0.00947954470827467,0.00024360445562915647,0.03163316743984263,1.7443538416952742,0.6926280246075733,0.2996710565358999,-4.658618990421823,15.5
,,0.02191001827593881,0.00947954470827467,0.00024360445562915647,0.03163316743984263,1.7600346423218456,0.6926280246075733,0.2996710565358999,-4.658618990421823,15.6
,,0.02191001827593881,0.00947954470827467,0.00024360445562915647,0.03163316743984263,1.7696768842369737,0.6926280246075733,0.2996710565358999,-4.658618990421823,15.7
,,0.02191001827593881,0.00947954470827467,0.00024360445562915647,0.03163316743984263,1.7793191261521022,0.6926280246075733,0.2996710565358999,-4.658618990421823,15.8
,,0.02191001827593881,0.00947954470827467,0.00024360445562915647,0.03163316743984263,1.7889613680672303,0.6926280246075733,0.2996710565358999,-4.658618990421823,15.9
,,0.020990660150264486,0.01407791541592332,0.00024680466025825664,0.035315380226446064,1.7894896135058336,0.5943772944159198,0.3986341170802691,-4.2631479920595,16.0
,,0.020990660150264486,0.01407791541592332,0.00024680466025825664,0.035315380226446064,1.790017858944436,0.5943772944159198,0.3986341170802691,-4.2631479920595,16.1
,,0.022962465640094507,0.00945145368525772,0.0002479222227458343,0.032661841548098064,1.801119923167343,0.7030364655428205,0.2893729574720838,-4.661586720179171,16.2
,,0.022962465640094507,0.00945145368525772,0.0002479222227458343,0.032661841548098064,1.8122219873902503,0.7030364655428205,0.2893729574720838,-4.661586720179171,16.3
,,0.022962465640094507,0.00945145368525772,0.0002479222227458343,0.032661841548098064,1.8220282699278654,0.7030364655428205,0.2893729574720838,-4.661586720179171,16.4
,,0.022962465640094507,0.00945145368525772,0.0002479222227458343,0.032661841548098064,1.8318345524654804,0.7030364655428205,0.2893729574720838,-4.661586720179171,16.5
,,0.022962465640094507,0.00945145368525772,0.0002479222227458343,0.032661841548098064,1.8416408350030953,0.7030364655428205,0.2893729574720838,-4.661586720179171,16.6
,,0.023750060594225325,0.009810470144132112,0.0003314464090869633,0.0338919771474444,1.8513512544613513,0.700757600859417,0.28946290449366313,-4.6243050815652476,16.7
,,0.023750060594225325,0.009810470144132112,0.0003314464090869633,0.0338919771474444,1.8610616739196073,0.700757600859417,0.28946290449366313,-4.6243050815652476,16.8
,,0.023750060594225325,0.009810470144132112,0.0003314464090869633,0.0338919771474444,1.8710377925690804,0.700757600859417,0.28946290449366313,-4.6243050815652476,16.9
,,0.024504937995036783,0.009599509418091502,0.00025102608548839615,0.03435547349861668,1.8824787892376678,0.7132760954676836,0.2794171769595324,-4.646043284096248,17.0
,,0.024504937995036783,0.009599509418091502,0.00025102608548839615,0.03435547349861668,1.8925817992773697,0.7132760954676836,0.2794171769595324,-4.646043284096248,17.1
,,0.024504937995036783,0.009599509418091502,0.00025102608548839615,0.03435547349861668,1.9026848093170716,0.7132760954676836,0.2794171769595324,-4.646043284096248,17.2
,,0.024504937995036783,0.009599509418091502,0.00025102608548839615,0.03435547349861668,1.9127878193567736,0.7132760954676836,0.2794171769595324,-4.646043284096248,17.3
,,0.024504937995036783,0.009599509418091502,0.00025102608548839615,0.03435547349861668,1.9228908293964755,0.7132760954676836,0.2794171769595324,-4.646043284096248,17.4
,,0.023626937452092756,0.013163837256921648,0.00022710747251477085,0.03701788218152917,1.9245728225861407,0.6382574058729351,0.35560751942449087,-4.330281810715107,17.5
,,0.023626937452092756,0.013163837256921648,0.00022710747251477085,0.03701788218152917,1.926630715901379,0.6382574058729351,0.35560751942449087,-4.330281810715107,17.6
,,0.02663081311549766,0.009941498214178057,0.00025294660045182724,0.03682525793012754,1.9385098964439262,0.7231670492580696,0.26996411628782385,-4.611037543899202,17.7
,,0.02663081311549766,0.009941498214178057,0.00025294660045182724,0.03682525793012754,1.9491026677402485,0.7231670492580696,0.26996411628782385,-4.611037543899202,17.8
,,0.02663081311549766,0.009941498214178057,0.00025294660045182724,0.03682525793012754,1.9596954390365704,0.7231670492580696,0.26996411628782385,-4.611037543899202,17.9
,,0.02663081311549766,0.009941498214178057,0.00025294660045182724,0.03682525793012754,1.9702882103328925,0.7231670492580696,0.26996411628782385,-4.611037543899202,18.0
,,0.02663081311549766,0.009941498214178057,0.00025294660045182724,0.03682525793012754,1.9808809816292146,0.7231670492580696,0.26996411628782385,-4.611037543899202,18.1
,,0.027798391067547952,0.010477697797508205,0.00035209464260124046,0.0386281835076574,1.991188736945031,0.7196401317198201,0.2712449006418118,-4.558506300031792,18.2
,,0.027798391067547952,0.010477697797508205,0.00035209464260124046,0.0386281835076574,2.0097863439830035,0.7196401317198201,0.2712449006418118,-4.558506300031792,18.3
,,0.029397294196161813,0.010503314606897634,0.00036123585004149467,0.040261844653100946,2.030003481195684,0.7301526904554695,0.26087514611898627,-4.556064394786718,18.4
,,0.029397294196161813,0.010503314606897634,0.00036123585004149467,0.040261844653100946,2.041156974381655,0.7301526904554695,0.26087514611898627,-4.556064394786718,18.5
,,0.029397294196161813,0.010503314606897634,0.00036123585004149467,0.040261844653100946,2.0523104675676254,0.7301526904554695,0.26087514611898627,-4.556064394786718,18.6
,,0.029397294196161813,0.010503314606897634,0.00036123585004149467,0.040261844653100946,2.0634639607535963,0.7301526904554695,0.26087514611898627,-4.556064394786718,18.7
,,0.029397294196161813,0.010503314606897634,0.00036123585004149467,0.040261844653100946,2.074617453939567,0.7301526904554695,0.26087514611898627,-4.556064394786718,18.8
,,0.029397294196161813,0.010503314606897634,0.00036123585004149467,0.040261844653100946,2.085770947125538,0.7301526904554695,0.26087514611898627,-4.556064394786718,18.9
,,0.0305920484617329,0.011126008693108163,0.0003600333655449466,0.042078090520386004,2.096377095643271,0.7270303400985284,0.2644133456511728,-4.498469785996592,19.0
,,0.03276312919838121,0.011329068380047958,0.00037242240900946217,0.04446461998743863,2.117169691110326,0.7368359205057162,0.2547883774391516,-4.480383433267536,19.1
,,0.03276312919838121,0.011329068380047958,0.00037242240900946217,0.04446461998743863,2.1287920367052453,0.7368359205057162,0.2547883774391516,-4.480383433267536,19.2
,,0.03276312919838121,0.011329068380047958,0.00037242240900946217,0.04446461998743863,2.140414382300165,0.7368359205057162,0.2547883774391516,-4.480383433267536,19.3
,,0.03276312919838121,0.011329068380047958,0.00037242240900946217,0.04446461998743863,2.1520367278950845,0.7368359205057162,0.2547883774391516,-4.480383433267536,19.4
,,0.03276312919838121,0.011329068380047958,0.00037242240900946217,0.04446461998743863,2.163659073490004,0.7368359205057162,0.2547883774391516,-4.480383433267536,19.5
,,0.03276312919838121,0.011329068380047958,0.00037242240900946217,0.04446461998743863,2.1752814190849237,0.7368359205057162,0.2547883774391516,-4.480383433267536,19.6
,,0.03276312919838121,0.011329068380047958,0.00037242240900946217,0.04446461998743863,2.186903764679843,0.7368359205057162,0.2547883774391516,-4.480383433267536,19.7
,,0.02916778225646597,0.012736871890382912,0.00018674209585012693,0.04209139624269901,2.190738653996763,0.6929630485119697,0.3026003655697735,-4.363254193493487,19.8
,,0.03615857769564768,0.012240816161938953,0.00026177468249134837,0.04866116854007799,2.202587598553613,0.7430684215046541,0.2515520389087503,-4.402979324223989,19.9
,,0.03615857769564768,0.012240816161938953,0.00026177468249134837,0.04866116854007799,2.2144365431104633,0.7430684215046541,0.2515520389087503,-4.402979324223989,20.0
,,0.03615857769564768,0.012240816161938953,0.00026177468249134837,0.04866116854007799,2.2262854876673135,0.7430684215046541,0.2515520389087503,-4.402979324223989,20.1
,,0.03615857769564768,0.012240816161938953,0.00026177468249134837,0.04866116854007799,2.2381344322241636,0.7430684215046541,0.2515520389087503,-4.402979324223989,20.2
,,0.03615857769564768,0.012240816161938953,0.00026177468249134837,0.04866116854007799,2.2499833767810133,0.7430684215046541,0.2515520389087503,-4.402979324223989,20.3
,,0.03615857769564768,0.012240816161938953,0.00026177468249134837,0.04866116854007799,2.260810391531365,0.7430684215046541,0.2515520389087503,-4.402979324223989,20.4
,,0.0353465926580764,0.012403635948342229,0.0003552451609702147,0.04810547376738884,2.2710326820777444,0.7347727792681712,0.25784250682820986,-4.389765627711707,20.5
,,0.03612370195780001,0.01219766264383106,0.00024349818456911342,0.04856486278620018,2.2825731782199217,0.7438238241674728,0.2511623001495858,-4.406510932169202,20.6
,,0.03612370195780001,0.01219766264383106,0.00024349818456911342,0.04856486278620018,2.2941136743620985,0.7438238241674728,0.2511623001495858,-4.406510932169202,20.7
,,0.03612370195780001,0.01219766264383106,0.00024349818456911342,0.04856486278620018,2.3056541705042752,0.7438238241674728,0.2511623001495858,-4.406510932169202,20.8
,,0.03612370195780001,0.01219766264383106,0.00024349818456911342,0.04856486278620018,2.3171946666464525,0.7438238241674728,0.2511623001495858,-4.406510932169202,20.9
,,0.03612370195780001,0.01219766264383106,0.00024349818456911342,0.04856486278620018,2.3287351627886292,0.7438238241674728,0.2511623001495858,-4.406510932169202,21.0
,,0.03612370195780001,0.01219766264383106,0.00024349818456911342,0.04856486278620018,2.3482022103802205,0.7438238241674728,0.2511623001495858,-4.406510932169202,21.1
,,0.03612370195780001,0.01219766264383106,0.00024349818456911342,0.04856486278620018,2.367669257971812,0.7438238241674728,0.2511623001495858,-4.406510932169202,21.2
,,0.035674013858621706,0.012553798680607959,0.0003362065050969359,0.0485640190443266,2.385804796740783,0.7345770502655558,0.2584999950096703,-4.377731975490036,21.3
,,0.035674013858621706,0.012553798680607959,0.0003362065050969359,0.0485640190443266,2.395664261437662,0.7345770502655558,0.2584999950096703,-4.377731975490036,21.4
,,0.03179241740022203,0.012272869998494898,0.00012564435538855122,0.04419093175410548,2.4027323080488205,0.719433063261184,0.2777237209386224,-4.400364143902709,21.5
,,0.03179241740022203,0.012272869998494898,0.00012564435538855122,0.04419093175410548,2.4098003546599793,0.719433063261184,0.2777237209386224,-4.400364143902709,21.6
,,0.03179241740022203,0.012272869998494898,0.00012564435538855122,0.04419093175410548,2.41601513791867,0.719433063261184,0.2777237209386224,-4.400364143902709,21.7
,,0.03179241740022203,0.012272869998494898,0.00012564435538855122,0.04419093175410548,2.4222299211773612,0.719433063261184,0.2777237209386224,-4.400364143902709,21.8
,,0.03179241740022203,0.012272869998494898,0.00012564435538855122,0.04419093175410548,2.4284447044360524,0.719433063261184,0.2777237209386224,-4.400364143902709,21.9
,,0.03179241740022203,0.012272869998494898,0.00012564435538855122,0.04419093175410548,2.434659487694743,0.719433063261184,0.2777237209386224,-4.400364143902709,22.0
,,0.031211837976689784,0.012642816667383533,0.00016359690256638349,0.0440182515466397,2.4395218010314386,0.7090658279241093,0.28721760231634347,-4.370666077478581,22.1
,,0.036642987400228325,0.012724731927266848,0.0003242559950491136,0.04969197532254429,2.44945887784122,0.7374025114192655,0.25607216949361,-4.364207783386956,22.2
,,0.036642987400228325,0.012724731927266848,0.0003242559950491136,0.04969197532254429,2.4585100927400743,0.7374025114192655,0.25607216949361,-4.364207783386956,22.3
,,0.036642987400228325,0.012724731927266848,0.0003242559950491136,0.04969197532254429,2.4675613076389284,0.7374025114192655,0.25607216949361,-4.364207783386956,22.4
,,0.036642987400228325,0.012724731927266848,0.0003242559950491136,0.04969197532254429,2.476612522537782,0.7374025114192655,0.25607216949361,-4.364207783386956,22.5
,,0.036642987400228325,0.012724731927266848,0.0003242559950491136,0.04969197532254429,2.485663737436636,0.7374025114192655,0.25607216949361,-4.364207783386956,22.6
,,0.036642987400228325,0.012724731927266848,0.0003242559950491136,0.04969197532254429,2.49471495233549,0.7374025114192655,0.25607216949361,-4.364207783386956,22.7
,,0.036642987400228325,0.012724731927266848,0.0003242559950491136,0.04969197532254429,2.5037661672343443,0.7374025114192655,0.25607216949361,-4.364207783386956,22.8
,,0.03336039449665042,0.013617263182367889,0.0001824876255161693,0.047160145304534475,2.5166056887293777,0.7073853204061862,0.2887451489904248,-4.296416939541131,22.9
,,0.03806419134555162,0.01351818128707505,0.00033048180689501254,0.05191285443952168,2.5335109557565985,0.7332324865683564,0.26040142529291455,-4.303719737602727,23.0
,,0.03806419134555162,0.01351818128707505,0.00033048180689501254,0.05191285443952168,2.5504162227838187,0.7332324865683564,0.26040142529291455,-4.303719737602727,23.1
,,0.03806419134555162,0.01351818128707505,0.00033048180689501254,0.05191285443952168,2.56732148981104,0.7332324865683564,0.26040142529291455,-4.303719737602727,23.2
,,0.03806419134555162,0.01351818128707505,0.00033048180689501254,0.05191285443952168,2.58422675683826,0.7332324865683564,0.26040142529291455,-4.303719737602727,23.3
,,0.03806419134555162,0.01351818128707505,0.00033048180689501254,0.05191285443952168,2.601132023865481,0.7332324865683564,0.26040142529291455,-4.303719737602727,23.4
,,0.03806419134555162,0.01351818128707505,0.00033048180689501254,0.05191285443952168,2.618037290892701,0.7332324865683564,0.26040142529291455,-4.303719737602727,23.5
,,0.03806419134555162,0.01351818128707505,0.00033048180689501254,0.05191285443952168,2.62484567200595,0.7332324865683564,0.26040142529291455,-4.303719737602727,23.6
,,0.0381414199832516,0.015130115376430485,0.00021031997275297836,0.05348185533243506,2.6283775714008346,0.7131656100217606,0.2829018418000646,-4.19106812553808,23.7
,,0.0381414199832516,0.015130115376430485,0.00021031997275297836,0.05348185533243506,2.6319094707957187,0.7131656100217606,0.2829018418000646,-4.19106812553808,23.8
,,0.0381414199832516,0.015130115376430485,0.00021031997275297836,0.05348185533243506,2.6354413701906028,0.7131656100217606,0.2829018418000646,-4.19106812553808,23.9
,,0.0381414199832516,0.015130115376430485,0.00021031997275297836,0.05348185533243506,2.6389732695854873,0.7131656100217606,0.2829018418000646,-4.19106812553808,24.0
,,0.0381414199832516,0.015130115376430485,0.00021031997275297836,0.05348185533243506,2.6425051689803714,0.7131656100217606,0.2829018418000646,-4.19106812553808,24.1
,,0.0381414199832516,0.015130115376430485,0.00021031997275297836,0.05348185533243506,2.6460370683752563,0.7131656100217606,0.2829018418000646,-4.19106812553808,24.2
,,0.0381414199832516,0.015130115376430485,0.00021031997275297836,0.05348185533243506,2.6483659553362333,0.7131656100217606,0.2829018418000646,-4.19106812553808,24.3
,,0.0416632276866981,0.014634853553816609,0.00027478395124516533,0.05657286519175987,2.654316569580161,0.7364524944154068,0.258690336863975,-4.224349365460502,24.4
,,0.04276016755254433,0.01714763806920399,0.0002601313798078422,0.06016793700155616,2.6563427172962784,0.710680300563378,0.2849962774818171,-4.065894836767026,24.5
,,0.04276016755254433,0.01714763806920399,0.0002601313798078422,0.06016793700155616,2.658368865012396,0.710680300563378,0.2849962774818171,-4.065894836767026,24.6
,,0.04276016755254433,0.01714763806920399,0.0002601313798078422,0.06016793700155616,2.660395012728514,0.710680300563378,0.2849962774818171,-4.065894836767026,24.7
,,0.04276016755254433,0.01714763806920399,0.0002601313798078422,0.06016793700155616,2.6624211604446315,0.710680300563378,0.2849962774818171,-4.065894836767026,24.8
,,0.04276016755254433,0.01714763806920399,0.0002601313798078422,0.06016793700155616,2.6644473081607494,0.710680300563378,0.2849962774818171,-4.065894836767026,24.9
,,0.044931666673081405,0.016053878017034947,0.00030813062575887526,0.06129367531587523,2.6789780843451427,0.7330555141542309,0.2619173664216045,-4.131804837592703,25.0
,,0.044931666673081405,0.016053878017034947,0.00030813062575887526,0.06129367531587523,2.693508860529537,0.7330555141542309,0.2619173664216045,-4.131804837592703,25.1
,,0.044931666673081405,0.016053878017034947,0.00030813062575887526,0.06129367531587523,2.6976120574870714,0.7330555141542309,0.2619173664216045,-4.131804837592703,25.2
,,0.046453055545636696,0.01751686553113971,0.0004264267396731804,0.06439634781644958,2.7000830324273606,0.7213616473723468,0.2720164438683455,-4.044591117519815,25.3
,,0.046453055545636696,0.01751686553113971,0.0004264267396731804,0.06439634781644958,2.70255400736765,0.7213616473723468,0.2720164438683455,-4.044591117519815,25.4
,,0.046453055545636696,0.01751686553113971,0.0004264267396731804,0.06439634781644958,2.7050249823079398,0.7213616473723468,0.2720164438683455,-4.044591117519815,25.5
,,0.048819744974178625,0.017561441994650748,0.00044090458796143544,0.06682209155679081,2.7089185668889395,0.7305928898182971,0.26280892419725616,-4.042049576000279,25.6
,,0.048819744974178625,0.017561441994650748,0.00044090458796143544,0.06682209155679081,2.7129080145492988,0.7305928898182971,0.26280892419725616,-4.042049576000279,25.7
,,0.048819744974178625,0.017561441994650748,0.00044090458796143544,0.06682209155679081,2.716897462209658,0.7305928898182971,0.26280892419725616,-4.042049576000279,25.8
,,0.048819744974178625,0.017561441994650748,0.00044090458796143544,0.06682209155679081,2.7208869098700172,0.7305928898182971,0.26280892419725616,-4.042049576000279,25.9
,,0.048819744974178625,0.017561441994650748,0.00044090458796143544,0.06682209155679081,2.7234114795112623,0.7305928898182971,0.26280892419725616,-4.042049576000279,26.0
,,0.049300375922323336,0.019657242307433685,0.000353990924620473,0.0693116091543775,2.7229145068819602,0.7112859811480756,0.28360678026751884,-3.929309443306559,26.1
,,0.052492186324917665,0.018858012605940163,0.000491710212197369,0.07184190914305519,2.72547917359055,0.7306624636100999,0.26249319973372576,-3.9708173834724327,26.2
,,0.052492186324917665,0.018858012605940163,0.000491710212197369,0.07184190914305519,2.7280438402991396,0.7306624636100999,0.26249319973372576,-3.9708173834724327,26.3
,,0.052492186324917665,0.018858012605940163,0.000491710212197369,0.07184190914305519,2.7306085070077293,0.7306624636100999,0.26249319973372576,-3.9708173834724327,26.4
,,0.052492186324917665,0.018858012605940163,0.000491710212197369,0.07184190914305519,2.7415941905663552,0.7306624636100999,0.26249319973372576,-3.9708173834724327,26.5
,,0.052492186324917665,0.018858012605940163,0.000491710212197369,0.07184190914305519,2.752579874124981,0.7306624636100999,0.26249319973372576,-3.9708173834724327,26.6
,,0.052492186324917665,0.018858012605940163,0.000491710212197369,0.07184190914305519,2.753744270456297,0.7306624636100999,0.26249319973372576,-3.9708173834724327,26.7
,,0.052492186324917665,0.018858012605940163,0.000491710212197369,0.07184190914305519,2.7549086667876135,0.7306624636100999,0.26249319973372576,-3.9708173834724327,26.8
,,0.05228295669025885,0.01875446500135694,0.0005123246799255186,0.0715497463715413,2.756119866853243,0.7307217613150652,0.2621178404179008,-3.9763234215092726,26.9
,,0.05228295669025885,0.01875446500135694,0.0005123246799255186,0.0715497463715413,2.7573310669188724,0.7307217613150652,0.2621178404179008,-3.9763234215092726,27.0
,,0.05228295669025885,0.01875446500135694,0.0005123246799255186,0.0715497463715413,2.758542266984502,0.7307217613150652,0.2621178404179008,-3.9763234215092726,27.1
,,0.05228295669025885,0.01875446500135694,0.0005123246799255186,0.0715497463715413,2.760038483030637,0.7307217613150652,0.2621178404179008,-3.9763234215092726,27.2
,,0.05228295669025885,0.01875446500135694,0.0005123246799255186,0.0715497463715413,2.7615346990767717,0.7307217613150652,0.2621178404179008,-3.9763234215092726,27.3
,,0.05228295669025885,0.01875446500135694,0.0005123246799255186,0.0715497463715413,2.761411384948199,0.7307217613150652,0.2621178404179008,-3.9763234215092726,27.4
,,0.05228295669025885,0.01875446500135694,0.0005123246799255186,0.0715497463715413,2.7612880708196257,0.7307217613150652,0.2621178404179008,-3.9763234215092726,27.5
,,0.05159448721773161,0.01843148565066793,0.0005283961171552897,0.07055436898555482,2.761292508859261,0.7312727469548339,0.2612380482694354,-3.9936949000952144,27.6
,,0.05159448721773161,0.01843148565066793,0.0005283961171552897,0.07055436898555482,2.761296946898896,0.7312727469548339,0.2612380482694354,-3.9936949000952144,27.7
,,0.05159448721773161,0.01843148565066793,0.0005283961171552897,0.07055436898555482,2.7613013849385313,0.7312727469548339,0.2612380482694354,-3.9936949000952144,27.8
,,0.05159448721773161,0.01843148565066793,0.0005283961171552897,0.07055436898555482,2.761305822978166,0.7312727469548339,0.2612380482694354,-3.9936949000952144,27.9
,,0.05159448721773161,0.01843148565066793,0.0005283961171552897,0.07055436898555482,2.761857605686039,0.7312727469548339,0.2612380482694354,-3.9936949000952144,28.0
,,0.05159448721773161,0.01843148565066793,0.0005283961171552897,0.07055436898555482,2.7608276673984116,0.7312727469548339,0.2612380482694354,-3.9936949000952144,28.1
,,0.05159448721773161,0.01843148565066793,0.0005283961171552897,0.07055436898555482,2.759797729110784,0.7312727469548339,0.2612380482694354,-3.9936949000952144,28.2
,,0.049549059800657956,0.017541096862186325,0.0005299716918888575,0.06762012835473313,2.7590509358520983,0.7327560743559239,0.259406441380387,-4.043208759091026,28.3
,,0.049549059800657956,0.017541096862186325,0.0005299716918888575,0.06762012835473313,2.758304142593413,0.7327560743559239,0.259406441380387,-4.043208759091026,28.4
,,0.049549059800657956,0.017541096862186325,0.0005299716918888575,0.06762012835473313,2.7575573493347267,0.7327560743559239,0.259406441380387,-4.043208759091026,28.5
,,0.049549059800657956,0.017541096862186325,0.0005299716918888575,0.06762012835473313,2.756810556076041,0.7327560743559239,0.259406441380387,-4.043208759091026,28.6
,,0.049549059800657956,0.017541096862186325,0.0005299716918888575,0.06762012835473313,2.756063762817355,0.7327560743559239,0.259406441380387,-4.043208759091026,28.7
,,0.049549059800657956,0.017541096862186325,0.0005299716918888575,0.06762012835473313,2.76200503070265,0.7327560743559239,0.259406441380387,-4.043208759091026,28.8
,,0.046061206389462234,0.016111670132265297,0.0005162139492422273,0.06268909047096975,2.760948775566266,0.7347563354869918,0.2570091544034498,-4.128211416634996,28.9
,,0.046061206389462234,0.016111670132265297,0.0005162139492422273,0.06268909047096975,2.759892520429882,0.7347563354869918,0.2570091544034498,-4.128211416634996,29.0
,,0.046061206389462234,0.016111670132265297,0.0005162139492422273,0.06268909047096975,2.758836265293498,0.7347563354869918,0.2570091544034498,-4.128211416634996,29.1
,,0.046061206389462234,0.016111670132265297,0.0005162139492422273,0.06268909047096975,2.757780010157114,0.7347563354869918,0.2570091544034498,-4.128211416634996,29.2
,,0.046061206389462234,0.016111670132265297,0.0005162139492422273,0.06268909047096975,2.75672375502073,0.7347563354869918,0.2570091544034498,-4.128211416634996,29.3
,,0.046061206389462234,0.016111670132265297,0.0005162139492422273,0.06268909047096975,2.7556674998843462,0.7347563354869918,0.2570091544034498,-4.128211416634996,29.4
,,0.04494316662082436,0.014696682891646815,0.00038161073017707907,0.06002146024264825,2.7579825249933974,0.7487849585653698,0.24485713663467465,-4.220133464290526,29.5
,,0.04309558670142974,0.0148079730838328,0.0005088460328775577,0.0584124058181401,2.7574132978880814,0.737781402731512,0.25350733078749776,-4.212589521390011,29.6
,,0.04309558670142974,0.0148079730838328,0.0005088460328775577,0.0584124058181401,2.7568440707827646,0.737781402731512,0.25350733078749776,-4.212589521390011,29.7
,,0.04309558670142974,0.0148079730838328,0.0005088460328775577,0.0584124058181401,2.7562748436774482,0.737781402731512,0.25350733078749776,-4.212589521390011,29.8
,,0.04309558670142974,0.0148079730838328,0.0005088460328775577,0.0584124058181401,2.7557056165721323,0.737781402731512,0.25350733078749776,-4.212589521390011,29.9
,,0.04309558670142974,0.0148079730838328,0.0005088460328775577,0.0584124058181401,2.755136389466816,0.737781402731512,0.25350733078749776,-4.212589521390011,30.0
,,0.04309558670142974,0.0148079730838328,0.0005088460328775577,0.0584124058181401,2.7545671623614996,0.737781402731512,0.25350733078749776,-4.212589521390011,30.1
,,0.0420694010923528,0.01341151693186834,0.0003728528986805177,0.055853770922901655,2.7565147731978663,0.7532061022419371,0.24011837894313473,-4.3116414686328035,30.2
,,0.0420694010923528,0.01341151693186834,0.0003728528986805177,0.055853770922901655,2.7597938928568535,0.7532061022419371,0.24011837894313473,-4.3116414686328035,30.3
,,0.040658885506190984,0.013584684075721531,0.0005082524726400627,0.054751822054552576,2.761475046035838,0.7426033322814364,0.24811382646199942,-4.298812291749906,30.4
,,0.040658885506190984,0.013584684075721531,0.0005082524726400627,0.054751822054552576,2.765947617300543,0.7426033322814364,0.24811382646199942,-4.298812291749906,30.5
,,0.040658885506190984,0.013584684075721531,0.0005082524726400627,0.054751822054552576,2.7704201885652475,0.7426033322814364,0.24811382646199942,-4.298812291749906,30.6
,,0.040658885506190984,0.013584684075721531,0.0005082524726400627,0.054751822054552576,2.7748927598299526,0.7426033322814364,0.24811382646199942,-4.298812291749906,30.7
,,0.03988165845404741,0.012284141893005841,0.0003716999614525768,0.052537500308505826,2.7821831362235683,0.7591084124645833,0.23381664184386478,-4.399446125427793,30.8
,,0.03988165845404741,0.012284141893005841,0.0003716999614525768,0.052537500308505826,2.789473512617184,0.7591084124645833,0.23381664184386478,-4.399446125427793,30.9
,,0.03988165845404741,0.012284141893005841,0.0003716999614525768,0.052537500308505826,2.7967638890107995,0.7591084124645833,0.23381664184386478,-4.399446125427793,31.0
,,0.039008570286701384,0.012506651518928071,0.000518686161572846,0.052033907967202295,2.8039892786916942,0.7496759672805863,0.24035579889196848,-4.381494654686085,31.1
,,0.039008570286701384,0.012506651518928071,0.000518686161572846,0.052033907967202295,2.806648825077951,0.7496759672805863,0.24035579889196848,-4.381494654686085,31.2
,,0.039008570286701384,0.012506651518928071,0.000518686161572846,0.052033907967202295,2.809308371464208,0.7496759672805863,0.24035579889196848,-4.381494654686085,31.3
,,0.039008570286701384,0.012506651518928071,0.000518686161572846,0.052033907967202295,2.8119679178504646,0.7496759672805863,0.24035579889196848,-4.381494654686085,31.4
,,0.039008570286701384,0.012506651518928071,0.000518686161572846,0.052033907967202295,2.8146274642367217,0.7496759672805863,0.24035579889196848,-4.381494654686085,31.5
,,0.03854561255192358,0.011346700230888625,0.00038105390057843074,0.05027336668339064,2.8203764652532892,0.7667203351363837,0.22570002725990815,-4.478828305880533,31.6
,,0.03854561255192358,0.011346700230888625,0.00038105390057843074,0.05027336668339064,2.826125466269857,0.7667203351363837,0.22570002725990815,-4.478828305880533,31.7
,,0.03854561255192358,0.011346700230888625,0.00038105390057843074,0.05027336668339064,2.831874467286425,0.7667203351363837,0.22570002725990815,-4.478828305880533,31.8
,,0.03835188176501826,0.011630399566692705,0.00054469038467585,0.050526971716386815,2.841293295172015,0.7590378061897592,0.230182003227412,-4.454132956490343,31.9
,,0.03835188176501826,0.011630399566692705,0.00054469038467585,0.050526971716386815,2.8466463775254183,0.7590378061897592,0.230182003227412,-4.454132956490343,32.0
,,0.03835188176501826,0.011630399566692705,0.00054469038467585,0.050526971716386815,2.851999459878821,0.7590378061897592,0.230182003227412,-4.454132956490343,32.1
,,0.03835188176501826,0.011630399566692705,0.00054469038467585,0.050526971716386815,2.8573525422322246,0.7590378061897592,0.230182003227412,-4.454132956490343,32.2
,,0.03808368932176095,0.010637555361000408,0.0004005620448263805,0.04912180672758774,2.8658451992013525,0.775290891333857,0.2165546438467247,-4.543364580771824,32.3
,,0.03808368932176095,0.010637555361000408,0.0004005620448263805,0.04912180672758774,2.8743378561704795,0.775290891333857,0.2165546438467247,-4.543364580771824,32.4
,,0.03808368932176095,0.010637555361000408,0.0004005620448263805,0.04912180672758774,2.882830513139607,0.775290891333857,0.2165546438467247,-4.543364580771824,32.5
,,0.03558866016217648,0.006636831606556437,0.0003612073965574607,0.042586699165290384,2.9111251702935887,0.835675477548691,0.15584282737662095,-5.015120597061808,32.6
,,0.03558866016217648,0.006636831606556437,0.0003612073965574607,0.042586699165290384,2.9426963091659344,0.835675477548691,0.15584282737662095,-5.015120597061808,32.7
,,0.03558866016217648,0.006636831606556437,0.0003612073965574607,0.042586699165290384,2.974267448038281,0.835675477548691,0.15584282737662095,-5.015120597061808,32.8
,,0.03558866016217648,0.006636831606556437,0.0003612073965574607,0.042586699165290384,3.0058385869106266,0.835675477548691,0.15584282737662095,-5.015120597061808,32.9
,,0.03594405070466712,0.005698474435052584,0.0002558362882450695,0.04189836142796478,3.0479137848752917,0.8578867879228449,0.1360070952858117,-5.167556782937636,33.0
,,0.03594405070466712,0.005698474435052584,0.0002558362882450695,0.04189836142796478,3.089988982839956,0.8578867879228449,0.1360070952858117,-5.167556782937636,33.1
,,0.03594405070466712,0.005698474435052584,0.0002558362882450695,0.04189836142796478,3.1320641808046212,0.8578867879228449,0.1360070952858117,-5.167556782937636,33.2
,,0.039701970137391754,0.01043882783960542,0.000635066025984533,0.0507758640029817,3.146313108905272,0.7819063430424412,0.20558641481693787,-4.562222978730919,33.3
,,0.039701970137391754,0.01043882783960542,0.000635066025984533,0.0507758640029817,3.156940309722973,0.7819063430424412,0.20558641481693787,-4.562222978730919,33.4
,,0.039701970137391754,0.01043882783960542,0.000635066025984533,0.0507758640029817,3.171491977068483,0.7819063430424412,0.20558641481693787,-4.562222978730919,33.5
,,0.039701970137391754,0.01043882783960542,0.000635066025984533,0.0507758640029817,3.1860436444139943,0.7819063430424412,0.20558641481693787,-4.562222978730919,33.6
,,0.03800688785441819,0.005073146663221717,0.000270458852276263,0.04335049336991617,3.241578424414793,0.8767348396729836,0.117026272802291,-5.2837940102651775,33.7
,,0.03800688785441819,0.005073146663221717,0.000270458852276263,0.04335049336991617,3.2971132044155924,0.8767348396729836,0.117026272802291,-5.2837940102651775,33.8
,,0.03800688785441819,0.005073146663221717,0.000270458852276263,0.04335049336991617,3.3526479844163917,0.8767348396729836,0.117026272802291,-5.2837940102651775,33.9
,,0.0418864601350144,0.010098493458184777,0.0007093562424485342,0.05269430983564771,3.3676367447113122,0.7948953172677897,0.1916429589775772,-4.595369028816727,34.0
,,0.041857912712038106,0.010093644403496888,0.0007108639219619969,0.05266242103749699,3.382616220232885,0.7948345687000261,0.19166692690239126,-4.595849320186994,34.1
,,0.041857912712038106,0.010093644403496888,0.0007108639219619969,0.05266242103749699,3.397595695754458,0.7948345687000261,0.19166692690239126,-4.595849320186994,34.2
,,0.041857912712038106,0.010093644403496888,0.0007108639219619969,0.05266242103749699,3.4142073932932755,0.7948345687000261,0.19166692690239126,-4.595849320186994,34.3
,,0.04224553532009355,0.009438901281728636,0.0005471888815623153,0.0522316254833845,3.434471604459644,0.8088114227563596,0.1807123786475162,-4.6629156952459185,34.4
,,0.04224553532009355,0.009438901281728636,0.0005471888815623153,0.0522316254833845,3.454735815626013,0.8088114227563596,0.1807123786475162,-4.6629156952459185,34.5
,,0.039316649528949095,0.0043990806860889345,0.00040944877033705275,0.04412517898537508,3.5231528166251223,0.8910252702199863,0.09969547517409443,-5.426359694867663,34.6
,,0.039316649528949095,0.0043990806860889345,0.00040944877033705275,0.04412517898537508,3.5915698176242326,0.8910252702199863,0.09969547517409443,-5.426359694867663,34.7
,,0.039316649528949095,0.0043990806860889345,0.00040944877033705275,0.04412517898537508,3.659986818623343,0.8910252702199863,0.09969547517409443,-5.426359694867663,34.8
,,0.039316649528949095,0.0043990806860889345,0.00040944877033705275,0.04412517898537508,3.7284038196224527,0.8910252702199863,0.09969547517409443,-5.426359694867663,34.9
,,0.039316649528949095,0.0043990806860889345,0.00040944877033705275,0.04412517898537508,3.796820820621564,0.8910252702199863,0.09969547517409443,-5.426359694867663,35.0
,,0.039316649528949095,0.0043990806860889345,0.00040944877033705275,0.04412517898537508,3.8682593638912204,0.8910252702199863,0.09969547517409443,-5.426359694867663,35.1
,,0.04300917169778772,0.008842268961106152,0.0005963989900309896,0.05244783964892487,3.891375967239758,0.8200370498705445,0.1685916716550099,-4.728211765458257,35.2
,,0.04411100217346762,0.008929137150569096,0.0008292820957937733,0.05386942141983049,3.9153378680329007,0.8188504908877564,0.16575520796817186,-4.71843551243857,35.3
,,0.04411100217346762,0.008929137150569096,0.0008292820957937733,0.05386942141983049,3.939299768826043,0.8188504908877564,0.16575520796817186,-4.71843551243857,35.4
,,0.04411100217346762,0.008929137150569096,0.0008292820957937733,0.05386942141983049,3.9632616696191856,0.8188504908877564,0.16575520796817186,-4.71843551243857,35.5
,,0.04411100217346762,0.008929137150569096,0.0008292820957937733,0.05386942141983049,3.987223570412328,0.8188504908877564,0.16575520796817186,-4.71843551243857,35.6
,,0.04411100217346762,0.008929137150569096,0.0008292820957937733,0.05386942141983049,4.01118547120547,0.8188504908877564,0.16575520796817186,-4.71843551243857,35.7
,,0.04411100217346762,0.008929137150569096,0.0008292820957937733,0.05386942141983049,4.0351473719986135,0.8188504908877564,0.16575520796817186,-4.71843551243857,35.8
,,0.04189540363756391,0.007964013215004,0.0006125232402645773,0.050471940092832485,4.06262324887997,0.8300731765116648,0.15779090719231076,-4.832822233439022,35.9
,,0.04189540363756391,0.007964013215004,0.0006125232402645773,0.050471940092832485,4.090099125761327,0.8300731765116648,0.15779090719231076,-4.832822233439022,36.0
,,0.04214062943429185,0.00792039403662961,0.0008155723199987468,0.050876595790920215,4.118240918424536,0.8282910595565546,0.15567853771464674,-4.838314322293699,36.1
,,0.04214062943429185,0.00792039403662961,0.0008155723199987468,0.050876595790920215,4.146382711087744,0.8282910595565546,0.15567853771464674,-4.838314322293699,36.2
,,0.04214062943429185,0.00792039403662961,0.0008155723199987468,0.050876595790920215,4.174524503750953,0.8282910595565546,0.15567853771464674,-4.838314322293699,36.3
,,0.04214062943429185,0.00792039403662961,0.0008155723199987468,0.050876595790920215,4.202666296414161,0.8282910595565546,0.15567853771464674,-4.838314322293699,36.4
,,0.04214062943429185,0.00792039403662961,0.0008155723199987468,0.050876595790920215,4.230808089077369,0.8282910595565546,0.15567853771464674,-4.838314322293699,36.5
,,0.04214062943429185,0.00792039403662961,0.0008155723199987468,0.050876595790920215,4.25882212957237,0.8282910595565546,0.15567853771464674,-4.838314322293699,36.6
,,0.030959681402918146,0.0023275218162826876,0.00034834312036998295,0.03363554633957082,4.375514421100726,0.9204453256195625,0.06919827591872517,-6.062951175588371,36.7
,,0.030959681402918146,0.0023275218162826876,0.00034834312036998295,0.03363554633957082,4.492206712629082,0.9204453256195625,0.06919827591872517,-6.062951175588371,36.8
,,0.030959681402918146,0.0023275218162826876,0.00034834312036998295,0.03363554633957082,4.608899004157439,0.9204453256195625,0.06919827591872517,-6.062951175588371,36.9
,,0.04015557192277117,0.007188172987249361,0.0007939379030981043,0.048137682813118636,4.6398665699548856,0.8341816551217095,0.14932528047009394,-4.935318244233358,37.0
,,0.04015557192277117,0.007188172987249361,0.0007939379030981043,0.048137682813118636,4.670834135752332,0.8341816551217095,0.14932528047009394,-4.935318244233358,37.1
,,0.04015557192277117,0.007188172987249361,0.0007939379030981043,0.048137682813118636,4.701801701549779,0.8341816551217095,0.14932528047009394,-4.935318244233358,37.2
,,0.04015557192277117,0.007188172987249361,0.0007939379030981043,0.048137682813118636,4.732486122318283,0.8341816551217095,0.14932528047009394,-4.935318244233358,37.3
,,0.02977168210212653,0.0022382114801072577,0.00035631233148737505,0.03236620591372116,4.848895109415447,0.9198384939368279,0.06915272942629343,-6.102078178423964,37.4
,,0.02977168210212653,0.0022382114801072577,0.00035631233148737505,0.03236620591372116,4.965304096512611,0.9198384939368279,0.06915272942629343,-6.102078178423964,37.5
,,0.02977168210212653,0.0022382114801072577,0.00035631233148737505,0.03236620591372116,5.081713083609775,0.9198384939368279,0.06915272942629343,-6.102078178423964,37.6
,,0.02977168210212653,0.0022382114801072577,0.00035631233148737505,0.03236620591372116,5.198122070706939,0.9198384939368279,0.06915272942629343,-6.102078178423964,37.7
,,0.03913656471469673,0.006962809407552474,0.0007920428310303165,0.046891416953279516,5.229189399130796,0.8346210726302136,0.14848792934728122,-4.967172235570347,37.8
,,0.03913656471469673,0.006962809407552474,0.0007920428310303165,0.046891416953279516,5.259877494347405,0.8346210726302136,0.14848792934728122,-4.967172235570347,37.9
,,0.03913656471469673,0.006962809407552474,0.0007920428310303165,0.046891416953279516,5.290565589564015,0.8346210726302136,0.14848792934728122,-4.967172235570347,38.0
,,0.03913656471469673,0.006962809407552474,0.0007920428310303165,0.046891416953279516,5.321253684780625,0.8346210726302136,0.14848792934728122,-4.967172235570347,38.1
,,0.03913656471469673,0.006962809407552474,0.0007920428310303165,0.046891416953279516,5.351941779997234,0.8346210726302136,0.14848792934728122,-4.967172235570347,38.2
,,0.03768957176763253,0.006273958156136759,0.0007225828613824656,0.044686112785151756,5.386924351347032,0.8434291867999755,0.14040062482726093,-5.071347838643485,38.3
,,0.03768957176763253,0.006273958156136759,0.0007225828613824656,0.044686112785151756,5.42190692269683,0.8434291867999755,0.14040062482726093,-5.071347838643485,38.4
,,0.03056520771151381,0.0027488780352385653,0.00035938177942409176,0.03367346752617647,5.511474801880569,0.9076940973706846,0.08163335222610182,-5.896562437739049,38.5
,,0.038843001497230696,0.007196414522037979,0.0008102818239954616,0.046849697843264135,5.539110947224651,0.8290982287053403,0.15360642337787567,-4.934172360045147,38.6
,,0.038843001497230696,0.007196414522037979,0.0008102818239954616,0.046849697843264135,5.566747092568732,0.8290982287053403,0.15360642337787567,-4.934172360045147,38.7
,,0.038843001497230696,0.007196414522037979,0.0008102818239954616,0.046849697843264135,5.594383237912813,0.8290982287053403,0.15360642337787567,-4.934172360045147,38.8
,,0.038843001497230696,0.007196414522037979,0.0008102818239954616,0.046849697843264135,5.6220193832568945,0.8290982287053403,0.15360642337787567,-4.934172360045147,38.9
,,0.038843001497230696,0.007196414522037979,0.0008102818239954616,0.046849697843264135,5.6496555286009755,0.8290982287053403,0.15360642337787567,-4.934172360045147,39.0
,,0.03056092086356719,0.002819868035975158,0.00028757235328592275,0.033668361252828266,5.737737939854645,0.9077044360452785,0.08375424080785276,-5.87106519088056,39.1
,,0.03056092086356719,0.002819868035975158,0.00028757235328592275,0.033668361252828266,5.823303513166629,0.9077044360452785,0.08375424080785276,-5.87106519088056,39.2
,,0.03056092086356719,0.002819868035975158,0.00028757235328592275,0.033668361252828266,5.908869086478615,0.9077044360452785,0.08375424080785276,-5.87106519088056,39.3
,,0.03056092086356719,0.002819868035975158,0.00028757235328592275,0.033668361252828266,5.996032626270601,0.9077044360452785,0.08375424080785276,-5.87106519088056,39.4
,,0.03187905706047669,0.0031360756865953967,0.0003898769964515669,0.03540500974352365,6.075724579051739,0.900410910529634,0.08857717338064153,-5.764783042029029,39.5
,,0.03187905706047669,0.0031360756865953967,0.0003898769964515669,0.03540500974352365,6.155416531832875,0.900410910529634,0.08857717338064153,-5.764783042029029,39.6
,,0.03187905706047669,0.0031360756865953967,0.0003898769964515669,0.03540500974352365,6.235108484614012,0.900410910529634,0.08857717338064153,-5.764783042029029,39.7
,,0.03187905706047669,0.0031360756865953967,0.0003898769964515669,0.03540500974352365,6.311982632266237,0.900410910529634,0.08857717338064153,-5.764783042029029,39.8
,,0.03187905706047669,0.0031360756865953967,0.0003898769964515669,0.03540500974352365,6.388856779918464,0.900410910529634,0.08857717338064153,-5.764783042029029,39.9
,,0.032294998150278344,0.0032576728570969872,0.00031664443526969836,0.03586931544264503,6.462933678487929,0.9003516725017512,0.09082060298323787,-5.726742186030239,40.0
,,0.032294998150278344,0.0032576728570969872,0.00031664443526969836,0.03586931544264503,6.538428033692109,0.9003516725017512,0.09082060298323787,-5.726742186030239,40.1
,,0.032294998150278344,0.0032576728570969872,0.00031664443526969836,0.03586931544264503,6.613922388896289,0.9003516725017512,0.09082060298323787,-5.726742186030239,40.2
,,0.03828059645315292,0.008737126753481947,0.0008129636657034475,0.04783068687233832,6.627948448715134,0.8003354949788845,0.1826678085723842,-4.740173890104945,40.3
,,0.03828059645315292,0.008737126753481947,0.0008129636657034475,0.04783068687233832,6.641974508533978,0.8003354949788845,0.1826678085723842,-4.740173890104945,40.4
,,0.03828059645315292,0.008737126753481947,0.0008129636657034475,0.04783068687233832,6.656000568352821,0.8003354949788845,0.1826678085723842,-4.740173890104945,40.5
,,0.03828059645315292,0.008737126753481947,0.0008129636657034475,0.04783068687233832,6.666937173541355,0.8003354949788845,0.1826678085723842,-4.740173890104945,40.6
,,0.03692209633795264,0.008472735606461897,0.0005646892587611253,0.04595952120317566,6.677611362722928,0.8033612050641084,0.1843521295403847,-4.770901846494158,40.7
,,0.03692209633795264,0.008472735606461897,0.0005646892587611253,0.04595952120317566,6.688285551904499,0.8033612050641084,0.1843521295403847,-4.770901846494158,40.8
,,0.03692209633795264,0.008472735606461897,0.0005646892587611253,0.04595952120317566,6.70006553975249,0.8033612050641084,0.1843521295403847,-4.770901846494158,40.9
,,0.03692209633795264,0.008472735606461897,0.0005646892587611253,0.04595952120317566,6.711845527600479,0.8033612050641084,0.1843521295403847,-4.770901846494158,41.0
,,0.036362729077634076,0.004359490368976047,0.0004895475184037212,0.041211766965013844,6.7678843663235995,0.8823385104672583,0.10578266087636999,-5.435400116302642,41.1
,,0.036362729077634076,0.004359490368976047,0.0004895475184037212,0.041211766965013844,6.823923205046722,0.8823385104672583,0.10578266087636999,-5.435400116302642,41.2
,,0.036362729077634076,0.004359490368976047,0.0004895475184037212,0.041211766965013844,6.876822469154117,0.8823385104672583,0.10578266087636999,-5.435400116302642,41.3
,,0.035134559686891303,0.004389457771681365,0.0003764264247583816,0.03990044388333105,6.925980119489842,0.8805556095973469,0.11001024912194324,-5.428549573946971,41.4
,,0.035134559686891303,0.004389457771681365,0.0003764264247583816,0.03990044388333105,6.975137769825567,0.8805556095973469,0.11001024912194324,-5.428549573946971,41.5
,,0.035134559686891303,0.004389457771681365,0.0003764264247583816,0.03990044388333105,7.004493419976439,0.8805556095973469,0.11001024912194324,-5.428549573946971,41.6
,,0.035134559686891303,0.004389457771681365,0.0003764264247583816,0.03990044388333105,7.033849070127308,0.8805556095973469,0.11001024912194324,-5.428549573946971,41.7
,,0.033417134378712424,0.010253333280636134,0.0007233594579090398,0.044393827117257596,7.010480755374386,0.7527428146811405,0.23096304027931547,-4.5801524281523225,41.8
,,0.033417134378712424,0.010253333280636134,0.0007233594579090398,0.044393827117257596,6.9871124406214635,0.7527428146811405,0.23096304027931547,-4.5801524281523225,41.9
,,0.033417134378712424,0.010253333280636134,0.0007233594579090398,0.044393827117257596,6.953240066776222,0.7527428146811405,0.23096304027931547,-4.5801524281523225,42.0
,,0.030915034272690847,0.0097356031351905,0.0004792037835974742,0.04112984119147882,6.91843784042226,0.7516448733358044,0.23670412656996834,-4.631965686741688,42.1
,,0.030915034272690847,0.0097356031351905,0.0004792037835974742,0.04112984119147882,6.8836356140682975,0.7516448733358044,0.23670412656996834,-4.631965686741688,42.2
,,0.030915034272690847,0.0097356031351905,0.0004792037835974742,0.04112984119147882,6.876659657578348,0.7516448733358044,0.23670412656996834,-4.631965686741688,42.3
,,0.030915034272690847,0.0097356031351905,0.0004792037835974742,0.04112984119147882,6.8696837010884,0.7516448733358044,0.23670412656996834,-4.631965686741688,42.4
,,0.030915034272690847,0.0097356031351905,0.0004792037835974742,0.04112984119147882,6.862707744598451,0.7516448733358044,0.23670412656996834,-4.631965686741688,42.5
,,0.0299029449894012,0.010827820541794146,0.0006593936980132189,0.041390159229208565,6.851134183118694,0.722465087022401,0.2616037421318514,-4.52563648089955,42.6
,,0.0299029449894012,0.010827820541794146,0.0006593936980132189,0.041390159229208565,6.798577508983649,0.722465087022401,0.2616037421318514,-4.52563648089955,42.7
,,0.027508556420885844,0.010368644568033174,0.00043655565602590746,0.03831375664494492,6.744813891754216,0.7179811856041346,0.2706245869889452,-4.568968972319948,42.8
,,0.027508556420885844,0.010368644568033174,0.00043655565602590746,0.03831375664494492,6.691050274524783,0.7179811856041346,0.2706245869889452,-4.568968972319948,42.9
,,0.027508556420885844,0.010368644568033174,0.00043655565602590746,0.03831375664494492,6.674442045009477,0.7179811856041346,0.2706245869889452,-4.568968972319948,43.0
,,0.027508556420885844,0.010368644568033174,0.00043655565602590746,0.03831375664494492,6.65784310026752,0.7179811856041346,0.2706245869889452,-4.568968972319948,43.1
,,0.027508556420885844,0.010368644568033174,0.00043655565602590746,0.03831375664494492,6.6412441555255635,0.7179811856041346,0.2706245869889452,-4.568968972319948,43.2
,,0.027508556420885844,0.010368644568033174,0.00043655565602590746,0.03831375664494492,6.624645210783605,0.7179811856041346,0.2706245869889452,-4.568968972319948,43.3
,,0.02671205033542861,0.011405807162567567,0.000606893037400971,0.038724750535397146,6.600937274643149,0.6897927027576825,0.29453532959862083,-4.473632653056712,43.4
,,0.024715742709824948,0.011086919131946898,0.00040612557735454505,0.03620878741912639,6.575977130453072,0.6825896273115589,0.3061941567833478,-4.5019893221711795,43.5
,,0.024715742709824948,0.011086919131946898,0.00040612557735454505,0.03620878741912639,6.501441586789545,0.6825896273115589,0.3061941567833478,-4.5019893221711795,43.6
,,0.024715742709824948,0.011086919131946898,0.00040612557735454505,0.03620878741912639,6.426906043126016,0.6825896273115589,0.3061941567833478,-4.5019893221711795,43.7
,,0.024715742709824948,0.011086919131946898,0.00040612557735454505,0.03620878741912639,6.352370499462487,0.6825896273115589,0.3061941567833478,-4.5019893221711795,43.8
,,0.024715742709824948,0.011086919131946898,0.00040612557735454505,0.03620878741912639,6.277834955798958,0.6825896273115589,0.3061941567833478,-4.5019893221711795,43.9
,,0.024715742709824948,0.011086919131946898,0.00040612557735454505,0.03620878741912639,6.20329941213543,0.6825896273115589,0.3061941567833478,-4.5019893221711795,44.0
,,0.024715742709824948,0.011086919131946898,0.00040612557735454505,0.03620878741912639,6.128763868471902,0.6825896273115589,0.3061941567833478,-4.5019893221711795,44.1
,,0.02416930773608487,0.0121366153767909,0.0005672585977855908,0.03687318171066136,6.096846032573683,0.6554711748429525,0.32914478256921803,-4.411528331498401,44.2
,,0.022687763619854417,0.011989960396879553,0.00038605085985452404,0.035063774876588495,6.0629805974443345,0.6470428155470124,0.34194722157211466,-4.423685612960717,44.3
,,0.022687763619854417,0.011989960396879553,0.00038605085985452404,0.035063774876588495,6.0291151623149855,0.6470428155470124,0.34194722157211466,-4.423685612960717,44.4
,,0.022687763619854417,0.011989960396879553,0.00038605085985452404,0.035063774876588495,5.995249727185637,0.6470428155470124,0.34194722157211466,-4.423685612960717,44.5
,,0.022687763619854417,0.011989960396879553,0.00038605085985452404,0.035063774876588495,5.96138429205629,0.6470428155470124,0.34194722157211466,-4.423685612960717,44.6
,,0.022687763619854417,0.011989960396879553,0.00038605085985452404,0.035063774876588495,5.927518856926942,0.6470428155470124,0.34194722157211466,-4.423685612960717,44.7
,,0.022687763619854417,0.011989960396879553,0.00038605085985452404,0.035063774876588495,5.893653421797593,0.6470428155470124,0.34194722157211466,-4.423685612960717,44.8
,,0.022687763619854417,0.011989960396879553,0.00038605085985452404,0.035063774876588495,5.85622720684572,0.6470428155470124,0.34194722157211466,-4.423685612960717,44.9
,,0.022407303107591172,0.013038726174959495,0.000537140301590216,0.035983169584140884,5.816870872660157,0.6227162133451106,0.362356243923163,-4.339831413224579,45.0
,,0.022407303107591172,0.013038726174959495,0.000537140301590216,0.035983169584140884,5.776848622692743,0.6227162133451106,0.362356243923163,-4.339831413224579,45.1
,,0.021366941020414646,0.013071729992267515,0.0003714428939630927,0.034810113906645256,5.735893843105915,0.6138141655530663,0.37551528924391486,-4.337303396504108,45.2
,,0.021366941020414646,0.013071729992267515,0.0003714428939630927,0.034810113906645256,5.694939063519086,0.6138141655530663,0.37551528924391486,-4.337303396504108,45.3
,,0.021366941020414646,0.013071729992267515,0.0003714428939630927,0.034810113906645256,5.653984283932256,0.6138141655530663,0.37551528924391486,-4.337303396504108,45.4
,,0.021366941020414646,0.013071729992267515,0.0003714428939630927,0.034810113906645256,5.613029504345427,0.6138141655530663,0.37551528924391486,-4.337303396504108,45.5
,,0.021366941020414646,0.013071729992267515,0.0003714428939630927,0.034810113906645256,5.572074724758598,0.6138141655530663,0.37551528924391486,-4.337303396504108,45.6
,,0.021366941020414646,0.013071729992267515,0.0003714428939630927,0.034810113906645256,5.442441694138413,0.6138141655530663,0.37551528924391486,-4.337303396504108,45.7
,,0.021442549576276268,0.013979597123089674,0.0005273639917131178,0.03594951069107906,5.311689267487322,0.5964629048928134,0.3888675215420592,-4.27015636068259,45.8
,,0.021442549576276268,0.013979597123089674,0.0005273639917131178,0.03594951069107906,5.180936840836231,0.5964629048928134,0.3888675215420592,-4.27015636068259,45.9
,,0.020820550924976245,0.01414642966041213,0.000373480901117219,0.03534046148650559,5.135219610553239,0.589142021615263,0.4002898962090183,-4.2582930075500744,46.0
,,0.020820550924976245,0.01414642966041213,0.000373480901117219,0.03534046148650559,5.089502380270247,0.589142021615263,0.4002898962090183,-4.2582930075500744,46.1
,,0.020820550924976245,0.01414642966041213,0.000373480901117219,0.03534046148650559,5.043785149987254,0.589142021615263,0.4002898962090183,-4.2582930075500744,46.2
,,0.020820550924976245,0.01414642966041213,0.000373480901117219,0.03534046148650559,4.998067919704263,0.589142021615263,0.4002898962090183,-4.2582930075500744,46.3
,,0.020820550924976245,0.01414642966041213,0.000373480901117219,0.03534046148650559,4.866626123092613,0.589142021615263,0.4002898962090183,-4.2582930075500744,46.4
,,0.02129968542424746,0.015007396713641518,0.0005429990837370789,0.03685008122162606,4.734600890616099,0.5780091852754832,0.40725545822770637,-4.199212085178034,46.5
,,0.02129968542424746,0.015007396713641518,0.0005429990837370789,0.03685008122162606,4.602575658139586,0.5780091852754832,0.40725545822770637,-4.199212085178034,46.6
,,0.02129968542424746,0.015007396713641518,0.0005429990837370789,0.03685008122162606,4.470550425663073,0.5780091852754832,0.40725545822770637,-4.199212085178034,46.7
,,0.02106130185456614,0.015285633421322378,0.0003939817044955393,0.03674091698038406,4.423406521915179,0.5732383289674221,0.41603843011004227,-4.1808418837834,46.8
,,0.02106130185456614,0.015285633421322378,0.0003939817044955393,0.03674091698038406,4.376262618167284,0.5732383289674221,0.41603843011004227,-4.1808418837834,46.9
,,0.02106130185456614,0.015285633421322378,0.0003939817044955393,0.03674091698038406,4.329118714419389,0.5732383289674221,0.41603843011004227,-4.1808418837834,47.0
,,0.02106130185456614,0.015285633421322378,0.0003939817044955393,0.03674091698038406,4.281974810671494,0.5732383289674221,0.41603843011004227,-4.1808418837834,47.1
,,0.02106130185456614,0.015285633421322378,0.0003939817044955393,0.03674091698038406,4.2348309069236,0.5732383289674221,0.41603843011004227,-4.1808418837834,47.2
,,0.021945242876679996,0.016232001520357885,0.0005694391982929756,0.03874668359533086,4.18310502107426,0.5663773216277146,0.41892621546360964,-4.120770582794392,47.3
,,0.021945242876679996,0.016232001520357885,0.0005694391982929756,0.03874668359533086,4.13137913522492,0.5663773216277146,0.41892621546360964,-4.120770582794392,47.4
,,0.021945242876679996,0.016232001520357885,0.0005694391982929756,0.03874668359533086,4.022854873775828,0.5663773216277146,0.41892621546360964,-4.120770582794392,47.5
,,0.022149022793739478,0.01663779284430641,0.0004221602680330384,0.03920897590607893,3.9776737454764253,0.5648967432048005,0.42433632758377915,-4.096078493954869,47.6
,,0.022149022793739478,0.01663779284430641,0.0004221602680330384,0.03920897590607893,3.9324926171770227,0.5648967432048005,0.42433632758377915,-4.096078493954869,47.7
,,0.022149022793739478,0.01663779284430641,0.0004221602680330384,0.03920897590607893,3.8873114888776197,0.5648967432048005,0.42433632758377915,-4.096078493954869,47.8
,,0.022149022793739478,0.01663779284430641,0.0004221602680330384,0.03920897590607893,3.842130360578216,0.5648967432048005,0.42433632758377915,-4.096078493954869,47.9
,,0.022149022793739478,0.01663779284430641,0.0004221602680330384,0.03920897590607893,3.7969492322788136,0.5648967432048005,0.42433632758377915,-4.096078493954869,48.0
,,0.023244408090201035,0.017498329822747193,0.0006064132158633752,0.04134915112881161,3.691289960397273,0.5621495836223975,0.4231847412837107,-4.045649841307392,48.1
,,0.023244408090201035,0.017498329822747193,0.0006064132158633752,0.04134915112881161,3.5856306885157325,0.5621495836223975,0.4231847412837107,-4.045649841307392,48.2
,,0.023244408090201035,0.017498329822747193,0.0006064132158633752,0.04134915112881161,3.479971416634193,0.5621495836223975,0.4231847412837107,-4.045649841307392,48.3
,,0.023949352166470615,0.018013581128008434,0.00045649012011304184,0.04241942341459209,3.374324786592612,0.5645845756175967,0.42465407773109537,-4.016629298471789,48.4
,,0.023949352166470615,0.018013581128008434,0.00045649012011304184,0.04241942341459209,3.2761497435618834,0.5645845756175967,0.42465407773109537,-4.016629298471789,48.5
,,0.023949352166470615,0.018013581128008434,0.00045649012011304184,0.04241942341459209,3.1779747005311543,0.5645845756175967,0.42465407773109537,-4.016629298471789,48.6
,,0.023949352166470615,0.018013581128008434,0.00045649012011304184,0.04241942341459209,3.079799657500425,0.5645845756175967,0.42465407773109537,-4.016629298471789,48.7
,,0.02212362217941314,0.007832295420609078,0.0007180042803643606,0.03067392188038658,2.9982373925230545,0.721251826410869,0.25534052838600924,-4.849499654775681,48.8
,,0.023949352166470615,0.018013581128008434,0.00045649012011304184,0.04241942341459209,2.9000623494923263,0.5645845756175967,0.42465407773109537,-4.016629298471789,48.9
,,0.02524164834179047,0.018782890600417507,0.000658038109793507,0.04468257705200149,2.804843971657985,0.5649103074877327,0.4203627418033212,-3.974808897961283,49.0
,,0.02524164834179047,0.018782890600417507,0.000658038109793507,0.04468257705200149,2.709625593823645,0.5649103074877327,0.4203627418033212,-3.974808897961283,49.1
,,0.026538690600454502,0.019413037395780573,0.0005017297193869192,0.046453457715621996,2.614664895477052,0.5712963448903764,0.41790295815271666,-3.9418104079140357,49.2
,,0.026538690600454502,0.019413037395780573,0.0005017297193869192,0.046453457715621996,2.581172492515795,0.5712963448903764,0.41790295815271666,-3.9418104079140357,49.3
,,0.026538690600454502,0.019413037395780573,0.0005017297193869192,0.046453457715621996,2.547680089554538,0.5712963448903764,0.41790295815271666,-3.9418104079140357,49.4
,,0.026538690600454502,0.019413037395780573,0.0005017297193869192,0.046453457715621996,2.5141876865932815,0.5712963448903764,0.41790295815271666,-3.9418104079140357,49.5
,,0.026538690600454502,0.019413037395780573,0.0005017297193869192,0.046453457715621996,2.4806952836320244,0.5712963448903764,0.41790295815271666,-3.9418104079140357,49.6
,,0.026538690600454502,0.019413037395780573,0.0005017297193869192,0.046453457715621996,2.4474652966777293,0.5712963448903764,0.41790295815271666,-3.9418104079140357,49.7
,,0.024775572622405553,0.008783019919813955,0.0008142365244451866,0.034372829066664695,2.4303885755289047,0.7207894518764907,0.2555221713865812,-4.734934976053149,49.8
,,0.029936892950529162,0.020949963293799088,0.0008473809232265753,0.05173423716755482,2.3978465452592173,0.5786669445529994,0.4049535557264944,-3.8656183847014876,49.9
,,0.029936892950529162,0.020949963293799088,0.0008473809232265753,0.05173423716755482,2.3653045149895293,0.5786669445529994,0.4049535557264944,-3.8656183847014876,50.0
,,0.029936892950529162,0.020949963293799088,0.0008473809232265753,0.05173423716755482,2.2885036338447096,0.5786669445529994,0.4049535557264944,-3.8656183847014876,50.1
,,0.029936892950529162,0.020949963293799088,0.0008473809232265753,0.05173423716755482,2.2117027526998903,0.5786669445529994,0.4049535557264944,-3.8656183847014876,50.2
,,0.029936892950529162,0.020949963293799088,0.0008473809232265753,0.05173423716755482,2.134901871555071,0.5786669445529994,0.4049535557264944,-3.8656183847014876,50.3
,,0.029936892950529162,0.020949963293799088,0.0008473809232265753,0.05173423716755482,2.061842604181923,0.5786669445529994,0.4049535557264944,-3.8656183847014876,50.4
,,0.029936892950529162,0.020949963293799088,0.0008473809232265753,0.05173423716755482,1.9887833368087757,0.5786669445529994,0.4049535557264944,-3.8656183847014876,50.5
,,0.0317027864416384,0.021911004782178813,0.0008317215338246518,0.05444551275764187,1.915923154042186,0.5822846518639622,0.4024391299189927,-3.820766266901914,50.6
,,0.0343214283094389,0.02283278544018956,0.0009631920612288347,0.058117405810857295,1.8436882552812686,0.5905533433673512,0.39287344508285016,-3.7795578179901246,50.7
,,0.0343214283094389,0.02283278544018956,0.0009631920612288347,0.058117405810857295,1.824177321424145,0.5905533433673512,0.39287344508285016,-3.7795578179901246,50.8
,,0.0343214283094389,0.02283278544018956,0.0009631920612288347,0.058117405810857295,1.8046663875670217,0.5905533433673512,0.39287344508285016,-3.7795578179901246,50.9
,,0.0343214283094389,0.02283278544018956,0.0009631920612288347,0.058117405810857295,1.7851554537098981,0.5905533433673512,0.39287344508285016,-3.7795578179901246,51.0
,,0.0343214283094389,0.02283278544018956,0.0009631920612288347,0.058117405810857295,1.7665743723614946,0.5905533433673512,0.39287344508285016,-3.7795578179901246,51.1
,,0.035776817864399305,0.023712443706362878,0.0009584987010480365,0.060447760271810216,1.7480556673757528,0.5918634156753664,0.3922799389048855,-3.7417553177306595,51.2
,,0.0343214283094389,0.02283278544018956,0.0009631920612288347,0.058117405810857295,1.7294745860273495,0.5905533433673512,0.39287344508285016,-3.7795578179901246,51.3
,,0.038466929722204585,0.024350880246159494,0.001087217938470648,0.06390502790683474,1.7117438300759156,0.6019390176667224,0.38104795575177475,-3.715187280367315,51.4
,,0.038466929722204585,0.024350880246159494,0.001087217938470648,0.06390502790683474,1.6940130741244814,0.6019390176667224,0.38104795575177475,-3.715187280367315,51.5
,,0.038466929722204585,0.024350880246159494,0.001087217938470648,0.06390502790683474,1.6808799231628566,0.6019390176667224,0.38104795575177475,-3.715187280367315,51.6
,,0.038466929722204585,0.024350880246159494,0.001087217938470648,0.06390502790683474,1.6677467722012314,0.6019390176667224,0.38104795575177475,-3.715187280367315,51.7
,,0.038466929722204585,0.024350880246159494,0.001087217938470648,0.06390502790683474,1.6558205643339938,0.6019390176667224,0.38104795575177475,-3.715187280367315,51.8
,,0.038466929722204585,0.024350880246159494,0.001087217938470648,0.06390502790683474,1.643894356466756,0.6019390176667224,0.38104795575177475,-3.715187280367315,51.9
,,0.038466929722204585,0.024350880246159494,0.001087217938470648,0.06390502790683474,1.6319681485995186,0.6019390176667224,0.38104795575177475,-3.715187280367315,52.0
,,0.039620311409740996,0.02534958993493981,0.0010839069957590448,0.06605380834043985,1.6198559751477666,0.5998187296868456,0.3837718153098545,-3.6749927252122765,52.1
,,0.042714974931341416,0.026028176908954623,0.0008276375257870703,0.06957078936608312,1.6086121177144233,0.613978586710785,0.37412507671853124,-3.6485756005016428,52.2
,,0.042714974931341416,0.026028176908954623,0.0008276375257870703,0.06957078936608312,1.5973682602810806,0.613978586710785,0.37412507671853124,-3.6485756005016428,52.3
,,0.042714974931341416,0.026028176908954623,0.0008276375257870703,0.06957078936608312,1.589580880618685,0.613978586710785,0.37412507671853124,-3.6485756005016428,52.4
,,0.042714974931341416,0.026028176908954623,0.0008276375257870703,0.06957078936608312,1.5830457090059098,0.613978586710785,0.37412507671853124,-3.6485756005016428,52.5
,,0.042714974931341416,0.026028176908954623,0.0008276375257870703,0.06957078936608312,1.576510537393135,0.613978586710785,0.37412507671853124,-3.6485756005016428,52.6
,,0.042714974931341416,0.026028176908954623,0.0008276375257870703,0.06957078936608312,1.5699753657803597,0.613978586710785,0.37412507671853124,-3.6485756005016428,52.7
,,0.042714974931341416,0.026028176908954623,0.0008276375257870703,0.06957078936608312,1.5634401941675848,0.613978586710785,0.37412507671853124,-3.6485756005016428,52.8
,,0.03450939753155801,0.012511445622630124,0.0011806723276573071,0.04820151548184544,1.5693174791368278,0.7159400941357453,0.25956539950164886,-4.381111403815037,52.9
,,0.04731367577032212,0.02836804754687081,0.0009434221149626963,0.07662514543215562,1.5630794834635195,0.6174693111964654,0.3702185149128109,-3.5624918535775634,53.0
,,0.04731367577032212,0.02836804754687081,0.0009434221149626963,0.07662514543215562,1.5568414877902121,0.6174693111964654,0.3702185149128109,-3.5624918535775634,53.1
,,0.04731367577032212,0.02836804754687081,0.0009434221149626963,0.07662514543215562,1.5532460849348222,0.6174693111964654,0.3702185149128109,-3.5624918535775634,53.2
,,0.04731367577032212,0.02836804754687081,0.0009434221149626963,0.07662514543215562,1.5507529838659568,0.6174693111964654,0.3702185149128109,-3.5624918535775634,53.3
,,0.04731367577032212,0.02836804754687081,0.0009434221149626963,0.07662514543215562,1.5482598827970915,0.6174693111964654,0.3702185149128109,-3.5624918535775634,53.4
,,0.04731367577032212,0.02836804754687081,0.0009434221149626963,0.07662514543215562,1.5457667817282261,0.6174693111964654,0.3702185149128109,-3.5624918535775634,53.5
,,0.048210115922648435,0.03046998047051329,0.0014307310885660516,0.08011082748172778,1.5423221901598096,0.6017927593326199,0.3803478434605246,-3.4910133269261987,53.6
,,0.048210115922648435,0.03046998047051329,0.0014307310885660516,0.08011082748172778,1.5388775985913934,0.6017927593326199,0.3803478434605246,-3.4910133269261987,53.7
,,0.05115252737861733,0.031119467459202618,0.0010618965142441612,0.08333389135206411,1.536116674181857,0.6138262182250814,0.37343110893179016,-3.4699216923118557,53.8
,,0.05115252737861733,0.031119467459202618,0.0010618965142441612,0.08333389135206411,1.5333557497723211,0.6138262182250814,0.37343110893179016,-3.4699216923118557,53.9
,,0.05115252737861733,0.031119467459202618,0.0010618965142441612,0.08333389135206411,1.5325249445964708,0.6138262182250814,0.37343110893179016,-3.4699216923118557,54.0
,,0.05115252737861733,0.031119467459202618,0.0010618965142441612,0.08333389135206411,1.5316941394206212,0.6138262182250814,0.37343110893179016,-3.4699216923118557,54.1
,,0.05115252737861733,0.031119467459202618,0.0010618965142441612,0.08333389135206411,1.5317958638641869,0.6138262182250814,0.37343110893179016,-3.4699216923118557,54.2
,,0.05115252737861733,0.031119467459202618,0.0010618965142441612,0.08333389135206411,1.531897588307753,0.6138262182250814,0.37343110893179016,-3.4699216923118557,54.3
,,0.04757584577850896,0.03129595928986618,0.0014885822467084787,0.0803603873150836,1.5306264732953945,0.592031066151656,0.38944510268670574,-3.464266285940067,54.4
,,0.04757584577850896,0.03129595928986618,0.0014885822467084787,0.0803603873150836,1.5293553582830353,0.592031066151656,0.38944510268670574,-3.464266285940067,54.5
,,0.04575584010811619,0.01973410570793752,0.0010850142329369766,0.06657496004899068,1.5369556436909746,0.6872830276495207,0.296419339845127,-3.9254068859213183,54.6
,,0.04575584010811619,0.01973410570793752,0.0010850142329369766,0.06657496004899068,1.5445559290989137,0.6872830276495207,0.296419339845127,-3.9254068859213183,54.7
,,0.04575584010811619,0.01973410570793752,0.0010850142329369766,0.06657496004899068,1.553275610537759,0.6872830276495207,0.296419339845127,-3.9254068859213183,54.8
,,0.04575584010811619,0.01973410570793752,0.0010850142329369766,0.06657496004899068,1.5619952919766038,0.6872830276495207,0.296419339845127,-3.9254068859213183,54.9
,,0.04575584010811619,0.01973410570793752,0.0010850142329369766,0.06657496004899068,1.5714045027782595,0.6872830276495207,0.296419339845127,-3.9254068859213183,55.0
,,0.04555819947850737,0.03230602268752228,0.0015116256890452867,0.07937584785507493,1.5707202720464355,0.5739554374485285,0.40700066280245445,-3.432501605221199,55.1
,,0.04555819947850737,0.03230602268752228,0.0015116256890452867,0.07937584785507493,1.570036041314611,0.5739554374485285,0.40700066280245445,-3.432501605221199,55.2
,,0.04555819947850737,0.03230602268752228,0.0015116256890452867,0.07937584785507493,1.5693518105827868,0.5739554374485285,0.40700066280245445,-3.432501605221199,55.3
,,0.04555819947850737,0.03230602268752228,0.0015116256890452867,0.07937584785507493,1.5686675798509628,0.5739554374485285,0.40700066280245445,-3.432501605221199,55.4
,,0.05232998350394929,0.02608035957716687,0.0012388527385411158,0.07964919581965728,1.5751921459227214,0.6570057985574079,0.3274403377055853,-3.646572754550676,55.5
,,0.05232998350394929,0.02608035957716687,0.0012388527385411158,0.07964919581965728,1.58171671199448,0.6570057985574079,0.3274403377055853,-3.646572754550676,55.6
,,0.05232998350394929,0.02608035957716687,0.0012388527385411158,0.07964919581965728,1.5882412780662385,0.6570057985574079,0.3274403377055853,-3.646572754550676,55.7
,,0.05232998350394929,0.02608035957716687,0.0012388527385411158,0.07964919581965728,1.595226174082684,0.6570057985574079,0.3274403377055853,-3.646572754550676,55.8
,,0.04255977043025646,0.0337711645001372,0.0015049671924863128,0.07783590212287998,1.5939194016012654,0.546788426285175,0.43387644491898447,-3.3881479619059585,55.9
,,0.04255977043025646,0.0337711645001372,0.0015049671924863128,0.07783590212287998,1.5926126291198468,0.546788426285175,0.43387644491898447,-3.3881479619059585,56.0
,,0.04255977043025646,0.0337711645001372,0.0015049671924863128,0.07783590212287998,1.591305856638428,0.546788426285175,0.43387644491898447,-3.3881479619059585,56.1
,,0.04255977043025646,0.0337711645001372,0.0015049671924863128,0.07783590212287998,1.5899990841570093,0.546788426285175,0.43387644491898447,-3.3881479619059585,56.2
,,0.04255977043025646,0.0337711645001372,0.0015049671924863128,0.07783590212287998,1.588979817643848,0.546788426285175,0.43387644491898447,-3.3881479619059585,56.3
,,0.0428320825063438,0.03354832811178891,0.001686621151736108,0.07806703176986882,1.5881437493288306,0.5486577564855681,0.42973746216821584,-3.3947682495397027,56.4
,,0.0428320825063438,0.03354832811178891,0.001686621151736108,0.07806703176986882,1.587307681013813,0.5486577564855681,0.42973746216821584,-3.3947682495397027,56.5
,,0.0428320825063438,0.03354832811178891,0.001686621151736108,0.07806703176986882,1.5867019045789894,0.5486577564855681,0.42973746216821584,-3.3947682495397027,56.6
,,0.03930144855835716,0.03586813534875311,0.0014795558782332867,0.07664913978534356,1.5840849353152562,0.5127448092492771,0.46795222293690536,-3.327905972375615,56.7
,,0.03930144855835716,0.03586813534875311,0.0014795558782332867,0.07664913978534356,1.5814679660515234,0.5127448092492771,0.46795222293690536,-3.327905972375615,56.8
,,0.03930144855835716,0.03586813534875311,0.0014795558782332867,0.07664913978534356,1.5788509967877906,0.5127448092492771,0.46795222293690536,-3.327905972375615,56.9
,,0.03930144855835716,0.03586813534875311,0.0014795558782332867,0.07664913978534356,1.5762340275240576,0.5127448092492771,0.46795222293690536,-3.327905972375615,57.0
,,0.03930144855835716,0.03586813534875311,0.0014795558782332867,0.07664913978534356,1.5736489359328756,0.5127448092492771,0.46795222293690536,-3.327905972375615,57.1
,,0.03930144855835716,0.03586813534875311,0.0014795558782332867,0.07664913978534356,1.5710638443416933,0.5127448092492771,0.46795222293690536,-3.327905972375615,57.2
,,0.03913075908152051,0.03583252063757595,0.001652476322360925,0.07661575604145739,1.5684379252477048,0.510740363383565,0.4676912751234445,-3.328899400221323,57.3
,,0.03913075908152051,0.03583252063757595,0.001652476322360925,0.07661575604145739,1.5657993643137558,0.510740363383565,0.4676912751234445,-3.328899400221323,57.4
,,0.036461627850402724,0.03904001905333962,0.0014532703303262613,0.0769549172340686,1.5614042392071086,0.4738050427563952,0.5073102597796866,-3.2431680293907554,57.5
,,0.036461627850402724,0.03904001905333962,0.0014532703303262613,0.0769549172340686,1.5570091141004614,0.4738050427563952,0.5073102597796866,-3.2431680293907554,57.6
,,0.036461627850402724,0.03904001905333962,0.0014532703303262613,0.0769549172340686,1.5526139889938142,0.4738050427563952,0.5073102597796866,-3.2431680293907554,57.7
,,0.036461627850402724,0.03904001905333962,0.0014532703303262613,0.0769549172340686,1.5316060858338079,0.4738050427563952,0.5073102597796866,-3.2431680293907554,57.8
,,0.036461627850402724,0.03904001905333962,0.0014532703303262613,0.0769549172340686,1.527210960727161,0.4738050427563952,0.5073102597796866,-3.2431680293907554,57.9
,,0.036461627850402724,0.03904001905333962,0.0014532703303262613,0.0769549172340686,1.5226564195068866,0.4738050427563952,0.5073102597796866,-3.2431680293907554,58.0
,,0.031793055125963546,0.037813737711788996,0.0014640848274802597,0.07107087766523279,1.5170666046497574,0.4473429366627396,0.5320567151274554,-3.275082810853027,58.1
,,0.031793055125963546,0.037813737711788996,0.0014640848274802597,0.07107087766523279,1.5112191103048807,0.4473429366627396,0.5320567151274554,-3.275082810853027,58.2
,,0.03490042415690296,0.043381268953600706,0.001450213061715695,0.07973190617221937,1.504968548262023,0.4377221846611659,0.5440891988697474,-3.1377275219688094,58.3
,,0.03490042415690296,0.043381268953600706,0.001450213061715695,0.07973190617221937,1.4987179862191655,0.4377221846611659,0.5440891988697474,-3.1377275219688094,58.4
,,0.03490042415690296,0.043381268953600706,0.001450213061715695,0.07973190617221937,1.4924674241763076,0.4377221846611659,0.5440891988697474,-3.1377275219688094,58.5
,,0.03490042415690296,0.043381268953600706,0.001450213061715695,0.07973190617221937,1.48621686213345,0.4377221846611659,0.5440891988697474,-3.1377275219688094,58.6
,,0.03490042415690296,0.043381268953600706,0.001450213061715695,0.07973190617221937,1.4799663000905923,0.4377221846611659,0.5440891988697474,-3.1377275219688094,58.7
,,0.03490042415690296,0.043381268953600706,0.001450213061715695,0.07973190617221937,1.4575624722422629,0.4377221846611659,0.5440891988697474,-3.1377275219688094,58.8
,,0.03501084388216224,0.04397067014369545,0.0016403418806978619,0.08062185590655555,1.4505320346270887,0.4342599595169506,0.5453939214033907,-3.124232454975484,58.9
,,0.03501084388216224,0.04397067014369545,0.0016403418806978619,0.08062185590655555,1.4435015970119138,0.4342599595169506,0.5453939214033907,-3.124232454975484,59.0
,,0.03482072006262726,0.04863223782410079,0.001468419443672471,0.08492137733040052,1.4355797040777547,0.41003480109786195,0.5726736818562081,-3.023468638267594,59.1
,,0.03482072006262726,0.04863223782410079,0.001468419443672471,0.08492137733040052,1.427657811143595,0.41003480109786195,0.5726736818562081,-3.023468638267594,59.2
,,0.03482072006262726,0.04863223782410079,0.001468419443672471,0.08492137733040052,1.4197359182094356,0.41003480109786195,0.5726736818562081,-3.023468638267594,59.3
,,0.03482072006262726,0.04863223782410079,0.001468419443672471,0.08492137733040052,1.4118140252752762,0.41003480109786195,0.5726736818562081,-3.023468638267594,59.4
,,0.03482072006262726,0.04863223782410079,0.001468419443672471,0.08492137733040052,1.4038921323411166,0.41003480109786195,0.5726736818562081,-3.023468638267594,59.5
,,0.03482072006262726,0.04863223782410079,0.001468419443672471,0.08492137733040052,1.3957711548003995,0.41003480109786195,0.5726736818562081,-3.023468638267594,59.6
,,0.03482072006262726,0.04863223782410079,0.001468419443672471,0.08492137733040052,1.38702489325401,0.41003480109786195,0.5726736818562081,-3.023468638267594,59.7
,,0.035524401769793726,0.04978695135412852,0.0016861876522690155,0.08699754077619126,1.3782511604137622,0.40833799958993483,0.5722799852723398,-3.0000023502864654,59.8
,,0.0366682437385223,0.055321365157158825,0.0015182181458093073,0.09350782704149044,1.3689140287592427,0.3921409030524493,0.5916228288848177,-2.8945960950287684,59.9
,,0.0366682437385223,0.055321365157158825,0.0015182181458093073,0.09350782704149044,1.3595768971047233,0.3921409030524493,0.5916228288848177,-2.8945960950287684,60.0
,,0.0366682437385223,0.055321365157158825,0.0015182181458093073,0.09350782704149044,1.3502397654502039,0.3921409030524493,0.5916228288848177,-2.8945960950287684,60.1
,,0.0366682437385223,0.055321365157158825,0.0015182181458093073,0.09350782704149044,1.3408402574330223,0.3921409030524493,0.5916228288848177,-2.8945960950287684,60.2
,,0.0366682437385223,0.055321365157158825,0.0015182181458093073,0.09350782704149044,1.3315031257785028,0.3921409030524493,0.5916228288848177,-2.8945960950287684,60.3
,,0.0366682437385223,0.055321365157158825,0.0015182181458093073,0.09350782704149044,1.3213156687270136,0.3921409030524493,0.5916228288848177,-2.8945960950287684,60.4
,,0.03797238945818296,0.05759397143857325,0.0011548225220519175,0.09672118341880813,1.3110892051272205,0.39259641079617885,0.5954638829137163,-2.854337379282566,60.5
,,0.039106836328400715,0.06056778139262333,0.0015581336458235745,0.10123275136684762,1.3007111718799345,0.38630616870902995,0.5983022349470438,-2.803992187475993,60.6
,,0.039106836328400715,0.06056778139262333,0.0015581336458235745,0.10123275136684762,1.2903331386326484,0.38630616870902995,0.5983022349470438,-2.803992187475993,60.7
,,0.039106836328400715,0.06056778139262333,0.0015581336458235745,0.10123275136684762,1.2799551053853624,0.38630616870902995,0.5983022349470438,-2.803992187475993,60.8
,,0.039106836328400715,0.06056778139262333,0.0015581336458235745,0.10123275136684762,1.2695770721380766,0.38630616870902995,0.5983022349470438,-2.803992187475993,60.9
,,0.039106836328400715,0.06056778139262333,0.0015581336458235745,0.10123275136684762,1.2591990388907905,0.38630616870902995,0.5983022349470438,-2.803992187475993,61.0
,,0.039106836328400715,0.06056778139262333,0.0015581336458235745,0.10123275136684762,1.249006971228019,0.38630616870902995,0.5983022349470438,-2.803992187475993,61.1
,,0.039106836328400715,0.06056778139262333,0.0015581336458235745,0.10123275136684762,1.2379465875468387,0.38630616870902995,0.5983022349470438,-2.803992187475993,61.2
,,0.03807215968471936,0.05823543910443754,0.00144276600932973,0.09775036479848663,1.2269761163218615,0.38948355602769874,0.5957567444836701,-2.843261190240657,61.3
,,0.03807215968471936,0.05823543910443754,0.00144276600932973,0.09775036479848663,1.2160056450968844,0.38948355602769874,0.5957567444836701,-2.843261190240657,61.4
,,0.03807215968471936,0.05823543910443754,0.00144276600932973,0.09775036479848663,1.2050351738719072,0.38948355602769874,0.5957567444836701,-2.843261190240657,61.5
,,0.03807215968471936,0.05823543910443754,0.00144276600932973,0.09775036479848663,1.19406470264693,0.38948355602769874,0.5957567444836701,-2.843261190240657,61.6
,,0.03807215968471936,0.05823543910443754,0.00144276600932973,0.09775036479848663,1.183094231421953,0.38948355602769874,0.5957567444836701,-2.843261190240657,61.7
,,0.03807215968471936,0.05823543910443754,0.00144276600932973,0.09775036479848663,1.1721237601969758,0.38948355602769874,0.5957567444836701,-2.843261190240657,61.8
,,0.03807215968471936,0.05823543910443754,0.00144276600932973,0.09775036479848663,1.1487408323899806,0.38948355602769874,0.5957567444836701,-2.843261190240657,61.9
,,0.0345912194519407,0.03958793940600004,0.001013964960867495,0.07519312381880823,1.1399178411314121,0.46003168501543645,0.5264835053454425,-3.229230767564201,62.0
,,0.0345912194519407,0.03958793940600004,0.001013964960867495,0.07519312381880823,1.1310948498728437,0.46003168501543645,0.5264835053454425,-3.229230767564201,62.1
,,0.0345912194519407,0.03958793940600004,0.001013964960867495,0.07519312381880823,1.1222718586142753,0.46003168501543645,0.5264835053454425,-3.229230767564201,62.2
,,0.0345912194519407,0.03958793940600004,0.001013964960867495,0.07519312381880823,1.113448867355707,0.46003168501543645,0.5264835053454425,-3.229230767564201,62.3
,,0.0345912194519407,0.03958793940600004,0.001013964960867495,0.07519312381880823,1.1046258760971386,0.46003168501543645,0.5264835053454425,-3.229230767564201,62.4
,,0.0345912194519407,0.03958793940600004,0.001013964960867495,0.07519312381880823,1.0958028848385701,0.46003168501543645,0.5264835053454425,-3.229230767564201,62.5
,,0.0345912194519407,0.03958793940600004,0.001013964960867495,0.07519312381880823,1.0879313840795528,0.46003168501543645,0.5264835053454425,-3.229230767564201,62.6
,,0.03866398583858776,0.05286122062680527,0.0013108117444441294,0.09283601820983715,1.078478134696909,0.41647613269233064,0.5694042209708209,-2.9400852783812432,62.7
,,0.03866398583858776,0.05286122062680527,0.0013108117444441294,0.09283601820983715,1.0683412181553849,0.41647613269233064,0.5694042209708209,-2.9400852783812432,62.8
,,0.03866398583858776,0.05286122062680527,0.0013108117444441294,0.09283601820983715,1.0582043016138603,0.41647613269233064,0.5694042209708209,-2.9400852783812432,62.9
,,0.03866398583858776,0.05286122062680527,0.0013108117444441294,0.09283601820983715,1.048067385072336,0.41647613269233064,0.5694042209708209,-2.9400852783812432,63.0
,,0.03866398583858776,0.05286122062680527,0.0013108117444441294,0.09283601820983715,1.037930468530812,0.41647613269233064,0.5694042209708209,-2.9400852783812432,63.1
,,0.03866398583858776,0.05286122062680527,0.0013108117444441294,0.09283601820983715,1.0277935519892876,0.41647613269233064,0.5694042209708209,-2.9400852783812432,63.2
,,0.03866398583858776,0.05286122062680527,0.0013108117444441294,0.09283601820983715,1.0176566354477634,0.41647613269233064,0.5694042209708209,-2.9400852783812432,63.3
,,0.0354944984551792,0.036783626589152865,0.0007501884378186203,0.07302831348215068,1.0114873290855024,0.4860374937161138,0.5036899366181227,-3.3027024624604,63.4
,,0.03607150337456399,0.03751722772650617,0.0010100060013943093,0.07459873710246447,1.005279259420257,0.4835404026346757,0.5029204137192658,-3.2829550454602536,63.5
,,0.03607150337456399,0.03751722772650617,0.0010100060013943093,0.07459873710246447,0.9901997893347139,0.4835404026346757,0.5029204137192658,-3.2829550454602536,63.6
,,0.03607150337456399,0.03751722772650617,0.0010100060013943093,0.07459873710246447,0.9751203192491705,0.4835404026346757,0.5029204137192658,-3.2829550454602536,63.7
,,0.03607150337456399,0.03751722772650617,0.0010100060013943093,0.07459873710246447,0.9600408491636273,0.4835404026346757,0.5029204137192658,-3.2829550454602536,63.8
,,0.03607150337456399,0.03751722772650617,0.0010100060013943093,0.07459873710246447,0.944961379078084,0.4835404026346757,0.5029204137192658,-3.2829550454602536,63.9
,,0.03607150337456399,0.03751722772650617,0.0010100060013943093,0.07459873710246447,0.9298819089925406,0.4835404026346757,0.5029204137192658,-3.2829550454602536,64.0
,,0.04110356798554344,0.04778863464557799,0.0009561207182549222,0.08984832334937636,0.9237697330413895,0.45747729566095174,0.5318812067282689,-3.040967436677201,64.1
,,0.04110356798554344,0.04778863464557799,0.0009561207182549222,0.08984832334937636,0.9176575570902384,0.45747729566095174,0.5318812067282689,-3.040967436677201,64.2
,,0.04110356798554344,0.04778863464557799,0.0009561207182549222,0.08984832334937636,0.9115453811390873,0.45747729566095174,0.5318812067282689,-3.040967436677201,64.3
,,0.04242653742708395,0.04748688651392343,0.001318655655023126,0.0912320795960305,0.9058034843868016,0.46503968357342945,0.5205064569852201,-3.047301679447901,64.4
,,0.04242653742708395,0.04748688651392343,0.001318655655023126,0.0912320795960305,0.8934362266957954,0.46503968357342945,0.5205064569852201,-3.047301679447901,64.5
,,0.04242653742708395,0.04748688651392343,0.001318655655023126,0.0912320795960305,0.8810689690047895,0.46503968357342945,0.5205064569852201,-3.047301679447901,64.6
,,0.04242653742708395,0.04748688651392343,0.001318655655023126,0.0912320795960305,0.8687017113137834,0.46503968357342945,0.5205064569852201,-3.047301679447901,64.7
,,0.04359328966806618,0.045336135012731545,0.0009749134605989621,0.08990433814139669,0.8570913463133315,0.4848852743847022,0.504270827748371,-3.093650882072413,64.8
,,0.04359328966806618,0.045336135012731545,0.0009749134605989621,0.08990433814139669,0.853772649810744,0.4848852743847022,0.504270827748371,-3.093650882072413,64.9
,,0.04359328966806618,0.045336135012731545,0.0009749134605989621,0.08990433814139669,0.8504539533081564,0.4848852743847022,0.504270827748371,-3.093650882072413,65.0
,,0.04446759280799626,0.0450630807944171,0.0013703691196420844,0.09090104272205544,0.8474155701365504,0.4891868286259716,0.4957377764323861,-3.099691975378316,65.1
,,0.04461892948346126,0.04504272577931527,0.0013773109219351147,0.09103896618471165,0.844419473410238,0.49010804223031923,0.49476315106573987,-3.100143777902972,65.2
,,0.04461892948346126,0.04504272577931527,0.0013773109219351147,0.09103896618471165,0.8414233766839256,0.49010804223031923,0.49476315106573987,-3.100143777902972,65.3
,,0.04461892948346126,0.04504272577931527,0.0013773109219351147,0.09103896618471165,0.8382440817594692,0.49010804223031923,0.49476315106573987,-3.100143777902972,65.4
,,0.046054493701200586,0.0432302046759674,0.0014086805563185189,0.0906933789334865,0.8358952328841879,0.507804365024005,0.4766632932231133,-3.141215845732093,65.5
,,0.046054493701200586,0.0432302046759674,0.0014086805563185189,0.0906933789334865,0.8335463840089066,0.507804365024005,0.4766632932231133,-3.141215845732093,65.6
,,0.046054493701200586,0.0432302046759674,0.0014086805563185189,0.0906933789334865,0.8332087279625344,0.507804365024005,0.4766632932231133,-3.141215845732093,65.7
,,0.046054493701200586,0.0432302046759674,0.0014086805563185189,0.0906933789334865,0.8328710719161623,0.507804365024005,0.4766632932231133,-3.141215845732093,65.8
,,0.046054493701200586,0.0432302046759674,0.0014086805563185189,0.0906933789334865,0.8325334158697902,0.507804365024005,0.4766632932231133,-3.141215845732093,65.9
,,0.046054493701200586,0.0432302046759674,0.0014086805563185189,0.0906933789334865,0.832195759823418,0.507804365024005,0.4766632932231133,-3.141215845732093,66.0
,,0.04703040323101187,0.043576397799086994,0.0014779493192477054,0.09208475034934656,0.8320129019303034,0.5107295513381994,0.4732205672901215,-3.133239610085102,66.1
,,0.04884149361824697,0.041965793302242295,0.0015258521488290852,0.09233313906931834,0.8327697926321315,0.5289703578861282,0.45450413280909713,-3.170900437724145,66.2
,,0.04884149361824697,0.041965793302242295,0.0015258521488290852,0.09233313906931834,0.8335675108367654,0.5289703578861282,0.45450413280909713,-3.170900437724145,66.3
,,0.04884149361824697,0.041965793302242295,0.0015258521488290852,0.09233313906931834,0.8343652290413998,0.5289703578861282,0.45450413280909713,-3.170900437724145,66.4
,,0.04884149361824697,0.041965793302242295,0.0015258521488290852,0.09233313906931834,0.8369195114187326,0.5289703578861282,0.45450413280909713,-3.170900437724145,66.5
,,0.04884149361824697,0.041965793302242295,0.0015258521488290852,0.09233313906931834,0.8394737937960651,0.5289703578861282,0.45450413280909713,-3.170900437724145,66.6
,,0.04884149361824697,0.041965793302242295,0.0015258521488290852,0.09233313906931834,0.8420280761733977,0.5289703578861282,0.45450413280909713,-3.170900437724145,66.7
,,0.04884149361824697,0.041965793302242295,0.0015258521488290852,0.09233313906931834,0.8445823585507305,0.5289703578861282,0.45450413280909713,-3.170900437724145,66.8
,,0.027614447791378737,0.03348217493777828,0.0013056453647517547,0.06240226809390877,0.8433689756789619,0.4425231427457401,0.5365538138355992,-3.3967420731715894,66.9
,,0.027614447791378737,0.03348217493777828,0.0013056453647517547,0.06240226809390877,0.8421555928071933,0.4425231427457401,0.5365538138355992,-3.3967420731715894,67.0
,,0.027614447791378737,0.03348217493777828,0.0013056453647517547,0.06240226809390877,0.8419774835722794,0.4425231427457401,0.5365538138355992,-3.3967420731715894,67.1
,,0.027614447791378737,0.03348217493777828,0.0013056453647517547,0.06240226809390877,0.8417993743373654,0.4425231427457401,0.5365538138355992,-3.3967420731715894,67.2
,,0.027614447791378737,0.03348217493777828,0.0013056453647517547,0.06240226809390877,0.8420243328004324,0.4425231427457401,0.5365538138355992,-3.3967420731715894,67.3
,,0.027614447791378737,0.03348217493777828,0.0013056453647517547,0.06240226809390877,0.8422492912634995,0.4425231427457401,0.5365538138355992,-3.3967420731715894,67.4
,,0.027614447791378737,0.03348217493777828,0.0013056453647517547,0.06240226809390877,0.8424742497265666,0.4425231427457401,0.5365538138355992,-3.3967420731715894,67.5
,,0.05394871446301821,0.04087128301943651,0.0012585939401295108,0.09607859142258422,0.8482016030761561,0.5615060927125232,0.425394277895599,-3.1973275892038906,67.6
,,0.05454406584388898,0.04308218962229247,0.001885643900173371,0.09951189936635482,0.8533298507131829,0.5481160161870093,0.4329350549695029,-3.14464560109858,67.7
,,0.05454406584388898,0.04308218962229247,0.001885643900173371,0.09951189936635482,0.8584580983502095,0.5481160161870093,0.4329350549695029,-3.14464560109858,67.8
,,0.05454406584388898,0.04308218962229247,0.001885643900173371,0.09951189936635482,0.863678264874945,0.5481160161870093,0.4329350549695029,-3.14464560109858,67.9
,,0.05454406584388898,0.04308218962229247,0.001885643900173371,0.09951189936635482,0.8688984313996807,0.5481160161870093,0.4329350549695029,-3.14464560109858,68.0
,,0.05454406584388898,0.04308218962229247,0.001885643900173371,0.09951189936635482,0.8750100532434012,0.5481160161870093,0.4329350549695029,-3.14464560109858,68.1
,,0.05454406584388898,0.04308218962229247,0.001885643900173371,0.09951189936635482,0.8811216750871217,0.5481160161870093,0.4329350549695029,-3.14464560109858,68.2
,,0.05703154690274753,0.04270473640896981,0.0014242968795438963,0.10116058019126124,0.8880048362440945,0.563772437790686,0.4221479980465638,-3.153445441972358,68.3
,,0.04491870837408436,0.035783051962629236,0.0015444746709664392,0.08224623500768004,0.8939971253654231,0.5461491139368254,0.4350722189202687,-3.330280906533943,68.4
,,0.04491870837408436,0.035783051962629236,0.0015444746709664392,0.08224623500768004,0.8999894144867517,0.5461491139368254,0.4350722189202687,-3.330280906533943,68.5
,,0.04491870837408436,0.035783051962629236,0.0015444746709664392,0.08224623500768004,0.9059817036080802,0.5461491139368254,0.4350722189202687,-3.330280906533943,68.6
,,0.04491870837408436,0.035783051962629236,0.0015444746709664392,0.08224623500768004,0.9119739927294088,0.5461491139368254,0.4350722189202687,-3.330280906533943,68.7
,,0.04491870837408436,0.035783051962629236,0.0015444746709664392,0.08224623500768004,0.9179937531445959,0.5461491139368254,0.4350722189202687,-3.330280906533943,68.8
,,0.04491870837408436,0.035783051962629236,0.0015444746709664392,0.08224623500768004,0.9245769123740544,0.5461491139368254,0.4350722189202687,-3.330280906533943,68.9
,,0.060019735840063385,0.04614916789379239,0.001622842513218519,0.1077917462470743,0.931662878712215,0.5568119817123053,0.4281326678576281,-3.0758763486661973,69.0
,,0.04505319143179054,0.0380281119818117,0.0016836064076041406,0.08476490982120637,0.9374618940526923,0.5315075722586234,0.44863035968567594,-3.269429603769701,69.1
,,0.04505319143179054,0.0380281119818117,0.0016836064076041406,0.08476490982120637,0.9432609093931698,0.5315075722586234,0.44863035968567594,-3.269429603769701,69.2
,,0.04505319143179054,0.0380281119818117,0.0016836064076041406,0.08476490982120637,0.9490599247336472,0.5315075722586234,0.44863035968567594,-3.269429603769701,69.3
,,0.04505319143179054,0.0380281119818117,0.0016836064076041406,0.08476490982120637,0.9548589400741245,0.5315075722586234,0.44863035968567594,-3.269429603769701,69.4
,,0.04505319143179054,0.0380281119818117,0.0016836064076041406,0.08476490982120637,0.9606969619629058,0.5315075722586234,0.44863035968567594,-3.269429603769701,69.5
,,0.04505319143179054,0.0380281119818117,0.0016836064076041406,0.08476490982120637,0.9666865534991796,0.5315075722586234,0.44863035968567594,-3.269429603769701,69.6
,,0.05759090132326378,0.051601594620189976,0.0024690698798847284,0.11166156582333849,0.9719131939314842,0.5157629744721586,0.46212494191447817,-2.964202703480069,69.7
,,0.05759090132326378,0.051601594620189976,0.0024690698798847284,0.11166156582333849,0.9771398343637887,0.5157629744721586,0.46212494191447817,-2.964202703480069,69.8
,,0.05759090132326378,0.051601594620189976,0.0024690698798847284,0.11166156582333849,0.9823664747960932,0.5157629744721586,0.46212494191447817,-2.964202703480069,69.9
,,0.05759090132326378,0.051601594620189976,0.0024690698798847284,0.11166156582333849,0.9875931152283977,0.5157629744721586,0.46212494191447817,-2.964202703480069,70.0
,,0.05759090132326378,0.051601594620189976,0.0024690698798847284,0.11166156582333849,0.992819755660702,0.5157629744721586,0.46212494191447817,-2.964202703480069,70.1
,,0.05759090132326378,0.051601594620189976,0.0024690698798847284,0.11166156582333849,0.9980463960930065,0.5157629744721586,0.46212494191447817,-2.964202703480069,70.2
,,0.05460724500006067,0.05343524197721268,0.002393773460939235,0.11043626043821259,1.0021371784989717,0.494468436212693,0.48385595243066826,-2.9292847885751323,70.3
,,0.05460724500006067,0.05343524197721268,0.002393773460939235,0.11043626043821259,1.006227960904937,0.494468436212693,0.48385595243066826,-2.9292847885751323,70.4
,,0.052872157391682245,0.05206071742421426,0.0017208548483369055,0.10665372966423341,1.0102482240696715,0.4957366006621056,0.4881284282144795,-2.9553445987919953,70.5
,,0.052872157391682245,0.05206071742421426,0.0017208548483369055,0.10665372966423341,1.0142684872344063,0.4957366006621056,0.4881284282144795,-2.9553445987919953,70.6
,,0.052872157391682245,0.05206071742421426,0.0017208548483369055,0.10665372966423341,1.0182887503991407,0.4957366006621056,0.4881284282144795,-2.9553445987919953,70.7
,,0.052872157391682245,0.05206071742421426,0.0017208548483369055,0.10665372966423341,1.0223090135638755,0.4957366006621056,0.4881284282144795,-2.9553445987919953,70.8
,,0.052872157391682245,0.05206071742421426,0.0017208548483369055,0.10665372966423341,1.0263292767286103,0.4957366006621056,0.4881284282144795,-2.9553445987919953,70.9
,,0.04993680717904026,0.0539286076454414,0.0023111703083376137,0.10617658513281927,1.026909256134327,0.4703184521952077,0.5079143163059971,-2.9200941877774977,71.0
,,0.04993680717904026,0.0539286076454414,0.0023111703083376137,0.10617658513281927,1.0274892355400438,0.4703184521952077,0.5079143163059971,-2.9200941877774977,71.1
,,0.04993680717904026,0.0539286076454414,0.0023111703083376137,0.10617658513281927,1.0280692149457606,0.4703184521952077,0.5079143163059971,-2.9200941877774977,71.2
,,0.04821208432593199,0.05282043957212918,0.0016659443069351482,0.10269846820499631,1.02850224335054,0.46945280848489285,0.5143254860110898,-2.940857050070362,71.3
,,0.04821208432593199,0.05282043957212918,0.0016659443069351482,0.10269846820499631,1.0289352717553193,0.46945280848489285,0.5143254860110898,-2.940857050070362,71.4
,,0.04821208432593199,0.05282043957212918,0.0016659443069351482,0.10269846820499631,1.0293683001600986,0.46945280848489285,0.5143254860110898,-2.940857050070362,71.5
,,0.04821208432593199,0.05282043957212918,0.0016659443069351482,0.10269846820499631,1.0298013285648782,0.46945280848489285,0.5143254860110898,-2.940857050070362,71.6
,,0.036206137174546515,0.04957640890386415,0.001850096457944941,0.08763264253635561,1.029788944254638,0.41315811239545697,0.5657299320090308,-3.0042401853358487,71.7
,,0.036206137174546515,0.04957640890386415,0.001850096457944941,0.08763264253635561,1.0297765599443975,0.41315811239545697,0.5657299320090308,-3.0042401853358487,71.8
,,0.036206137174546515,0.04957640890386415,0.001850096457944941,0.08763264253635561,1.0297641756341573,0.41315811239545697,0.5657299320090308,-3.0042401853358487,71.9
,,0.036206137174546515,0.04957640890386415,0.001850096457944941,0.08763264253635561,1.029751791323917,0.41315811239545697,0.5657299320090308,-3.0042401853358487,72.0
