time,ecg,hr,rr,marker,norm_time
1715741843965256312,0.111,,,,0.0
1715741843972950262,0.106,,,,0.00769395
1715741843980644212,0.096,,,,0.0153879
1715741843988338162,0.101,,,,0.02308185
1715741843996032112,0.104,,,,0.0307758
1715741844003726062,0.089,,,,0.03846975
1715741844011420012,0.075,,,,0.0461637
1715741844019113962,0.072,,,,0.05385765
1715741844026807912,0.075,,,,0.0615516
1715741844034501862,0.072,,,,0.06924555
1715741844042195812,0.072,,,,0.0769395
1715741844049889762,0.079,,,,0.08463345
1715741844057583712,0.082,,,,0.0923274
1715741844065277662,0.075,,,,0.10002135
1715741844072971612,0.067,,,,0.1077153
1715741844080665562,0.067,,,,0.11540925
1715741844088359512,0.075,,,,0.1231032
1715741844096053462,0.072,,,,0.13079715
1715741844103747412,0.067,,,,0.1384911
1715741844111441362,0.072,,,,0.14618505
1715741844119135312,0.077,,,,0.153879
1715741844126829262,0.072,,,,0.16157295
1715741844134523212,0.072,,,,0.1692669
1715741844142217162,0.079,,,,0.17696085
1715741844149911112,0.079,,,,0.1846548
1715741844157605062,0.062,,,,0.19234875
1715741844165299012,0.062,,,,0.2000427
1715741844172992962,0.075,,,,0.20773665
1715741844180686912,0.075,,,,0.2154306
1715741844188380862,0.07,,,,0.22312455
1715741844196074812,0.075,,,,0.2308185
1715741844203768762,0.077,,,,0.23851245
1715741844211462712,0.087,,,,0.2462064
1715741844219156662,0.099,,,,0.25390035
1715741844226850612,0.101,,,,0.2615943
1715741844234544562,0.092,,,,0.26928825
1715741844242238512,0.082,,,,0.2769822
1715741844249932462,0.077,,,,0.28467615
1715741844257626412,0.075,,,,0.2923701
1715741844265320362,0.079,,,,0.30006405
1715741844273014312,0.084,,,,0.307758
1715741844280708262,0.084,,,,0.31545195
1715741844288402212,0.087,,,,0.3231459
1715741844296096162,0.087,,,,0.33083985
1715741844303790112,0.094,,,,0.3385338
1715741844311484062,0.14,,,,0.34622775
1715741844319178012,0.259,,,,0.3539217
1715741844326871962,0.409,,,,0.36161565
1715741844334565912,0.447,,,,0.3693096
1715741844342259862,0.271,,,,0.37700355
1715741844349953812,0.058,,,,0.3846975
1715741844357647762,0.046,,,,0.39239145
1715741844365341712,0.099,,,,0.4000854
1715741844373035662,0.07,,,,0.40777935
1715741844380729612,0.058,,,,0.4154733
1715741844388423562,0.082,,,,0.42316725
1715741844396117512,0.075,,,,0.4308612
1715741844403811462,0.07,,,,0.43855515
1715741844411505412,0.082,,,,0.4462491
1715741844419199362,0.087,,,,0.45394305
1715741844426893312,0.084,,,,0.461637
1715741844434587262,0.089,,,,0.46933095
1715741844442281212,0.099,,,,0.4770249
1715741844449975162,0.101,,,,0.48471885
1715741844457669112,0.101,,,,0.4924128
1715741844465363062,0.104,,,,0.50010675
1715741844473057012,0.111,,,,0.5078007
1715741844480750962,0.116,,,,0.51549465
1715741844488444912,0.116,,,,0.5231886
1715741844496138862,0.106,,,,0.53088255
1715741844503832812,0.099,,,,0.5385765
1715741844511526762,0.108,,,,0.54627045
1715741844519220712,0.116,,,,0.5539644
1715741844526914670,0.118,86.0,716.0,,0.561658358
1715741844534608620,0.121,,720.0,,0.569352308
1715741844542302570,0.121,,,,0.577046258
1715741844549996520,0.118,,,,0.584740208
1715741844557690470,0.118,,,,0.592434158
1715741844565384420,0.125,,,,0.600128108
1715741844573078370,0.123,,,,0.607822058
1715741844580772320,0.104,,,,0.615516008
1715741844588466270,0.089,,,,0.623209958
1715741844596160220,0.089,,,,0.630903908
1715741844603854170,0.084,,,,0.638597858
1715741844611548120,0.077,,,,0.646291808
1715741844619242070,0.077,,,,0.653985758
1715741844626936020,0.077,,,,0.661679708
1715741844634629970,0.072,,,,0.669373658
1715741844642323920,0.067,,,,0.677067608
1715741844650017870,0.065,,,,0.684761558
1715741844657711820,0.053,,,,0.692455508
1715741844665405770,0.05,,,,0.700149458
1715741844673099720,0.058,,,,0.707843408
1715741844680793670,0.053,,,,0.715537358
1715741844688487620,0.048,,,,0.723231308
1715741844696181570,0.046,,,,0.730925258
1715741844703875520,0.043,,,,0.738619208
1715741844711569470,0.046,,,,0.746313158
1715741844719263420,0.058,,,,0.754007108
1715741844726957370,0.065,,,,0.761701058
1715741844734651320,0.058,,,,0.769395008
1715741844742345270,0.046,,,,0.777088958
1715741844750039220,0.038,,,,0.784782908
1715741844757733170,0.041,,,,0.792476858
1715741844765427120,0.048,,,,0.800170808
1715741844773121070,0.046,,,,0.807864758
1715741844780815020,0.046,,,,0.815558708
1715741844788508970,0.048,,,,0.823252658
1715741844796202920,0.05,,,,0.830946608
1715741844803896870,0.05,,,,0.838640558
1715741844811590820,0.05,,,,0.846334508
1715741844819284770,0.048,,,,0.854028458
1715741844826978720,0.05,,,,0.861722408
1715741844834672670,0.05,,,,0.869416358
1715741844842366620,0.048,,,,0.877110308
1715741844850060570,0.05,,,,0.884804258
1715741844857754520,0.053,,,,0.892498208
1715741844865448470,0.058,,,,0.900192158
1715741844873142420,0.065,,,,0.907886108
1715741844880836370,0.065,,,,0.915580058
1715741844888530320,0.065,,,,0.923274008
1715741844896224270,0.065,,,,0.930967958
1715741844903918220,0.067,,,,0.938661908
1715741844911612170,0.065,,,,0.946355858
1715741844919306120,0.065,,,,0.954049808
1715741844927000070,0.067,,,,0.961743758
1715741844934694020,0.067,,,,0.969437708
1715741844942387970,0.082,,,,0.977131658
1715741844950081920,0.099,,,,0.984825608
1715741844957775870,0.089,,,,0.992519558
1715741844965469820,0.072,,,,1.000213508
1715741844973163770,0.075,,,,1.007907458
1715741844980857720,0.072,,,,1.015601408
1715741844988551670,0.065,,,,1.023295358
1715741844996245620,0.06,,,,1.030989308
1715741845003939570,0.062,,,,1.038683258
1715741845011633520,0.067,,,,1.046377208
1715741845019327470,0.062,,,,1.054071158
1715741845027021420,0.075,,,,1.061765108
1715741845034715370,0.145,,,,1.069459058
1715741845042409320,0.283,,,,1.077153008
1715741845050103270,0.423,,,,1.084846958
1715741845057797220,0.418,,,,1.092540908
1715741845065491170,0.203,,,,1.100234858
1715741845073185120,0.024,,,,1.107928808
1715741845080879070,0.05,,,,1.115622758
1715741845088573030,0.092,,,,1.123316718
1715741845096266980,0.053,,,,1.131010668
1715741845103960930,0.05,,,,1.138704618
1715741845111654880,0.072,,,,1.146398568
1715741845119348830,0.062,,,,1.154092518
1715741845127042780,0.06,,,,1.161786468
1715741845134736730,0.072,,,,1.169480418
1715741845142430680,0.077,,,,1.177174368
1715741845150124630,0.075,,,,1.184868318
1715741845157818580,0.072,,,,1.192562268
1715741845165512530,0.072,,,,1.200256218
1715741845173206480,0.075,,,,1.207950168
1715741845180900430,0.075,,,,1.215644118
1715741845188594380,0.07,,,,1.223338068
1715741845196288330,0.075,,,,1.231032018
1715741845203982280,0.082,,,,1.238725968
1715741845211676230,0.079,,,,1.246419918
1715741845219370180,0.082,,,,1.254113868
1715741845227064130,0.089,,,,1.261807818
1715741845234758080,0.084,,,,1.269501768
1715741845242452030,0.077,,,,1.277195718
1715741845250145980,0.087,,,,1.284889668
1715741845257839930,0.094,,,,1.292583618
1715741845265533880,0.092,,,,1.300277568
1715741845273227830,0.094,,,,1.307971518
1715741845280921780,0.104,,,,1.315665468
1715741845288615730,0.106,,,,1.323359418
1715741845296309680,0.099,,,,1.331053368
1715741845304003630,0.094,,,,1.338747318
1715741845311697580,0.096,,,,1.346441268
1715741845319391530,0.096,,,,1.354135218
1715741845327085480,0.092,,,,1.361829168
1715741845334779430,0.084,,,,1.369523118
1715741845342473380,0.079,,,,1.377217068
1715741845350167330,0.079,,,,1.384911018
1715741845357861280,0.079,,,,1.392604968
1715741845365555230,0.075,,,,1.400298918
1715741845373249180,0.072,,,,1.407992868
1715741845380943130,0.075,,,,1.415686818
1715741845388637080,0.077,,,,1.423380768
1715741845396331030,0.079,,,,1.431074718
1715741845404024980,0.082,,,,1.438768668
1715741845411718930,0.087,,,,1.446462618
1715741845419412880,0.084,,,,1.454156568
1715741845427106830,0.079,,,,1.461850518
1715741845434800780,0.079,,,,1.469544468
1715741845442494730,0.084,,,,1.477238418
1715741845450188680,0.084,,,,1.484932368
1715741845457882630,0.075,,,,1.492626318
1715741845465576580,0.07,,,,1.500320268
1715741845473270530,0.072,,,,1.508014218
1715741845480964480,0.07,,,,1.515708168
1715741845488658430,0.062,,,,1.523402118
1715741845496352380,0.065,,,,1.531096068
1715741845504046330,0.067,,,,1.538790018
1715741845511740280,0.065,,,,1.546483968
1715741845519434230,0.067,,,,1.554177918
1715741845527128180,0.075,,,,1.561871868
1715741845534822130,0.072,,,,1.569565818
1715741845542516080,0.062,,,,1.577259768
1715741845550210030,0.065,,,,1.584953718
1715741845557903980,0.072,,,,1.592647668
1715741845565597930,0.077,,,,1.600341618
1715741845573291880,0.077,,,,1.608035568
1715741845580985830,0.077,,,,1.615729518
1715741845588679780,0.082,,,,1.623423468
1715741845596373730,0.089,,,,1.631117418
1715741845604067680,0.094,,,,1.638811368
1715741845611761630,0.089,,,,1.646505318
1715741845619455580,0.082,,,,1.654199268
1715741845627149530,0.079,,,,1.661893218
1715741845634843480,0.079,,,,1.669587168
1715741845642537430,0.087,,,,1.677281118
1715741845650231388,0.092,86.0,732.0,,1.684975076
1715741845657925338,0.099,,,,1.692669026
1715741845665619288,0.106,,,,1.700362976
1715741845673313238,0.104,,,,1.708056926
1715741845681007188,0.099,,,,1.715750876
1715741845688701138,0.099,,,,1.723444826
1715741845696395088,0.096,,,,1.731138776
1715741845704089038,0.096,,,,1.738832726
1715741845711782988,0.101,,,,1.746526676
1715741845719476938,0.104,,,,1.754220626
1715741845727170888,0.101,,,,1.761914576
1715741845734864838,0.096,,,,1.769608526
1715741845742558788,0.096,,,,1.777302476
1715741845750252738,0.125,,,,1.784996426
1715741845757946688,0.227,,,,1.792690376
1715741845765640638,0.387,,,,1.800384326
1715741845773334588,0.481,,,,1.808078276
1715741845781028538,0.363,,,,1.815772226
1715741845788722488,0.116,,,,1.823466176
1715741845796416438,0.038,,,,1.831160126
1715741845804110388,0.101,,,,1.838854076
1715741845811804338,0.096,,,,1.846548026
1715741845819498288,0.07,,,,1.854241976
1715741845827192238,0.092,,,,1.861935926
1715741845834886188,0.094,,,,1.869629876
1715741845842580138,0.079,,,,1.877323826
1715741845850274088,0.087,,,,1.885017776
1715741845857968038,0.099,,,,1.892711726
1715741845865661988,0.099,,,,1.900405676
1715741845873355938,0.104,,,,1.908099626
1715741845881049888,0.111,,,,1.915793576
1715741845888743838,0.116,,,,1.923487526
1715741845896437788,0.118,,,,1.931181476
1715741845904131738,0.123,,,,1.938875426
1715741845911825688,0.13,,,,1.946569376
1715741845919519638,0.133,,,,1.954263326
1715741845927213588,0.13,,,,1.961957276
1715741845934907538,0.133,,,,1.969651226
1715741845942601488,0.138,,,,1.977345176
1715741845950295438,0.145,,,,1.985039126
1715741845957989388,0.145,,,,1.992733076
1715741845965683338,0.147,,,,2.000427026
1715741845973377288,0.147,,,,2.008120976
1715741845981071238,0.145,,,,2.015814926
1715741845988765188,0.145,,,,2.023508876
1715741845996459138,0.147,,,,2.031202826
1715741846004153088,0.15,,,,2.038896776
1715741846011847038,0.15,,,,2.046590726
1715741846019540988,0.142,,,,2.054284676
1715741846027234938,0.14,,,,2.061978626
1715741846034928888,0.142,,,,2.069672576
1715741846042622838,0.142,,,,2.077366526
1715741846050316788,0.135,,,,2.085060476
1715741846058010738,0.128,,,,2.092754426
1715741846065704688,0.125,,,,2.100448376
1715741846073398638,0.118,,,,2.108142326
1715741846081092588,0.116,,,,2.115836276
1715741846088786538,0.116,,,,2.123530226
1715741846096480488,0.116,,,,2.131224176
1715741846104174438,0.116,,,,2.138918126
1715741846111868388,0.113,,,,2.146612076
1715741846119562338,0.108,,,,2.154306026
1715741846127256288,0.116,,,,2.161999976
1715741846134950238,0.123,,,,2.169693926
1715741846142644188,0.121,,,,2.177387876
1715741846150338138,0.118,,,,2.185081826
1715741846158032088,0.121,,,,2.192775776
1715741846165726038,0.118,,,,2.200469726
1715741846173419988,0.106,,,,2.208163676
1715741846181113938,0.096,,,,2.215857626
1715741846188807888,0.101,,,,2.223551576
1715741846196501838,0.104,,,,2.231245526
1715741846204195788,0.094,,,,2.238939476
1715741846211889746,0.087,85.0,715.0,,2.246633434
1715741846219583696,0.092,,,,2.254327384
1715741846227277646,0.094,,,,2.262021334
1715741846234971596,0.092,,,,2.269715284
1715741846242665546,0.087,,,,2.277409234
1715741846250359496,0.089,,,,2.285103184
1715741846258053446,0.087,,,,2.292797134
1715741846265747396,0.087,,,,2.300491084
1715741846273441346,0.092,,,,2.308185034
1715741846281135296,0.094,,,,2.315878984
1715741846288829246,0.087,,,,2.323572934
1715741846296523196,0.082,,,,2.331266884
1715741846304217146,0.089,,,,2.338960834
1715741846311911096,0.096,,,,2.346654784
1715741846319605046,0.082,,,,2.354348734
1715741846327298996,0.075,,,,2.362042684
1715741846334992946,0.089,,,,2.369736634
1715741846342686896,0.092,,,,2.377430584
1715741846350380846,0.079,,,,2.385124534
1715741846358074796,0.082,,,,2.392818484
1715741846365768746,0.094,,,,2.400512434
1715741846373462696,0.094,,,,2.408206384
1715741846381156646,0.094,,,,2.415900334
1715741846388850596,0.108,,,,2.423594284
1715741846396544546,0.118,,,,2.431288234
1715741846404238496,0.111,,,,2.438982184
1715741846411932446,0.104,,,,2.446676134
1715741846419626396,0.106,,,,2.454370084
1715741846427320346,0.111,,,,2.462064034
1715741846435014296,0.111,,,,2.469757984
1715741846442708246,0.106,,,,2.477451934
1715741846450402196,0.106,,,,2.485145884
1715741846458096146,0.111,,,,2.492839834
1715741846465790096,0.108,,,,2.500533784
1715741846473484046,0.116,,,,2.508227734
1715741846481177996,0.179,,,,2.515921684
1715741846488871946,0.317,,,,2.523615634
1715741846496565896,0.462,,,,2.531309584
1715741846504259846,0.464,,,,2.539003534
1715741846511953796,0.256,,,,2.546697484
1715741846519647746,0.065,,,,2.554391434
1715741846527341696,0.077,,,,2.562085384
1715741846535035646,0.113,,,,2.569779334
1715741846542729596,0.082,,,,2.577473284
1715741846550423546,0.082,,,,2.585167234
1715741846558117496,0.101,,,,2.592861184
1715741846565811446,0.099,,,,2.600555134
1715741846573505396,0.101,,,,2.608249084
1715741846581199346,0.106,,,,2.615943034
1715741846588893296,0.104,,,,2.623636984
1715741846596587246,0.106,,,,2.631330934
1715741846604281196,0.118,,,,2.639024884
1715741846611975146,0.123,,,,2.646718834
1715741846619669096,0.116,,,,2.654412784
1715741846627363046,0.116,,,,2.662106734
1715741846635056996,0.123,,,,2.669800684
1715741846642750946,0.13,,,,2.677494634
1715741846650444896,0.13,,,,2.685188584
1715741846658138846,0.13,,,,2.692882534
1715741846665832796,0.135,,,,2.700576484
1715741846673526746,0.128,,,,2.708270434
1715741846681220696,0.118,,,,2.715964384
1715741846688914646,0.128,,,,2.723658334
1715741846696608596,0.142,,,,2.731352284
1715741846704302546,0.14,,,,2.739046234
1715741846711996496,0.13,,,,2.746740184
1715741846719690446,0.128,,,,2.754434134
1715741846727384396,0.133,,,,2.762128084
1715741846735078346,0.138,,,,2.769822034
1715741846742772296,0.138,,,,2.777515984
1715741846750466246,0.135,,,,2.785209934
1715741846758160196,0.13,,,,2.792903884
1715741846765854146,0.121,,,,2.800597834
1715741846773548104,0.116,,,,2.808291792
1715741846781242054,0.118,,,,2.815985742
1715741846788936004,0.113,,,,2.823679692
1715741846796629954,0.099,,,,2.831373642
1715741846804323904,0.092,,,,2.839067592
1715741846812017854,0.094,,,,2.846761542
1715741846819711804,0.099,,,,2.854455492
1715741846827405754,0.099,,,,2.862149442
1715741846835099704,0.089,,,,2.869843392
1715741846842793654,0.084,,,,2.877537342
1715741846850487604,0.089,,,,2.885231292
1715741846858181554,0.092,,,,2.892925242
1715741846865875504,0.094,,,,2.900619192
1715741846873569454,0.094,,,,2.908313142
1715741846881263404,0.089,,,,2.916007092
1715741846888957354,0.089,,,,2.923701042
1715741846896651304,0.094,,,,2.931394992
1715741846904345254,0.094,,,,2.939088942
1715741846912039204,0.087,,,,2.946782892
1715741846919733154,0.077,,,,2.954476842
1715741846927427104,0.079,,,,2.962170792
1715741846935121054,0.087,,,,2.969864742
1715741846942815004,0.092,,,,2.977558692
1715741846950508954,0.087,,,,2.985252642
1715741846958202904,0.079,,,,2.992946592
1715741846965896854,0.077,,,,3.000640542
1715741846973590804,0.079,,,,3.008334492
1715741846981284754,0.082,,,,3.016028442
1715741846988978704,0.084,,,,3.023722392
1715741846996672654,0.087,,,,3.031416342
1715741847004366604,0.089,,,,3.039110292
1715741847012060554,0.089,,,,3.046804242
1715741847019754504,0.089,,,,3.054498192
1715741847027448454,0.089,,,,3.062192142
1715741847035142404,0.082,,,,3.069886092
1715741847042836354,0.077,,,,3.077580042
1715741847050530304,0.082,,,,3.085273992
1715741847058224254,0.087,,,,3.092967942
1715741847065918204,0.089,,,,3.100661892
1715741847073612154,0.094,,,,3.108355842
1715741847081306104,0.099,,,,3.116049792
1715741847089000054,0.101,,,,3.123743742
1715741847096694004,0.101,,,,3.131437692
1715741847104387954,0.101,,,,3.139131642
1715741847112081904,0.101,,,,3.146825592
1715741847119775854,0.104,,,,3.154519542
1715741847127469804,0.111,,,,3.162213492
1715741847135163754,0.111,,,,3.169907442
1715741847142857704,0.108,,,,3.177601392
1715741847150551654,0.108,,,,3.185295342
1715741847158245604,0.106,,,,3.192989292
1715741847165939554,0.104,,,,3.200683242
1715741847173633504,0.106,,,,3.208377192
1715741847181327454,0.096,,,,3.216071142
1715741847189021404,0.084,,,,3.223765092
1715741847196715354,0.084,,,,3.231459042
1715741847204409304,0.092,,,,3.239152992
1715741847212103254,0.099,,,,3.246846942
1715741847219797204,0.147,,,,3.254540892
1715741847227491154,0.276,,,,3.262234842
1715741847235185104,0.433,,,,3.269928792
1715741847242879054,0.467,,,,3.277622742
1715741847250573004,0.276,,,,3.285316692
1715741847258266954,0.055,,,,3.293010642
1715741847265960904,0.046,,,,3.300704592
1715741847273654854,0.099,,,,3.308398542
1715741847281348804,0.067,,,,3.316092492
1715741847289042754,0.058,,,,3.323786442
1715741847296736704,0.079,,,,3.331480392
1715741847304430654,0.077,,,,3.339174342
1715741847312124604,0.075,,,,3.346868292
1715741847319818554,0.087,,,,3.354562242
1715741847327512504,0.092,,,,3.362256192
1715741847335206462,0.089,85.0,722.0,,3.36995015
1715741847342900412,0.094,,720.0,,3.3776441
1715741847350594362,0.099,,,,3.38533805
1715741847358288312,0.099,,,,3.393032
1715741847365982262,0.096,,,,3.40072595
1715741847373676212,0.092,,,,3.4084199
1715741847381370162,0.092,,,,3.41611385
1715741847389064112,0.099,,,,3.4238078
1715741847396758062,0.104,,,,3.43150175
1715741847404452012,0.108,,,,3.4391957
1715741847412145962,0.108,,,,3.44688965
1715741847419839912,0.111,,,,3.4545836
1715741847427533862,0.118,,,,3.46227755
1715741847435227812,0.13,,,,3.4699715
1715741847442921762,0.135,,,,3.47766545
1715741847450615712,0.13,,,,3.4853594
1715741847458309662,0.116,,,,3.49305335
1715741847466003612,0.108,,,,3.5007473
1715741847473697562,0.113,,,,3.50844125
1715741847481391512,0.121,,,,3.5161352
1715741847489085462,0.118,,,,3.52382915
1715741847496779412,0.113,,,,3.5315231
1715741847504473362,0.111,,,,3.53921705
1715741847512167312,0.101,,,,3.546911
1715741847519861262,0.094,,,,3.55460495
1715741847527555212,0.094,,,,3.5622989
1715741847535249162,0.092,,,,3.56999285
1715741847542943112,0.075,,,,3.5776868
1715741847550637062,0.062,,,,3.58538075
1715741847558331012,0.067,,,,3.5930747
1715741847566024962,0.075,,,,3.60076865
1715741847573718912,0.075,,,,3.6084626
1715741847581412862,0.075,,,,3.61615655
1715741847589106812,0.077,,,,3.6238505
1715741847596800762,0.077,,,,3.63154445
1715741847604494712,0.079,,,,3.6392384
1715741847612188662,0.075,,,,3.64693235
1715741847619882612,0.07,,,,3.6546263
1715741847627576562,0.07,,,,3.66232025
1715741847635270512,0.065,,,,3.6700142
1715741847642964462,0.062,,,,3.67770815
1715741847650658412,0.065,,,,3.6854021
1715741847658352362,0.067,,,,3.69309605
1715741847666046312,0.067,,,,3.70079
1715741847673740262,0.067,,,,3.70848395
1715741847681434212,0.062,,,,3.7161779
1715741847689128162,0.05,,,,3.72387185
1715741847696822112,0.041,,,,3.7315658
1715741847704516062,0.043,,,,3.73925975
1715741847712210012,0.046,,,,3.7469537
1715741847719903962,0.046,,,,3.75464765
1715741847727597912,0.048,,,,3.7623416
1715741847735291862,0.048,,,,3.77003555
1715741847742985812,0.05,,,,3.7777295
1715741847750679762,0.055,,,,3.78542345
1715741847758373712,0.055,,,,3.7931174
1715741847766067662,0.053,,,,3.80081135
1715741847773761612,0.048,,,,3.8085053
1715741847781455562,0.05,,,,3.81619925
1715741847789149512,0.06,,,,3.8238932
1715741847796843462,0.065,,,,3.83158715
1715741847804537412,0.065,,,,3.8392811
1715741847812231362,0.065,,,,3.84697505
1715741847819925312,0.065,,,,3.854669
1715741847827619262,0.062,,,,3.86236295
1715741847835313212,0.067,,,,3.8700569
1715741847843007162,0.072,,,,3.87775085
1715741847850701112,0.07,,,,3.8854448
1715741847858395062,0.07,,,,3.89313875
1715741847866089012,0.07,,,,3.9008327
1715741847873782962,0.07,,,,3.90852665
1715741847881476912,0.072,,,,3.9162206
1715741847889170862,0.084,,,,3.92391455
1715741847896864820,0.101,,,,3.931608508
1715741847904558770,0.104,,,,3.939302458
1715741847912252720,0.087,,,,3.946996408
1715741847919946670,0.079,,,,3.954690358
1715741847927640620,0.087,,,,3.962384308
1715741847935334570,0.084,,,,3.970078258
1715741847943028520,0.075,,,,3.977772208
1715741847950722470,0.075,,,,3.985466158
1715741847958416420,0.087,,,,3.993160108
1715741847966110370,0.077,,,,4.000854058
1715741847973804320,0.062,,,,4.008548008
1715741847981498270,0.092,,,,4.016241958
1715741847989192220,0.198,,,,4.023935908
1715741847996886170,0.346,,,,4.031629858
1715741848004580120,0.44,,,,4.039323808
1715741848012274070,0.341,,,,4.047017758
1715741848019968020,0.108,,,,4.054711708
1715741848027661970,0.019,,,,4.062405658
1715741848035355920,0.072,,,,4.070099608
1715741848043049870,0.072,,,,4.077793558
1715741848050743820,0.046,,,,4.085487508
1715741848058437770,0.055,,,,4.093181458
1715741848066131720,0.062,,,,4.100875408
1715741848073825670,0.065,,,,4.108569358
1715741848081519620,0.072,,,,4.116263308
1715741848089213570,0.072,,,,4.123957258
1715741848096907520,0.067,,,,4.131651208
1715741848104601470,0.072,,,,4.139345158
1715741848112295420,0.084,,,,4.147039108
1715741848119989370,0.087,,,,4.154733058
1715741848127683320,0.087,,,,4.162427008
1715741848135377270,0.087,,,,4.170120958
1715741848143071220,0.089,,,,4.177814908
1715741848150765170,0.094,,,,4.185508858
1715741848158459120,0.101,,,,4.193202808
1715741848166153070,0.104,,,,4.200896758
1715741848173847020,0.101,,,,4.208590708
1715741848181540970,0.104,,,,4.216284658
1715741848189234920,0.101,,,,4.223978608
1715741848196928870,0.092,,,,4.231672558
1715741848204622820,0.101,,,,4.239366508
1715741848212316770,0.113,,,,4.247060458
1715741848220010720,0.106,,,,4.254754408
1715741848227704670,0.104,,,,4.262448358
1715741848235398620,0.108,,,,4.270142308
1715741848243092570,0.106,,,,4.277836258
1715741848250786520,0.108,,,,4.285530208
1715741848258480470,0.106,,,,4.293224158
1715741848266174420,0.096,,,,4.300918108
1715741848273868370,0.087,,,,4.308612058
1715741848281562320,0.079,,,,4.316306008
1715741848289256270,0.07,,,,4.323999958
1715741848296950220,0.065,,,,4.331693908
1715741848304644170,0.06,,,,4.339387858
1715741848312338120,0.06,,,,4.347081808
1715741848320032070,0.058,,,,4.354775758
1715741848327726020,0.053,,,,4.362469708
1715741848335419970,0.05,,,,4.370163658
1715741848343113920,0.048,,,,4.377857608
1715741848350807870,0.043,,,,4.385551558
1715741848358501820,0.046,,,,4.393245508
1715741848366195770,0.055,,,,4.400939458
1715741848373889720,0.06,,,,4.408633408
1715741848381583670,0.055,,,,4.416327358
1715741848389277620,0.05,,,,4.424021308
1715741848396971570,0.053,,,,4.431715258
1715741848404665520,0.065,,,,4.439409208
1715741848412359470,0.065,,,,4.447103158
1715741848420053420,0.053,,,,4.454797108
1715741848427747370,0.053,,,,4.462491058
1715741848435441320,0.055,,,,4.470185008
1715741848443135270,0.053,,,,4.477878958
1715741848450829220,0.05,,,,4.485572908
1715741848458523180,0.048,85.0,728.0,,4.493266868
1715741848466217130,0.05,,,,4.500960818
1715741848473911080,0.055,,,,4.508654768
1715741848481605030,0.06,,,,4.516348718
1715741848489298980,0.07,,,,4.524042668
1715741848496992930,0.065,,,,4.531736618
1715741848504686880,0.053,,,,4.539430568
1715741848512380830,0.055,,,,4.547124518
1715741848520074780,0.065,,,,4.554818468
1715741848527768730,0.075,,,,4.562512418
1715741848535462680,0.07,,,,4.570206368
1715741848543156630,0.058,,,,4.577900318
1715741848550850580,0.055,,,,4.585594268
1715741848558544530,0.062,,,,4.593288218
1715741848566238480,0.058,,,,4.600982168
1715741848573932430,0.053,,,,4.608676118
1715741848581626380,0.062,,,,4.616370068
1715741848589320330,0.075,,,,4.624064018
1715741848597014280,0.075,,,,4.631757968
1715741848604708230,0.067,,,,4.639451918
1715741848612402180,0.07,,,,4.647145868
1715741848620096130,0.077,,,,4.654839818
1715741848627790080,0.075,,,,4.662533768
1715741848635484030,0.067,,,,4.670227718
1715741848643177980,0.077,,,,4.677921668
1715741848650871930,0.089,,,,4.685615618
1715741848658565880,0.094,,,,4.693309568
1715741848666259830,0.104,,,,4.701003518
1715741848673953780,0.101,,,,4.708697468
1715741848681647730,0.077,,,,4.716391418
1715741848689341680,0.058,,,,4.724085368
1715741848697035630,0.055,,,,4.731779318
1715741848704729580,0.065,,,,4.739473268
1715741848712423530,0.07,,,,4.747167218
1715741848720117480,0.067,,,,4.754861168
1715741848727811430,0.065,,,,4.762555118
1715741848735505380,0.07,,,,4.770249068
1715741848743199330,0.094,,,,4.777943018
1715741848750893280,0.162,,,,4.785636968
1715741848758587230,0.285,,,,4.793330918
1715741848766281180,0.418,,,,4.801024868
1715741848773975130,0.399,,,,4.808718818
1715741848781669080,0.176,,,,4.816412768
1715741848789363030,0.016,,,,4.824106718
1715741848797056980,0.062,,,,4.831800668
1715741848804750930,0.096,,,,4.839494618
1715741848812444880,0.05,,,,4.847188568
1715741848820138830,0.038,,,,4.854882518
1715741848827832780,0.058,,,,4.862576468
1715741848835526730,0.06,,,,4.870270418
1715741848843220680,0.065,,,,4.877964368
1715741848850914630,0.077,,,,4.885658318
1715741848858608580,0.079,,,,4.893352268
1715741848866302530,0.077,,,,4.901046218
1715741848873996480,0.082,,,,4.908740168
1715741848881690430,0.089,,,,4.916434118
1715741848889384380,0.092,,,,4.924128068
1715741848897078330,0.092,,,,4.931822018
1715741848904772280,0.087,,,,4.939515968
1715741848912466230,0.096,,,,4.947209918
1715741848920160180,0.108,,,,4.954903868
1715741848927854130,0.099,,,,4.962597818
1715741848935548080,0.084,,,,4.970291768
1715741848943242030,0.096,,,,4.977985718
1715741848950935980,0.106,,,,4.985679668
1715741848958629930,0.106,,,,4.993373618
1715741848966323880,0.111,,,,5.001067568
1715741848974017830,0.113,,,,5.008761518
1715741848981711780,0.108,,,,5.016455468
1715741848989405730,0.111,,,,5.024149418
1715741848997099680,0.113,,,,5.031843368
1715741849004793630,0.113,,,,5.039537318
1715741849012487580,0.106,,,,5.047231268
1715741849020181538,0.096,,,,5.054925226
1715741849027875488,0.099,,,,5.062619176
1715741849035569438,0.094,,,,5.070313126
1715741849043263388,0.075,,,,5.078007076
1715741849050957338,0.067,,,,5.085701026
1715741849058651288,0.062,,,,5.093394976
1715741849066345238,0.053,,,,5.101088926
1715741849074039188,0.043,,,,5.108782876
1715741849081733138,0.043,,,,5.116476826
1715741849089427088,0.048,,,,5.124170776
1715741849097121038,0.041,,,,5.131864726
1715741849104814988,0.029,,,,5.139558676
1715741849112508938,0.033,,,,5.147252626
1715741849120202888,0.046,,,,5.154946576
1715741849127896838,0.046,,,,5.162640526
1715741849135590788,0.046,,,,5.170334476
1715741849143284738,0.05,,,,5.178028426
1715741849150978688,0.055,,,,5.185722376
1715741849158672638,0.06,,,,5.193416326
1715741849166366588,0.06,,,,5.201110276
1715741849174060538,0.06,,,,5.208804226
1715741849181754488,0.062,,,,5.216498176
1715741849189448438,0.06,,,,5.224192126
1715741849197142388,0.048,,,,5.231886076
1715741849204836338,0.036,,,,5.239580026
1715741849212530288,0.038,,,,5.247273976
1715741849220224238,0.043,,,,5.254967926
1715741849227918188,0.041,,,,5.262661876
1715741849235612138,0.043,,,,5.270355826
1715741849243306088,0.05,,,,5.278049776
1715741849251000038,0.048,,,,5.285743726
1715741849258693988,0.038,,,,5.293437676
1715741849266387938,0.041,,,,5.301131626
1715741849274081888,0.06,,,,5.308825576
1715741849281775838,0.065,,,,5.316519526
1715741849289469788,0.065,,,,5.324213476
1715741849297163738,0.067,,,,5.331907426
1715741849304857688,0.065,,,,5.339601376
1715741849312551638,0.065,,,,5.347295326
1715741849320245588,0.067,,,,5.354989276
1715741849327939538,0.062,,,,5.362683226
1715741849335633488,0.067,,,,5.370377176
1715741849343327438,0.079,,,,5.378071126
1715741849351021388,0.067,,,,5.385765076
1715741849358715338,0.053,,,,5.393459026
1715741849366409288,0.062,,,,5.401152976
1715741849374103238,0.075,,,,5.408846926
1715741849381797188,0.084,,,,5.416540876
1715741849389491138,0.092,,,,5.424234826
1715741849397185088,0.092,,,,5.431928776
1715741849404879038,0.084,,,,5.439622726
1715741849412572988,0.079,,,,5.447316676
1715741849420266938,0.079,,,,5.455010626
1715741849427960888,0.072,,,,5.462704576
1715741849435654838,0.07,,,,5.470398526
1715741849443348788,0.077,,,,5.478092476
1715741849451042738,0.082,,,,5.485786426
1715741849458736688,0.077,,,,5.493480376
1715741849466430638,0.077,,,,5.501174326
1715741849474124588,0.116,,,,5.508868276
1715741849481818538,0.222,,,,5.516562226
1715741849489512488,0.375,,,,5.524256176
1715741849497206438,0.452,,,,5.531950126
1715741849504900388,0.322,,,,5.539644076
1715741849512594338,0.089,,,,5.547338026
1715741849520288288,0.026,,,,5.555031976
1715741849527982238,0.096,,,,5.562725926
1715741849535676188,0.094,,,,5.570419876
1715741849543370138,0.062,,,,5.578113826
1715741849551064088,0.067,,,,5.585807776
1715741849558758038,0.067,,,,5.593501726
1715741849566451988,0.062,,,,5.601195676
1715741849574145938,0.079,,,,5.608889626
1715741849581839896,0.087,84.0,739.0,,5.616583584
1715741849589533846,0.077,,,,5.624277534
1715741849597227796,0.075,,,,5.631971484
1715741849604921746,0.089,,,,5.639665434
1715741849612615696,0.096,,,,5.647359384
1715741849620309646,0.099,,,,5.655053334
1715741849628003596,0.104,,,,5.662747284
1715741849635697546,0.104,,,,5.670441234
1715741849643391496,0.101,,,,5.678135184
1715741849651085446,0.101,,,,5.685829134
1715741849658779396,0.099,,,,5.693523084
1715741849666473346,0.092,,,,5.701217034
1715741849674167296,0.092,,,,5.708910984
1715741849681861246,0.104,,,,5.716604934
1715741849689555196,0.113,,,,5.724298884
1715741849697249146,0.106,,,,5.731992834
1715741849704943096,0.096,,,,5.739686784
1715741849712637046,0.096,,,,5.747380734
1715741849720330996,0.089,,,,5.755074684
1715741849728024946,0.087,,,,5.762768634
1715741849735718896,0.094,,,,5.770462584
1715741849743412846,0.096,,,,5.778156534
1715741849751106796,0.094,,,,5.785850484
1715741849758800746,0.087,,,,5.793544434
1715741849766494696,0.07,,,,5.801238384
1715741849774188646,0.058,,,,5.808932334
1715741849781882596,0.06,,,,5.816626284
1715741849789576546,0.065,,,,5.824320234
1715741849797270496,0.065,,,,5.832014184
1715741849804964446,0.055,,,,5.839708134
1715741849812658396,0.038,,,,5.847402084
1715741849820352346,0.041,,,,5.855096034
1715741849828046296,0.055,,,,5.862789984
1715741849835740246,0.058,,,,5.870483934
1715741849843434196,0.055,,,,5.878177884
1715741849851128146,0.055,,,,5.885871834
1715741849858822096,0.062,,,,5.893565784
1715741849866516046,0.067,,,,5.901259734
1715741849874209996,0.067,,,,5.908953684
1715741849881903946,0.072,,,,5.916647634
1715741849889597896,0.084,,,,5.924341584
1715741849897291846,0.084,,,,5.932035534
1715741849904985796,0.077,,,,5.939729484
1715741849912679746,0.065,,,,5.947423434
1715741849920373696,0.06,,,,5.955117384
1715741849928067646,0.065,,,,5.962811334
1715741849935761596,0.067,,,,5.970505284
1715741849943455546,0.067,,,,5.978199234
1715741849951149496,0.07,,,,5.985893184
1715741849958843446,0.077,,,,5.993587134
1715741849966537396,0.079,,,,6.001281084
1715741849974231346,0.075,,,,6.008975034
1715741849981925296,0.072,,,,6.016668984
1715741849989619246,0.079,,,,6.024362934
1715741849997313196,0.079,,,,6.032056884
1715741850005007146,0.075,,,,6.039750834
1715741850012701096,0.077,,,,6.047444784
1715741850020395046,0.082,,,,6.055138734
1715741850028088996,0.089,,,,6.062832684
1715741850035782946,0.092,,,,6.070526634
1715741850043476896,0.082,,,,6.078220584
1715741850051170846,0.087,,,,6.085914534
1715741850058864796,0.101,,,,6.093608484
1715741850066558746,0.096,,,,6.101302434
1715741850074252696,0.079,,,,6.108996384
1715741850081946646,0.079,,,,6.116690334
1715741850089640596,0.092,,,,6.124384284
1715741850097334546,0.094,,,,6.132078234
1715741850105028496,0.082,,,,6.139772184
1715741850112722446,0.087,,,,6.147466134
1715741850120416396,0.111,,,,6.155160084
1715741850128110346,0.123,,,,6.162854034
1715741850135804296,0.108,,,,6.170547984
1715741850143498254,0.094,,,,6.178241942
1715741850151192204,0.099,,,,6.185935892
1715741850158886154,0.101,,,,6.193629842
1715741850166580104,0.099,,,,6.201323792
1715741850174274054,0.096,,,,6.209017742
1715741850181968004,0.092,,,,6.216711692
1715741850189661954,0.089,,,,6.224405642
1715741850197355904,0.089,,,,6.232099592
1715741850205049854,0.099,,,,6.239793542
1715741850212743804,0.176,,,,6.247487492
1715741850220437754,0.317,,,,6.255181442
1715741850228131704,0.438,,,,6.262875392
1715741850235825654,0.392,,,,6.270569342
1715741850243519604,0.169,,,,6.278263292
1715741850251213554,0.019,,,,6.285957242
1715741850258907504,0.055,,,,6.293651192
1715741850266601454,0.079,,,,6.301345142
1715741850274295404,0.048,,,,6.309039092
1715741850281989354,0.058,,,,6.316733042
1715741850289683304,0.07,,,,6.324426992
1715741850297377254,0.06,,,,6.332120942
1715741850305071204,0.062,,,,6.339814892
1715741850312765154,0.07,,,,6.347508842
1715741850320459104,0.072,,,,6.355202792
1715741850328153054,0.079,,,,6.362896742
1715741850335847004,0.082,,,,6.370590692
1715741850343540954,0.072,,,,6.378284642
1715741850351234904,0.075,,,,6.385978592
1715741850358928854,0.092,,,,6.393672542
1715741850366622804,0.101,,,,6.401366492
1715741850374316754,0.101,,,,6.409060442
1715741850382010704,0.104,,,,6.416754392
1715741850389704654,0.113,,,,6.424448342
1715741850397398604,0.113,,,,6.432142292
1715741850405092554,0.106,,,,6.439836242
1715741850412786504,0.101,,,,6.447530192
1715741850420480454,0.108,,,,6.455224142
1715741850428174404,0.116,,,,6.462918092
1715741850435868354,0.116,,,,6.470612042
1715741850443562304,0.108,,,,6.478305992
1715741850451256254,0.106,,,,6.485999942
1715741850458950204,0.108,,,,6.493693892
1715741850466644154,0.111,,,,6.501387842
1715741850474338104,0.111,,,,6.509081792
1715741850482032054,0.111,,,,6.516775742
1715741850489726004,0.104,,,,6.524469692
1715741850497419954,0.089,,,,6.532163642
1715741850505113904,0.079,,,,6.539857592
1715741850512807854,0.075,,,,6.547551542
1715741850520501804,0.065,,,,6.555245492
1715741850528195754,0.053,,,,6.562939442
1715741850535889704,0.053,,,,6.570633392
1715741850543583654,0.06,,,,6.578327342
1715741850551277604,0.048,,,,6.586021292
1715741850558971554,0.038,,,,6.593715242
1715741850566665504,0.05,,,,6.601409192
1715741850574359454,0.058,,,,6.609103142
1715741850582053404,0.05,,,,6.616797092
1715741850589747354,0.053,,,,6.624491042
1715741850597441304,0.067,,,,6.632184992
1715741850605135254,0.072,,,,6.639878942
1715741850612829204,0.07,,,,6.647572892
1715741850620523154,0.07,,,,6.655266842
1715741850628217104,0.072,,,,6.662960792
1715741850635911054,0.075,,,,6.670654742
1715741850643605004,0.072,,,,6.678348692
1715741850651298954,0.07,,,,6.686042642
1715741850658992904,0.072,,,,6.693736592
1715741850666686854,0.067,,,,6.701430542
1715741850674380804,0.06,,,,6.709124492
1715741850682074754,0.062,,,,6.716818442
1715741850689768704,0.065,,,,6.724512392
1715741850697462654,0.065,,,,6.732206342
1715741850705156612,0.058,84.0,765.0,,6.7399003
1715741850712850562,0.053,,765.0,,6.74759425
1715741850720544512,0.062,,,,6.7552882
1715741850728238462,0.067,,,,6.76298215
1715741850735932412,0.065,,,,6.7706761
1715741850743626362,0.077,,,,6.77837005
1715741850751320312,0.079,,,,6.786064
1715741850759014262,0.065,,,,6.79375795
1715741850766708212,0.055,,,,6.8014519
1715741850774402162,0.06,,,,6.80914585
1715741850782096112,0.058,,,,6.8168398
1715741850789790062,0.053,,,,6.82453375
1715741850797484012,0.062,,,,6.8322277
1715741850805177962,0.075,,,,6.83992165
1715741850812871912,0.072,,,,6.8476156
1715741850820565862,0.07,,,,6.85530955
1715741850828259812,0.07,,,,6.8630035
1715741850835953762,0.07,,,,6.87069745
1715741850843647712,0.079,,,,6.8783914
1715741850851341662,0.084,,,,6.88608535
1715741850859035612,0.082,,,,6.8937793
1715741850866729562,0.089,,,,6.90147325
1715741850874423512,0.101,,,,6.9091672
1715741850882117462,0.096,,,,6.91686115
1715741850889811412,0.087,,,,6.9245551
1715741850897505362,0.079,,,,6.93224905
1715741850905199312,0.077,,,,6.939943
1715741850912893262,0.077,,,,6.94763695
1715741850920587212,0.079,,,,6.9553309
1715741850928281162,0.079,,,,6.96302485
1715741850935975112,0.082,,,,6.9707188
1715741850943669062,0.084,,,,6.97841275
1715741850951363012,0.094,,,,6.9861067
1715741850959056962,0.142,,,,6.99380065
1715741850966750912,0.251,,,,7.0014946
1715741850974444862,0.399,,,,7.00918855
1715741850982138812,0.467,,,,7.0168825
1715741850989832762,0.319,,,,7.02457645
1715741850997526712,0.082,,,,7.0322704
1715741851005220662,0.031,,,,7.03996435
1715741851012914612,0.094,,,,7.0476583
1715741851020608562,0.082,,,,7.05535225
1715741851028302512,0.06,,,,7.0630462
1715741851035996462,0.077,,,,7.07074015
1715741851043690412,0.087,,,,7.0784341
1715741851051384362,0.079,,,,7.08612805
1715741851059078312,0.077,,,,7.093822
1715741851066772262,0.075,,,,7.10151595
1715741851074466212,0.077,,,,7.1092099
1715741851082160162,0.087,,,,7.11690385
1715741851089854112,0.094,,,,7.1245978
1715741851097548062,0.094,,,,7.13229175
1715741851105242012,0.096,,,,7.1399857
1715741851112935962,0.104,,,,7.14767965
1715741851120629912,0.104,,,,7.1553736
1715741851128323862,0.104,,,,7.16306755
1715741851136017812,0.106,,,,7.1707615
1715741851143711762,0.106,,,,7.17845545
1715741851151405712,0.108,,,,7.1861494
1715741851159099662,0.111,,,,7.19384335
1715741851166793612,0.113,,,,7.2015373
1715741851174487562,0.116,,,,7.20923125
1715741851182181512,0.121,,,,7.2169252
1715741851189875462,0.116,,,,7.22461915
1715741851197569412,0.116,,,,7.2323131
1715741851205263362,0.118,,,,7.24000705
1715741851212957312,0.108,,,,7.247701
1715741851220651262,0.094,,,,7.25539495
1715741851228345212,0.099,,,,7.2630889
1715741851236039162,0.101,,,,7.27078285
1715741851243733112,0.089,,,,7.2784768
1715741851251427062,0.072,,,,7.28617075
1715741851259121012,0.065,,,,7.2938647
1715741851266814970,0.062,83.0,728.0,,7.301558658
1715741851274508850,0.055,,,,7.309252538
1715741851282202730,0.053,,,,7.316946418
1715741851289896610,0.05,,,,7.324640298
1715741851297590490,0.041,,,,7.332334178
1715741851305284370,0.036,,,,7.340028058
1715741851312978250,0.038,,,,7.347721938
1715741851320672130,0.041,,,,7.355415818
1715741851328366010,0.038,,,,7.363109698
1715741851336059890,0.036,,,,7.370803578
1715741851343753770,0.046,,,,7.378497458
1715741851351447650,0.055,,,,7.386191338
1715741851359141530,0.048,,,,7.393885218
1715741851366835410,0.038,,,,7.401579098
1715741851374529290,0.043,,,,7.409272978
1715741851382223170,0.046,,,,7.416966858
1715741851389917050,0.043,,,,7.424660738
1715741851397610930,0.048,,,,7.432354618
1715741851405304810,0.053,,,,7.440048498
1715741851412998690,0.05,,,,7.447742378
1715741851420692570,0.05,,,,7.455436258
1715741851428386450,0.055,,,,7.463130138
1715741851436080330,0.058,,,,7.470824018
1715741851443774210,0.058,,,,7.478517898
1715741851451468090,0.055,,,,7.486211778
1715741851459161970,0.05,,,,7.493905658
1715741851466855850,0.053,,,,7.501599538
1715741851474549730,0.055,,,,7.509293418
1715741851482243610,0.055,,,,7.516987298
1715741851489937490,0.058,,,,7.524681178
1715741851497631370,0.062,,,,7.532375058
1715741851505325250,0.062,,,,7.540068938
1715741851513019130,0.062,,,,7.547762818
1715741851520713010,0.065,,,,7.555456698
1715741851528406890,0.07,,,,7.563150578
1715741851536100770,0.07,,,,7.570844458
1715741851543794650,0.07,,,,7.578538338
1715741851551488530,0.072,,,,7.586232218
1715741851559182410,0.077,,,,7.593926098
1715741851566876290,0.077,,,,7.601619978
1715741851574570170,0.082,,,,7.609313858
1715741851582264050,0.089,,,,7.617007738
1715741851589957930,0.092,,,,7.624701618
1715741851597651810,0.089,,,,7.632395498
1715741851605345690,0.084,,,,7.640089378
1715741851613039570,0.084,,,,7.647783258
1715741851620733450,0.087,,,,7.655477138
1715741851628427330,0.092,,,,7.663171018
1715741851636121210,0.101,,,,7.670864898
1715741851643815090,0.106,,,,7.678558778
1715741851651508970,0.104,,,,7.686252658
1715741851659202850,0.094,,,,7.693946538
1715741851666896730,0.092,,,,7.701640418
1715741851674590610,0.096,,,,7.709334298
1715741851682284490,0.101,,,,7.717028178
1715741851689978370,0.104,,,,7.724722058
1715741851697672250,0.104,,,,7.732415938
1715741851705366130,0.099,,,,7.740109818
1715741851713060010,0.092,,,,7.747803698
1715741851720753890,0.089,,,,7.755497578
1715741851728447770,0.128,,,,7.763191458
1715741851736141650,0.23,,,,7.770885338
1715741851743835530,0.372,,,,7.778579218
1715741851751529410,0.455,,,,7.786273098
1715741851759223290,0.338,,,,7.793966978
1715741851766917170,0.104,,,,7.801660858
1715741851774611050,0.029,,,,7.809354738
1715741851782304930,0.089,,,,7.817048618
1715741851789998810,0.082,,,,7.824742498
1715741851797692690,0.048,,,,7.832436378
1715741851805386570,0.067,,,,7.840130258
1715741851813080450,0.089,,,,7.847824138
1715741851820774330,0.084,,,,7.855518018
1715741851828468244,0.084,,,,7.863211932
1715741851836162124,0.084,,,,7.870905812
1715741851843856004,0.079,,,,7.878599692
1715741851851549884,0.084,,,,7.886293572
1715741851859243764,0.099,,,,7.893987452
1715741851866937644,0.099,,,,7.901681332
1715741851874631524,0.099,,,,7.909375212
1715741851882325404,0.101,,,,7.917069092
1715741851890019284,0.099,,,,7.924762972
1715741851897713164,0.096,,,,7.932456852
1715741851905407044,0.096,,,,7.940150732
1715741851913100924,0.104,,,,7.947844612
1715741851920794804,0.113,,,,7.955538492
1715741851928488684,0.106,,,,7.963232372
1715741851936182564,0.094,,,,7.970926252
1715741851943876444,0.104,,,,7.978620132
1715741851951570324,0.118,,,,7.986314012
1715741851959264204,0.108,,,,7.994007892
1715741851966958084,0.099,,,,8.001701772
1715741851974651964,0.111,,,,8.009395652
1715741851982345844,0.118,,,,8.017089532
1715741851990039724,0.113,,,,8.024783412
1715741851997733604,0.108,,,,8.032477292
1715741852005427484,0.104,,,,8.040171172
1715741852013121364,0.096,,,,8.047865052
1715741852020815244,0.082,,,,8.055558932
1715741852028509124,0.075,,,,8.063252812
1715741852036203004,0.072,,,,8.070946692
1715741852043896884,0.067,,,,8.078640572
1715741852051590764,0.058,,,,8.086334452
1715741852059284644,0.058,,,,8.094028332
1715741852066978524,0.062,,,,8.101722212
1715741852074672404,0.06,,,,8.109416092
1715741852082366284,0.053,,,,8.117109972
1715741852090060164,0.055,,,,8.124803852
1715741852097754044,0.067,,,,8.132497732
1715741852105447924,0.075,,,,8.140191612
1715741852113141804,0.072,,,,8.147885492
1715741852120835684,0.072,,,,8.155579372
1715741852128529564,0.077,,,,8.163273252
1715741852136223444,0.075,,,,8.170967132
1715741852143917324,0.07,,,,8.178661012
1715741852151611204,0.075,,,,8.186354892
1715741852159305084,0.082,,,,8.194048772
1715741852166998964,0.079,,,,8.201742652
1715741852174692844,0.077,,,,8.209436532
1715741852182386724,0.079,,,,8.217130412
1715741852190080604,0.084,,,,8.224824292
1715741852197774484,0.092,,,,8.232518172
1715741852205468364,0.094,,,,8.240212052
1715741852213162244,0.082,,,,8.247905932
1715741852220856124,0.072,,,,8.255599812
1715741852228550004,0.072,,,,8.263293692
1715741852236243884,0.072,,,,8.270987572
1715741852243937764,0.07,,,,8.278681452
1715741852251631644,0.077,,,,8.286375332
1715741852259325524,0.082,,,,8.294069212
1715741852267019404,0.077,,,,8.301763092
1715741852274713284,0.077,,,,8.309456972
1715741852282407164,0.084,,,,8.317150852
1715741852290101044,0.089,,,,8.324844732
1715741852297794924,0.089,,,,8.332538612
1715741852305488804,0.089,,,,8.340232492
1715741852313182684,0.087,,,,8.347926372
1715741852320876564,0.089,,,,8.355620252
1715741852328570444,0.094,,,,8.363314132
1715741852336264324,0.089,,,,8.371008012
1715741852343958204,0.079,,,,8.378701892
1715741852351652084,0.084,,,,8.386395772
1715741852359345964,0.099,,,,8.394089652
1715741852367039844,0.094,,,,8.401783532
1715741852374733724,0.077,,,,8.409477412
1715741852382427604,0.075,,,,8.417171292
1715741852390121516,0.087,83.0,734.0,,8.424865204
1715741852397815396,0.096,,,,8.432559084
1715741852405509276,0.101,,,,8.440252964
1715741852413203156,0.108,,,,8.447946844
1715741852420897036,0.104,,,,8.455640724
1715741852428590916,0.096,,,,8.463334604
1715741852436284796,0.089,,,,8.471028484
1715741852443978676,0.077,,,,8.478722364
1715741852451672556,0.075,,,,8.486416244
1715741852459366436,0.084,,,,8.494110124
1715741852467060316,0.084,,,,8.501804004
1715741852474754196,0.082,,,,8.509497884
1715741852482448076,0.087,,,,8.517191764
1715741852490141956,0.089,,,,8.524885644
1715741852497835836,0.118,,,,8.532579524
1715741852505529716,0.23,,,,8.540273404
1715741852513223596,0.384,,,,8.547967284
1715741852520917476,0.46,,,,8.555661164
1715741852528611356,0.326,,,,8.563355044
1715741852536305236,0.096,,,,8.571048924
1715741852543999116,0.038,,,,8.578742804
1715741852551692996,0.092,,,,8.586436684
1715741852559386876,0.072,,,,8.594130564
1715741852567080756,0.048,,,,8.601824444
1715741852574774636,0.072,,,,8.609518324
1715741852582468516,0.082,,,,8.617212204
1715741852590162396,0.07,,,,8.624906084
1715741852597856276,0.072,,,,8.632599964
1715741852605550156,0.082,,,,8.640293844
1715741852613244036,0.082,,,,8.647987724
1715741852620937916,0.082,,,,8.655681604
1715741852628631796,0.084,,,,8.663375484
1715741852636325676,0.084,,,,8.671069364
1715741852644019556,0.092,,,,8.678763244
1715741852651713436,0.096,,,,8.686457124
1715741852659407316,0.092,,,,8.694151004
1715741852667101196,0.094,,,,8.701844884
1715741852674795076,0.096,,,,8.709538764
1715741852682488956,0.099,,,,8.717232644
1715741852690182836,0.106,,,,8.724926524
1715741852697876716,0.113,,,,8.732620404
1715741852705570596,0.118,,,,8.740314284
1715741852713264476,0.108,,,,8.748008164
1715741852720958356,0.101,,,,8.755702044
1715741852728652236,0.106,,,,8.763395924
1715741852736346116,0.108,,,,8.771089804
1715741852744039996,0.101,,,,8.778783684
1715741852751733876,0.099,,,,8.786477564
1715741852759427756,0.101,,,,8.794171444
1715741852767121636,0.094,,,,8.801865324
1715741852774815516,0.079,,,,8.809559204
1715741852782509396,0.067,,,,8.817253084
1715741852790203276,0.067,,,,8.824946964
1715741852797897156,0.075,,,,8.832640844
1715741852805591036,0.058,,,,8.840334724
1715741852813284916,0.041,,,,8.848028604
1715741852820978796,0.046,,,,8.855722484
1715741852828672676,0.053,,,,8.863416364
1715741852836366556,0.046,,,,8.871110244
1715741852844060436,0.043,,,,8.878804124
1715741852851754316,0.048,,,,8.886498004
1715741852859448196,0.053,,,,8.894191884
1715741852867142076,0.055,,,,8.901885764
1715741852874835956,0.053,,,,8.909579644
1715741852882529836,0.053,,,,8.917273524
1715741852890223716,0.062,,,,8.924967404
1715741852897917596,0.062,,,,8.932661284
1715741852905611476,0.058,,,,8.940355164
1715741852913305356,0.065,,,,8.948049044
1715741852920999236,0.079,,,,8.955742924
1715741852928693116,0.082,,,,8.963436804
1715741852936386996,0.072,,,,8.971130684
1715741852944080876,0.06,,,,8.978824564
1715741852951774788,0.06,,,,8.986518476
1715741852959468529,0.07,,,,8.994212217
1715741852967162270,0.075,,,,9.001905958
1715741852974856011,0.075,,,,9.009599699
1715741852982549752,0.075,,,,9.01729344
1715741852990243493,0.077,,,,9.024987181
1715741852997937234,0.077,,,,9.032680922
1715741853005630975,0.077,,,,9.040374663
1715741853013324716,0.07,,,,9.048068404
1715741853021018457,0.065,,,,9.055762145
1715741853028712198,0.07,,,,9.063455886
1715741853036405939,0.077,,,,9.071149627
1715741853044099680,0.075,,,,9.078843368
1715741853051793421,0.075,,,,9.086537109
1715741853059487162,0.079,,,,9.09423085
1715741853067180903,0.079,,,,9.101924591
1715741853074874644,0.077,,,,9.109618332
1715741853082568385,0.084,,,,9.117312073
1715741853090262126,0.092,,,,9.125005814
1715741853097955867,0.082,,,,9.132699555
1715741853105649608,0.077,,,,9.140393296
1715741853113343349,0.082,,,,9.148087037
1715741853121037090,0.082,,,,9.155780778
1715741853128730831,0.082,,,,9.163474519
1715741853136424572,0.092,,,,9.17116826
1715741853144118313,0.108,,,,9.178862001
1715741853151812054,0.108,,,,9.186555742
1715741853159505795,0.092,,,,9.194249483
1715741853167199536,0.087,,,,9.201943224
1715741853174893277,0.104,,,,9.209636965
1715741853182587018,0.106,,,,9.217330706
1715741853190280759,0.089,,,,9.225024447
1715741853197974500,0.079,,,,9.232718188
1715741853205668241,0.089,,,,9.240411929
1715741853213361982,0.096,,,,9.24810567
1715741853221055723,0.106,,,,9.255799411
1715741853228749464,0.154,,,,9.263493152
1715741853236443205,0.276,,,,9.271186893
1715741853244136946,0.428,,,,9.278880634
1715741853251830687,0.447,,,,9.286574375
1715741853259524428,0.244,,,,9.294268116
1715741853267218169,0.046,,,,9.301961857
1715741853274911910,0.06,,,,9.309655598
1715741853282605651,0.104,,,,9.317349339
1715741853290299392,0.065,,,,9.32504308
1715741853297993133,0.06,,,,9.332736821
1715741853305686874,0.079,,,,9.340430562
1715741853313380615,0.067,,,,9.348124303
1715741853321074356,0.072,,,,9.355818044
1715741853328768097,0.092,,,,9.363511785
1715741853336461838,0.087,,,,9.371205526
1715741853344155579,0.082,,,,9.378899267
1715741853351849320,0.092,,,,9.386593008
1715741853359543061,0.094,,,,9.394286749
1715741853367236802,0.092,,,,9.40198049
1715741853374930543,0.096,,,,9.409674231
1715741853382624284,0.104,,,,9.417367972
1715741853390318025,0.106,,,,9.425061713
1715741853398011766,0.106,,,,9.432755454
1715741853405705507,0.104,,,,9.440449195
1715741853413399248,0.101,,,,9.448142936
1715741853421092989,0.108,,,,9.455836677
1715741853428786730,0.118,,,,9.463530418
1715741853436480471,0.116,,,,9.471224159
1715741853444174212,0.116,,,,9.4789179
1715741853451867953,0.123,,,,9.486611641
1715741853459561694,0.118,,,,9.494305382
1715741853467255435,0.111,,,,9.501999123
1715741853474949176,0.111,,,,9.509692864
1715741853482642917,0.111,,,,9.517386605
1715741853490336658,0.108,,,,9.525080346
1715741853498030399,0.111,,,,9.532774087
1715741853505724140,0.106,,,,9.540467828
1715741853513417886,0.094,82.0,751.0,,9.548161574
1715741853521111836,0.089,,771.0,,9.555855524
1715741853528805786,0.082,,,,9.563549474
1715741853536499736,0.079,,,,9.571243424
1715741853544193686,0.079,,,,9.578937374
1715741853551887636,0.072,,,,9.586631324
1715741853559581586,0.053,,,,9.594325274
1715741853567275536,0.041,,,,9.602019224
1715741853574969486,0.038,,,,9.609713174
1715741853582663436,0.038,,,,9.617407124
1715741853590357386,0.048,,,,9.625101074
1715741853598051336,0.058,,,,9.632795024
1715741853605745286,0.053,,,,9.640488974
1715741853613439236,0.055,,,,9.648182924
1715741853621133186,0.072,,,,9.655876874
1715741853628827136,0.084,,,,9.663570824
1715741853636521086,0.082,,,,9.671264774
1715741853644215036,0.077,,,,9.678958724
1715741853651908986,0.084,,,,9.686652674
1715741853659602936,0.087,,,,9.694346624
1715741853667296886,0.067,,,,9.702040574
1715741853674990836,0.053,,,,9.709734524
1715741853682684786,0.06,,,,9.717428474
1715741853690378736,0.067,,,,9.725122424
1715741853698072686,0.067,,,,9.732816374
1715741853705766636,0.075,,,,9.740510324
1715741853713460586,0.084,,,,9.748204274
1715741853721154536,0.079,,,,9.755898224
1715741853728848486,0.075,,,,9.763592174
1715741853736542436,0.072,,,,9.771286124
1715741853744236386,0.07,,,,9.778980074
1715741853751930336,0.087,,,,9.786674024
1715741853759624286,0.106,,,,9.794367974
1715741853767318236,0.084,,,,9.802061924
1715741853775012186,0.048,,,,9.809755874
1715741853782706136,0.048,,,,9.817449824
1715741853790400086,0.072,,,,9.825143774
1715741853798094036,0.082,,,,9.832837724
1715741853805787986,0.079,,,,9.840531674
1715741853813481936,0.082,,,,9.848225624
1715741853821175886,0.089,,,,9.855919574
1715741853828869836,0.104,,,,9.863613524
1715741853836563786,0.108,,,,9.871307474
1715741853844257736,0.096,,,,9.879001424
1715741853851951686,0.084,,,,9.886695374
1715741853859645636,0.092,,,,9.894389324
1715741853867339586,0.104,,,,9.902083274
1715741853875033536,0.111,,,,9.909777224
1715741853882727486,0.113,,,,9.917471174
1715741853890421436,0.116,,,,9.925165124
1715741853898115386,0.116,,,,9.932859074
1715741853905809336,0.106,,,,9.940553024
1715741853913503286,0.094,,,,9.948246974
1715741853921197236,0.092,,,,9.955940924
1715741853928891186,0.108,,,,9.963634874
1715741853936585136,0.113,,,,9.971328824
1715741853944279086,0.104,,,,9.979022774
1715741853951973036,0.113,,,,9.986716724
1715741853959666986,0.159,,,,9.994410674
1715741853967360936,0.263,,,,10.002104624
1715741853975054886,0.409,,,,10.009798574
1715741853982748836,0.491,,,,10.017492524
1715741853990442786,0.363,,,,10.025186474
1715741853998136736,0.118,,,,10.032880424
1715741854005830686,0.041,,,,10.040574374
1715741854013524636,0.096,,,,10.048268324
1715741854021218586,0.094,,,,10.055962274
1715741854028912536,0.079,,,,10.063656224
1715741854036606486,0.094,,,,10.071350174
1715741854044300436,0.096,,,,10.079044124
1715741854051994386,0.092,,,,10.086738074
1715741854059688336,0.089,,,,10.094432024
1715741854067382286,0.094,,,,10.102125974
1715741854075076244,0.106,,,,10.109819932
1715741854082770194,0.111,,,,10.117513882
1715741854090464144,0.106,,,,10.125207832
1715741854098158094,0.099,,,,10.132901782
1715741854105852044,0.101,,,,10.140595732
1715741854113545994,0.108,,,,10.148289682
1715741854121239944,0.106,,,,10.155983632
1715741854128933894,0.101,,,,10.163677582
1715741854136627844,0.111,,,,10.171371532
1715741854144321794,0.113,,,,10.179065482
1715741854152015744,0.113,,,,10.186759432
1715741854159709694,0.123,,,,10.194453382
1715741854167403644,0.138,,,,10.202147332
1715741854175097594,0.135,,,,10.209841282
1715741854182791544,0.121,,,,10.217535232
1715741854190485494,0.111,,,,10.225229182
1715741854198179444,0.116,,,,10.232923132
1715741854205873394,0.113,,,,10.240617082
1715741854213567344,0.106,,,,10.248311032
1715741854221261294,0.111,,,,10.256004982
1715741854228955244,0.111,,,,10.263698932
1715741854236649194,0.087,,,,10.271392882
1715741854244343144,0.067,,,,10.279086832
1715741854252037094,0.067,,,,10.286780782
1715741854259731044,0.065,,,,10.294474732
1715741854267424994,0.053,,,,10.302168682
1715741854275118944,0.043,,,,10.309862632
1715741854282812894,0.043,,,,10.317556582
1715741854290506844,0.043,,,,10.325250532
1715741854298200794,0.046,,,,10.332944482
1715741854305894744,0.048,,,,10.340638432
1715741854313588694,0.048,,,,10.348332382
1715741854321282644,0.05,,,,10.356026332
1715741854328976594,0.05,,,,10.363720282
1715741854336670544,0.043,,,,10.371414232
1715741854344364494,0.053,,,,10.379108182
1715741854352058444,0.07,,,,10.386802132
1715741854359752394,0.067,,,,10.394496082
1715741854367446344,0.062,,,,10.402190032
1715741854375140294,0.065,,,,10.409883982
1715741854382834244,0.062,,,,10.417577932
1715741854390528194,0.065,,,,10.425271882
1715741854398222144,0.079,,,,10.432965832
1715741854405916094,0.082,,,,10.440659782
1715741854413610044,0.065,,,,10.448353732
1715741854421303994,0.062,,,,10.456047682
1715741854428997944,0.07,,,,10.463741632
1715741854436691894,0.065,,,,10.471435582
1715741854444385844,0.062,,,,10.479129532
1715741854452079794,0.065,,,,10.486823482
1715741854459773744,0.07,,,,10.494517432
1715741854467467694,0.072,,,,10.502211382
1715741854475161644,0.075,,,,10.509905332
1715741854482855594,0.079,,,,10.517599282
1715741854490549544,0.084,,,,10.525293232
1715741854498243494,0.077,,,,10.532987182
1715741854505937444,0.072,,,,10.540681132
1715741854513631394,0.077,,,,10.548375082
1715741854521325344,0.082,,,,10.556069032
1715741854529019294,0.087,,,,10.563762982
1715741854536713244,0.094,,,,10.571456932
1715741854544407194,0.092,,,,10.579150882
1715741854552101144,0.084,,,,10.586844832
1715741854559795094,0.082,,,,10.594538782
1715741854567489044,0.087,,,,10.602232732
1715741854575182994,0.084,,,,10.609926682
1715741854582876944,0.082,,,,10.617620632
1715741854590570894,0.084,,,,10.625314582
1715741854598264844,0.082,,,,10.633008532
1715741854605958794,0.077,,,,10.640702482
1715741854613652744,0.089,,,,10.648396432
1715741854621346694,0.104,,,,10.656090382
1715741854629040644,0.104,,,,10.663784332
1715741854636734602,0.089,82.0,769.0,,10.67147829
1715741854644428552,0.092,,,,10.67917224
1715741854652122502,0.101,,,,10.68686619
1715741854659816452,0.089,,,,10.69456014
1715741854667510402,0.075,,,,10.70225409
1715741854675204352,0.089,,,,10.70994804
1715741854682898302,0.101,,,,10.71764199
1715741854690592252,0.087,,,,10.72533594
1715741854698286202,0.079,,,,10.73302989
1715741854705980152,0.123,,,,10.74072384
1715741854713674102,0.232,,,,10.74841779
1715741854721368052,0.38,,,,10.75611174
1715741854729062002,0.452,,,,10.76380569
1715741854736755952,0.317,,,,10.77149964
1715741854744449902,0.077,,,,10.77919359
1715741854752143852,0.007,,,,10.78688754
1715741854759837802,0.07,,,,10.79458149
1715741854767531752,0.065,,,,10.80227544
1715741854775225702,0.038,,,,10.80996939
1715741854782919652,0.05,,,,10.81766334
1715741854790613602,0.058,,,,10.82535729
1715741854798307552,0.058,,,,10.83305124
1715741854806001502,0.067,,,,10.84074519
1715741854813695452,0.072,,,,10.84843914
1715741854821389402,0.065,,,,10.85613309
1715741854829083352,0.072,,,,10.86382704
1715741854836777302,0.079,,,,10.87152099
1715741854844471252,0.077,,,,10.87921494
1715741854852165202,0.084,,,,10.88690889
1715741854859859152,0.094,,,,10.89460284
1715741854867553102,0.084,,,,10.90229679
1715741854875247052,0.079,,,,10.90999074
1715741854882941002,0.089,,,,10.91768469
1715741854890634952,0.101,,,,10.92537864
1715741854898328902,0.101,,,,10.93307259
1715741854906022852,0.104,,,,10.94076654
1715741854913716802,0.106,,,,10.94846049
1715741854921410752,0.108,,,,10.95615444
1715741854929104702,0.116,,,,10.96384839
1715741854936798652,0.121,,,,10.97154234
1715741854944492602,0.116,,,,10.97923629
1715741854952186552,0.111,,,,10.98693024
1715741854959880502,0.113,,,,10.99462419
1715741854967574452,0.118,,,,11.00231814
1715741854975268402,0.116,,,,11.01001209
1715741854982962352,0.108,,,,11.01770604
1715741854990656302,0.089,,,,11.02539999
1715741854998350252,0.075,,,,11.03309394
1715741855006044202,0.077,,,,11.04078789
1715741855013738152,0.075,,,,11.04848184
1715741855021432102,0.055,,,,11.05617579
1715741855029126052,0.041,,,,11.06386974
1715741855036820002,0.046,,,,11.07156369
1715741855044513952,0.055,,,,11.07925764
1715741855052207902,0.058,,,,11.08695159
1715741855059901852,0.055,,,,11.09464554
1715741855067595802,0.06,,,,11.10233949
1715741855075289752,0.065,,,,11.11003344
1715741855082983702,0.06,,,,11.11772739
1715741855090677652,0.053,,,,11.12542134
1715741855098371602,0.053,,,,11.13311529
1715741855106065552,0.058,,,,11.14080924
1715741855113759502,0.065,,,,11.14850319
1715741855121453452,0.07,,,,11.15619714
1715741855129147402,0.067,,,,11.16389109
1715741855136841352,0.067,,,,11.17158504
1715741855144535302,0.077,,,,11.17927899
1715741855152229252,0.075,,,,11.18697294
1715741855159923202,0.067,,,,11.19466689
1715741855167617152,0.072,,,,11.20236084
1715741855175311102,0.077,,,,11.21005479
1715741855183005052,0.075,,,,11.21774874
1715741855190699002,0.072,,,,11.22544269
1715741855198392962,0.077,82.0,729.0,,11.23313665
1715741855206086912,0.084,,,,11.2408306
1715741855213780862,0.084,,,,11.24852455
1715741855221474812,0.077,,,,11.2562185
1715741855229168762,0.072,,,,11.26391245
1715741855236862712,0.082,,,,11.2716064
1715741855244556662,0.087,,,,11.27930035
1715741855252250612,0.072,,,,11.2869943
1715741855259944562,0.058,,,,11.29468825
1715741855267638512,0.062,,,,11.3023822
1715741855275332462,0.062,,,,11.31007615
1715741855283026412,0.06,,,,11.3177701
1715741855290720362,0.067,,,,11.32546405
1715741855298414312,0.072,,,,11.333158
1715741855306108262,0.07,,,,11.34085195
1715741855313802212,0.072,,,,11.3485459
1715741855321496162,0.079,,,,11.35623985
1715741855329190112,0.075,,,,11.3639338
1715741855336884062,0.065,,,,11.37162775
1715741855344578012,0.07,,,,11.3793217
1715741855352271962,0.075,,,,11.38701565
1715741855359965912,0.07,,,,11.3947096
1715741855367659862,0.089,,,,11.40240355
1715741855375353812,0.108,,,,11.4100975
1715741855383047762,0.094,,,,11.41779145
1715741855390741712,0.075,,,,11.4254854
1715741855398435662,0.079,,,,11.43317935
1715741855406129612,0.084,,,,11.4408733
1715741855413823562,0.084,,,,11.44856725
1715741855421517512,0.092,,,,11.4562612
1715741855429211462,0.096,,,,11.46395515
1715741855436905412,0.087,,,,11.4716491
1715741855444599362,0.082,,,,11.47934305
1715741855452293312,0.104,,,,11.487037
1715741855459987262,0.174,,,,11.49473095
1715741855467681212,0.295,,,,11.5024249
1715741855475375162,0.426,,,,11.51011885
1715741855483069112,0.423,,,,11.5178128
1715741855490763062,0.22,,,,11.52550675
1715741855498457012,0.043,,,,11.5332007
1715741855506150962,0.067,,,,11.54089465
1715741855513844912,0.101,,,,11.5485886
1715741855521538862,0.072,,,,11.55628255
1715741855529232812,0.075,,,,11.5639765
1715741855536926762,0.087,,,,11.57167045
1715741855544620712,0.072,,,,11.5793644
1715741855552314662,0.077,,,,11.58705835
1715741855560008612,0.094,,,,11.5947523
1715741855567702562,0.094,,,,11.60244625
1715741855575396512,0.082,,,,11.6101402
1715741855583090462,0.072,,,,11.61783415
1715741855590784412,0.082,,,,11.6255281
1715741855598478362,0.099,,,,11.63322205
1715741855606172312,0.094,,,,11.640916
1715741855613866262,0.089,,,,11.64860995
1715741855621560212,0.094,,,,11.6563039
1715741855629254162,0.096,,,,11.66399785
1715741855636948112,0.101,,,,11.6716918
1715741855644642062,0.113,,,,11.67938575
1715741855652336012,0.111,,,,11.6870797
1715741855660029962,0.106,,,,11.69477365
1715741855667723912,0.116,,,,11.7024676
1715741855675417862,0.121,,,,11.71016155
1715741855683111812,0.116,,,,11.7178555
1715741855690805762,0.123,,,,11.72554945
1715741855698499712,0.125,,,,11.7332434
1715741855706193662,0.116,,,,11.74093735
1715741855713887612,0.108,,,,11.7486313
1715741855721581562,0.108,,,,11.75632525
1715741855729275512,0.108,,,,11.7640192
1715741855736969462,0.099,,,,11.77171315
1715741855744663412,0.087,,,,11.7794071
1715741855752357362,0.077,,,,11.78710105
1715741855760051320,0.065,,,,11.794795008
1715741855767745270,0.043,,,,11.802488958
1715741855775439220,0.033,,,,11.810182908
1715741855783133170,0.038,,,,11.817876858
1715741855790827120,0.041,,,,11.825570808
1715741855798521070,0.038,,,,11.833264758
1715741855806215020,0.038,,,,11.840958708
1715741855813908970,0.048,,,,11.848652658
1715741855821602920,0.05,,,,11.856346608
1715741855829296870,0.029,,,,11.864040558
1715741855836990820,0.014,,,,11.871734508
1715741855844684770,0.031,,,,11.879428458
1715741855852378720,0.038,,,,11.887122408
1715741855860072670,0.021,,,,11.894816358
1715741855867766620,0.029,,,,11.902510308
1715741855875460570,0.043,,,,11.910204258
1715741855883154520,0.043,,,,11.917898208
1715741855890848470,0.043,,,,11.925592158
1715741855898542420,0.05,,,,11.933286108
1715741855906236370,0.048,,,,11.940980058
1715741855913930320,0.046,,,,11.948674008
1715741855921624270,0.055,,,,11.956367958
1715741855929318220,0.06,,,,11.964061908
1715741855937012170,0.05,,,,11.971755858
1715741855944706120,0.05,,,,11.979449808
1715741855952400070,0.055,,,,11.987143758
1715741855960094020,0.053,,,,11.994837708
1715741855967787970,0.055,,,,12.002531658
1715741855975481920,0.055,,,,12.010225608
1715741855983175870,0.046,,,,12.017919558
1715741855990869820,0.048,,,,12.025613508
1715741855998563770,0.06,,,,12.033307458
1715741856006257720,0.062,,,,12.041001408
1715741856013951670,0.062,,,,12.048695358
1715741856021645620,0.062,,,,12.056389308
1715741856029339570,0.067,,,,12.064083258
1715741856037033520,0.067,,,,12.071777208
1715741856044727470,0.06,,,,12.079471158
1715741856052421420,0.06,,,,12.087165108
1715741856060115370,0.067,,,,12.094859058
1715741856067809320,0.067,,,,12.102553008
1715741856075503270,0.062,,,,12.110246958
1715741856083197220,0.062,,,,12.117940908
1715741856090891170,0.075,,,,12.125634858
1715741856098585120,0.075,,,,12.133328808
1715741856106279070,0.065,,,,12.141022758
1715741856113973020,0.065,,,,12.148716708
1715741856121666970,0.072,,,,12.156410658
1715741856129360920,0.072,,,,12.164104608
1715741856137054870,0.07,,,,12.171798558
1715741856144748820,0.065,,,,12.179492508
1715741856152442770,0.07,,,,12.187186458
1715741856160136720,0.072,,,,12.194880408
1715741856167830670,0.084,,,,12.202574358
1715741856175524620,0.157,,,,12.210268308
1715741856183218570,0.309,,,,12.217962258
1715741856190912520,0.445,,,,12.225656208
1715741856198606470,0.399,,,,12.233350158
1715741856206300420,0.174,,,,12.241044108
1715741856213994370,0.024,,,,12.248738058
1715741856221688320,0.05,,,,12.256432008
1715741856229382270,0.07,,,,12.264125958
1715741856237076220,0.041,,,,12.271819908
1715741856244770170,0.048,,,,12.279513858
1715741856252464120,0.062,,,,12.287207808
1715741856260158070,0.055,,,,12.294901758
1715741856267852020,0.043,,,,12.302595708
1715741856275545970,0.036,,,,12.310289658
1715741856283239920,0.043,,,,12.317983608
1715741856290933870,0.053,,,,12.325677558
1715741856298627820,0.058,,,,12.333371508
1715741856306321770,0.062,,,,12.341065458
1715741856314015720,0.062,,,,12.348759408
1715741856321709678,0.065,81.0,733.0,,12.356453366
1715741856329403349,0.067,,746.0,,12.364147037
1715741856337097020,0.067,,,,12.371840708
1715741856344790691,0.07,,,,12.379534379
1715741856352484362,0.075,,,,12.38722805
1715741856360178033,0.084,,,,12.394921721
1715741856367871704,0.087,,,,12.402615392
1715741856375565375,0.079,,,,12.410309063
1715741856383259046,0.084,,,,12.418002734
1715741856390952717,0.099,,,,12.425696405
1715741856398646388,0.096,,,,12.433390076
1715741856406340059,0.092,,,,12.441083747
1715741856414033730,0.094,,,,12.448777418
1715741856421727401,0.087,,,,12.456471089
1715741856429421072,0.087,,,,12.46416476
1715741856437114743,0.094,,,,12.471858431
1715741856444808414,0.099,,,,12.479552102
1715741856452502085,0.092,,,,12.487245773
1715741856460195756,0.077,,,,12.494939444
1715741856467889427,0.065,,,,12.502633115
1715741856475583098,0.06,,,,12.510326786
1715741856483276769,0.06,,,,12.518020457
1715741856490970440,0.06,,,,12.525714128
1715741856498664111,0.055,,,,12.533407799
1715741856506357782,0.048,,,,12.54110147
1715741856514051453,0.043,,,,12.548795141
1715741856521745124,0.048,,,,12.556488812
1715741856529438795,0.055,,,,12.564182483
1715741856537132466,0.05,,,,12.571876154
1715741856544826137,0.038,,,,12.579569825
1715741856552519808,0.033,,,,12.587263496
1715741856560213479,0.038,,,,12.594957167
1715741856567907150,0.046,,,,12.602650838
1715741856575600821,0.05,,,,12.610344509
1715741856583294492,0.048,,,,12.61803818
1715741856590988163,0.046,,,,12.625731851
1715741856598681834,0.048,,,,12.633425522
1715741856606375505,0.053,,,,12.641119193
1715741856614069176,0.053,,,,12.648812864
1715741856621762847,0.053,,,,12.656506535
1715741856629456518,0.058,,,,12.664200206
1715741856637150189,0.06,,,,12.671893877
1715741856644843860,0.062,,,,12.679587548
1715741856652537531,0.06,,,,12.687281219
1715741856660231202,0.053,,,,12.69497489
1715741856667924873,0.048,,,,12.702668561
1715741856675618544,0.053,,,,12.710362232
1715741856683312215,0.06,,,,12.718055903
1715741856691005886,0.062,,,,12.725749574
1715741856698699557,0.062,,,,12.733443245
1715741856706393228,0.06,,,,12.741136916
1715741856714086899,0.055,,,,12.748830587
1715741856721780570,0.062,,,,12.756524258
1715741856729474241,0.075,,,,12.764217929
1715741856737167912,0.07,,,,12.7719116
1715741856744861583,0.062,,,,12.779605271
1715741856752555254,0.062,,,,12.787298942
1715741856760248925,0.067,,,,12.794992613
1715741856767942596,0.065,,,,12.802686284
1715741856775636267,0.067,,,,12.810379955
1715741856783329938,0.077,,,,12.818073626
1715741856791023609,0.072,,,,12.825767297
1715741856798717280,0.062,,,,12.833460968
1715741856806410951,0.06,,,,12.841154639
1715741856814104622,0.058,,,,12.84884831
1715741856821798293,0.05,,,,12.856541981
1715741856829491964,0.055,,,,12.864235652
1715741856837185635,0.067,,,,12.871929323
1715741856844879306,0.07,,,,12.879622994
1715741856852572977,0.065,,,,12.887316665
1715741856860266648,0.072,,,,12.895010336
1715741856867960319,0.125,,,,12.902704007
1715741856875653990,0.244,,,,12.910397678
1715741856883347692,0.394,,,,12.91809138
1715741856891041572,0.452,,,,12.92578526
1715741856898735452,0.285,,,,12.93347914
1715741856906429332,0.055,,,,12.94117302
1715741856914123212,0.021,,,,12.9488669
1715741856921817092,0.079,,,,12.95656078
1715741856929510972,0.06,,,,12.96425466
1715741856937204852,0.038,,,,12.97194854
1715741856944898732,0.053,,,,12.97964242
1715741856952592612,0.053,,,,12.9873363
1715741856960286492,0.048,,,,12.99503018
1715741856967980372,0.053,,,,13.00272406
1715741856975674252,0.065,,,,13.01041794
1715741856983368132,0.07,,,,13.01811182
1715741856991062012,0.072,,,,13.0258057
1715741856998755892,0.075,,,,13.03349958
1715741857006449772,0.077,,,,13.04119346
1715741857014143652,0.084,,,,13.04888734
1715741857021837532,0.092,,,,13.05658122
1715741857029531412,0.089,,,,13.0642751
1715741857037225292,0.087,,,,13.07196898
1715741857044919172,0.094,,,,13.07966286
1715741857052613052,0.101,,,,13.08735674
1715741857060306932,0.089,,,,13.09505062
1715741857068000812,0.092,,,,13.1027445
1715741857075694692,0.111,,,,13.11043838
1715741857083388572,0.118,,,,13.11813226
1715741857091082452,0.113,,,,13.12582614
1715741857098776332,0.113,,,,13.13352002
1715741857106470212,0.113,,,,13.1412139
1715741857114164092,0.111,,,,13.14890778
1715741857121857972,0.111,,,,13.15660166
1715741857129551852,0.116,,,,13.16429554
1715741857137245732,0.118,,,,13.17198942
1715741857144939612,0.106,,,,13.1796833
1715741857152633492,0.096,,,,13.18737718
1715741857160327372,0.094,,,,13.19507106
1715741857168021252,0.092,,,,13.20276494
1715741857175715132,0.089,,,,13.21045882
1715741857183409012,0.087,,,,13.2181527
1715741857191102892,0.079,,,,13.22584658
1715741857198796772,0.072,,,,13.23354046
1715741857206490652,0.067,,,,13.24123434
1715741857214184532,0.072,,,,13.24892822
1715741857221878412,0.077,,,,13.2566221
1715741857229572292,0.079,,,,13.26431598
1715741857237266172,0.079,,,,13.27200986
1715741857244960052,0.075,,,,13.27970374
1715741857252653932,0.082,,,,13.28739762
1715741857260347812,0.087,,,,13.2950915
1715741857268041692,0.075,,,,13.30278538
1715741857275735572,0.058,,,,13.31047926
1715741857283429452,0.053,,,,13.31817314
1715741857291123332,0.058,,,,13.32586702
1715741857298817212,0.06,,,,13.3335609
1715741857306511092,0.055,,,,13.34125478
1715741857314204972,0.053,,,,13.34894866
1715741857321898852,0.065,,,,13.35664254
1715741857329592732,0.07,,,,13.36433642
1715741857337286612,0.058,,,,13.3720303
1715741857344980492,0.06,,,,13.37972418
1715741857352674372,0.065,,,,13.38741806
1715741857360368252,0.058,,,,13.39511194
1715741857368062132,0.058,,,,13.40280582
1715741857375756012,0.065,,,,13.4104997
1715741857383449892,0.067,,,,13.41819358
1715741857391143772,0.065,,,,13.42588746
1715741857398837652,0.062,,,,13.43358134
1715741857406531532,0.065,,,,13.44127522
1715741857414225412,0.07,,,,13.4489691
1715741857421919292,0.07,,,,13.45666298
1715741857429613172,0.07,,,,13.46435686
1715741857437307052,0.077,,,,13.47205074
1715741857445000964,0.082,81.0,751.0,,13.479744652
1715741857452694844,0.077,,,,13.487438532
1715741857460388724,0.072,,,,13.495132412
1715741857468082604,0.079,,,,13.502826292
1715741857475776484,0.084,,,,13.510520172
1715741857483470364,0.082,,,,13.518214052
1715741857491164244,0.089,,,,13.525907932
1715741857498858124,0.104,,,,13.533601812
1715741857506552004,0.104,,,,13.541295692
1715741857514245884,0.092,,,,13.548989572
1715741857521939764,0.084,,,,13.556683452
1715741857529633644,0.082,,,,13.564377332
1715741857537327524,0.079,,,,13.572071212
1715741857545021404,0.07,,,,13.579765092
1715741857552715284,0.062,,,,13.587458972
1715741857560409164,0.067,,,,13.595152852
1715741857568103044,0.077,,,,13.602846732
1715741857575796924,0.077,,,,13.610540612
1715741857583490804,0.106,,,,13.618234492
1715741857591184684,0.205,,,,13.625928372
1715741857598878564,0.355,,,,13.633622252
1715741857606572444,0.472,,,,13.641316132
1715741857614266324,0.394,,,,13.649010012
1715741857621960204,0.145,,,,13.656703892
1715741857629654084,0.016,,,,13.664397772
1715741857637347964,0.077,,,,13.672091652
1715741857645041844,0.084,,,,13.679785532
1715741857652735724,0.033,,,,13.687479412
1715741857660429604,0.046,,,,13.695173292
1715741857668123484,0.07,,,,13.702867172
1715741857675817364,0.062,,,,13.710561052
1715741857683511244,0.065,,,,13.718254932
1715741857691205124,0.079,,,,13.725948812
1715741857698899004,0.079,,,,13.733642692
1715741857706592884,0.079,,,,13.741336572
1715741857714286764,0.087,,,,13.749030452
1715741857721980644,0.087,,,,13.756724332
1715741857729674524,0.087,,,,13.764418212
1715741857737368404,0.089,,,,13.772112092
1715741857745062284,0.096,,,,13.779805972
1715741857752756164,0.099,,,,13.787499852
1715741857760450044,0.099,,,,13.795193732
1715741857768143924,0.108,,,,13.802887612
1715741857775837804,0.113,,,,13.810581492
1715741857783531684,0.104,,,,13.818275372
1715741857791225564,0.092,,,,13.825969252
1715741857798919444,0.094,,,,13.833663132
1715741857806613324,0.104,,,,13.841357012
1715741857814307204,0.106,,,,13.849050892
1715741857822001084,0.106,,,,13.856744772
1715741857829694964,0.113,,,,13.864438652
1715741857837388844,0.118,,,,13.872132532
1715741857845082724,0.111,,,,13.879826412
1715741857852776604,0.101,,,,13.887520292
1715741857860470484,0.106,,,,13.895214172
1715741857868164364,0.106,,,,13.902908052
1715741857875858244,0.094,,,,13.910601932
1715741857883552124,0.084,,,,13.918295812
1715741857891246004,0.082,,,,13.925989692
1715741857898939884,0.079,,,,13.933683572
1715741857906633764,0.079,,,,13.941377452
1715741857914327644,0.082,,,,13.949071332
1715741857922021524,0.079,,,,13.956765212
1715741857929715404,0.072,,,,13.964459092
1715741857937409284,0.065,,,,13.972152972
1715741857945103164,0.072,,,,13.979846852
1715741857952797044,0.079,,,,13.987540732
1715741857960490924,0.072,,,,13.995234612
1715741857968184804,0.065,,,,14.002928492
1715741857975878684,0.075,,,,14.010622372
1715741857983572564,0.084,,,,14.018316252
1715741857991266444,0.079,,,,14.026010132
1715741857998960324,0.07,,,,14.033704012
1715741858006654236,0.075,,,,14.041397924
1715741858014348186,0.077,,,,14.049091874
1715741858022042136,0.067,,,,14.056785824
1715741858029736086,0.07,,,,14.064479774
1715741858037430036,0.079,,,,14.072173724
1715741858045123986,0.067,,,,14.079867674
1715741858052817936,0.053,,,,14.087561624
1715741858060511886,0.058,,,,14.095255574
1715741858068205836,0.062,,,,14.102949524
1715741858075899786,0.058,,,,14.110643474
1715741858083593736,0.06,,,,14.118337424
1715741858091287686,0.067,,,,14.126031374
1715741858098981636,0.067,,,,14.133725324
1715741858106675586,0.06,,,,14.141419274
1715741858114369536,0.06,,,,14.149113224
1715741858122063486,0.062,,,,14.156807174
1715741858129757436,0.07,,,,14.164501124
1715741858137451386,0.075,,,,14.172195074
1715741858145145336,0.077,,,,14.179889024
1715741858152839286,0.075,,,,14.187582974
1715741858160533236,0.072,,,,14.195276924
1715741858168227186,0.079,,,,14.202970874
1715741858175921136,0.089,,,,14.210664824
1715741858183615086,0.092,,,,14.218358774
1715741858191309036,0.087,,,,14.226052724
1715741858199002986,0.087,,,,14.233746674
1715741858206696936,0.084,,,,14.241440624
1715741858214390886,0.084,,,,14.249134574
1715741858222084836,0.094,,,,14.256828524
1715741858229778786,0.094,,,,14.264522474
1715741858237472736,0.094,,,,14.272216424
1715741858245166686,0.113,,,,14.279910374
1715741858252860636,0.125,,,,14.287604324
1715741858260554586,0.111,,,,14.295298274
1715741858268248536,0.096,,,,14.302992224
1715741858275942486,0.094,,,,14.310686174
1715741858283636436,0.087,,,,14.318380124
1715741858291330386,0.084,,,,14.326074074
1715741858299024336,0.084,,,,14.333768024
1715741858306718286,0.079,,,,14.341461974
1715741858314412236,0.082,,,,14.349155924
1715741858322106186,0.092,,,,14.356849874
1715741858329800136,0.101,,,,14.364543824
1715741858337494086,0.15,,,,14.372237774
1715741858345188036,0.273,,,,14.379931724
1715741858352881986,0.418,,,,14.387625674
1715741858360575936,0.462,,,,14.395319624
1715741858368269886,0.3,,,,14.403013574
1715741858375963836,0.075,,,,14.410707524
1715741858383657786,0.041,,,,14.418401474
1715741858391351736,0.101,,,,14.426095424
1715741858399045686,0.084,,,,14.433789374
1715741858406739636,0.065,,,,14.441483324
1715741858414433586,0.079,,,,14.449177274
1715741858422127536,0.082,,,,14.456871224
1715741858429821486,0.079,,,,14.464565174
1715741858437515436,0.089,,,,14.472259124
1715741858445209386,0.087,,,,14.479953074
1715741858452903336,0.084,,,,14.487647024
1715741858460597286,0.094,,,,14.495340974
1715741858468291236,0.101,,,,14.503034924
1715741858475985186,0.099,,,,14.510728874
1715741858483679136,0.104,,,,14.518422824
1715741858491373086,0.113,,,,14.526116774
1715741858499067036,0.113,,,,14.533810724
1715741858506760986,0.113,,,,14.541504674
1715741858514454936,0.121,,,,14.549198624
1715741858522148886,0.128,,,,14.556892574
1715741858529842836,0.121,,,,14.564586524
1715741858537536786,0.113,,,,14.572280474
1715741858545230736,0.125,,,,14.579974424
1715741858552924686,0.14,,,,14.587668374
1715741858560618636,0.135,,,,14.595362324
1715741858568312594,0.133,81.0,714.0,,14.603056282
1715741858576006822,0.14,,696.0,,14.61075051
1715741858583701050,0.145,,,,14.618444738
1715741858591395278,0.145,,,,14.626138966
1715741858599089506,0.142,,,,14.633833194
1715741858606783734,0.142,,,,14.641527422
1715741858614477962,0.142,,,,14.64922165
1715741858622172190,0.135,,,,14.656915878
1715741858629866418,0.125,,,,14.664610106
1715741858637560646,0.116,,,,14.672304334
1715741858645254874,0.108,,,,14.679998562
1715741858652949102,0.099,,,,14.68769279
1715741858660643330,0.094,,,,14.695387018
1715741858668337558,0.096,,,,14.703081246
1715741858676031786,0.094,,,,14.710775474
1715741858683726014,0.082,,,,14.718469702
1715741858691420242,0.079,,,,14.72616393
1715741858699114470,0.089,,,,14.733858158
1715741858706808698,0.087,,,,14.741552386
1715741858714502926,0.075,,,,14.749246614
1715741858722197154,0.075,,,,14.756940842
1715741858729891382,0.082,,,,14.76463507
1715741858737585610,0.082,,,,14.772329298
1715741858745279838,0.079,,,,14.780023526
1715741858752974066,0.087,,,,14.787717754
1715741858760668294,0.084,,,,14.795411982
1715741858768362522,0.077,,,,14.80310621
1715741858776056750,0.075,,,,14.810800438
1715741858783750978,0.077,,,,14.818494666
1715741858791445206,0.077,,,,14.826188894
1715741858799139434,0.067,,,,14.833883122
1715741858806833662,0.065,,,,14.84157735
1715741858814527890,0.067,,,,14.849271578
1715741858822222118,0.065,,,,14.856965806
1715741858829916346,0.067,,,,14.864660034
1715741858837610574,0.07,,,,14.872354262
1715741858845304802,0.07,,,,14.88004849
1715741858852999030,0.062,,,,14.887742718
1715741858860693258,0.062,,,,14.895436946
1715741858868387486,0.067,,,,14.903131174
1715741858876081714,0.07,,,,14.910825402
1715741858883775942,0.077,,,,14.91851963
1715741858891470170,0.082,,,,14.926213858
1715741858899164398,0.077,,,,14.933908086
1715741858906858626,0.075,,,,14.941602314
1715741858914552854,0.077,,,,14.949296542
1715741858922247082,0.079,,,,14.95699077
1715741858929941310,0.084,,,,14.964684998
1715741858937635538,0.087,,,,14.972379226
1715741858945329766,0.084,,,,14.980073454
1715741858953023994,0.087,,,,14.987767682
1715741858960718222,0.089,,,,14.99546191
1715741858968412450,0.084,,,,15.003156138
1715741858976106678,0.079,,,,15.010850366
1715741858983800906,0.089,,,,15.018544594
1715741858991495134,0.094,,,,15.026238822
1715741858999189362,0.096,,,,15.03393305
1715741859006883590,0.106,,,,15.041627278
1715741859014577818,0.113,,,,15.049321506
1715741859022272046,0.101,,,,15.057015734
1715741859029966274,0.089,,,,15.064709962
1715741859037660502,0.087,,,,15.07240419
1715741859045354730,0.084,,,,15.080098418
1715741859053048958,0.084,,,,15.087792646
1715741859060743186,0.092,,,,15.095486874
1715741859068437414,0.094,,,,15.103181102
1715741859076131642,0.092,,,,15.11087533
1715741859083825870,0.092,,,,15.118569558
1715741859091520098,0.099,,,,15.126263786
1715741859099214326,0.135,,,,15.133958014
1715741859106908554,0.244,,,,15.141652242
1715741859114602782,0.389,,,,15.14934647
1715741859122297010,0.443,,,,15.157040698
1715741859129991298,0.292,,,,15.164734986
1715741859137685178,0.077,,,,15.172428866
1715741859145379058,0.046,,,,15.180122746
1715741859153072938,0.101,,,,15.187816626
1715741859160766818,0.077,,,,15.195510506
1715741859168460698,0.058,,,,15.203204386
1715741859176154578,0.075,,,,15.210898266
1715741859183848458,0.079,,,,15.218592146
1715741859191542338,0.072,,,,15.226286026
1715741859199236218,0.082,,,,15.233979906
1715741859206930098,0.089,,,,15.241673786
1715741859214623978,0.094,,,,15.249367666
1715741859222317858,0.084,,,,15.257061546
1715741859230011738,0.07,,,,15.264755426
1715741859237705618,0.077,,,,15.272449306
1715741859245399498,0.092,,,,15.280143186
1715741859253093378,0.092,,,,15.287837066
1715741859260787258,0.087,,,,15.295530946
1715741859268481138,0.092,,,,15.303224826
1715741859276175018,0.092,,,,15.310918706
1715741859283868898,0.092,,,,15.318612586
1715741859291562778,0.094,,,,15.326306466
1715741859299256658,0.092,,,,15.334000346
1715741859306950538,0.087,,,,15.341694226
1715741859314644418,0.094,,,,15.349388106
1715741859322338298,0.099,,,,15.357081986
1715741859330032178,0.101,,,,15.364775866
1715741859337726058,0.101,,,,15.372469746
1715741859345419938,0.104,,,,15.380163626
1715741859353113818,0.101,,,,15.387857506
1715741859360807698,0.096,,,,15.395551386
1715741859368501578,0.099,,,,15.403245266
1715741859376195458,0.099,,,,15.410939146
1715741859383889338,0.094,,,,15.418633026
1715741859391583218,0.087,,,,15.426326906
1715741859399277098,0.079,,,,15.434020786
1715741859406970978,0.077,,,,15.441714666
1715741859414664858,0.07,,,,15.449408546
1715741859422358738,0.065,,,,15.457102426
1715741859430052618,0.06,,,,15.464796306
1715741859437746498,0.058,,,,15.472490186
1715741859445440378,0.06,,,,15.480184066
1715741859453134258,0.067,,,,15.487877946
1715741859460828138,0.065,,,,15.495571826
1715741859468522018,0.06,,,,15.503265706
1715741859476215898,0.062,,,,15.510959586
1715741859483909778,0.067,,,,15.518653466
1715741859491603658,0.065,,,,15.526347346
1715741859499297538,0.058,,,,15.534041226
1715741859506991418,0.058,,,,15.541735106
1715741859514685298,0.065,,,,15.549428986
1715741859522379178,0.065,,,,15.557122866
1715741859530073058,0.062,,,,15.564816746
1715741859537766938,0.07,,,,15.572510626
1715741859545460818,0.062,,,,15.580204506
1715741859553154698,0.043,,,,15.587898386
1715741859560848578,0.046,,,,15.595592266
1715741859568542458,0.055,,,,15.603286146
1715741859576236338,0.058,,,,15.610980026
1715741859583930218,0.065,,,,15.618673906
1715741859591624098,0.067,,,,15.626367786
1715741859599317978,0.058,,,,15.634061666
1715741859607011858,0.055,,,,15.641755546
1715741859614705738,0.062,,,,15.649449426
1715741859622399618,0.065,,,,15.657143306
1715741859630093498,0.065,,,,15.664837186
1715741859637787378,0.055,,,,15.672531066
1715741859645481258,0.053,,,,15.680224946
1715741859653175138,0.065,,,,15.687918826
1715741859660869018,0.077,,,,15.695612706
1715741859668562898,0.07,,,,15.703306586
1715741859676256778,0.06,,,,15.711000466
1715741859683950658,0.067,,,,15.718694346
1715741859691644570,0.079,82.0,719.0,,15.726388258
1715741859699338729,0.079,,,,15.734082417
1715741859707032888,0.072,,,,15.741776576
1715741859714727047,0.072,,,,15.749470735
1715741859722421206,0.084,,,,15.757164894
1715741859730115365,0.084,,,,15.764859053
1715741859737809524,0.082,,,,15.772553212
1715741859745503683,0.094,,,,15.780247371
1715741859753197842,0.096,,,,15.78794153
1715741859760892001,0.082,,,,15.795635689
1715741859768586160,0.077,,,,15.803329848
1715741859776280319,0.082,,,,15.811024007
1715741859783974478,0.079,,,,15.818718166
1715741859791668637,0.067,,,,15.826412325
1715741859799362796,0.06,,,,15.834106484
1715741859807056955,0.06,,,,15.841800643
1715741859814751114,0.055,,,,15.849494802
1715741859822445273,0.058,,,,15.857188961
1715741859830139432,0.111,,,,15.86488312
1715741859837833591,0.244,,,,15.872577279
1715741859845527750,0.399,,,,15.880271438
1715741859853221909,0.426,,,,15.887965597
1715741859860916068,0.237,,,,15.895659756
1715741859868610227,0.036,,,,15.903353915
1715741859876304386,0.026,,,,15.911048074
1715741859883998545,0.07,,,,15.918742233
1715741859891692704,0.05,,,,15.926436392
1715741859899386863,0.041,,,,15.934130551
1715741859907081022,0.053,,,,15.94182471
1715741859914775181,0.053,,,,15.949518869
1715741859922469340,0.055,,,,15.957213028
1715741859930163499,0.065,,,,15.964907187
1715741859937857658,0.065,,,,15.972601346
1715741859945551817,0.065,,,,15.980295505
1715741859953245976,0.075,,,,15.987989664
1715741859960940135,0.079,,,,15.995683823
1715741859968634294,0.077,,,,16.003377982
1715741859976328453,0.077,,,,16.011072141
1715741859984022612,0.087,,,,16.0187663
1715741859991716771,0.094,,,,16.026460459
1715741859999410930,0.094,,,,16.034154618
1715741860007105089,0.089,,,,16.041848777
1715741860014799248,0.089,,,,16.049542936
1715741860022493407,0.094,,,,16.057237095
1715741860030187566,0.101,,,,16.064931254
1715741860037881725,0.104,,,,16.072625413
1715741860045575884,0.108,,,,16.080319572
1715741860053270043,0.113,,,,16.088013731
1715741860060964202,0.111,,,,16.09570789
1715741860068658361,0.108,,,,16.103402049
1715741860076352520,0.116,,,,16.111096208
1715741860084046679,0.121,,,,16.118790367
1715741860091740838,0.118,,,,16.126484526
1715741860099434997,0.113,,,,16.134178685
1715741860107129156,0.116,,,,16.141872844
1715741860114823315,0.113,,,,16.149567003
1715741860122517474,0.104,,,,16.157261162
1715741860130211633,0.094,,,,16.164955321
1715741860137905792,0.089,,,,16.17264948
1715741860145599951,0.082,,,,16.180343639
1715741860153294110,0.072,,,,16.188037798
1715741860160988269,0.072,,,,16.195731957
1715741860168682428,0.077,,,,16.203426116
1715741860176376587,0.075,,,,16.211120275
1715741860184070746,0.07,,,,16.218814434
1715741860191764905,0.072,,,,16.226508593
1715741860199459064,0.072,,,,16.234202752
1715741860207153223,0.067,,,,16.241896911
1715741860214847382,0.067,,,,16.24959107
1715741860222541541,0.077,,,,16.257285229
1715741860230235700,0.082,,,,16.264979388
1715741860237929859,0.077,,,,16.272673547
1715741860245624018,0.075,,,,16.280367706
1715741860253318186,0.079,82.0,751.0,,16.288061874
1715741860261012136,0.079,,,,16.295755824
1715741860268706086,0.075,,,,16.303449774
1715741860276400036,0.075,,,,16.311143724
1715741860284093986,0.077,,,,16.318837674
1715741860291787936,0.075,,,,16.326531624
1715741860299481886,0.077,,,,16.334225574
1715741860307175836,0.079,,,,16.341919524
1715741860314869786,0.075,,,,16.349613474
1715741860322563736,0.065,,,,16.357307424
1715741860330257686,0.06,,,,16.365001374
1715741860337951636,0.055,,,,16.372695324
1715741860345645586,0.06,,,,16.380389274
1715741860353339536,0.067,,,,16.388083224
1715741860361033486,0.07,,,,16.395777174
1715741860368727436,0.07,,,,16.403471124
1715741860376421386,0.072,,,,16.411165074
1715741860384115336,0.077,,,,16.418859024
1715741860391809286,0.075,,,,16.426552974
1715741860399503236,0.077,,,,16.434246924
1715741860407197186,0.082,,,,16.441940874
1715741860414891136,0.087,,,,16.449634824
1715741860422585086,0.084,,,,16.457328774
1715741860430279036,0.084,,,,16.465022724
1715741860437972986,0.089,,,,16.472716674
1715741860445666936,0.092,,,,16.480410624
1715741860453360886,0.096,,,,16.488104574
1715741860461054836,0.113,,,,16.495798524
1715741860468748786,0.121,,,,16.503492474
1715741860476442736,0.108,,,,16.511186424
1715741860484136686,0.099,,,,16.518880374
1715741860491830636,0.099,,,,16.526574324
1715741860499524586,0.101,,,,16.534268274
1715741860507218536,0.096,,,,16.541962224
1715741860514912486,0.089,,,,16.549656174
1715741860522606436,0.094,,,,16.557350124
1715741860530300386,0.101,,,,16.565044074
1715741860537994336,0.104,,,,16.572738024
1715741860545688286,0.135,,,,16.580431974
1715741860553382236,0.239,,,,16.588125924
1715741860561076186,0.397,,,,16.595819874
1715741860568770136,0.493,,,,16.603513824
1715741860576464086,0.382,,,,16.611207774
1715741860584158036,0.135,,,,16.618901724
1715741860591851986,0.048,,,,16.626595674
1715741860599545936,0.108,,,,16.634289624
1715741860607239886,0.104,,,,16.641983574
1715741860614933836,0.067,,,,16.649677524
1715741860622627786,0.082,,,,16.657371474
1715741860630321736,0.092,,,,16.665065424
1715741860638015686,0.087,,,,16.672759374
1715741860645709636,0.096,,,,16.680453324
1715741860653403586,0.104,,,,16.688147274
1715741860661097536,0.101,,,,16.695841224
1715741860668791486,0.104,,,,16.703535174
1715741860676485436,0.113,,,,16.711229124
1715741860684179386,0.113,,,,16.718923074
1715741860691873336,0.113,,,,16.726617024
1715741860699567286,0.116,,,,16.734310974
1715741860707261236,0.118,,,,16.742004924
1715741860714955186,0.121,,,,16.749698874
1715741860722649136,0.123,,,,16.757392824
1715741860730343086,0.128,,,,16.765086774
1715741860738037036,0.133,,,,16.772780724
1715741860745730986,0.133,,,,16.780474674
1715741860753424936,0.128,,,,16.788168624
1715741860761118886,0.13,,,,16.795862574
1715741860768812836,0.138,,,,16.803556524
1715741860776506786,0.14,,,,16.811250474
1715741860784200736,0.14,,,,16.818944424
1715741860791894686,0.138,,,,16.826638374
1715741860799588636,0.135,,,,16.834332324
1715741860807282586,0.135,,,,16.842026274
1715741860814976544,0.128,,,,16.849720232
1715741860822670494,0.121,,,,16.857414182
1715741860830364444,0.116,,,,16.865108132
1715741860838058394,0.106,,,,16.872802082
1715741860845752344,0.089,,,,16.880496032
1715741860853446294,0.084,,,,16.888189982
1715741860861140244,0.084,,,,16.895883932
1715741860868834194,0.075,,,,16.903577882
1715741860876528144,0.062,,,,16.911271832
1715741860884222094,0.062,,,,16.918965782
1715741860891916044,0.065,,,,16.926659732
1715741860899609994,0.055,,,,16.934353682
1715741860907303944,0.053,,,,16.942047632
1715741860914997894,0.058,,,,16.949741582
1715741860922691844,0.065,,,,16.957435532
1715741860930385794,0.07,,,,16.965129482
1715741860938079744,0.072,,,,16.972823432
1715741860945773694,0.075,,,,16.980517382
1715741860953467644,0.077,,,,16.988211332
1715741860961161594,0.082,,,,16.995905282
1715741860968855544,0.079,,,,17.003599232
1715741860976549494,0.077,,,,17.011293182
1715741860984243444,0.079,,,,17.018987132
1715741860991937394,0.079,,,,17.026681082
1715741860999631344,0.077,,,,17.034375032
1715741861007325294,0.084,,,,17.042068982
1715741861015019244,0.087,,,,17.049762932
1715741861022713194,0.079,,,,17.057456882
1715741861030407144,0.079,,,,17.065150832
1715741861038101094,0.084,,,,17.072844782
1715741861045795044,0.084,,,,17.080538732
1715741861053488994,0.082,,,,17.088232682
1715741861061182944,0.087,,,,17.095926632
1715741861068876894,0.089,,,,17.103620582
1715741861076570844,0.087,,,,17.111314532
1715741861084264794,0.087,,,,17.119008482
1715741861091958744,0.092,,,,17.126702432
1715741861099652694,0.096,,,,17.134396382
1715741861107346644,0.096,,,,17.142090332
1715741861115040594,0.096,,,,17.149784282
1715741861122734544,0.096,,,,17.157478232
1715741861130428494,0.101,,,,17.165172182
1715741861138122444,0.104,,,,17.172866132
1715741861145816394,0.101,,,,17.180560082
1715741861153510344,0.104,,,,17.188254032
1715741861161204294,0.108,,,,17.195947982
1715741861168898244,0.111,,,,17.203641932
1715741861176592194,0.118,,,,17.211335882
1715741861184286144,0.13,,,,17.219029832
1715741861191980094,0.123,,,,17.226723782
1715741861199674044,0.111,,,,17.234417732
1715741861207367994,0.108,,,,17.242111682
1715741861215061944,0.113,,,,17.249805632
1715741861222755894,0.116,,,,17.257499582
1715741861230449844,0.113,,,,17.265193532
1715741861238143794,0.108,,,,17.272887482
1715741861245837744,0.111,,,,17.280581432
1715741861253531694,0.113,,,,17.288275382
1715741861261225644,0.123,,,,17.295969332
1715741861268919594,0.169,,,,17.303663282
1715741861276613544,0.285,,,,17.311357232
1715741861284307494,0.433,,,,17.319051182
1715741861292001444,0.486,,,,17.326745132
1715741861299695394,0.322,,,,17.334439082
1715741861307389344,0.087,,,,17.342133032
1715741861315083294,0.043,,,,17.349826982
1715741861322777244,0.096,,,,17.357520932
1715741861330471194,0.079,,,,17.365214882
1715741861338165144,0.07,,,,17.372908832
1715741861345859094,0.087,,,,17.380602782
1715741861353553044,0.087,,,,17.388296732
1715741861361246994,0.084,,,,17.395990682
1715741861368940944,0.094,,,,17.403684632
1715741861376634904,0.094,82.0,762.0,,17.411378592
1715741861384328854,0.087,,729.0,,17.419072542
1715741861392022804,0.092,,,,17.426766492
1715741861399716754,0.099,,,,17.434460442
1715741861407410704,0.101,,,,17.442154392
1715741861415104654,0.101,,,,17.449848342
1715741861422798604,0.116,,,,17.457542292
1715741861430492554,0.128,,,,17.465236242
1715741861438186504,0.118,,,,17.472930192
1715741861445880454,0.101,,,,17.480624142
1715741861453574404,0.113,,,,17.488318092
1715741861461268354,0.135,,,,17.496012042
1715741861468962304,0.138,,,,17.503705992
1715741861476656254,0.123,,,,17.511399942
1715741861484350204,0.116,,,,17.519093892
1715741861492044154,0.125,,,,17.526787842
1715741861499738104,0.147,,,,17.534481792
1715741861507432054,0.15,,,,17.542175742
1715741861515126004,0.138,,,,17.549869692
1715741861522819954,0.14,,,,17.557563642
1715741861530513904,0.14,,,,17.565257592
1715741861538207854,0.13,,,,17.572951542
1715741861545901804,0.128,,,,17.580645492
1715741861553595754,0.128,,,,17.588339442
1715741861561289704,0.113,,,,17.596033392
1715741861568983654,0.104,,,,17.603727342
1715741861576677604,0.106,,,,17.611421292
1715741861584371554,0.104,,,,17.619115242
1715741861592065504,0.092,,,,17.626809192
1715741861599759454,0.084,,,,17.634503142
1715741861607453404,0.087,,,,17.642197092
1715741861615147354,0.082,,,,17.649891042
1715741861622841304,0.072,,,,17.657584992
1715741861630535254,0.077,,,,17.665278942
1715741861638229204,0.089,,,,17.672972892
1715741861645923154,0.087,,,,17.680666842
1715741861653617104,0.082,,,,17.688360792
1715741861661311054,0.084,,,,17.696054742
1715741861669005004,0.089,,,,17.703748692
1715741861676698954,0.092,,,,17.711442642
1715741861684392904,0.092,,,,17.719136592
1715741861692086854,0.092,,,,17.726830542
1715741861699780804,0.096,,,,17.734524492
1715741861707474754,0.104,,,,17.742218442
1715741861715168704,0.101,,,,17.749912392
1715741861722862654,0.099,,,,17.757606342
1715741861730556604,0.104,,,,17.765300292
1715741861738250554,0.099,,,,17.772994242
1715741861745944504,0.087,,,,17.780688192
1715741861753638454,0.084,,,,17.788382142
1715741861761332404,0.087,,,,17.796076092
1715741861769026354,0.082,,,,17.803770042
1715741861776720304,0.084,,,,17.811463992
1715741861784414254,0.096,,,,17.819157942
1715741861792108204,0.096,,,,17.826851892
1715741861799802154,0.092,,,,17.834545842
1715741861807496104,0.096,,,,17.842239792
1715741861815190054,0.099,,,,17.849933742
1715741861822884004,0.094,,,,17.857627692
1715741861830577954,0.087,,,,17.865321642
1715741861838271904,0.087,,,,17.873015592
1715741861845965854,0.096,,,,17.880709542
1715741861853659804,0.099,,,,17.888403492
1715741861861353754,0.092,,,,17.896097442
1715741861869047704,0.096,,,,17.903791392
1715741861876741654,0.104,,,,17.911485342
1715741861884435604,0.101,,,,17.919179292
1715741861892129554,0.108,,,,17.926873242
1715741861899823504,0.128,,,,17.934567192
1715741861907517454,0.133,,,,17.942261142
1715741861915211404,0.121,,,,17.949955092
1715741861922905354,0.116,,,,17.957649042
1715741861930599304,0.121,,,,17.965342992
1715741861938293262,0.121,,,,17.97303695
1715741861945987490,0.118,,,,17.980731178
1715741861953681718,0.121,,,,17.988425406
1715741861961375946,0.121,,,,17.996119634
1715741861969070174,0.125,,,,18.003813862
1715741861976764402,0.133,,,,18.01150809
1715741861984458630,0.145,,,,18.019202318
1715741861992152858,0.2,,,,18.026896546
1715741861999847086,0.329,,,,18.034590774
1715741862007541314,0.462,,,,18.042285002
1715741862015235542,0.452,,,,18.04997923
1715741862022929770,0.244,,,,18.057673458
1715741862030623998,0.072,,,,18.065367686
1715741862038318226,0.089,,,,18.073061914
1715741862046012454,0.121,,,,18.080756142
1715741862053706682,0.089,,,,18.08845037
1715741862061400910,0.094,,,,18.096144598
1715741862069095138,0.113,,,,18.103838826
1715741862076789366,0.111,,,,18.111533054
1715741862084483594,0.111,,,,18.119227282
1715741862092177822,0.116,,,,18.12692151
1715741862099872050,0.118,,,,18.134615738
1715741862107566278,0.123,,,,18.142309966
1715741862115260506,0.13,,,,18.150004194
1715741862122954734,0.13,,,,18.157698422
1715741862130648962,0.13,,,,18.16539265
1715741862138343190,0.135,,,,18.173086878
1715741862146037418,0.145,,,,18.180781106
1715741862153731646,0.15,,,,18.188475334
1715741862161425874,0.145,,,,18.196169562
1715741862169120102,0.142,,,,18.20386379
1715741862176814330,0.152,,,,18.211558018
1715741862184508558,0.159,,,,18.219252246
1715741862192202786,0.162,,,,18.226946474
1715741862199897014,0.164,,,,18.234640702
1715741862207591242,0.169,,,,18.24233493
1715741862215285470,0.176,,,,18.250029158
1715741862222979698,0.179,,,,18.257723386
1715741862230673926,0.174,,,,18.265417614
1715741862238368154,0.171,,,,18.273111842
1715741862246062382,0.171,,,,18.28080607
1715741862253756610,0.167,,,,18.288500298
1715741862261450838,0.162,,,,18.296194526
1715741862269145066,0.159,,,,18.303888754
1715741862276839294,0.152,,,,18.311582982
1715741862284533522,0.147,,,,18.31927721
1715741862292227750,0.142,,,,18.326971438
1715741862299921978,0.135,,,,18.334665666
1715741862307616206,0.125,,,,18.342359894
1715741862315310434,0.121,,,,18.350054122
1715741862323004662,0.118,,,,18.35774835
1715741862330698890,0.108,,,,18.365442578
1715741862338393118,0.099,,,,18.373136806
1715741862346087346,0.099,,,,18.380831034
1715741862353781574,0.104,,,,18.388525262
1715741862361475802,0.101,,,,18.39621949
1715741862369170030,0.094,,,,18.403913718
1715741862376864258,0.094,,,,18.411607946
1715741862384558486,0.101,,,,18.419302174
1715741862392252714,0.104,,,,18.426996402
1715741862399946942,0.099,,,,18.43469063
1715741862407641170,0.099,,,,18.442384858
1715741862415335398,0.104,,,,18.450079086
1715741862423029626,0.101,,,,18.457773314
1715741862430723854,0.099,,,,18.465467542
1715741862438418082,0.101,,,,18.47316177
1715741862446112310,0.101,,,,18.480855998
1715741862453806538,0.099,,,,18.488550226
1715741862461500766,0.096,,,,18.496244454
1715741862469194994,0.092,,,,18.503938682
1715741862476889222,0.089,,,,18.51163291
1715741862484583450,0.092,,,,18.519327138
1715741862492277678,0.092,,,,18.527021366
1715741862499971966,0.089,82.0,719.0,,18.534715654
1715741862507665846,0.089,,,,18.542409534
1715741862515359726,0.092,,,,18.550103414
1715741862523053606,0.089,,,,18.557797294
1715741862530747486,0.092,,,,18.565491174
1715741862538441366,0.096,,,,18.573185054
1715741862546135246,0.101,,,,18.580878934
1715741862553829126,0.099,,,,18.588572814
1715741862561523006,0.104,,,,18.596266694
1715741862569216886,0.106,,,,18.603960574
1715741862576910766,0.096,,,,18.611654454
1715741862584604646,0.092,,,,18.619348334
1715741862592298526,0.096,,,,18.627042214
1715741862599992406,0.096,,,,18.634736094
1715741862607686286,0.101,,,,18.642429974
1715741862615380166,0.111,,,,18.650123854
1715741862623074046,0.111,,,,18.657817734
1715741862630767926,0.101,,,,18.665511614
1715741862638461806,0.087,,,,18.673205494
1715741862646155686,0.092,,,,18.680899374
1715741862653849566,0.104,,,,18.688593254
1715741862661543446,0.104,,,,18.696287134
1715741862669237326,0.099,,,,18.703981014
1715741862676931206,0.099,,,,18.711674894
1715741862684625086,0.104,,,,18.719368774
1715741862692318966,0.113,,,,18.727062654
1715741862700012846,0.169,,,,18.734756534
1715741862707706726,0.297,,,,18.742450414
1715741862715400606,0.443,,,,18.750144294
1715741862723094486,0.445,,,,18.757838174
1715741862730788366,0.237,,,,18.765532054
1715741862738482246,0.046,,,,18.773225934
1715741862746176126,0.058,,,,18.780919814
1715741862753870006,0.101,,,,18.788613694
1715741862761563886,0.065,,,,18.796307574
1715741862769257766,0.06,,,,18.804001454
1715741862776951646,0.082,,,,18.811695334
1715741862784645526,0.077,,,,18.819389214
1715741862792339406,0.075,,,,18.827083094
1715741862800033286,0.087,,,,18.834776974
1715741862807727166,0.092,,,,18.842470854
1715741862815421046,0.092,,,,18.850164734
1715741862823114926,0.092,,,,18.857858614
1715741862830808806,0.087,,,,18.865552494
1715741862838502686,0.082,,,,18.873246374
1715741862846196566,0.084,,,,18.880940254
1715741862853890446,0.092,,,,18.888634134
1715741862861584326,0.096,,,,18.896328014
1715741862869278206,0.099,,,,18.904021894
1715741862876972086,0.096,,,,18.911715774
1715741862884665966,0.099,,,,18.919409654
1715741862892359846,0.113,,,,18.927103534
1715741862900053726,0.121,,,,18.934797414
1715741862907747606,0.113,,,,18.942491294
1715741862915441486,0.113,,,,18.950185174
1715741862923135366,0.121,,,,18.957879054
1715741862930829246,0.123,,,,18.965572934
1715741862938523126,0.123,,,,18.973266814
1715741862946217006,0.125,,,,18.980960694
1715741862953910886,0.125,,,,18.988654574
1715741862961604766,0.125,,,,18.996348454
1715741862969298646,0.121,,,,19.004042334
1715741862976992526,0.111,,,,19.011736214
1715741862984686406,0.108,,,,19.019430094
1715741862992380286,0.108,,,,19.027123974
1715741863000074166,0.099,,,,19.034817854
1715741863007768046,0.089,,,,19.042511734
1715741863015461926,0.089,,,,19.050205614
1715741863023155806,0.089,,,,19.057899494
1715741863030849686,0.084,,,,19.065593374
1715741863038543566,0.087,,,,19.073287254
1715741863046237446,0.089,,,,19.080981134
1715741863053931326,0.089,,,,19.088675014
1715741863061625238,0.089,,,,19.096368926
1715741863069319397,0.089,,,,19.104063085
1715741863077013556,0.089,,,,19.111757244
1715741863084707715,0.092,,,,19.119451403
1715741863092401874,0.094,,,,19.127145562
1715741863100096033,0.094,,,,19.134839721
1715741863107790192,0.089,,,,19.14253388
1715741863115484351,0.082,,,,19.150228039
1715741863123178510,0.077,,,,19.157922198
1715741863130872669,0.072,,,,19.165616357
1715741863138566828,0.067,,,,19.173310516
1715741863146260987,0.062,,,,19.181004675
1715741863153955146,0.055,,,,19.188698834
1715741863161649305,0.058,,,,19.196392993
1715741863169343464,0.065,,,,19.204087152
1715741863177037623,0.06,,,,19.211781311
1715741863184731782,0.058,,,,19.21947547
1715741863192425941,0.065,,,,19.227169629
1715741863200120100,0.065,,,,19.234863788
1715741863207814259,0.06,,,,19.242557947
1715741863215508418,0.058,,,,19.250252106
1715741863223202577,0.06,,,,19.257946265
1715741863230896736,0.062,,,,19.265640424
1715741863238590895,0.048,,,,19.273334583
1715741863246285054,0.038,,,,19.281028742
1715741863253979213,0.043,,,,19.288722901
1715741863261673372,0.05,,,,19.29641706
1715741863269367531,0.046,,,,19.304111219
1715741863277061690,0.041,,,,19.311805378
1715741863284755849,0.055,,,,19.319499537
1715741863292450008,0.067,,,,19.327193696
1715741863300144167,0.062,,,,19.334887855
1715741863307838326,0.053,,,,19.342582014
1715741863315532485,0.053,,,,19.350276173
1715741863323226644,0.058,,,,19.357970332
1715741863330920803,0.058,,,,19.365664491
1715741863338614962,0.048,,,,19.37335865
1715741863346309121,0.046,,,,19.381052809
1715741863354003280,0.053,,,,19.388746968
1715741863361697439,0.055,,,,19.396441127
1715741863369391598,0.067,,,,19.404135286
1715741863377085757,0.13,,,,19.411829445
1715741863384779916,0.268,,,,19.419523604
1715741863392474075,0.416,,,,19.427217763
1715741863400168234,0.428,,,,19.434911922
1715741863407862393,0.227,,,,19.442606081
1715741863415556552,0.029,,,,19.45030024
1715741863423250711,0.031,,,,19.457994399
1715741863430944870,0.072,,,,19.465688558
1715741863438639029,0.041,,,,19.473382717
1715741863446333188,0.038,,,,19.481076876
1715741863454027347,0.058,,,,19.488771035
1715741863461721506,0.05,,,,19.496465194
1715741863469415665,0.048,,,,19.504159353
1715741863477109824,0.055,,,,19.511853512
1715741863484803983,0.058,,,,19.519547671
1715741863492498142,0.065,,,,19.52724183
1715741863500192301,0.077,,,,19.534935989
1715741863507886460,0.079,,,,19.542630148
1715741863515580619,0.075,,,,19.550324307
1715741863523274778,0.079,,,,19.558018466
1715741863530968937,0.087,,,,19.565712625
1715741863538663096,0.089,,,,19.573406784
1715741863546357255,0.096,,,,19.581100943
1715741863554051414,0.104,,,,19.588795102
1715741863561745573,0.106,,,,19.596489261
1715741863569439732,0.104,,,,19.60418342
1715741863577133891,0.106,,,,19.611877579
1715741863584828050,0.116,,,,19.619571738
1715741863592522209,0.121,,,,19.627265897
1715741863600216368,0.121,,,,19.634960056
1715741863607910527,0.121,,,,19.642654215
1715741863615604686,0.121,,,,19.650348374
1715741863623298854,0.123,82.0,722.0,,19.658042542
1715741863630992804,0.121,,721.0,,19.665736492
1715741863638686754,0.118,,,,19.673430442
1715741863646380704,0.118,,,,19.681124392
1715741863654074654,0.118,,,,19.688818342
1715741863661768604,0.101,,,,19.696512292
1715741863669462554,0.084,,,,19.704206242
1715741863677156504,0.084,,,,19.711900192
1715741863684850454,0.082,,,,19.719594142
1715741863692544404,0.067,,,,19.727288092
1715741863700238354,0.06,,,,19.734982042
1715741863707932304,0.058,,,,19.742675992
1715741863715626254,0.053,,,,19.750369942
1715741863723320204,0.048,,,,19.758063892
1715741863731014154,0.053,,,,19.765757842
1715741863738708104,0.06,,,,19.773451792
1715741863746402054,0.06,,,,19.781145742
1715741863754096004,0.065,,,,19.788839692
1715741863761789954,0.072,,,,19.796533642
1715741863769483904,0.075,,,,19.804227592
1715741863777177854,0.075,,,,19.811921542
1715741863784871804,0.077,,,,19.819615492
1715741863792565754,0.077,,,,19.827309442
1715741863800259704,0.072,,,,19.835003392
1715741863807953654,0.067,,,,19.842697342
1715741863815647604,0.067,,,,19.850391292
1715741863823341554,0.072,,,,19.858085242
1715741863831035504,0.075,,,,19.865779192
1715741863838729454,0.07,,,,19.873473142
1715741863846423404,0.058,,,,19.881167092
1715741863854117354,0.05,,,,19.888861042
1715741863861811304,0.048,,,,19.896554992
1715741863869505254,0.05,,,,19.904248942
1715741863877199204,0.05,,,,19.911942892
1715741863884893154,0.05,,,,19.919636842
1715741863892587104,0.05,,,,19.927330792
1715741863900281054,0.048,,,,19.935024742
1715741863907975004,0.048,,,,19.942718692
1715741863915668954,0.05,,,,19.950412642
1715741863923362904,0.053,,,,19.958106592
1715741863931056854,0.053,,,,19.965800542
1715741863938750804,0.053,,,,19.973494492
1715741863946444754,0.053,,,,19.981188442
1715741863954138704,0.048,,,,19.988882392
1715741863961832654,0.058,,,,19.996576342
1715741863969526604,0.07,,,,20.004270292
1715741863977220554,0.065,,,,20.011964242
1715741863984914504,0.055,,,,20.019658192
1715741863992608454,0.055,,,,20.027352142
1715741864000302404,0.058,,,,20.035046092
1715741864007996354,0.06,,,,20.042740042
1715741864015690304,0.06,,,,20.050433992
1715741864023384254,0.065,,,,20.058127942
1715741864031078204,0.067,,,,20.065821892
1715741864038772154,0.07,,,,20.073515842
1715741864046466104,0.089,,,,20.081209792
1715741864054160054,0.169,,,,20.088903742
1715741864061854004,0.322,,,,20.096597692
1715741864069547954,0.462,,,,20.104291642
1715741864077241904,0.418,,,,20.111985592
1715741864084935854,0.176,,,,20.119679542
1715741864092629804,0.012,,,,20.127373492
1715741864100323754,0.05,,,,20.135067442
1715741864108017704,0.077,,,,20.142761392
1715741864115711654,0.038,,,,20.150455342
1715741864123405604,0.046,,,,20.158149292
1715741864131099554,0.067,,,,20.165843242
1715741864138793504,0.06,,,,20.173537192
1715741864146487454,0.06,,,,20.181231142
1715741864154181404,0.072,,,,20.188925092
1715741864161875354,0.075,,,,20.196619042
1715741864169569304,0.07,,,,20.204312992
1715741864177263254,0.072,,,,20.212006942
1715741864184957212,0.077,82.0,708.0,,20.2197009
1715741864192651162,0.082,,,,20.22739485
1715741864200345112,0.082,,,,20.2350888
1715741864208039062,0.084,,,,20.24278275
1715741864215733012,0.087,,,,20.2504767
1715741864223426962,0.089,,,,20.25817065
1715741864231120912,0.084,,,,20.2658646
1715741864238814862,0.082,,,,20.27355855
1715741864246508812,0.092,,,,20.2812525
1715741864254202762,0.099,,,,20.28894645
1715741864261896712,0.101,,,,20.2966404
1715741864269590662,0.104,,,,20.30433435
1715741864277284612,0.108,,,,20.3120283
1715741864284978562,0.113,,,,20.31972225
1715741864292672512,0.111,,,,20.3274162
1715741864300366462,0.108,,,,20.33511015
1715741864308060412,0.108,,,,20.3428041
1715741864315754362,0.108,,,,20.35049805
1715741864323448312,0.106,,,,20.358192
1715741864331142262,0.104,,,,20.36588595
1715741864338836212,0.101,,,,20.3735799
1715741864346530162,0.092,,,,20.38127385
1715741864354224112,0.077,,,,20.3889678
1715741864361918062,0.067,,,,20.39666175
1715741864369612012,0.067,,,,20.4043557
1715741864377305962,0.067,,,,20.41204965
1715741864384999912,0.065,,,,20.4197436
1715741864392693862,0.065,,,,20.42743755
1715741864400387812,0.067,,,,20.4351315
1715741864408081762,0.075,,,,20.44282545
1715741864415775712,0.079,,,,20.4505194
1715741864423469662,0.079,,,,20.45821335
1715741864431163612,0.082,,,,20.4659073
1715741864438857562,0.082,,,,20.47360125
1715741864446551512,0.077,,,,20.4812952
1715741864454245462,0.079,,,,20.48898915
1715741864461939412,0.084,,,,20.4966831
1715741864469633362,0.084,,,,20.50437705
1715741864477327312,0.084,,,,20.512071
1715741864485021262,0.089,,,,20.51976495
1715741864492715212,0.087,,,,20.5274589
1715741864500409162,0.084,,,,20.53515285
1715741864508103112,0.089,,,,20.5428468
1715741864515797062,0.084,,,,20.55054075
1715741864523491012,0.079,,,,20.5582347
1715741864531184962,0.079,,,,20.56592865
1715741864538878912,0.072,,,,20.5736226
1715741864546572862,0.075,,,,20.58131655
1715741864554266812,0.079,,,,20.5890105
1715741864561960762,0.072,,,,20.59670445
1715741864569654712,0.065,,,,20.6043984
1715741864577348662,0.065,,,,20.61209235
1715741864585042612,0.062,,,,20.6197863
1715741864592736562,0.062,,,,20.62748025
1715741864600430512,0.065,,,,20.6351742
1715741864608124462,0.067,,,,20.64286815
1715741864615818412,0.065,,,,20.6505621
1715741864623512362,0.065,,,,20.65825605
1715741864631206312,0.065,,,,20.66595
1715741864638900262,0.072,,,,20.67364395
1715741864646594212,0.084,,,,20.6813379
1715741864654288162,0.082,,,,20.68903185
1715741864661982112,0.07,,,,20.6967258
1715741864669676062,0.07,,,,20.70441975
1715741864677370012,0.072,,,,20.7121137
1715741864685063962,0.065,,,,20.71980765
1715741864692757912,0.058,,,,20.7275016
1715741864700451862,0.062,,,,20.73519555
1715741864708145812,0.067,,,,20.7428895
1715741864715839762,0.065,,,,20.75058345
1715741864723533712,0.072,,,,20.7582774
1715741864731227662,0.125,,,,20.76597135
1715741864738921612,0.256,,,,20.7736653
1715741864746615572,0.418,,,,20.78135926
1715741864754309522,0.464,,,,20.78905321
1715741864762003472,0.28,,,,20.79674716
1715741864769697422,0.038,,,,20.80444111
1715741864777391372,0.0,,,,20.81213506
1715741864785085322,0.062,,,,20.81982901
1715741864792779272,0.048,,,,20.82752296
1715741864800473222,0.026,,,,20.83521691
1715741864808167172,0.041,,,,20.84291086
1715741864815861122,0.043,,,,20.85060481
1715741864823555072,0.041,,,,20.85829876
1715741864831249022,0.05,,,,20.86599271
1715741864838942972,0.055,,,,20.87368666
1715741864846636922,0.06,,,,20.88138061
1715741864854330872,0.062,,,,20.88907456
1715741864862024822,0.055,,,,20.89676851
1715741864869718772,0.058,,,,20.90446246
1715741864877412722,0.067,,,,20.91215641
1715741864885106672,0.072,,,,20.91985036
1715741864892800622,0.075,,,,20.92754431
1715741864900494572,0.077,,,,20.93523826
1715741864908188522,0.082,,,,20.94293221
1715741864915882472,0.084,,,,20.95062616
1715741864923576422,0.089,,,,20.95832011
1715741864931270372,0.096,,,,20.96601406
1715741864938964322,0.094,,,,20.97370801
1715741864946658272,0.092,,,,20.98140196
1715741864954352222,0.099,,,,20.98909591
1715741864962046172,0.104,,,,20.99678986
1715741864969740122,0.106,,,,21.00448381
1715741864977434072,0.108,,,,21.01217776
1715741864985128022,0.104,,,,21.01987171
1715741864992821972,0.101,,,,21.02756566
1715741865000515922,0.099,,,,21.03525961
1715741865008209872,0.099,,,,21.04295356
1715741865015903822,0.096,,,,21.05064751
1715741865023597772,0.092,,,,21.05834146
1715741865031291722,0.084,,,,21.06603541
1715741865038985672,0.077,,,,21.07372936
1715741865046679622,0.075,,,,21.08142331
1715741865054373572,0.077,,,,21.08911726
1715741865062067522,0.077,,,,21.09681121
1715741865069761472,0.075,,,,21.10450516
1715741865077455422,0.077,,,,21.11219911
1715741865085149372,0.079,,,,21.11989306
1715741865092843322,0.079,,,,21.12758701
1715741865100537272,0.084,,,,21.13528096
1715741865108231222,0.089,,,,21.14297491
1715741865115925172,0.092,,,,21.15066886
1715741865123619122,0.092,,,,21.15836281
1715741865131313072,0.092,,,,21.16605676
1715741865139007022,0.092,,,,21.17375071
1715741865146700972,0.094,,,,21.18144466
1715741865154394922,0.101,,,,21.18913861
1715741865162088872,0.101,,,,21.19683256
1715741865169782822,0.096,,,,21.20452651
1715741865177476772,0.094,,,,21.21222046
1715741865185170722,0.089,,,,21.21991441
1715741865192864672,0.084,,,,21.22760836
1715741865200558622,0.092,,,,21.23530231
1715741865208252572,0.094,,,,21.24299626
1715741865215946522,0.092,,,,21.25069021
1715741865223640472,0.092,,,,21.25838416
1715741865231334422,0.089,,,,21.26607811
1715741865239028372,0.087,,,,21.27377206
1715741865246722322,0.084,,,,21.28146601
1715741865254416272,0.084,,,,21.28915996
1715741865262110222,0.082,,,,21.29685391
1715741865269804172,0.079,,,,21.30454786
1715741865277498122,0.075,,,,21.31224181
1715741865285192072,0.072,,,,21.31993576
1715741865292886022,0.07,,,,21.32762971
1715741865300579972,0.067,,,,21.33532366
1715741865308273930,0.067,83.0,678.0,,21.343017618
1715741865315967880,0.072,,676.0,,21.350711568
1715741865323661830,0.07,,,,21.358405518
1715741865331355780,0.075,,,,21.366099468
1715741865339049730,0.087,,,,21.373793418
1715741865346743680,0.092,,,,21.381487368
1715741865354437630,0.082,,,,21.389181318
1715741865362131580,0.062,,,,21.396875268
1715741865369825530,0.041,,,,21.404569218
1715741865377519480,0.036,,,,21.412263168
1715741865385213430,0.048,,,,21.419957118
1715741865392907380,0.053,,,,21.427651068
1715741865400601330,0.055,,,,21.435345018
1715741865408295280,0.058,,,,21.443038968
1715741865415989230,0.058,,,,21.450732918
1715741865423683180,0.084,,,,21.458426868
1715741865431377130,0.184,,,,21.466120818
1715741865439071080,0.338,,,,21.473814768
1715741865446765030,0.443,,,,21.481508718
1715741865454458980,0.343,,,,21.489202668
1715741865462152930,0.094,,,,21.496896618
1715741865469846880,-0.009,,,,21.504590568
1715741865477540830,0.053,,,,21.512284518
1715741865485234780,0.062,,,,21.519978468
1715741865492928730,0.031,,,,21.527672418
1715741865500622680,0.041,,,,21.535366368
1715741865508316630,0.053,,,,21.543060318
1715741865516010580,0.043,,,,21.550754268
1715741865523704530,0.048,,,,21.558448218
1715741865531398480,0.062,,,,21.566142168
1715741865539092430,0.07,,,,21.573836118
1715741865546786380,0.07,,,,21.581530068
1715741865554480330,0.072,,,,21.589224018
1715741865562174280,0.075,,,,21.596917968
1715741865569868230,0.082,,,,21.604611918
1715741865577562180,0.087,,,,21.612305868
1715741865585256130,0.089,,,,21.619999818
1715741865592950080,0.094,,,,21.627693768
1715741865600644030,0.099,,,,21.635387718
1715741865608337980,0.104,,,,21.643081668
1715741865616031930,0.108,,,,21.650775618
1715741865623725880,0.113,,,,21.658469568
1715741865631419830,0.116,,,,21.666163518
1715741865639113780,0.111,,,,21.673857468
1715741865646807730,0.111,,,,21.681551418
1715741865654501680,0.116,,,,21.689245368
1715741865662195630,0.125,,,,21.696939318
1715741865669889580,0.128,,,,21.704633268
1715741865677583530,0.123,,,,21.712327218
1715741865685277480,0.121,,,,21.720021168
1715741865692971430,0.121,,,,21.727715118
1715741865700665380,0.118,,,,21.735409068
1715741865708359330,0.113,,,,21.743103018
1715741865716053280,0.108,,,,21.750796968
1715741865723747230,0.104,,,,21.758490918
1715741865731441180,0.096,,,,21.766184868
1715741865739135130,0.089,,,,21.773878818
1715741865746829080,0.087,,,,21.781572768
1715741865754523030,0.089,,,,21.789266718
1715741865762216980,0.087,,,,21.796960668
1715741865769910930,0.089,,,,21.804654618
1715741865777604880,0.092,,,,21.812348568
1715741865785298830,0.094,,,,21.820042518
1715741865792992780,0.092,,,,21.827736468
1715741865800686730,0.096,,,,21.835430418
1715741865808380680,0.101,,,,21.843124368
1715741865816074630,0.101,,,,21.850818318
1715741865823768580,0.101,,,,21.858512268
1715741865831462530,0.106,,,,21.866206218
1715741865839156480,0.111,,,,21.873900168
1715741865846850430,0.113,,,,21.881594118
1715741865854544380,0.108,,,,21.889288068
1715741865862238330,0.104,,,,21.896982018
1715741865869932288,0.096,,,,21.904675976
1715741865877626447,0.092,,,,21.912370135
1715741865885320606,0.094,,,,21.920064294
1715741865893014765,0.099,,,,21.927758453
1715741865900708924,0.096,,,,21.935452612
1715741865908403083,0.096,,,,21.943146771
1715741865916097242,0.096,,,,21.95084093
1715741865923791401,0.092,,,,21.958535089
1715741865931485560,0.092,,,,21.966229248
1715741865939179719,0.087,,,,21.973923407
1715741865946873878,0.079,,,,21.981617566
1715741865954568037,0.082,,,,21.989311725
1715741865962262196,0.082,,,,21.997005884
1715741865969956355,0.072,,,,22.004700043
1715741865977650514,0.065,,,,22.012394202
1715741865985344673,0.07,,,,22.020088361
1715741865993038832,0.075,,,,22.02778252
1715741866000732991,0.067,,,,22.035476679
1715741866008427150,0.058,,,,22.043170838
1715741866016121309,0.06,,,,22.050864997
1715741866023815468,0.065,,,,22.058559156
1715741866031509627,0.058,,,,22.066253315
1715741866039203786,0.06,,,,22.073947474
1715741866046897945,0.079,,,,22.081641633
1715741866054592104,0.082,,,,22.089335792
1715741866062286263,0.062,,,,22.097029951
1715741866069980422,0.058,,,,22.10472411
1715741866077674581,0.062,,,,22.112418269
1715741866085368740,0.065,,,,22.120112428
1715741866093062899,0.062,,,,22.127806587
1715741866100757058,0.062,,,,22.135500746
1715741866108451217,0.067,,,,22.143194905
1715741866116145376,0.072,,,,22.150889064
1715741866123839535,0.077,,,,22.158583223
1715741866131533694,0.099,,,,22.166277382
1715741866139227853,0.191,,,,22.173971541
1715741866146922012,0.346,,,,22.1816657
1715741866154616171,0.443,,,,22.189359859
1715741866162310330,0.338,,,,22.197054018
1715741866170004489,0.099,,,,22.204748177
1715741866177698648,0.002,,,,22.212442336
1715741866185392807,0.065,,,,22.220136495
1715741866193086966,0.067,,,,22.227830654
1715741866200781125,0.031,,,,22.235524813
1715741866208475284,0.048,,,,22.243218972
1715741866216169443,0.062,,,,22.250913131
1715741866223863602,0.055,,,,22.25860729
1715741866231557761,0.06,,,,22.266301449
1715741866239251920,0.07,,,,22.273995608
1715741866246946079,0.067,,,,22.281689767
1715741866254640238,0.067,,,,22.289383926
1715741866262334397,0.077,,,,22.297078085
1715741866270028556,0.084,,,,22.304772244
1715741866277722715,0.087,,,,22.312466403
1715741866285416874,0.087,,,,22.320160562
1715741866293111033,0.087,,,,22.327854721
1715741866300805192,0.089,,,,22.33554888
1715741866308499351,0.094,,,,22.343243039
1715741866316193510,0.099,,,,22.350937198
1715741866323887669,0.101,,,,22.358631357
1715741866331581828,0.101,,,,22.366325516
