HRV_ULF,HRV_VLF,HRV_LF,HRV_HF,HRV_VHF,HRV_TP,HRV_LFHF,HRV_LFn,HRV_HFn,HRV_LnHF,time
,,0.017798481478457546,0.006104552561833903,0.0005191907989501844,0.02442222483924163,2.9156078677633013,0.728782148048156,0.24995890431837758,-5.098720464550242,0.0
,,0.017798481478457546,0.006104552561833903,0.0005191907989501844,0.02442222483924163,2.9156078677633013,0.728782148048156,0.24995890431837758,-5.098720464550242,0.1
,,0.017798481478457546,0.006104552561833903,0.0005191907989501844,0.02442222483924163,2.9156078677633013,0.728782148048156,0.24995890431837758,-5.098720464550242,0.2
,,0.017798481478457546,0.006104552561833903,0.0005191907989501844,0.02442222483924163,2.9156078677633013,0.728782148048156,0.24995890431837758,-5.098720464550242,0.3
,,0.01882963711253532,0.006311794276203854,0.0004865266755004965,0.025627958064239672,2.9291355602846347,0.7347302920246899,0.2462854926007977,-5.065335288459594,0.4
,,0.01882963711253532,0.006311794276203854,0.0004865266755004965,0.025627958064239672,2.9381540219655236,0.7347302920246899,0.2462854926007977,-5.065335288459594,0.5
,,0.018431480997403292,0.0062640613006199435,0.00052459323111918,0.025220135529142415,2.938763031083836,0.730824026544398,0.24837540200296246,-5.072926534163368,0.6
,,0.018362135827116266,0.006261647967002436,0.0005229234312229904,0.02514670722534169,2.9379772209389032,0.7302004060639699,0.24900468720979246,-5.07331187500049,0.7
,,0.018362135827116266,0.006261647967002436,0.0005229234312229904,0.02514670722534169,2.9373660352706223,0.7302004060639699,0.24900468720979246,-5.07331187500049,0.8
,,0.019411113411673054,0.006501412006319131,0.0004850015670329701,0.026397526985025156,2.9421970873975343,0.73533833008996,0.2462886773449371,-5.035735893930539,0.9
,,0.019411113411673054,0.006501412006319131,0.0004850015670329701,0.026397526985025156,2.9461497664104623,0.73533833008996,0.2462886773449371,-5.035735893930539,1.0
,,0.019411113411673054,0.006501412006319131,0.0004850015670329701,0.026397526985025156,2.949443665587902,0.73533833008996,0.2462886773449371,-5.035735893930539,1.1
,,0.019411113411673054,0.006501412006319131,0.0004850015670329701,0.026397526985025156,2.952230811045737,0.73533833008996,0.2462886773449371,-5.035735893930539,1.2
,,0.019411113411673054,0.006501412006319131,0.0004850015670329701,0.026397526985025156,2.9546197928667373,0.73533833008996,0.2462886773449371,-5.035735893930539,1.3
,,0.019411113411673054,0.006501412006319131,0.0004850015670329701,0.026397526985025156,2.956690243778271,0.73533833008996,0.2462886773449371,-5.035735893930539,1.4
,,0.019411113411673054,0.006501412006319131,0.0004850015670329701,0.026397526985025156,2.958501888325863,0.73533833008996,0.2462886773449371,-5.035735893930539,1.5
,,0.012944109779930464,0.013239559845448974,0.0012634833881971664,0.027447153013576607,2.8419832065713293,0.4716011811326195,0.4823655057739536,-4.324545973327316,1.6
,,0.012944109779930464,0.013239559845448974,0.0012634833881971664,0.027447153013576607,2.738411045011743,0.4716011811326195,0.4823655057739536,-4.324545973327316,1.7
,,0.015107202836833502,0.015081030997517661,0.0012444741891838333,0.031432708023535,2.6470070644565666,0.48062046787448603,0.4797878371225876,-4.194317550203695,1.8
,,0.015107202836833502,0.015081030997517661,0.0012444741891838333,0.031432708023535,2.5647434819569073,0.48062046787448603,0.4797878371225876,-4.194317550203695,1.9
,,0.015107202836833502,0.015081030997517661,0.0012444741891838333,0.031432708023535,2.4903145263619777,0.48062046787448603,0.4797878371225876,-4.194317550203695,2.0
,,0.015107202836833502,0.015081030997517661,0.0012444741891838333,0.031432708023535,2.422651839457496,0.48062046787448603,0.4797878371225876,-4.194317550203695,2.1
,,0.015107202836833502,0.015081030997517661,0.0012444741891838333,0.031432708023535,2.360872864457752,0.48062046787448603,0.4797878371225876,-4.194317550203695,2.2
,,0.015107202836833502,0.015081030997517661,0.0012444741891838333,0.031432708023535,2.3042421373746538,0.48062046787448603,0.4797878371225876,-4.194317550203695,2.3
,,0.01991957220118219,0.006833392309747128,0.0005444415014093601,0.02729740601233868,2.3286738193894414,0.7297239961986995,0.25033119654879926,-4.985934050848427,2.4
,,0.01991957220118219,0.006833392309747128,0.0005444415014093601,0.02729740601233868,2.3512261412492452,0.7297239961986995,0.25033119654879926,-4.985934050848427,2.5
,,0.021237709605627954,0.0072065291152625275,0.0005005672062715724,0.028944805927162056,2.37329219075579,0.7337312835702348,0.24897486386322107,-4.932767842310164,2.6
,,0.021237709605627954,0.0072065291152625275,0.0005005672062715724,0.028944805927162056,2.3937820938690098,0.7337312835702348,0.24897486386322107,-4.932767842310164,2.7
,,0.021237709605627954,0.0072065291152625275,0.0005005672062715724,0.028944805927162056,2.4128589002158005,0.7337312835702348,0.24897486386322107,-4.932767842310164,2.8
,,0.021237709605627954,0.0072065291152625275,0.0005005672062715724,0.028944805927162056,2.4306639194728055,0.7337312835702348,0.24897486386322107,-4.932767842310164,2.9
,,0.021237709605627954,0.0072065291152625275,0.0005005672062715724,0.028944805927162056,2.4473202278100037,0.7337312835702348,0.24897486386322107,-4.932767842310164,3.0
,,0.021237709605627954,0.0072065291152625275,0.0005005672062715724,0.028944805927162056,2.4629355168761267,0.7337312835702348,0.24897486386322107,-4.932767842310164,3.1
,,0.021133562263375927,0.0072937042269846175,0.0005658726896302855,0.02899313917999083,2.476104363033592,0.7289159732644932,0.2515665579261681,-4.920743737598167,3.2
,,0.021133562263375927,0.0072937042269846175,0.0005658726896302855,0.02899313917999083,2.4884985711817937,0.7289159732644932,0.2515665579261681,-4.920743737598167,3.3
,,0.021133562263375927,0.0072937042269846175,0.0005658726896302855,0.02899313917999083,2.5001845388643846,0.7289159732644932,0.2515665579261681,-4.920743737598167,3.4
,,0.021133562263375927,0.0072937042269846175,0.0005658726896302855,0.02899313917999083,2.5112212861201644,0.7289159732644932,0.2515665579261681,-4.920743737598167,3.5
,,0.022482881063713694,0.007648100560462347,0.0005885582627164937,0.030719539886892536,2.5228009432396132,0.7318755797285469,0.24896533569910828,-4.87329795472346,3.6
,,0.022482881063713694,0.007648100560462347,0.0005885582627164937,0.030719539886892536,2.5337711447211966,0.7318755797285469,0.24896533569910828,-4.87329795472346,3.7
,,0.022482881063713694,0.007648100560462347,0.0005885582627164937,0.030719539886892536,2.5441787717678266,0.7318755797285469,0.24896533569910828,-4.87329795472346,3.8
,,0.022482881063713694,0.007648100560462347,0.0005885582627164937,0.030719539886892536,2.5540660174621252,0.7318755797285469,0.24896533569910828,-4.87329795472346,3.9
,,0.022568180841886207,0.007833133348167019,0.0005877471124788704,0.030989061302532095,2.5620428930800148,0.7282628093043327,0.25277091395882256,-4.849392676847262,4.0
,,0.022568180841886207,0.007833133348167019,0.0005877471124788704,0.030989061302532095,2.5696399174780047,0.7282628093043327,0.25277091395882256,-4.849392676847262,4.1
,,0.022568180841886207,0.007833133348167019,0.0005877471124788704,0.030989061302532095,2.576883591903995,0.7282628093043327,0.25277091395882256,-4.849392676847262,4.2
,,0.022568180841886207,0.007833133348167019,0.0005877471124788704,0.030989061302532095,2.5837980084015317,0.7282628093043327,0.25277091395882256,-4.849392676847262,4.3
,,0.022568180841886207,0.007833133348167019,0.0005877471124788704,0.030989061302532095,2.5904051174991776,0.7282628093043327,0.25277091395882256,-4.849392676847262,4.4
,,0.02395709576409349,0.008190533830574599,0.0006055640660133606,0.03275319366068145,2.597678346812238,0.7314430468150889,0.2500682503033871,-4.804776202462994,4.5
,,0.02395709576409349,0.008190533830574599,0.0006055640660133606,0.03275319366068145,2.6046420770055945,0.7314430468150889,0.2500682503033871,-4.804776202462994,4.6
,,0.02395709576409349,0.008190533830574599,0.0006055640660133606,0.03275319366068145,2.6113156517742273,0.7314430468150889,0.2500682503033871,-4.804776202462994,4.7
,,0.024212755892305926,0.00844689765977342,0.0006072808060042463,0.03326693435808359,2.6165228281819397,0.7278324967272624,0.25391271611779564,-4.7739560458809756,4.8
,,0.024212755892305926,0.00844689765977342,0.0006072808060042463,0.03326693435808359,2.6215217175333443,0.7278324967272624,0.25391271611779564,-4.7739560458809756,4.9
,,0.024212755892305926,0.00844689765977342,0.0006072808060042463,0.03326693435808359,2.626324572008223,0.7278324967272624,0.25391271611779564,-4.7739560458809756,5.0
,,0.024212755892305926,0.00844689765977342,0.0006072808060042463,0.03326693435808359,2.6309427013109907,0.7278324967272624,0.25391271611779564,-4.7739560458809756,5.1
,,0.024212755892305926,0.00844689765977342,0.0006072808060042463,0.03326693435808359,2.6353865615834655,0.7278324967272624,0.25391271611779564,-4.7739560458809756,5.2
,,0.024212755892305926,0.00844689765977342,0.0006072808060042463,0.03326693435808359,2.6396658344384414,0.7278324967272624,0.25391271611779564,-4.7739560458809756,5.3
,,0.03156816953909098,0.019791729435099575,0.0016785192219859334,0.05303841819617649,2.6206722418940136,0.5951944008271105,0.37315836535499,-3.922491133842808,5.4
,,0.03156816953909098,0.019791729435099575,0.0016785192219859334,0.05303841819617649,2.602356991940458,0.5951944008271105,0.37315836535499,-3.922491133842808,5.5
,,0.026085324668240137,0.009117935082520389,0.0005329662155316554,0.03573622596629218,2.6068924959115756,0.7299406684087134,0.25514543956378566,-4.697511916922266,5.6
,,0.026085324668240137,0.009117935082520389,0.0005329662155316554,0.03573622596629218,2.611271603194033,0.7299406684087134,0.25514543956378566,-4.697511916922266,5.7
,,0.026085324668240137,0.009117935082520389,0.0005329662155316554,0.03573622596629218,2.6155022661618315,0.7299406684087134,0.25514543956378566,-4.697511916922266,5.8
,,0.026085324668240137,0.009117935082520389,0.0005329662155316554,0.03573622596629218,2.6195919070307028,0.7299406684087134,0.25514543956378566,-4.697511916922266,5.9
,,0.026085324668240137,0.009117935082520389,0.0005329662155316554,0.03573622596629218,2.6235474613137097,0.7299406684087134,0.25514543956378566,-4.697511916922266,6.0
,,0.026085324668240137,0.009117935082520389,0.0005329662155316554,0.03573622596629218,2.6273754170714585,0.7299406684087134,0.25514543956378566,-4.697511916922266,6.1
,,0.026085324668240137,0.009117935082520389,0.0005329662155316554,0.03573622596629218,2.6310818504241995,0.7299406684087134,0.25514543956378566,-4.697511916922266,6.2
,,0.027733672754276118,0.009488179239672708,0.0006424935921436349,0.03786434558609246,2.6356426183762935,0.7324482260288336,0.25058347352390814,-4.657708545708671,6.3
,,0.028321801628745116,0.00988386351449163,0.0005522275857971123,0.038757892729033856,2.6391782487381623,0.7307363645064485,0.25501550312841303,-4.6168517996832446,6.4
,,0.028321801628745116,0.00988386351449163,0.0005522275857971123,0.038757892729033856,2.6426067387860357,0.7307363645064485,0.25501550312841303,-4.6168517996832446,6.5
,,0.028321801628745116,0.00988386351449163,0.0005522275857971123,0.038757892729033856,2.6459328858474054,0.7307363645064485,0.25501550312841303,-4.6168517996832446,6.6
,,0.028321801628745116,0.00988386351449163,0.0005522275857971123,0.038757892729033856,2.6491612050540283,0.7307363645064485,0.25501550312841303,-4.6168517996832446,6.7
,,0.028321801628745116,0.00988386351449163,0.0005522275857971123,0.038757892729033856,2.6522959497908944,0.7307363645064485,0.25501550312841303,-4.6168517996832446,6.8
,,0.028321801628745116,0.00988386351449163,0.0005522275857971123,0.038757892729033856,2.6553411303924217,0.7307363645064485,0.25501550312841303,-4.6168517996832446,6.9
,,0.028321801628745116,0.00988386351449163,0.0005522275857971123,0.038757892729033856,2.658300531258694,0.7307363645064485,0.25501550312841303,-4.6168517996832446,7.0
,,0.028321801628745116,0.00988386351449163,0.0005522275857971123,0.038757892729033856,2.6611777265453487,0.7307363645064485,0.25501550312841303,-4.6168517996832446,7.1
,,0.03077095472235999,0.01066074258746709,0.000569533647059979,0.04200123095688706,2.6642626898799704,0.7326203071035086,0.25381976538759077,-4.541187201557426,7.2
,,0.03077095472235999,0.01066074258746709,0.000569533647059979,0.04200123095688706,2.6672642758271703,0.7326203071035086,0.25381976538759077,-4.541187201557426,7.3
,,0.03077095472235999,0.01066074258746709,0.000569533647059979,0.04200123095688706,2.670185819482445,0.7326203071035086,0.25381976538759077,-4.541187201557426,7.4
,,0.03077095472235999,0.01066074258746709,0.000569533647059979,0.04200123095688706,2.673030480409949,0.7326203071035086,0.25381976538759077,-4.541187201557426,7.5
,,0.03077095472235999,0.01066074258746709,0.000569533647059979,0.04200123095688706,2.6758012540406346,0.7326203071035086,0.25381976538759077,-4.541187201557426,7.6
,,0.03077095472235999,0.01066074258746709,0.000569533647059979,0.04200123095688706,2.6785009821936105,0.7326203071035086,0.25381976538759077,-4.541187201557426,7.7
,,0.03077095472235999,0.01066074258746709,0.000569533647059979,0.04200123095688706,2.6811323627984103,0.7326203071035086,0.25381976538759077,-4.541187201557426,7.8
,,0.03077095472235999,0.01066074258746709,0.000569533647059979,0.04200123095688706,2.68369795888809,0.7326203071035086,0.25381976538759077,-4.541187201557426,7.9
,,0.031170396523772136,0.010984488279068226,0.0006567028228655923,0.04281158762570595,2.6855988973648643,0.7280831721609891,0.25657745690497724,-4.511271157838422,8.0
,,0.031170396523772136,0.010984488279068226,0.0006567028228655923,0.04281158762570595,2.6874534714885474,0.7280831721609891,0.25657745690497724,-4.511271157838422,8.1
,,0.03303801140849353,0.011347461858897073,0.0005787159190511314,0.04496418918644174,2.6901526958155264,0.734762752454027,0.2523666514222106,-4.478761184829249,8.2
,,0.03303801140849353,0.011347461858897073,0.0005787159190511314,0.04496418918644174,2.6927876528966244,0.734762752454027,0.2523666514222106,-4.478761184829249,8.3
,,0.03303801140849353,0.011347461858897073,0.0005787159190511314,0.04496418918644174,2.695360610987579,0.734762752454027,0.2523666514222106,-4.478761184829249,8.4
,,0.03303801140849353,0.011347461858897073,0.0005787159190511314,0.04496418918644174,2.6978737328438602,0.734762752454027,0.2523666514222106,-4.478761184829249,8.5
,,0.03303801140849353,0.011347461858897073,0.0005787159190511314,0.04496418918644174,2.7003290817839054,0.734762752454027,0.2523666514222106,-4.478761184829249,8.6
,,0.03303801140849353,0.011347461858897073,0.0005787159190511314,0.04496418918644174,2.702728627338949,0.734762752454027,0.2523666514222106,-4.478761184829249,8.7
,,0.033060541504411664,0.011568735222803618,0.0006553895448275504,0.045284666272042834,2.7044704292694233,0.7300603984978925,0.25546694223836536,-4.459449058980625,8.8
,,0.033060541504411664,0.011568735222803618,0.0006553895448275504,0.045284666272042834,2.7061735244903313,0.7300603984978925,0.25546694223836536,-4.459449058980625,8.9
,,0.033060541504411664,0.011568735222803618,0.0006553895448275504,0.045284666272042834,2.7055306481724184,0.7300603984978925,0.25546694223836536,-4.459449058980625,9.0
,,0.033060541504411664,0.011568735222803618,0.0006553895448275504,0.045284666272042834,2.7048877718545055,0.7300603984978925,0.25546694223836536,-4.459449058980625,9.1
,,0.034831674934228556,0.011754557645265758,0.0006686597378358151,0.04725489231733013,2.7054171118570194,0.737101985130426,0.24874795113975795,-4.4435142288963245,9.2
,,0.034831674934228556,0.011754557645265758,0.0006686597378358151,0.04725489231733013,2.7059464518595333,0.737101985130426,0.24874795113975795,-4.4435142288963245,9.3
,,0.034831674934228556,0.011754557645265758,0.0006686597378358151,0.04725489231733013,2.70572425338864,0.737101985130426,0.24874795113975795,-4.4435142288963245,9.4
,,0.034831674934228556,0.011754557645265758,0.0006686597378358151,0.04725489231733013,2.705502054917746,0.737101985130426,0.24874795113975795,-4.4435142288963245,9.5
,,0.03456054791488332,0.011963538063768497,0.0006401273805352633,0.04716421335918708,2.7049065687858427,0.7327705786521148,0.25365711016227793,-4.425891749477352,9.6
,,0.03456054791488332,0.011963538063768497,0.0006401273805352633,0.04716421335918708,2.7044215330524874,0.7327705786521148,0.25365711016227793,-4.425891749477352,9.7
,,0.03456054791488332,0.011963538063768497,0.0006401273805352633,0.04716421335918708,2.703936497319132,0.7327705786521148,0.25365711016227793,-4.425891749477352,9.8
,,0.03456054791488332,0.011963538063768497,0.0006401273805352633,0.04716421335918708,2.702860350401162,0.7327705786521148,0.25365711016227793,-4.425891749477352,9.9
,,0.03456054791488332,0.011963538063768497,0.0006401273805352633,0.04716421335918708,2.7017842034831916,0.7327705786521148,0.25365711016227793,-4.425891749477352,10.0
,,0.03614581114964936,0.012008803683439873,0.0006528154183952047,0.048807430251484436,2.7020538274538835,0.7405800912567,0.24604458012977717,-4.422115257889966,10.1
,,0.03614581114964936,0.012008803683439873,0.0006528154183952047,0.048807430251484436,2.7023234514245753,0.7405800912567,0.24604458012977717,-4.422115257889966,10.2
,,0.041957084058669734,0.013743296685771044,0.0009188880977773802,0.056619268842218164,2.703070518930785,0.7410389592912657,0.24273179373032372,-4.287204087505133,10.3
,,0.03535536992013045,0.012087599618650469,0.0006111565682136924,0.04805412610699461,2.7023955453956665,0.7357405655741232,0.2515413471829016,-4.41557517677646,10.4
,,0.03535536992013045,0.012087599618650469,0.0006111565682136924,0.04805412610699461,2.7017205718605477,0.7357405655741232,0.2515413471829016,-4.41557517677646,10.5
,,0.03535536992013045,0.012087599618650469,0.0006111565682136924,0.04805412610699461,2.7233566234147726,0.7357405655741232,0.2515413471829016,-4.41557517677646,10.6
,,0.03535536992013045,0.012087599618650469,0.0006111565682136924,0.04805412610699461,2.7449926749689983,0.7357405655741232,0.2515413471829016,-4.41557517677646,10.7
,,0.03535536992013045,0.012087599618650469,0.0006111565682136924,0.04805412610699461,2.7663614919013946,0.7357405655741232,0.2515413471829016,-4.41557517677646,10.8
,,0.03535536992013045,0.012087599618650469,0.0006111565682136924,0.04805412610699461,2.787730308833791,0.7357405655741232,0.2515413471829016,-4.41557517677646,10.9
,,0.03673730816293421,0.012000892442783946,0.0006214829002975512,0.04935968350601571,2.8106134118249195,0.7442776280860239,0.24313147067325375,-4.4227742617274695,11.0
,,0.03673730816293421,0.012000892442783946,0.0006214829002975512,0.04935968350601571,2.8334965148160483,0.7442776280860239,0.24313147067325375,-4.4227742617274695,11.1
,,0.03673730816293421,0.012000892442783946,0.0006214829002975512,0.04935968350601571,2.8563796178071774,0.7442776280860239,0.24313147067325375,-4.4227742617274695,11.2
,,0.042383829466207945,0.012614349682665506,0.000788750089454599,0.05578692923832805,2.8825822181146803,0.7597448012443819,0.22611658062008722,-4.372920249334408,11.3
,,0.042383829466207945,0.012614349682665506,0.000788750089454599,0.05578692923832805,2.8875259431635065,0.7597448012443819,0.22611658062008722,-4.372920249334408,11.4
,,0.042383829466207945,0.012614349682665506,0.000788750089454599,0.05578692923832805,2.8924696682123328,0.7597448012443819,0.22611658062008722,-4.372920249334408,11.5
,,0.042383829466207945,0.012614349682665506,0.000788750089454599,0.05578692923832805,2.8970581122591406,0.7597448012443819,0.22611658062008722,-4.372920249334408,11.6
,,0.042383829466207945,0.012614349682665506,0.000788750089454599,0.05578692923832805,2.901646556305949,0.7597448012443819,0.22611658062008722,-4.372920249334408,11.7
,,0.042383829466207945,0.012614349682665506,0.000788750089454599,0.05578692923832805,2.906235000352757,0.7597448012443819,0.22611658062008722,-4.372920249334408,11.8
,,0.026921552269706432,0.011698500746938468,0.0005767245091498973,0.0391967775257948,2.8990602535174776,0.6868307541861004,0.2984556763432878,-4.448294586676533,11.9
,,0.026921552269706432,0.011698500746938468,0.0005767245091498973,0.0391967775257948,2.8918855066821987,0.6868307541861004,0.2984556763432878,-4.448294586676533,12.0
,,0.04132435101246293,0.011306495789564504,0.0006137348665001882,0.05324458166852762,2.899751192339026,0.7761231230949716,0.21235016663202874,-4.482377869791999,12.1
,,0.03404141357055205,0.011319323347116904,0.0005158961327680801,0.045876633050437036,2.9009719071954407,0.7420207479726492,0.24673396006791462,-4.481243982983369,12.2
,,0.03404141357055205,0.011319323347116904,0.0005158961327680801,0.045876633050437036,2.9021926220518557,0.7420207479726492,0.24673396006791462,-4.481243982983369,12.3
,,0.03404141357055205,0.011319323347116904,0.0005158961327680801,0.045876633050437036,2.9034133369082697,0.7420207479726492,0.24673396006791462,-4.481243982983369,12.4
,,0.03404141357055205,0.011319323347116904,0.0005158961327680801,0.045876633050437036,2.9046340517646847,0.7420207479726492,0.24673396006791462,-4.481243982983369,12.5
,,0.03404141357055205,0.011319323347116904,0.0005158961327680801,0.045876633050437036,2.9053863092936845,0.7420207479726492,0.24673396006791462,-4.481243982983369,12.6
,,0.03404141357055205,0.011319323347116904,0.0005158961327680801,0.045876633050437036,2.906138566822685,0.7420207479726492,0.24673396006791462,-4.481243982983369,12.7
,,0.04181848018949259,0.010539267560378613,0.0006374454652292082,0.05299519321510041,2.9175630654291456,0.7890994947363804,0.19887214143367934,-4.55264722970874,12.8
,,0.04181848018949259,0.010539267560378613,0.0006374454652292082,0.05299519321510041,2.9289875640356065,0.7890994947363804,0.19887214143367934,-4.55264722970874,12.9
,,0.04181848018949259,0.010539267560378613,0.0006374454652292082,0.05299519321510041,2.941062625772558,0.7890994947363804,0.19887214143367934,-4.55264722970874,13.0
,,0.0406669613154918,0.010451411978934724,0.0005551294051571123,0.05167350269958364,2.9522840877551255,0.7869983490749405,0.20225863223742596,-4.561018192097469,13.1
,,0.0406669613154918,0.010451411978934724,0.0005551294051571123,0.05167350269958364,2.9635055497376936,0.7869983490749405,0.20225863223742596,-4.561018192097469,13.2
,,0.0406669613154918,0.010451411978934724,0.0005551294051571123,0.05167350269958364,2.9747270117202618,0.7869983490749405,0.20225863223742596,-4.561018192097469,13.3
,,0.0406669613154918,0.010451411978934724,0.0005551294051571123,0.05167350269958364,2.98594847370283,0.7869983490749405,0.20225863223742596,-4.561018192097469,13.4
,,0.0406669613154918,0.010451411978934724,0.0005551294051571123,0.05167350269958364,2.996682649595349,0.7869983490749405,0.20225863223742596,-4.561018192097469,13.5
,,0.0406669613154918,0.010451411978934724,0.0005551294051571123,0.05167350269958364,3.007416825487869,0.7869983490749405,0.20225863223742596,-4.561018192097469,13.6
,,0.0406669613154918,0.010451411978934724,0.0005551294051571123,0.05167350269958364,3.018151001380388,0.7869983490749405,0.20225863223742596,-4.561018192097469,13.7
,,0.0335559843582827,0.01048730880886332,0.00046370867636491136,0.044507001843510925,3.0218533140210075,0.7539484343669652,0.23563278528033132,-4.557589437737508,13.8
,,0.0335559843582827,0.01048730880886332,0.00046370867636491136,0.044507001843510925,3.0255556266616277,0.7539484343669652,0.23563278528033132,-4.557589437737508,13.9
,,0.03167361199291542,0.010184970496703565,0.00042337333227483053,0.04228195582189382,3.0282597496487687,0.749104703820599,0.2408821990072118,-4.586842126047518,14.0
,,0.03167361199291542,0.010184970496703565,0.00042337333227483053,0.04228195582189382,3.0309638726359096,0.749104703820599,0.2408821990072118,-4.586842126047518,14.1
,,0.03167361199291542,0.010184970496703565,0.00042337333227483053,0.04228195582189382,3.0336679956230506,0.749104703820599,0.2408821990072118,-4.586842126047518,14.2
,,0.03167361199291542,0.010184970496703565,0.00042337333227483053,0.04228195582189382,3.0363721186101915,0.749104703820599,0.2408821990072118,-4.586842126047518,14.3
,,0.03167361199291542,0.010184970496703565,0.00042337333227483053,0.04228195582189382,3.053203453277969,0.749104703820599,0.2408821990072118,-4.586842126047518,14.4
,,0.03167361199291542,0.010184970496703565,0.00042337333227483053,0.04228195582189382,3.0700347879457457,0.749104703820599,0.2408821990072118,-4.586842126047518,14.5
,,0.03167361199291542,0.010184970496703565,0.00042337333227483053,0.04228195582189382,3.072800984015754,0.749104703820599,0.2408821990072118,-4.586842126047518,14.6
,,0.03151928947936962,0.009892027340653059,0.0003281650061088064,0.041739481826131485,3.076417116353433,0.7551432864132157,0.23699449317217064,-4.616026165411193,14.7
,,0.040342360388900766,0.009233967990515074,0.00045249089343599657,0.05002881927285184,3.093172979567498,0.8063824206779264,0.1845729746319616,-4.68486642138428,14.8
,,0.030986841444099876,0.009750257299676846,0.000387658604247331,0.04112475734802405,3.096697123987484,0.7534838730322313,0.23708972230921438,-4.6304616046101374,14.9
,,0.030986841444099876,0.009750257299676846,0.000387658604247331,0.04112475734802405,3.100221268407471,0.7534838730322313,0.23708972230921438,-4.6304616046101374,15.0
,,0.030986841444099876,0.009750257299676846,0.000387658604247331,0.04112475734802405,3.103745412827457,0.7534838730322313,0.23708972230921438,-4.6304616046101374,15.1
,,0.030986841444099876,0.009750257299676846,0.000387658604247331,0.04112475734802405,3.1072695572474434,0.7534838730322313,0.23708972230921438,-4.6304616046101374,15.2
,,0.030986841444099876,0.009750257299676846,0.000387658604247331,0.04112475734802405,3.1101038096556066,0.7534838730322313,0.23708972230921438,-4.6304616046101374,15.3
,,0.030986841444099876,0.009750257299676846,0.000387658604247331,0.04112475734802405,3.113577088813329,0.7534838730322313,0.23708972230921438,-4.6304616046101374,15.4
,,0.030986841444099876,0.009750257299676846,0.000387658604247331,0.04112475734802405,3.1170503679710526,0.7534838730322313,0.23708972230921438,-4.6304616046101374,15.5
,,0.032044120182853415,0.009634136236818663,0.0003753756624261245,0.042053632082098204,3.122168628496218,0.7619822259417699,0.22909165653065708,-4.642442629622416,15.6
,,0.03098507024501579,0.00950824200890467,0.00028366039094764674,0.040776972644868105,3.1265386342276833,0.7598668619877387,0.23317675129326476,-4.655596276620835,15.7
,,0.03098507024501579,0.00950824200890467,0.00028366039094764674,0.040776972644868105,3.1309086399591486,0.7598668619877387,0.23317675129326476,-4.655596276620835,15.8
,,0.03098507024501579,0.00950824200890467,0.00028366039094764674,0.040776972644868105,3.135278645690614,0.7598668619877387,0.23317675129326476,-4.655596276620835,15.9
,,0.03098507024501579,0.00950824200890467,0.00028366039094764674,0.040776972644868105,3.1396486514220787,0.7598668619877387,0.23317675129326476,-4.655596276620835,16.0
,,0.03098507024501579,0.00950824200890467,0.00028366039094764674,0.040776972644868105,3.144018657153544,0.7598668619877387,0.23317675129326476,-4.655596276620835,16.1
,,0.03098507024501579,0.00950824200890467,0.00028366039094764674,0.040776972644868105,3.1481562022397322,0.7598668619877387,0.23317675129326476,-4.655596276620835,16.2
,,0.03098507024501579,0.00950824200890467,0.00028366039094764674,0.040776972644868105,3.1522937473259196,0.7598668619877387,0.23317675129326476,-4.655596276620835,16.3
,,0.03098507024501579,0.00950824200890467,0.00028366039094764674,0.040776972644868105,3.1564312924121065,0.7598668619877387,0.23317675129326476,-4.655596276620835,16.4
,,0.0324868224528807,0.009680677044584135,0.0002641777922126055,0.042431677289677436,3.1616475361156247,0.7656266385864489,0.2281474045556809,-4.6376234375171945,16.5
,,0.0324868224528807,0.009680677044584135,0.0002641777922126055,0.042431677289677436,3.166863779819142,0.7656266385864489,0.2281474045556809,-4.6376234375171945,16.6
,,0.0324868224528807,0.009680677044584135,0.0002641777922126055,0.042431677289677436,3.1720800235226596,0.7656266385864489,0.2281474045556809,-4.6376234375171945,16.7
,,0.0324868224528807,0.009680677044584135,0.0002641777922126055,0.042431677289677436,3.177296267226177,0.7656266385864489,0.2281474045556809,-4.6376234375171945,16.8
,,0.0324868224528807,0.009680677044584135,0.0002641777922126055,0.042431677289677436,3.182512510929694,0.7656266385864489,0.2281474045556809,-4.6376234375171945,16.9
,,0.0324868224528807,0.009680677044584135,0.0002641777922126055,0.042431677289677436,3.188269933238388,0.7656266385864489,0.2281474045556809,-4.6376234375171945,17.0
,,0.0324868224528807,0.009680677044584135,0.0002641777922126055,0.042431677289677436,3.194027355547082,0.7656266385864489,0.2281474045556809,-4.6376234375171945,17.1
,,0.0324868224528807,0.009680677044584135,0.0002641777922126055,0.042431677289677436,3.198964609909989,0.7656266385864489,0.2281474045556809,-4.6376234375171945,17.2
,,0.03308742299916927,0.009966647340341028,0.0003340260699362344,0.04338809640944653,3.2035015618487477,0.7625921793601763,0.2297092558817831,-4.608511026351704,17.3
,,0.034713352293167486,0.010052497663550913,0.00025295320735351347,0.04501880316407191,3.2095206464080044,0.7710856320780896,0.22329553335557117,-4.599934151617552,17.4
,,0.034713352293167486,0.010052497663550913,0.00025295320735351347,0.04501880316407191,3.215539730967261,0.7710856320780896,0.22329553335557117,-4.599934151617552,17.5
,,0.034713352293167486,0.010052497663550913,0.00025295320735351347,0.04501880316407191,3.221558815526518,0.7710856320780896,0.22329553335557117,-4.599934151617552,17.6
,,0.034713352293167486,0.010052497663550913,0.00025295320735351347,0.04501880316407191,3.227577900085774,0.7710856320780896,0.22329553335557117,-4.599934151617552,17.7
,,0.034713352293167486,0.010052497663550913,0.00025295320735351347,0.04501880316407191,3.2341940967725495,0.7710856320780896,0.22329553335557117,-4.599934151617552,17.8
,,0.034713352293167486,0.010052497663550913,0.00025295320735351347,0.04501880316407191,3.2408102934593237,0.7710856320780896,0.22329553335557117,-4.599934151617552,17.9
,,0.034713352293167486,0.010052497663550913,0.00025295320735351347,0.04501880316407191,3.2474264901460983,0.7710856320780896,0.22329553335557117,-4.599934151617552,18.0
,,0.03592560679384364,0.01048748528218481,0.00032883493481466666,0.046741927010843114,3.2537356037280247,0.7685949016502824,0.22436998114673237,-4.557572610557157,18.1
,,0.03592560679384364,0.01048748528218481,0.00032883493481466666,0.046741927010843114,3.2588725009895243,0.7685949016502824,0.22436998114673237,-4.557572610557157,18.2
,,0.03804473761211237,0.010691664458324944,0.0002470984627652748,0.048983500533202586,3.2654847957153454,0.7766847448218698,0.21827073079592976,-4.538290863696508,18.3
,,0.03804473761211237,0.010691664458324944,0.0002470984627652748,0.048983500533202586,3.2720970904411666,0.7766847448218698,0.21827073079592976,-4.538290863696508,18.4
,,0.03804473761211237,0.010691664458324944,0.0002470984627652748,0.048983500533202586,3.2787093851669877,0.7766847448218698,0.21827073079592976,-4.538290863696508,18.5
,,0.03804473761211237,0.010691664458324944,0.0002470984627652748,0.048983500533202586,3.2861486258268884,0.7766847448218698,0.21827073079592976,-4.538290863696508,18.6
,,0.03804473761211237,0.010691664458324944,0.0002470984627652748,0.048983500533202586,3.293587866486788,0.7766847448218698,0.21827073079592976,-4.538290863696508,18.7
,,0.040111358752545255,0.011329958643186254,0.0003378507104046965,0.051779168106136204,3.300826404090387,0.7746620932635604,0.21881306822006613,-4.480304854153098,18.8
,,0.03804473761211237,0.010691664458324944,0.0002470984627652748,0.048983500533202586,3.308265644750287,0.7766847448218698,0.21827073079592976,-4.538290863696508,18.9
,,0.039882257524726836,0.011272252920917198,0.00032837946880422445,0.05148288991444826,3.3154797308313455,0.7746701397493656,0.21895144075340128,-4.485411066656897,19.0
,,0.039882257524726836,0.011272252920917198,0.00032837946880422445,0.05148288991444826,3.3213480460237417,0.7746701397493656,0.21895144075340128,-4.485411066656897,19.1
,,0.04331316211628988,0.011813785150167263,0.0002522243245479376,0.05537917159100508,3.3286411696278604,0.7821200800216555,0.21332542200913143,-4.438488196298752,19.2
,,0.04331316211628988,0.011813785150167263,0.0002522243245479376,0.05537917159100508,3.335456849696461,0.7821200800216555,0.21332542200913143,-4.438488196298752,19.3
,,0.04331316211628988,0.011813785150167263,0.0002522243245479376,0.05537917159100508,3.3436945708063894,0.7821200800216555,0.21332542200913143,-4.438488196298752,19.4
,,0.04331316211628988,0.011813785150167263,0.0002522243245479376,0.05537917159100508,3.351932291916318,0.7821200800216555,0.21332542200913143,-4.438488196298752,19.5
,,0.04331316211628988,0.011813785150167263,0.0002522243245479376,0.05537917159100508,3.3601700130262473,0.7821200800216555,0.21332542200913143,-4.438488196298752,19.6
,,0.045907355748309564,0.01257008294474951,0.00035250627716826977,0.058829944970227345,3.36824982922826,0.7803399403406268,0.21366810645685588,-4.376435657774106,19.7
,,0.04331316211628988,0.011813785150167263,0.0002522243245479376,0.05537917159100508,3.3764875503381893,0.7821200800216555,0.21332542200913143,-4.438488196298752,19.8
,,0.0520238485114189,0.011421150037512583,0.00028907292092240927,0.0637340714698539,3.39459994726648,0.8162643200352592,0.17920006950936387,-4.472288376014353,19.9
,,0.047556170477275256,0.012624643422500859,0.0002541956361995557,0.06043500953597567,3.4024412482998065,0.786897707842109,0.20889619310783228,-4.372104547981884,20.0
,,0.047556170477275256,0.012624643422500859,0.0002541956361995557,0.06043500953597567,3.410282549333133,0.786897707842109,0.20889619310783228,-4.372104547981884,20.1
,,0.047556170477275256,0.012624643422500859,0.0002541956361995557,0.06043500953597567,3.4181238503664595,0.786897707842109,0.20889619310783228,-4.372104547981884,20.2
,,0.047556170477275256,0.012624643422500859,0.0002541956361995557,0.06043500953597567,3.4226456540834116,0.786897707842109,0.20889619310783228,-4.372104547981884,20.3
,,0.047556170477275256,0.012624643422500859,0.0002541956361995557,0.06043500953597567,3.4271674578003632,0.786897707842109,0.20889619310783228,-4.372104547981884,20.4
,,0.047556170477275256,0.012624643422500859,0.0002541956361995557,0.06043500953597567,3.4316892615173153,0.786897707842109,0.20889619310783228,-4.372104547981884,20.5
,,0.047556170477275256,0.012624643422500859,0.0002541956361995557,0.06043500953597567,3.436211065234268,0.786897707842109,0.20889619310783228,-4.372104547981884,20.6
,,0.048514646082505795,0.01293778630950346,0.00033828408119815606,0.06179071647320741,3.4405429753230465,0.7851445791786837,0.20938074597521963,-4.347603077998253,20.7
,,0.048514646082505795,0.01293778630950346,0.00033828408119815606,0.06179071647320741,3.444874885411825,0.7851445791786837,0.20938074597521963,-4.347603077998253,20.8
,,0.04924449568744511,0.010459275257104432,0.00020302163796173146,0.05990679258251127,3.471618560218486,0.8220185652506652,0.17459247618203871,-4.560266109829527,20.9
,,0.04924449568744511,0.010459275257104432,0.00020302163796173146,0.05990679258251127,3.498362235025147,0.8220185652506652,0.17459247618203871,-4.560266109829527,21.0
,,0.04924449568744511,0.010459275257104432,0.00020302163796173146,0.05990679258251127,3.510065477339701,0.8220185652506652,0.17459247618203871,-4.560266109829527,21.1
,,0.04924449568744511,0.010459275257104432,0.00020302163796173146,0.05990679258251127,3.528963713097485,0.8220185652506652,0.17459247618203871,-4.560266109829527,21.2
,,0.04924449568744511,0.010459275257104432,0.00020302163796173146,0.05990679258251127,3.5478619488552687,0.8220185652506652,0.17459247618203871,-4.560266109829527,21.3
,,0.04924449568744511,0.010459275257104432,0.00020302163796173146,0.05990679258251127,3.5667601846130523,0.8220185652506652,0.17459247618203871,-4.560266109829527,21.4
,,0.049421836067077826,0.012907987461703012,0.00032858211229632144,0.06265840564107716,3.575886935615016,0.7887502971297788,0.20600567999835737,-4.349908976151507,21.5
,,0.049421836067077826,0.012907987461703012,0.00032858211229632144,0.06265840564107716,3.5850136866169797,0.7887502971297788,0.20600567999835737,-4.349908976151507,21.6
,,0.049421836067077826,0.012907987461703012,0.00032858211229632144,0.06265840564107716,3.594140437618943,0.7887502971297788,0.20600567999835737,-4.349908976151507,21.7
,,0.049421836067077826,0.012907987461703012,0.00032858211229632144,0.06265840564107716,3.592594947543447,0.7887502971297788,0.20600567999835737,-4.349908976151507,21.8
,,0.048647220539761137,0.010370242293809971,0.00021143899277885141,0.05922890182634996,3.60063013023196,0.8213426053784909,0.17508753284357573,-4.5688148921332346,21.9
,,0.048647220539761137,0.010370242293809971,0.00021143899277885141,0.05922890182634996,3.608665312920474,0.8213426053784909,0.17508753284357573,-4.5688148921332346,22.0
,,0.048647220539761137,0.010370242293809971,0.00021143899277885141,0.05922890182634996,3.6175540953633716,0.8213426053784909,0.17508753284357573,-4.5688148921332346,22.1
,,0.048647220539761137,0.010370242293809971,0.00021143899277885141,0.05922890182634996,3.626442877806269,0.8213426053784909,0.17508753284357573,-4.5688148921332346,22.2
,,0.048647220539761137,0.010370242293809971,0.00021143899277885141,0.05922890182634996,3.6353316602491663,0.8213426053784909,0.17508753284357573,-4.5688148921332346,22.3
,,0.05014627521152938,0.012969166834548783,0.0003234529874031753,0.06343889503348134,3.6350597376443443,0.7904657731674477,0.20443557265150988,-4.3451805206085075,22.4
,,0.05014627521152938,0.012969166834548783,0.0003234529874031753,0.06343889503348134,3.634787815039523,0.7904657731674477,0.20443557265150988,-4.3451805206085075,22.5
,,0.05014627521152938,0.012969166834548783,0.0003234529874031753,0.06343889503348134,3.6345158924347003,0.7904657731674477,0.20443557265150988,-4.3451805206085075,22.6
,,0.05014627521152938,0.012969166834548783,0.0003234529874031753,0.06343889503348134,3.634243969829879,0.7904657731674477,0.20443557265150988,-4.3451805206085075,22.7
,,0.04854429450667204,0.010413246969591148,0.0002297014615967123,0.059187242937859895,3.6504896060538607,0.8201817164830303,0.17593735495542365,-4.564676536286346,22.8
,,0.04854429450667204,0.010413246969591148,0.0002297014615967123,0.059187242937859895,3.6667352422778428,0.8201817164830303,0.17593735495542365,-4.564676536286346,22.9
,,0.04854429450667204,0.010413246969591148,0.0002297014615967123,0.059187242937859895,3.683979068155304,0.8201817164830303,0.17593735495542365,-4.564676536286346,23.0
,,0.04854429450667204,0.010413246969591148,0.0002297014615967123,0.059187242937859895,3.7012228940327647,0.8201817164830303,0.17593735495542365,-4.564676536286346,23.1
,,0.05011836532305895,0.012968932548024609,0.00032054414673185147,0.06340784201781542,3.7096079594797704,0.7904127270090254,0.2045319969157882,-4.345198585657972,23.2
,,0.05011836532305895,0.012968932548024609,0.00032054414673185147,0.06340784201781542,3.7179930249267765,0.7904127270090254,0.2045319969157882,-4.345198585657972,23.3
,,0.05011836532305895,0.012968932548024609,0.00032054414673185147,0.06340784201781542,3.7263780903737826,0.7904127270090254,0.2045319969157882,-4.345198585657972,23.4
,,0.05011836532305895,0.012968932548024609,0.00032054414673185147,0.06340784201781542,3.7347631558207883,0.7904127270090254,0.2045319969157882,-4.345198585657972,23.5
,,0.05013966115262593,0.012740258485278426,0.00029813368513863486,0.06317805332304298,3.7439375000657638,0.7936246610235211,0.2016563951430213,-4.3629883397756215,23.6
,,0.05013966115262593,0.012740258485278426,0.00029813368513863486,0.06317805332304298,3.7522619080430677,0.7936246610235211,0.2016563951430213,-4.3629883397756215,23.7
,,0.05013966115262593,0.012740258485278426,0.00029813368513863486,0.06317805332304298,3.7474465851439858,0.7936246610235211,0.2016563951430213,-4.3629883397756215,23.8
,,0.05013966115262593,0.012740258485278426,0.00029813368513863486,0.06317805332304298,3.7558629810389825,0.7936246610235211,0.2016563951430213,-4.3629883397756215,23.9
,,0.05061165731124417,0.013207017004847436,0.00033055754212814857,0.06414923185821975,3.763131043192202,0.7889674723323917,0.20587958144280036,-4.32700699935808,24.0
,,0.05061165731124417,0.013207017004847436,0.00033055754212814857,0.06414923185821975,3.770399105345421,0.7889674723323917,0.20587958144280036,-4.32700699935808,24.1
,,0.05061165731124417,0.013207017004847436,0.00033055754212814857,0.06414923185821975,3.7776671674986395,0.7889674723323917,0.20587958144280036,-4.32700699935808,24.2
,,0.05061165731124417,0.013207017004847436,0.00033055754212814857,0.06414923185821975,3.784935229651859,0.7889674723323917,0.20587958144280036,-4.32700699935808,24.3
,,0.05061165731124417,0.013207017004847436,0.00033055754212814857,0.06414923185821975,3.7922032918050785,0.7889674723323917,0.20587958144280036,-4.32700699935808,24.4
,,0.05101354637340401,0.013094512077030341,0.00032037589940871994,0.06442843434984308,3.800178204884259,0.7917862181223135,0.2032411963625845,-4.335562061966329,24.5
,,0.05101354637340401,0.013094512077030341,0.00032037589940871994,0.06442843434984308,3.8065081365959985,0.7917862181223135,0.2032411963625845,-4.335562061966329,24.6
,,0.05101354637340401,0.013094512077030341,0.00032037589940871994,0.06442843434984308,3.813586323101438,0.7917862181223135,0.2032411963625845,-4.335562061966329,24.7
,,0.05169672163233252,0.013705161036740503,0.0003487081149231745,0.0657505907839962,3.8192896922045843,0.7862548612249973,0.20844164095444695,-4.289982799078216,24.8
,,0.05169672163233252,0.013705161036740503,0.0003487081149231745,0.0657505907839962,3.8249930613077296,0.7862548612249973,0.20844164095444695,-4.289982799078216,24.9
,,0.05169672163233252,0.013705161036740503,0.0003487081149231745,0.0657505907839962,3.830696430410876,0.7862548612249973,0.20844164095444695,-4.289982799078216,25.0
,,0.05169672163233252,0.013705161036740503,0.0003487081149231745,0.0657505907839962,3.836399799514022,0.7862548612249973,0.20844164095444695,-4.289982799078216,25.1
,,0.05169672163233252,0.013705161036740503,0.0003487081149231745,0.0657505907839962,3.8421031686171685,0.7862548612249973,0.20844164095444695,-4.289982799078216,25.2
,,0.05169672163233252,0.013705161036740503,0.0003487081149231745,0.0657505907839962,3.847806537720315,0.7862548612249973,0.20844164095444695,-4.289982799078216,25.3
,,0.05246353203518478,0.013682139163809184,0.0003506420332450137,0.06649631323223898,3.85420314665177,0.7889690342975169,0.20575786083093342,-4.291664007389022,25.4
,,0.05246353203518478,0.013682139163809184,0.0003506420332450137,0.06649631323223898,3.859521056965895,0.7889690342975169,0.20575786083093342,-4.291664007389022,25.5
,,0.05348154343417258,0.014499559450756353,0.0003745805691355409,0.06835568345406448,3.863217194620978,0.7824008294805883,0.21211929598363483,-4.233637012723631,25.6
,,0.05348154343417258,0.014499559450756353,0.0003745805691355409,0.06835568345406448,3.8669133322760607,0.7824008294805883,0.21211929598363483,-4.233637012723631,25.7
,,0.05348154343417258,0.014499559450756353,0.0003745805691355409,0.06835568345406448,3.8706094699311437,0.7824008294805883,0.21211929598363483,-4.233637012723631,25.8
,,0.05348154343417258,0.014499559450756353,0.0003745805691355409,0.06835568345406448,3.874305607586227,0.7824008294805883,0.21211929598363483,-4.233637012723631,25.9
,,0.05348154343417258,0.014499559450756353,0.0003745805691355409,0.06835568345406448,3.8780017452413094,0.7824008294805883,0.21211929598363483,-4.233637012723631,26.0
,,0.05348154343417258,0.014499559450756353,0.0003745805691355409,0.06835568345406448,3.8816978828963924,0.7824008294805883,0.21211929598363483,-4.233637012723631,26.1
,,0.05348154343417258,0.014499559450756353,0.0003745805691355409,0.06835568345406448,3.885394020551475,0.7824008294805883,0.21211929598363483,-4.233637012723631,26.2
,,0.05435731624409283,0.012010652745660603,0.00041429701259674244,0.06678226600235017,3.8987933976869096,0.8139483653067405,0.17984793665488874,-4.421961294187262,26.3
,,0.05435731624409283,0.012010652745660603,0.00041429701259674244,0.06678226600235017,3.9107106422018476,0.8139483653067405,0.17984793665488874,-4.421961294187262,26.4
,,0.05543863340741619,0.015495349160071377,0.0004087614147465274,0.07134274398223409,3.9120945627247745,0.7770745882891977,0.2171958673741237,-4.1672153542711445,26.5
,,0.05543863340741619,0.015495349160071377,0.0004087614147465274,0.07134274398223409,3.9134784832477023,0.7770745882891977,0.2171958673741237,-4.1672153542711445,26.6
,,0.05543863340741619,0.015495349160071377,0.0004087614147465274,0.07134274398223409,3.9148624037706297,0.7770745882891977,0.2171958673741237,-4.1672153542711445,26.7
,,0.05543863340741619,0.015495349160071377,0.0004087614147465274,0.07134274398223409,3.916246324293557,0.7770745882891977,0.2171958673741237,-4.1672153542711445,26.8
,,0.05543863340741619,0.015495349160071377,0.0004087614147465274,0.07134274398223409,3.917630244816484,0.7770745882891977,0.2171958673741237,-4.1672153542711445,26.9
,,0.05543863340741619,0.015495349160071377,0.0004087614147465274,0.07134274398223409,3.9190141653394113,0.7770745882891977,0.2171958673741237,-4.1672153542711445,27.0
,,0.05561003073972086,0.015243419578938886,0.0004245914396687043,0.07127804175832846,3.921487102582743,0.7801846033911717,0.21385856293053637,-4.183607372073335,27.1
,,0.05461955529961443,0.015659720370014514,0.00036945108783199084,0.07064872675746092,3.9221796785812275,0.7731145033529749,0.221656087642949,-4.156663444899818,27.2
,,0.05445404205983233,0.01575074656177018,0.00042714147887056936,0.07063193010047308,3.9210561299923037,0.7709550338263742,0.22299753863960575,-4.150867514086562,27.3
,,0.05445404205983233,0.01575074656177018,0.00042714147887056936,0.07063193010047308,3.9199325814033803,0.7709550338263742,0.22299753863960575,-4.150867514086562,27.4
,,0.05445404205983233,0.01575074656177018,0.00042714147887056936,0.07063193010047308,3.9188090328144574,0.7709550338263742,0.22299753863960575,-4.150867514086562,27.5
,,0.05445404205983233,0.01575074656177018,0.00042714147887056936,0.07063193010047308,3.9176854842255335,0.7709550338263742,0.22299753863960575,-4.150867514086562,27.6
,,0.05445404205983233,0.01575074656177018,0.00042714147887056936,0.07063193010047308,3.91656193563661,0.7709550338263742,0.22299753863960575,-4.150867514086562,27.7
,,0.05445404205983233,0.01575074656177018,0.00042714147887056936,0.07063193010047308,3.915639090103989,0.7709550338263742,0.22299753863960575,-4.150867514086562,27.8
,,0.05445404205983233,0.01575074656177018,0.00042714147887056936,0.07063193010047308,3.914515541515065,0.7709550338263742,0.22299753863960575,-4.150867514086562,27.9
,,0.05473193304673092,0.015495152437767692,0.000447685093476144,0.07067477057797476,3.9144500532235136,0.7744196776181358,0.2192458823855968,-4.167228049922621,28.0
,,0.05473193304673092,0.015495152437767692,0.000447685093476144,0.07067477057797476,3.9143845649319617,0.7744196776181358,0.2192458823855968,-4.167228049922621,28.1
,,0.05388972640425389,0.016151612163741697,0.0004499407936066813,0.07049127936160227,3.9107197678521963,0.7644878471819664,0.22912922435253374,-4.125735409915302,28.2
,,0.05388972640425389,0.016151612163741697,0.0004499407936066813,0.07049127936160227,3.907054970772431,0.7644878471819664,0.22912922435253374,-4.125735409915302,28.3
,,0.05388972640425389,0.016151612163741697,0.0004499407936066813,0.07049127936160227,3.9033901736926646,0.7644878471819664,0.22912922435253374,-4.125735409915302,28.4
,,0.05388972640425389,0.016151612163741697,0.0004499407936066813,0.07049127936160227,3.899725376612899,0.7644878471819664,0.22912922435253374,-4.125735409915302,28.5
,,0.05388972640425389,0.016151612163741697,0.0004499407936066813,0.07049127936160227,3.896060579533134,0.7644878471819664,0.22912922435253374,-4.125735409915302,28.6
,,0.05388972640425389,0.016151612163741697,0.0004499407936066813,0.07049127936160227,3.892553687361284,0.7644878471819664,0.22912922435253374,-4.125735409915302,28.7
,,0.052272405744118726,0.011506362548612075,0.00045639659550855455,0.06423516488823935,3.902293568615602,0.813766195433074,0.17912871506801012,-4.4648551315109355,28.8
,,0.05380971741769319,0.01664499305565508,0.0004737435223847906,0.07092845399573307,3.887601816984838,0.7586478258912889,0.2346729995927504,-4.095645825158295,28.9
,,0.052272405744118726,0.011506362548612075,0.00045639659550855455,0.06423516488823935,3.896223832257026,0.813766195433074,0.17912871506801012,-4.4648551315109355,29.0
,,0.052004941688715736,0.011906542817425196,0.00045788968123610974,0.06436937418737704,3.902899720286022,0.8079143590448952,0.18497216988261622,-4.4306672133680625,29.1
,,0.052004941688715736,0.011906542817425196,0.00045788968123610974,0.06436937418737704,3.9095756083150173,0.8079143590448952,0.18497216988261622,-4.4306672133680625,29.2
,,0.052004941688715736,0.011906542817425196,0.00045788968123610974,0.06436937418737704,3.9162514963440134,0.8079143590448952,0.18497216988261622,-4.4306672133680625,29.3
,,0.052004941688715736,0.011906542817425196,0.00045788968123610974,0.06436937418737704,3.9229273843730095,0.8079143590448952,0.18497216988261622,-4.4306672133680625,29.4
,,0.052004941688715736,0.011906542817425196,0.00045788968123610974,0.06436937418737704,3.9296032724020056,0.8079143590448952,0.18497216988261622,-4.4306672133680625,29.5
,,0.052004941688715736,0.011906542817425196,0.00045788968123610974,0.06436937418737704,3.9362791604310017,0.8079143590448952,0.18497216988261622,-4.4306672133680625,29.6
,,0.0543654415778491,0.016598285165120207,0.000501814369113377,0.07146554111208268,3.9310072005085006,0.7607224507344776,0.23225578239292075,-4.098455892261805,29.7
,,0.0543654415778491,0.016598285165120207,0.000501814369113377,0.07146554111208268,3.9257352405860004,0.7607224507344776,0.23225578239292075,-4.098455892261805,29.8
,,0.0543654415778491,0.016598285165120207,0.000501814369113377,0.07146554111208268,3.9098147068277047,0.7607224507344776,0.23225578239292075,-4.098455892261805,29.9
,,0.054108807811957794,0.017691856177436745,0.0005128856323301743,0.07231354962172472,3.891483473228986,0.7482526870137518,0.2446547883485682,-4.034650848251879,30.0
,,0.054108807811957794,0.017691856177436745,0.0005128856323301743,0.07231354962172472,3.873152239630266,0.7482526870137518,0.2446547883485682,-4.034650848251879,30.1
,,0.054108807811957794,0.017691856177436745,0.0005128856323301743,0.07231354962172472,3.8548210060315466,0.7482526870137518,0.2446547883485682,-4.034650848251879,30.2
,,0.054108807811957794,0.017691856177436745,0.0005128856323301743,0.07231354962172472,3.8364897724328273,0.7482526870137518,0.2446547883485682,-4.034650848251879,30.3
,,0.054108807811957794,0.017691856177436745,0.0005128856323301743,0.07231354962172472,3.818158538834108,0.7482526870137518,0.2446547883485682,-4.034650848251879,30.4
,,0.054961695543402,0.01761557022243797,0.0005344923212686512,0.07311175808710862,3.810283916736653,0.751749061729827,0.24094031771811575,-4.038972096299994,30.5
,,0.054961695543402,0.01761557022243797,0.0005344923212686512,0.07311175808710862,3.802409294639197,0.751749061729827,0.24094031771811575,-4.038972096299994,30.6
,,0.05492595413013127,0.018664165492606456,0.0005458345554483601,0.0741359541781861,3.792565703291275,0.7408814621595953,0.25175592193427565,-3.9811498773602674,30.7
,,0.054961695543402,0.01761557022243797,0.0005344923212686512,0.07311175808710862,3.7846910811938193,0.751749061729827,0.24094031771811575,-4.038972096299994,30.8
,,0.04479536617353649,0.018892467850160105,0.0005512019153470877,0.06423903593904369,3.758913639109735,0.6973231387850019,0.2940963788448995,-3.9689919627958647,30.9
,,0.04479536617353649,0.018892467850160105,0.0005512019153470877,0.06423903593904369,3.7331361970256505,0.6973231387850019,0.2940963788448995,-3.9689919627958647,31.0
,,0.04479536617353649,0.018892467850160105,0.0005512019153470877,0.06423903593904369,3.7073587549415663,0.6973231387850019,0.2940963788448995,-3.9689919627958647,31.1
,,0.04479536617353649,0.018892467850160105,0.0005512019153470877,0.06423903593904369,3.6815813128574817,0.6973231387850019,0.2940963788448995,-3.9689919627958647,31.2
,,0.04479536617353649,0.018892467850160105,0.0005512019153470877,0.06423903593904369,3.6558038707733966,0.6973231387850019,0.2940963788448995,-3.9689919627958647,31.3
,,0.05512954739129407,0.011943921423914037,0.0004481399530809146,0.06752160876828903,3.664127455665124,0.8164726581157113,0.17689035616585314,-4.427532797474687,31.4
,,0.05512954739129407,0.011943921423914037,0.0004481399530809146,0.06752160876828903,3.6724510405568505,0.8164726581157113,0.17689035616585314,-4.427532797474687,31.5
,,0.05512954739129407,0.011943921423914037,0.0004481399530809146,0.06752160876828903,3.6807746254485783,0.8164726581157113,0.17689035616585314,-4.427532797474687,31.6
,,0.05601823484259795,0.020197004231571107,0.0005869457583995487,0.07680218483256859,3.6686303456639684,0.7293833497669322,0.262974344748151,-3.9022209909410734,31.7
,,0.05601823484259795,0.020197004231571107,0.0005869457583995487,0.07680218483256859,3.6476504410818746,0.7293833497669322,0.262974344748151,-3.9022209909410734,31.8
,,0.05601823484259795,0.020197004231571107,0.0005869457583995487,0.07680218483256859,3.6266705364997804,0.7293833497669322,0.262974344748151,-3.9022209909410734,31.9
,,0.05601823484259795,0.020197004231571107,0.0005869457583995487,0.07680218483256859,3.605690631917686,0.7293833497669322,0.262974344748151,-3.9022209909410734,32.0
,,0.05601823484259795,0.020197004231571107,0.0005869457583995487,0.07680218483256859,3.584710727335592,0.7293833497669322,0.262974344748151,-3.9022209909410734,32.1
,,0.05601823484259795,0.020197004231571107,0.0005869457583995487,0.07680218483256859,3.572589583183953,0.7293833497669322,0.262974344748151,-3.9022209909410734,32.2
,,0.05694849543924276,0.02036780781319716,0.0005906015876998384,0.07790690484013976,3.5607174819643106,0.7309813623849852,0.2614377744179501,-3.8937996729344446,32.3
,,0.05694849543924276,0.02036780781319716,0.0005906015876998384,0.07790690484013976,3.548845380744668,0.7309813623849852,0.2614377744179501,-3.8937996729344446,32.4
,,0.05703059894838887,0.021623982085851933,0.000494550183895548,0.07914913121813635,3.5352107476355767,0.7205461142866062,0.27320555201365215,-3.8339522984465537,32.5
,,0.05703059894838887,0.021623982085851933,0.000494550183895548,0.07914913121813635,3.520786835728517,0.7205461142866062,0.27320555201365215,-3.8339522984465537,32.6
,,0.05703059894838887,0.021623982085851933,0.000494550183895548,0.07914913121813635,3.5063629238214564,0.7205461142866062,0.27320555201365215,-3.8339522984465537,32.7
,,0.05703059894838887,0.021623982085851933,0.000494550183895548,0.07914913121813635,3.4919390119143974,0.7205461142866062,0.27320555201365215,-3.8339522984465537,32.8
,,0.05703059894838887,0.021623982085851933,0.000494550183895548,0.07914913121813635,3.4775151000073365,0.7205461142866062,0.27320555201365215,-3.8339522984465537,32.9
,,0.05703059894838887,0.021623982085851933,0.000494550183895548,0.07914913121813635,3.464239521842054,0.7205461142866062,0.27320555201365215,-3.8339522984465537,33.0
,,0.05703059894838887,0.021623982085851933,0.000494550183895548,0.07914913121813635,3.450963943676772,0.7205461142866062,0.27320555201365215,-3.8339522984465537,33.1
,,0.0578023952971885,0.022872889755632824,0.0004960682288060707,0.0811713532816274,3.436463215764826,0.7121033832790822,0.2817852460371626,-3.777802923195825,33.2
,,0.05776444464673403,0.021920802896417627,0.0006037497684063579,0.08028899731155802,3.4231628094527005,0.7194565454913029,0.2730237470939498,-3.8203191890869235,33.3
,,0.05698426352600794,0.01340625862396699,0.0003010250858729346,0.07069154723584786,3.4278116138006762,0.8060972740615171,0.18964443626109576,-4.312033619574464,33.4
,,0.05698426352600794,0.01340625862396699,0.0003010250858729346,0.07069154723584786,3.43175356722269,0.8060972740615171,0.18964443626109576,-4.312033619574464,33.5
,,0.05698426352600794,0.01340625862396699,0.0003010250858729346,0.07069154723584786,3.4356955206447033,0.8060972740615171,0.18964443626109576,-4.312033619574464,33.6
,,0.05698426352600794,0.01340625862396699,0.0003010250858729346,0.07069154723584786,3.439637474066717,0.8060972740615171,0.18964443626109576,-4.312033619574464,33.7
,,0.05698426352600794,0.01340625862396699,0.0003010250858729346,0.07069154723584786,3.4449542448910235,0.8060972740615171,0.18964443626109576,-4.312033619574464,33.8
,,0.05698426352600794,0.01340625862396699,0.0003010250858729346,0.07069154723584786,3.45027101571533,0.8060972740615171,0.18964443626109576,-4.312033619574464,33.9
,,0.05698426352600794,0.01340625862396699,0.0003010250858729346,0.07069154723584786,3.4555877865396365,0.8060972740615171,0.18964443626109576,-4.312033619574464,34.0
,,0.05796843506165305,0.023813727993045344,0.0006024365095079971,0.08238459956420639,3.4407231433967556,0.7036319332531972,0.2890555773653561,-3.7374930581631194,34.1
,,0.05837739153745905,0.02350155698545593,0.0006030176578902531,0.08248196618080524,3.4264111147122738,0.7077594562851768,0.2849296406676237,-3.750688605326517,34.2
,,0.05833792153423326,0.024318843743321102,0.00048104503156325823,0.08313781030911761,3.4111535029885665,0.7017014438716269,0.29251243992234527,-3.7165037664633642,34.3
,,0.05833792153423326,0.024318843743321102,0.00048104503156325823,0.08313781030911761,3.3952026514365503,0.7017014438716269,0.29251243992234527,-3.7165037664633642,34.4
,,0.05833792153423326,0.024318843743321102,0.00048104503156325823,0.08313781030911761,3.3792517998845337,0.7017014438716269,0.29251243992234527,-3.7165037664633642,34.5
,,0.05833792153423326,0.024318843743321102,0.00048104503156325823,0.08313781030911761,3.3649227209915598,0.7017014438716269,0.29251243992234527,-3.7165037664633642,34.6
,,0.05833792153423326,0.024318843743321102,0.00048104503156325823,0.08313781030911761,3.350593642098586,0.7017014438716269,0.29251243992234527,-3.7165037664633642,34.7
,,0.05833792153423326,0.024318843743321102,0.00048104503156325823,0.08313781030911761,3.3362645632056123,0.7017014438716269,0.29251243992234527,-3.7165037664633642,34.8
,,0.05833792153423326,0.024318843743321102,0.00048104503156325823,0.08313781030911761,3.3219354843126383,0.7017014438716269,0.29251243992234527,-3.7165037664633642,34.9
,,0.05883181550103189,0.025012038544310007,0.0005887210672213204,0.08443257511256322,3.3070871020253736,0.6967904913784628,0.296236831708196,-3.6883980282455684,35.0
,,0.05872414851666446,0.02544611379825026,0.000463292807957923,0.08463355512287264,3.291745881881028,0.6938636623666299,0.3006622345156965,-3.671192247124719,35.1
,,0.05872414851666446,0.02544611379825026,0.000463292807957923,0.08463355512287264,3.2764046617366818,0.6938636623666299,0.3006622345156965,-3.671192247124719,35.2
,,0.05872414851666446,0.02544611379825026,0.000463292807957923,0.08463355512287264,3.25176050453613,0.6938636623666299,0.3006622345156965,-3.671192247124719,35.3
,,0.05872414851666446,0.02544611379825026,0.000463292807957923,0.08463355512287264,3.2271163473355804,0.6938636623666299,0.3006622345156965,-3.671192247124719,35.4
,,0.05872414851666446,0.02544611379825026,0.000463292807957923,0.08463355512287264,3.21300551412704,0.6938636623666299,0.3006622345156965,-3.671192247124719,35.5
,,0.05872414851666446,0.02544611379825026,0.000463292807957923,0.08463355512287264,3.198894680918499,0.6938636623666299,0.3006622345156965,-3.671192247124719,35.6
,,0.05872414851666446,0.02544611379825026,0.000463292807957923,0.08463355512287264,3.1847838477099577,0.6938636623666299,0.3006622345156965,-3.671192247124719,35.7
,,0.05872414851666446,0.02544611379825026,0.000463292807957923,0.08463355512287264,3.1706730145014173,0.6938636623666299,0.3006622345156965,-3.671192247124719,35.8
,,0.05872414851666446,0.02544611379825026,0.000463292807957923,0.08463355512287264,3.156562181292877,0.6938636623666299,0.3006622345156965,-3.671192247124719,35.9
,,0.05927760878012763,0.026651891831583136,0.00044973697148044384,0.08637923758319122,3.141521993309557,0.6862483443783328,0.3085451154383586,-3.624895142837916,36.0
,,0.05927760878012763,0.026651891831583136,0.00044973697148044384,0.08637923758319122,3.1256998717106814,0.6862483443783328,0.3085451154383586,-3.624895142837916,36.1
,,0.05927760878012763,0.026651891831583136,0.00044973697148044384,0.08637923758319122,3.111658111356653,0.6862483443783328,0.3085451154383586,-3.624895142837916,36.2
,,0.05927760878012763,0.026651891831583136,0.00044973697148044384,0.08637923758319122,3.097957078125711,0.6862483443783328,0.3085451154383586,-3.624895142837916,36.3
,,0.05927760878012763,0.026651891831583136,0.00044973697148044384,0.08637923758319122,3.0842560448947682,0.6862483443783328,0.3085451154383586,-3.624895142837916,36.4
,,0.05927760878012763,0.026651891831583136,0.00044973697148044384,0.08637923758319122,3.070555011663826,0.6862483443783328,0.3085451154383586,-3.624895142837916,36.5
,,0.05927760878012763,0.026651891831583136,0.00044973697148044384,0.08637923758319122,3.056853978432884,0.6862483443783328,0.3085451154383586,-3.624895142837916,36.6
,,0.05927760878012763,0.026651891831583136,0.00044973697148044384,0.08637923758319122,3.043152945201942,0.6862483443783328,0.3085451154383586,-3.624895142837916,36.7
,,0.05927760878012763,0.026651891831583136,0.00044973697148044384,0.08637923758319122,3.0294519119709995,0.6862483443783328,0.3085451154383586,-3.624895142837916,36.8
,,0.06001166131633838,0.027979353805499825,0.0004348044991130608,0.08842581962095128,3.0148699068298916,0.6786667239680235,0.3164161092929299,-3.5762884048828356,36.9
,,0.06001166131633838,0.027979353805499825,0.0004348044991130608,0.08842581962095128,2.9994549959702534,0.6786667239680235,0.3164161092929299,-3.5762884048828356,37.0
,,0.06001166131633838,0.027979353805499825,0.0004348044991130608,0.08842581962095128,2.984040085110616,0.6786667239680235,0.3164161092929299,-3.5762884048828356,37.1
,,0.06001166131633838,0.027979353805499825,0.0004348044991130608,0.08842581962095128,2.9707996746274703,0.6786667239680235,0.3164161092929299,-3.5762884048828356,37.2
,,0.06001166131633838,0.027979353805499825,0.0004348044991130608,0.08842581962095128,2.957559264144324,0.6786667239680235,0.3164161092929299,-3.5762884048828356,37.3
,,0.06001166131633838,0.027979353805499825,0.0004348044991130608,0.08842581962095128,2.9443188536611786,0.6786667239680235,0.3164161092929299,-3.5762884048828356,37.4
,,0.06001166131633838,0.027979353805499825,0.0004348044991130608,0.08842581962095128,2.9310784431780323,0.6786667239680235,0.3164161092929299,-3.5762884048828356,37.5
,,0.06001166131633838,0.027979353805499825,0.0004348044991130608,0.08842581962095128,2.917838032694886,0.6786667239680235,0.3164161092929299,-3.5762884048828356,37.6
,,0.05976812632454391,0.02791544678273686,0.0004983460576134646,0.08818191916489423,2.9045552467543088,0.6777820996703593,0.31656655975627906,-3.5785750952346262,37.7
,,0.05177819304973852,0.01631410389365842,0.00024383131819831456,0.06833612826159526,2.8893432122106173,0.7576986634584878,0.2387332192893186,-4.115725275749721,37.8
,,0.05802150355978578,0.028169468884944093,0.0005129765979130559,0.08670394904264292,2.8763092467219193,0.6691910137939567,0.32489257059202375,-3.5695165511961906,37.9
,,0.05802150355978578,0.028169468884944093,0.0005129765979130559,0.08670394904264292,2.848718324166503,0.6691910137939567,0.32489257059202375,-3.5695165511961906,38.0
,,0.05802150355978578,0.028169468884944093,0.0005129765979130559,0.08670394904264292,2.823073528854278,0.6691910137939567,0.32489257059202375,-3.5695165511961906,38.1
,,0.05802150355978578,0.028169468884944093,0.0005129765979130559,0.08670394904264292,2.7974287335420525,0.6691910137939567,0.32489257059202375,-3.5695165511961906,38.2
,,0.05802150355978578,0.028169468884944093,0.0005129765979130559,0.08670394904264292,2.7717839382298273,0.6691910137939567,0.32489257059202375,-3.5695165511961906,38.3
,,0.05802150355978578,0.028169468884944093,0.0005129765979130559,0.08670394904264292,2.7461391429176025,0.6691910137939567,0.32489257059202375,-3.5695165511961906,38.4
,,0.05802150355978578,0.028169468884944093,0.0005129765979130559,0.08670394904264292,2.7204943476053773,0.6691910137939567,0.32489257059202375,-3.5695165511961906,38.5
,,0.03368519964460358,0.01749270940743685,0.00024960706477210933,0.05142751611681254,2.6933600042329906,0.655003433727792,0.3401429959732818,-4.045971090146085,38.6
,,0.03368519964460358,0.01749270940743685,0.00024960706477210933,0.05142751611681254,2.678363402440274,0.655003433727792,0.3401429959732818,-4.045971090146085,38.7
,,0.056436829546321565,0.028635391758764055,0.0004758174973919767,0.0855480388024776,2.6638690896883555,0.6597092152706027,0.3347287928467944,-3.553111852113644,38.8
,,0.056436829546321565,0.028635391758764055,0.0004758174973919767,0.0855480388024776,2.6493747769364377,0.6597092152706027,0.3347287928467944,-3.553111852113644,38.9
,,0.056436829546321565,0.028635391758764055,0.0004758174973919767,0.0855480388024776,2.6372911640249432,0.6597092152706027,0.3347287928467944,-3.553111852113644,39.0
,,0.056436829546321565,0.028635391758764055,0.0004758174973919767,0.0855480388024776,2.6252075511134487,0.6597092152706027,0.3347287928467944,-3.553111852113644,39.1
,,0.056436829546321565,0.028635391758764055,0.0004758174973919767,0.0855480388024776,2.613123938201954,0.6597092152706027,0.3347287928467944,-3.553111852113644,39.2
,,0.056436829546321565,0.028635391758764055,0.0004758174973919767,0.0855480388024776,2.60104032529046,0.6597092152706027,0.3347287928467944,-3.553111852113644,39.3
,,0.05580472224383169,0.029489318465885123,0.00045621961133996363,0.08575026032105677,2.5880844222802124,0.6507819572196485,0.3438977136101329,-3.5237271671074906,39.4
,,0.05580472224383169,0.029489318465885123,0.00045621961133996363,0.08575026032105677,2.5744433925245214,0.6507819572196485,0.3438977136101329,-3.5237271671074906,39.5
,,0.05580472224383169,0.029489318465885123,0.00045621961133996363,0.08575026032105677,2.56080236276883,0.6507819572196485,0.3438977136101329,-3.5237271671074906,39.6
,,0.055859083008342275,0.029827050110057846,0.00046283227024647693,0.0861489653886466,2.548912471394045,0.6484010893960641,0.3462264459648252,-3.5123395753870637,39.7
,,0.055859083008342275,0.029827050110057846,0.00046283227024647693,0.0861489653886466,2.535053610768794,0.6484010893960641,0.3462264459648252,-3.5123395753870637,39.8
,,0.055859083008342275,0.029827050110057846,0.00046283227024647693,0.0861489653886466,2.529516897366162,0.6484010893960641,0.3462264459648252,-3.5123395753870637,39.9
,,0.055859083008342275,0.029827050110057846,0.00046283227024647693,0.0861489653886466,2.5239801839635296,0.6484010893960641,0.3462264459648252,-3.5123395753870637,40.0
,,0.055859083008342275,0.029827050110057846,0.00046283227024647693,0.0861489653886466,2.518443470560897,0.6484010893960641,0.3462264459648252,-3.5123395753870637,40.1
,,0.05086628401266521,0.020753140975739347,0.0002783625249311889,0.07189778751333574,2.519331759858657,0.7074805188300187,0.288647838737597,-3.8750576714362763,40.2
,,0.05086628401266521,0.020753140975739347,0.0002783625249311889,0.07189778751333574,2.5202200491564164,0.7074805188300187,0.288647838737597,-3.8750576714362763,40.3
,,0.05086628401266521,0.020753140975739347,0.0002783625249311889,0.07189778751333574,2.4961680165260836,0.7074805188300187,0.288647838737597,-3.8750576714362763,40.4
,,0.05633833706573758,0.03179150881393988,0.00047599868421445066,0.08860584456389191,2.464572682149013,0.6358309357924253,0.35879697293574864,-3.4485560432813376,40.5
,,0.05086628401266521,0.020753140975739347,0.0002783625249311889,0.07189778751333574,2.44052064951868,0.7074805188300187,0.288647838737597,-3.8750576714362763,40.6
,,0.056411967145288025,0.031928686935824964,0.00047263978565097604,0.08881329386676397,2.429334206074338,0.6351748109907532,0.35950346559293,-3.4442503963135263,40.7
,,0.056411967145288025,0.031928686935824964,0.00047263978565097604,0.08881329386676397,2.4181477626299963,0.6351748109907532,0.35950346559293,-3.4442503963135263,40.8
,,0.056411967145288025,0.031928686935824964,0.00047263978565097604,0.08881329386676397,2.4069613191856543,0.6351748109907532,0.35950346559293,-3.4442503963135263,40.9
,,0.03996742652290532,0.03360779048758042,0.0004405809724285013,0.07401579798291423,2.3893573161386765,0.5399850790250397,0.45406239483276833,-3.3929973791388788,41.0
,,0.03996742652290532,0.03360779048758042,0.0004405809724285013,0.07401579798291423,2.371753313091699,0.5399850790250397,0.45406239483276833,-3.3929973791388788,41.1
,,0.03996742652290532,0.03360779048758042,0.0004405809724285013,0.07401579798291423,2.354149310044721,0.5399850790250397,0.45406239483276833,-3.3929973791388788,41.2
,,0.03996742652290532,0.03360779048758042,0.0004405809724285013,0.07401579798291423,2.3362962640657465,0.5399850790250397,0.45406239483276833,-3.3929973791388788,41.3
,,0.03996742652290532,0.03360779048758042,0.0004405809724285013,0.07401579798291423,2.318443218086772,0.5399850790250397,0.45406239483276833,-3.3929973791388788,41.4
,,0.03996742652290532,0.03360779048758042,0.0004405809724285013,0.07401579798291423,2.3023527039972462,0.5399850790250397,0.45406239483276833,-3.3929973791388788,41.5
,,0.052085526831406166,0.024246059221267463,0.00041045051477218053,0.0767420365674458,2.29691746620412,0.6787092076404577,0.3159423479719421,-3.7195011811437166,41.6
,,0.059571064145142724,0.0376966576318118,0.0004962917027078895,0.09776401347966242,2.285171879035347,0.6093352965458515,0.3855882782436477,-3.2781838454395538,41.7
,,0.059571064145142724,0.0376966576318118,0.0004962917027078895,0.09776401347966242,2.273426291866574,0.6093352965458515,0.3855882782436477,-3.2781838454395538,41.8
,,0.059571064145142724,0.0376966576318118,0.0004962917027078895,0.09776401347966242,2.261680704697801,0.6093352965458515,0.3855882782436477,-3.2781838454395538,41.9
,,0.059571064145142724,0.0376966576318118,0.0004962917027078895,0.09776401347966242,2.249935117529028,0.6093352965458515,0.3855882782436477,-3.2781838454395538,42.0
,,0.059571064145142724,0.0376966576318118,0.0004962917027078895,0.09776401347966242,2.2381895303602555,0.6093352965458515,0.3855882782436477,-3.2781838454395538,42.1
,,0.059571064145142724,0.0376966576318118,0.0004962917027078895,0.09776401347966242,2.227669092938147,0.6093352965458515,0.3855882782436477,-3.2781838454395538,42.2
,,0.05801797582081393,0.03782753952322766,0.0005688052720588463,0.09641432061610045,2.215431392011268,0.6017568287581272,0.3923435780235198,-3.2747178828111867,42.3
,,0.059571064145142724,0.0376966576318118,0.0004962917027078895,0.09776401347966242,2.1857614223292376,0.6093352965458515,0.3855882782436477,-3.2781838454395538,42.4
,,0.05360089539540182,0.03676300483790723,0.0005841903035950378,0.09094809053690409,2.154732979145253,0.589357017601729,0.40421964464432464,-3.303263242781291,42.5
,,0.05360089539540182,0.03676300483790723,0.0005841903035950378,0.09094809053690409,2.123704535961268,0.589357017601729,0.40421964464432464,-3.303263242781291,42.6
,,0.05360089539540182,0.03676300483790723,0.0005841903035950378,0.09094809053690409,2.0926760927772836,0.589357017601729,0.40421964464432464,-3.303263242781291,42.7
,,0.05360089539540182,0.03676300483790723,0.0005841903035950378,0.09094809053690409,2.061647649593299,0.589357017601729,0.40421964464432464,-3.303263242781291,42.8
,,0.05360089539540182,0.03676300483790723,0.0005841903035950378,0.09094809053690409,2.0306192064093143,0.589357017601729,0.40421964464432464,-3.303263242781291,42.9
,,0.05360089539540182,0.03676300483790723,0.0005841903035950378,0.09094809053690409,1.9995907632253294,0.589357017601729,0.40421964464432464,-3.303263242781291,43.0
,,0.05360089539540182,0.03676300483790723,0.0005841903035950378,0.09094809053690409,1.988743734008533,0.589357017601729,0.40421964464432464,-3.303263242781291,43.1
,,0.05233194478775373,0.0373386783412778,0.0006269660812636085,0.09029758921029514,1.9767167130783776,0.5795497448539544,0.4135069238041262,-3.2877255367473226,43.2
,,0.05233194478775373,0.0373386783412778,0.0006269660812636085,0.09029758921029514,1.9656352751874482,0.5795497448539544,0.4135069238041262,-3.2877255367473226,43.3
,,0.04472585936457868,0.03344890197066428,0.0005591844536774736,0.07873394578892043,1.9538381925895374,0.5680632275751202,0.42483456958118393,-3.397736318935794,43.4
,,0.04472585936457868,0.03344890197066428,0.0005591844536774736,0.07873394578892043,1.9420411099916266,0.5680632275751202,0.42483456958118393,-3.397736318935794,43.5
,,0.04472585936457868,0.03344890197066428,0.0005591844536774736,0.07873394578892043,1.9302440273937154,0.5680632275751202,0.42483456958118393,-3.397736318935794,43.6
,,0.04472585936457868,0.03344890197066428,0.0005591844536774736,0.07873394578892043,1.9184469447958046,0.5680632275751202,0.42483456958118393,-3.397736318935794,43.7
,,0.04472585936457868,0.03344890197066428,0.0005591844536774736,0.07873394578892043,1.9066498621978938,0.5680632275751202,0.42483456958118393,-3.397736318935794,43.8
,,0.04472585936457868,0.03344890197066428,0.0005591844536774736,0.07873394578892043,1.894852779599983,0.5680632275751202,0.42483456958118393,-3.397736318935794,43.9
,,0.04472585936457868,0.03344890197066428,0.0005591844536774736,0.07873394578892043,1.8835750003963638,0.5680632275751202,0.42483456958118393,-3.397736318935794,44.0
,,0.03781308899258,0.03052844325751418,0.00045077635054833836,0.06879230860064252,1.8716953754767076,0.5496703012555509,0.44377698435358287,-3.489096464117983,44.1
,,0.045909711174039844,0.030550525651345837,0.0007124099941999906,0.07717264681958567,1.8627505138537908,0.5948961590156112,0.3958724614275172,-3.4883733872491924,44.2
,,0.036265948550297744,0.029529453373422235,0.0005243127081554656,0.06631971463187544,1.8507543298762477,0.5468351115743061,0.44525905362128027,-3.522367094287501,44.3
,,0.036265948550297744,0.029529453373422235,0.0005243127081554656,0.06631971463187544,1.838758145898705,0.5468351115743061,0.44525905362128027,-3.522367094287501,44.4
,,0.036265948550297744,0.029529453373422235,0.0005243127081554656,0.06631971463187544,1.826761961921162,0.5468351115743061,0.44525905362128027,-3.522367094287501,44.5
,,0.036265948550297744,0.029529453373422235,0.0005243127081554656,0.06631971463187544,1.8147657779436193,0.5468351115743061,0.44525905362128027,-3.522367094287501,44.6
,,0.036265948550297744,0.029529453373422235,0.0005243127081554656,0.06631971463187544,1.8027695939660762,0.5468351115743061,0.44525905362128027,-3.522367094287501,44.7
,,0.036265948550297744,0.029529453373422235,0.0005243127081554656,0.06631971463187544,1.7907734099885337,0.5468351115743061,0.44525905362128027,-3.522367094287501,44.8
,,0.036265948550297744,0.029529453373422235,0.0005243127081554656,0.06631971463187544,1.7787772260109906,0.5468351115743061,0.44525905362128027,-3.522367094287501,44.9
,,0.02709603728025315,0.028791645273361942,0.0005277207846496708,0.056415403338264766,1.7645212816618283,0.48029502009914327,0.510350783113758,-3.547670028600769,45.0
,,0.02709603728025315,0.028791645273361942,0.0005277207846496708,0.056415403338264766,1.750265337312666,0.48029502009914327,0.510350783113758,-3.547670028600769,45.1
,,0.029224928897949178,0.025706069654449465,0.00048149203593141553,0.05541249058833006,1.7381847332487808,0.5274068822328658,0.46390388487362444,-3.6610281416406103,45.2
,,0.029224928897949178,0.025706069654449465,0.00048149203593141553,0.05541249058833006,1.7261041291848958,0.5274068822328658,0.46390388487362444,-3.6610281416406103,45.3
,,0.029224928897949178,0.025706069654449465,0.00048149203593141553,0.05541249058833006,1.7140235251210107,0.5274068822328658,0.46390388487362444,-3.6610281416406103,45.4
,,0.029224928897949178,0.025706069654449465,0.00048149203593141553,0.05541249058833006,1.7019429210571255,0.5274068822328658,0.46390388487362444,-3.6610281416406103,45.5
,,0.029224928897949178,0.025706069654449465,0.00048149203593141553,0.05541249058833006,1.6898623169932405,0.5274068822328658,0.46390388487362444,-3.6610281416406103,45.6
,,0.029224928897949178,0.025706069654449465,0.00048149203593141553,0.05541249058833006,1.6777817129293555,0.5274068822328658,0.46390388487362444,-3.6610281416406103,45.7
,,0.029224928897949178,0.025706069654449465,0.00048149203593141553,0.05541249058833006,1.6657011088654707,0.5274068822328658,0.46390388487362444,-3.6610281416406103,45.8
,,0.02760432281995013,0.02469351628135765,0.000464756463310501,0.05276259556461828,1.6542902444611767,0.523179773939346,0.4680117802604221,-3.701214568537487,45.9
,,0.024011669227684027,0.022379940815180657,0.0004370033004086393,0.046828613343273325,1.6423797461493712,0.512756357991394,0.47791167018178243,-3.7995902206424867,46.0
,,0.024011669227684027,0.022379940815180657,0.0004370033004086393,0.046828613343273325,1.6304692478375657,0.512756357991394,0.47791167018178243,-3.7995902206424867,46.1
,,0.024011669227684027,0.022379940815180657,0.0004370033004086393,0.046828613343273325,1.6185587495257605,0.512756357991394,0.47791167018178243,-3.7995902206424867,46.2
,,0.024011669227684027,0.022379940815180657,0.0004370033004086393,0.046828613343273325,1.606648251213955,0.512756357991394,0.47791167018178243,-3.7995902206424867,46.3
,,0.024011669227684027,0.022379940815180657,0.0004370033004086393,0.046828613343273325,1.5947377529021496,0.512756357991394,0.47791167018178243,-3.7995902206424867,46.4
,,0.024011669227684027,0.022379940815180657,0.0004370033004086393,0.046828613343273325,1.5828272545903441,0.512756357991394,0.47791167018178243,-3.7995902206424867,46.5
,,0.024011669227684027,0.022379940815180657,0.0004370033004086393,0.046828613343273325,1.5709167562785384,0.512756357991394,0.47791167018178243,-3.7995902206424867,46.6
,,0.02295221572411534,0.021524653226191032,0.00041236263898252465,0.0448892315892889,1.5589754322801226,0.5113078328921988,0.4795059408262865,-3.8385563390795996,46.7
,,0.020334871670878364,0.01966505474186494,0.0003956162933832461,0.040395542706126546,1.5352002238070892,0.5033939466740794,0.48681249030186835,-3.9289120893816722,46.8
,,0.020334871670878364,0.01966505474186494,0.0003956162933832461,0.040395542706126546,1.523803903345781,0.5033939466740794,0.48681249030186835,-3.9289120893816722,46.9
,,0.020334871670878364,0.01966505474186494,0.0003956162933832461,0.040395542706126546,1.512407582884473,0.5033939466740794,0.48681249030186835,-3.9289120893816722,47.0
,,0.020334871670878364,0.01966505474186494,0.0003956162933832461,0.040395542706126546,1.5010112624231648,0.5033939466740794,0.48681249030186835,-3.9289120893816722,47.1
,,0.020334871670878364,0.01966505474186494,0.0003956162933832461,0.040395542706126546,1.4896149419618572,0.5033939466740794,0.48681249030186835,-3.9289120893816722,47.2
,,0.020334871670878364,0.01966505474186494,0.0003956162933832461,0.040395542706126546,1.4782186215005488,0.5033939466740794,0.48681249030186835,-3.9289120893816722,47.3
,,0.020334871670878364,0.01966505474186494,0.0003956162933832461,0.040395542706126546,1.4668223010392407,0.5033939466740794,0.48681249030186835,-3.9289120893816722,47.4
,,0.019805354061947274,0.01903085415116933,0.0003664892117256977,0.0392026974248423,1.45549971152759,0.5052038600128788,0.48544756869484434,-3.9616937142268456,47.5
,,0.017831544992578927,0.01743231727547944,0.0003561804007083531,0.03562004266876672,1.4454689425327103,0.5006042569458918,0.48939630526509426,-4.049429480755138,47.6
,,0.017831544992578927,0.01743231727547944,0.0003561804007083531,0.03562004266876672,1.4354381735378305,0.5006042569458918,0.48939630526509426,-4.049429480755138,47.7
,,0.017831544992578927,0.01743231727547944,0.0003561804007083531,0.03562004266876672,1.4249051155021526,0.5006042569458918,0.48939630526509426,-4.049429480755138,47.8
,,0.017831544992578927,0.01743231727547944,0.0003561804007083531,0.03562004266876672,1.4143720574664747,0.5006042569458918,0.48939630526509426,-4.049429480755138,47.9
,,0.017831544992578927,0.01743231727547944,0.0003561804007083531,0.03562004266876672,1.4038389994307965,0.5006042569458918,0.48939630526509426,-4.049429480755138,48.0
,,0.017831544992578927,0.01743231727547944,0.0003561804007083531,0.03562004266876672,1.3933059413951183,0.5006042569458918,0.48939630526509426,-4.049429480755138,48.1
,,0.016404155489954265,0.016131640723881614,0.00031156106181095796,0.03284735727564684,1.3827061233286446,0.49940564022532097,0.4911092417118645,-4.12697267324049,48.2
,,0.017783632855614306,0.017042699537626466,0.00032535084270154556,0.03515168323594232,1.3724016600543711,0.5059112741841814,0.484833099548429,-4.072033346559028,48.3
,,0.027726950064446178,0.028388865065103526,0.0007871643501161168,0.05690297947966582,1.3622273632944664,0.4872671047805916,0.4988994482309707,-3.5617582858689545,48.4
,,0.027726950064446178,0.028388865065103526,0.0007871643501161168,0.05690297947966582,1.3520530665345616,0.4872671047805916,0.4988994482309707,-3.5617582858689545,48.5
,,0.027726950064446178,0.028388865065103526,0.0007871643501161168,0.05690297947966582,1.3418787697746568,0.4872671047805916,0.4988994482309707,-3.5617582858689545,48.6
,,0.027726950064446178,0.028388865065103526,0.0007871643501161168,0.05690297947966582,1.3319223038843115,0.4872671047805916,0.4988994482309707,-3.5617582858689545,48.7
,,0.027726950064446178,0.028388865065103526,0.0007871643501161168,0.05690297947966582,1.3219658379939663,0.4872671047805916,0.4988994482309707,-3.5617582858689545,48.8
,,0.027726950064446178,0.028388865065103526,0.0007871643501161168,0.05690297947966582,1.312009372103621,0.4872671047805916,0.4988994482309707,-3.5617582858689545,48.9
,,0.027726950064446178,0.028388865065103526,0.0007871643501161168,0.05690297947966582,1.3020529062132755,0.4872671047805916,0.4988994482309707,-3.5617582858689545,49.0
,,0.02764218852908248,0.027265074262974403,0.0007394398485049242,0.05564670264056181,1.2925091893470866,0.49674441103242706,0.4899674728094389,-3.602148726860365,49.1
,,0.01666927777601064,0.015499822837703353,0.00028856431431387354,0.03245766492802787,1.277225116044358,0.5135698397581391,0.47753967736351033,-4.166926684947847,49.2
,,0.01571861428365646,0.014399678758717083,0.00028916495128008244,0.03040745799365363,1.2621204340755185,0.516932861896483,0.47355746612302985,-4.240549381071443,49.3
,,0.01571861428365646,0.014399678758717083,0.00028916495128008244,0.03040745799365363,1.2470157521066791,0.516932861896483,0.47355746612302985,-4.240549381071443,49.4
,,0.01571861428365646,0.014399678758717083,0.00028916495128008244,0.03040745799365363,1.2394543718845776,0.516932861896483,0.47355746612302985,-4.240549381071443,49.5
,,0.01571861428365646,0.014399678758717083,0.00028916495128008244,0.03040745799365363,1.2243496899157382,0.516932861896483,0.47355746612302985,-4.240549381071443,49.6
,,0.01571861428365646,0.014399678758717083,0.00028916495128008244,0.03040745799365363,1.216847283437245,0.516932861896483,0.47355746612302985,-4.240549381071443,49.7
,,0.01571861428365646,0.014399678758717083,0.00028916495128008244,0.03040745799365363,1.2093448769587516,0.516932861896483,0.47355746612302985,-4.240549381071443,49.8
,,0.026962992109756015,0.025125358927632145,0.0005172721529092137,0.05260562319029737,1.2016374015489513,0.5125496187397908,0.47761736110877,-3.683877627028035,49.9
,,0.026962992109756015,0.025125358927632145,0.0005172721529092137,0.05260562319029737,1.2003474857417873,0.5125496187397908,0.47761736110877,-3.683877627028035,50.0
,,0.015894167002295456,0.013585358161292565,0.00026672012984078035,0.029746245293428803,1.2001332337012833,0.5343251508050534,0.4567083350278728,-4.298762671983746,50.1
,,0.015894167002295456,0.013585358161292565,0.00026672012984078035,0.029746245293428803,1.1999189816607791,0.5343251508050534,0.4567083350278728,-4.298762671983746,50.2
,,0.015894167002295456,0.013585358161292565,0.00026672012984078035,0.029746245293428803,1.1997047296202752,0.5343251508050534,0.4567083350278728,-4.298762671983746,50.3
,,0.015894167002295456,0.013585358161292565,0.00026672012984078035,0.029746245293428803,1.1994904775797712,0.5343251508050534,0.4567083350278728,-4.298762671983746,50.4
,,0.015894167002295456,0.013585358161292565,0.00026672012984078035,0.029746245293428803,1.1992762255392673,0.5343251508050534,0.4567083350278728,-4.298762671983746,50.5
,,0.029052642308725927,0.02489629715103361,0.0004829236253902681,0.05443186308514981,1.1883733415952304,0.5337433014790949,0.45738462253418366,-3.693036195363555,50.6
,,0.029052642308725927,0.02489629715103361,0.0004829236253902681,0.05443186308514981,1.1837808070268394,0.5337433014790949,0.45738462253418366,-3.693036195363555,50.7
,,0.029052642308725927,0.02489629715103361,0.0004829236253902681,0.05443186308514981,1.1791882724584488,0.5337433014790949,0.45738462253418366,-3.693036195363555,50.8
,,0.029052642308725927,0.02489629715103361,0.0004829236253902681,0.05443186308514981,1.174595737890058,0.5337433014790949,0.45738462253418366,-3.693036195363555,50.9
,,0.011059777148179857,0.01315829192253861,0.0002503115562406643,0.024468380626959132,1.166376218573192,0.45200282424878796,0.5377671748346465,-4.3307031546289885,51.0
,,0.011059777148179857,0.01315829192253861,0.0002503115562406643,0.024468380626959132,1.158156699256326,0.45200282424878796,0.5377671748346465,-4.3307031546289885,51.1
,,0.011059777148179857,0.01315829192253861,0.0002503115562406643,0.024468380626959132,1.14993717993946,0.45200282424878796,0.5377671748346465,-4.3307031546289885,51.2
,,0.017877766462169962,0.013361511138964393,0.00020054550194675,0.031439823103081105,1.1477622374203988,0.5686344482141167,0.4249868421700809,-4.315377008066079,51.3
,,0.017877766462169962,0.013361511138964393,0.00020054550194675,0.031439823103081105,1.1450703529963886,0.5686344482141167,0.4249868421700809,-4.315377008066079,51.4
,,0.017877766462169962,0.013361511138964393,0.00020054550194675,0.031439823103081105,1.1437369420743329,0.5686344482141167,0.4249868421700809,-4.315377008066079,51.5
,,0.017877766462169962,0.013361511138964393,0.00020054550194675,0.031439823103081105,1.142403531152277,0.5686344482141167,0.4249868421700809,-4.315377008066079,51.6
,,0.01810375490049104,0.013089887217354101,0.00024312684588240354,0.031436768963727546,1.1415704407771206,0.5758783582810167,0.4163878047536472,-4.3359153150367815,51.7
,,0.01824910788025488,0.013126252873935956,0.00024122506414756302,0.0316165858183384,1.1408178151459112,0.5772004600721292,0.4151698399490816,-4.333141017998398,51.8
,,0.01824910788025488,0.013126252873935956,0.00024122506414756302,0.0316165858183384,1.1400651895147016,0.5772004600721292,0.4151698399490816,-4.333141017998398,51.9
,,0.01824910788025488,0.013126252873935956,0.00024122506414756302,0.0316165858183384,1.1393125638834922,0.5772004600721292,0.4151698399490816,-4.333141017998398,52.0
,,0.019573888340264363,0.01344687169688092,0.00019677011855266283,0.03321753015569794,1.1392862798157781,0.5892638088538552,0.40481250815013775,-4.309008787579475,52.1
,,0.019573888340264363,0.01344687169688092,0.00019677011855266283,0.03321753015569794,1.1398873730030228,0.5892638088538552,0.40481250815013775,-4.309008787579475,52.2
,,0.019573888340264363,0.01344687169688092,0.00019677011855266283,0.03321753015569794,1.1404884661902674,0.5892638088538552,0.40481250815013775,-4.309008787579475,52.3
,,0.019573888340264363,0.01344687169688092,0.00019677011855266283,0.03321753015569794,1.1418052040844933,0.5892638088538552,0.40481250815013775,-4.309008787579475,52.4
,,0.019573888340264363,0.01344687169688092,0.00019677011855266283,0.03321753015569794,1.1431219419787193,0.5892638088538552,0.40481250815013775,-4.309008787579475,52.5
,,0.019573888340264363,0.01344687169688092,0.00019677011855266283,0.03321753015569794,1.1444386798729451,0.5892638088538552,0.40481250815013775,-4.309008787579475,52.6
,,0.020315503613709283,0.013472644748066647,0.00023631571108659815,0.03402446407286253,1.146336099619868,0.5970851905324399,0.395969344857727,-4.307093964249473,52.7
,,0.020315503613709283,0.013472644748066647,0.00023631571108659815,0.03402446407286253,1.1482335193667905,0.5970851905324399,0.395969344857727,-4.307093964249473,52.8
,,0.04832900901492006,0.03201346823415317,0.0004890192384460946,0.08083149648751932,1.150150256147678,0.597898234166458,0.39605190581985783,-3.4415985824112423,52.9
,,0.02173305263949874,0.013895571748999727,0.00019746750577301556,0.03582609189427148,1.1526712272072512,0.6066263856977884,0.38786177934249094,-4.27618506881128,53.0
,,0.04832900901492006,0.03201346823415317,0.0004890192384460946,0.08083149648751932,1.1556826475612558,0.597898234166458,0.39605190581985783,-3.4415985824112423,53.1
,,0.04832900901492006,0.03201346823415317,0.0004890192384460946,0.08083149648751932,1.1557593046185217,0.597898234166458,0.39605190581985783,-3.4415985824112423,53.2
,,0.04832900901492006,0.03201346823415317,0.0004890192384460946,0.08083149648751932,1.1588872840304132,0.597898234166458,0.39605190581985783,-3.4415985824112423,53.3
,,0.04832900901492006,0.03201346823415317,0.0004890192384460946,0.08083149648751932,1.162015263442305,0.597898234166458,0.39605190581985783,-3.4415985824112423,53.4
,,0.02286835737948832,0.014219463044765351,0.00023832319479925916,0.03732614361905293,1.1662387677054995,0.6126632746441903,0.3809518387403702,-4.253143615885015,53.5
,,0.02286835737948832,0.014219463044765351,0.00023832319479925916,0.03732614361905293,1.170462271968694,0.6126632746441903,0.3809518387403702,-4.253143615885015,53.6
,,0.02286835737948832,0.014219463044765351,0.00023832319479925916,0.03732614361905293,1.1746857762318883,0.6126632746441903,0.3809518387403702,-4.253143615885015,53.7
,,0.02446986257851003,0.014813584013900292,0.000204950426139851,0.03948839701855017,1.1793938313115162,0.6196722183231446,0.375137638707933,-4.212210680391471,53.8
,,0.02446986257851003,0.014813584013900292,0.000204950426139851,0.03948839701855017,1.1841018863911443,0.6196722183231446,0.375137638707933,-4.212210680391471,53.9
,,0.02446986257851003,0.014813584013900292,0.000204950426139851,0.03948839701855017,1.1919990566171712,0.6196722183231446,0.375137638707933,-4.212210680391471,54.0
,,0.02446986257851003,0.014813584013900292,0.000204950426139851,0.03948839701855017,1.1998962268431979,0.6196722183231446,0.375137638707933,-4.212210680391471,54.1
,,0.02446986257851003,0.014813584013900292,0.000204950426139851,0.03948839701855017,1.2056180567839472,0.6196722183231446,0.375137638707933,-4.212210680391471,54.2
,,0.025767788796048213,0.015322451469593665,0.0002464367923575931,0.04133667705799947,1.2116715365888795,0.6233638170744457,0.3706744847461914,-4.178436109873644,54.3
,,0.025767788796048213,0.015322451469593665,0.0002464367923575931,0.04133667705799947,1.2177250163938116,0.6233638170744457,0.3706744847461914,-4.178436109873644,54.4
,,0.025767788796048213,0.015322451469593665,0.0002464367923575931,0.04133667705799947,1.223778496198744,0.6233638170744457,0.3706744847461914,-4.178436109873644,54.5
,,0.02749570003329343,0.016079733926421824,0.00021729911637134158,0.04379273307608659,1.2301459586966177,0.6278598776998392,0.36717813200844285,-4.130195562232532,54.6
,,0.02749570003329343,0.016079733926421824,0.00021729911637134158,0.04379273307608659,1.2365134211944917,0.6278598776998392,0.36717813200844285,-4.130195562232532,54.7
,,0.02749570003329343,0.016079733926421824,0.00021729911637134158,0.04379273307608659,1.242880883692366,0.6278598776998392,0.36717813200844285,-4.130195562232532,54.8
,,0.02749570003329343,0.016079733926421824,0.00021729911637134158,0.04379273307608659,1.2494595784408145,0.6278598776998392,0.36717813200844285,-4.130195562232532,54.9
,,0.02749570003329343,0.016079733926421824,0.00021729911637134158,0.04379273307608659,1.2565379070967746,0.6278598776998392,0.36717813200844285,-4.130195562232532,55.0
,,0.02749570003329343,0.016079733926421824,0.00021729911637134158,0.04379273307608659,1.2636162357527352,0.6278598776998392,0.36717813200844285,-4.130195562232532,55.1
,,0.029224872331010024,0.016946634474388232,0.00026297551320559367,0.04643448231860385,1.2708563842370089,0.6293786615405241,0.36495797149435666,-4.077686020953837,55.2
,,0.029243079391639677,0.016945987398596773,0.00026215250486927045,0.04645121929510572,1.27810920235982,0.6295438491260624,0.3648125421840599,-4.077724204827245,55.3
,,0.030701161825896568,0.017676808759709773,0.00023454519399853673,0.048612515779604876,1.285485804995398,0.6315485083118673,0.36362670140034153,-4.035501738081144,55.4
,,0.030701161825896568,0.017676808759709773,0.00023454519399853673,0.048612515779604876,1.292862407630976,0.6315485083118673,0.36362670140034153,-4.035501738081144,55.5
,,0.030701161825896568,0.017676808759709773,0.00023454519399853673,0.048612515779604876,1.300239010266554,0.6315485083118673,0.36362670140034153,-4.035501738081144,55.6
,,0.030701161825896568,0.017676808759709773,0.00023454519399853673,0.048612515779604876,1.3076888140461735,0.6315485083118673,0.36362670140034153,-4.035501738081144,55.7
,,0.030701161825896568,0.017676808759709773,0.00023454519399853673,0.048612515779604876,1.3154970725694417,0.6315485083118673,0.36362670140034153,-4.035501738081144,55.8
,,0.030701161825896568,0.017676808759709773,0.00023454519399853673,0.048612515779604876,1.3233053310927099,0.6315485083118673,0.36362670140034153,-4.035501738081144,55.9
,,0.02072739537653475,0.01905977984442083,0.0002876839401714976,0.04007485916112708,1.3238990274924722,0.5172169237874823,0.4756044124269553,-3.9601749314827677,56.0
,,0.02072739537653475,0.01905977984442083,0.0002876839401714976,0.04007485916112708,1.3244927238922353,0.5172169237874823,0.4756044124269553,-3.9601749314827677,56.1
,,0.02072739537653475,0.01905977984442083,0.0002876839401714976,0.04007485916112708,1.3250864202919976,0.5172169237874823,0.4756044124269553,-3.9601749314827677,56.2
,,0.0613649622910949,0.038636255543164445,0.00044602056474413144,0.10044723839900348,1.3312443400265364,0.6109173658646219,0.38464228742348133,-3.2535641805663365,56.3
,,0.0613649622910949,0.038636255543164445,0.00044602056474413144,0.10044723839900348,1.3374022597610749,0.6109173658646219,0.38464228742348133,-3.2535641805663365,56.4
,,0.0613649622910949,0.038636255543164445,0.00044602056474413144,0.10044723839900348,1.3434864485459561,0.6109173658646219,0.38464228742348133,-3.2535641805663365,56.5
,,0.0613649622910949,0.038636255543164445,0.00044602056474413144,0.10044723839900348,1.3497683648742276,0.6109173658646219,0.38464228742348133,-3.2535641805663365,56.6
,,0.035108853739734616,0.020394546850510304,0.00030978341504701845,0.055813184005291935,1.3575303740691034,0.6290423018404714,0.36540733545279536,-3.8924877251154815,56.7
,,0.03589810839111446,0.020885765189673347,0.0003145104952424446,0.05709838407603025,1.3652623952259846,0.628706205473587,0.3657855739290727,-3.868687443462681,56.8
,,0.03589810839111446,0.020885765189673347,0.0003145104952424446,0.05709838407603025,1.3729944163828653,0.628706205473587,0.3657855739290727,-3.868687443462681,56.9
,,0.03589810839111446,0.020885765189673347,0.0003145104952424446,0.05709838407603025,1.3807264375397463,0.628706205473587,0.3657855739290727,-3.868687443462681,57.0
,,0.03682142699915641,0.021624073200765842,0.0002842350059446393,0.05872973520586689,1.3882808413157064,0.6269639539508443,0.3681963340200055,-3.833948084850668,57.1
,,0.03682142699915641,0.021624073200765842,0.0002842350059446393,0.05872973520586689,1.395902005122462,0.6269639539508443,0.3681963340200055,-3.833948084850668,57.2
,,0.03682142699915641,0.021624073200765842,0.0002842350059446393,0.05872973520586689,1.403227814137017,0.6269639539508443,0.3681963340200055,-3.833948084850668,57.3
,,0.03682142699915641,0.021624073200765842,0.0002842350059446393,0.05872973520586689,1.4112957467359564,0.6269639539508443,0.3681963340200055,-3.833948084850668,57.4
,,0.03682142699915641,0.021624073200765842,0.0002842350059446393,0.05872973520586689,1.419363679334896,0.6269639539508443,0.3681963340200055,-3.833948084850668,57.5
,,0.03682142699915641,0.021624073200765842,0.0002842350059446393,0.05872973520586689,1.4274316119338355,0.6269639539508443,0.3681963340200055,-3.833948084850668,57.6
,,0.038896923617382013,0.02318410660316742,0.00035140877235581797,0.06243243899290525,1.4352211330072002,0.6230242522128955,0.3713471230204868,-3.764288295279141,57.7
,,0.038896923617382013,0.02318410660316742,0.00035140877235581797,0.06243243899290525,1.4430106540805652,0.6230242522128955,0.3713471230204868,-3.764288295279141,57.8
,,0.038896923617382013,0.02318410660316742,0.00035140877235581797,0.06243243899290525,1.4508001751539297,0.6230242522128955,0.3713471230204868,-3.764288295279141,57.9
,,0.03980741557788154,0.024072061072129815,0.00031660096551856283,0.06419607761552992,1.4583223205350182,0.6200910874382078,0.3749771320344103,-3.7267034025967183,58.0
,,0.03980741557788154,0.024072061072129815,0.00031660096551856283,0.06419607761552992,1.4654317168919504,0.6200910874382078,0.3749771320344103,-3.7267034025967183,58.1
,,0.03980741557788154,0.024072061072129815,0.00031660096551856283,0.06419607761552992,1.4718564669850303,0.6200910874382078,0.3749771320344103,-3.7267034025967183,58.2
,,0.03980741557788154,0.024072061072129815,0.00031660096551856283,0.06419607761552992,1.4781018257442209,0.6200910874382078,0.3749771320344103,-3.7267034025967183,58.3
,,0.04155500934632594,0.025576926787050983,0.0003972225787016267,0.06752915871207855,1.4840252936168736,0.6153639426118488,0.37875381945897374,-3.6660646312901433,58.4
,,0.03980741557788154,0.024072061072129815,0.00031660096551856283,0.06419607761552992,1.490270652376064,0.6200910874382078,0.3749771320344103,-3.7267034025967183,58.5
,,0.0425087243761607,0.02626531332320977,0.00040412319540942426,0.06917816089477989,1.4961244418181214,0.6144818513001025,0.3796763745014754,-3.639506095341835,58.6
,,0.0425087243761607,0.02626531332320977,0.00040412319540942426,0.06917816089477989,1.5019782312601784,0.6144818513001025,0.3796763745014754,-3.639506095341835,58.7
,,0.054992021606408474,0.04086136463439831,0.0004840226744972796,0.09633740891530405,1.5048029503584877,0.5708272853254257,0.4241484704069835,-3.1975702923432503,58.8
,,0.054992021606408474,0.04086136463439831,0.0004840226744972796,0.09633740891530405,1.507832738388104,0.5708272853254257,0.4241484704069835,-3.1975702923432503,58.9
,,0.054992021606408474,0.04086136463439831,0.0004840226744972796,0.09633740891530405,1.5108625264177202,0.5708272853254257,0.4241484704069835,-3.1975702923432503,59.0
,,0.054992021606408474,0.04086136463439831,0.0004840226744972796,0.09633740891530405,1.5128166506806757,0.5708272853254257,0.4241484704069835,-3.1975702923432503,59.1
,,0.054992021606408474,0.04086136463439831,0.0004840226744972796,0.09633740891530405,1.5147707749436314,0.5708272853254257,0.4241484704069835,-3.1975702923432503,59.2
,,0.054992021606408474,0.04086136463439831,0.0004840226744972796,0.09633740891530405,1.516724899206587,0.5708272853254257,0.4241484704069835,-3.1975702923432503,59.3
,,0.054992021606408474,0.04086136463439831,0.0004840226744972796,0.09633740891530405,1.5186790234695426,0.5708272853254257,0.4241484704069835,-3.1975702923432503,59.4
,,0.05442167564125198,0.04215911976170222,0.0005538864770036953,0.09713468187995788,1.5200225272114687,0.5602702823334307,0.4340274652240463,-3.166304253484489,59.5
,,0.04480596376154527,0.029526682659849757,0.0003950290683740245,0.07472767548976905,1.5239172756585484,0.599589957373686,0.39512379404725695,-3.522460927503171,59.6
,,0.04480596376154527,0.029526682659849757,0.0003950290683740245,0.07472767548976905,1.5278120241056286,0.599589957373686,0.39512379404725695,-3.522460927503171,59.7
,,0.04480596376154527,0.029526682659849757,0.0003950290683740245,0.07472767548976905,1.531706772552708,0.599589957373686,0.39512379404725695,-3.522460927503171,59.8
,,0.04480596376154527,0.029526682659849757,0.0003950290683740245,0.07472767548976905,1.5356015209997882,0.599589957373686,0.39512379404725695,-3.522460927503171,59.9
,,0.04480596376154527,0.029526682659849757,0.0003950290683740245,0.07472767548976905,1.5431232541953432,0.599589957373686,0.39512379404725695,-3.522460927503171,60.0
,,0.04480596376154527,0.029526682659849757,0.0003950290683740245,0.07472767548976905,1.5506449873908983,0.599589957373686,0.39512379404725695,-3.522460927503171,60.1
,,0.04480596376154527,0.029526682659849757,0.0003950290683740245,0.07472767548976905,1.5581667205864531,0.599589957373686,0.39512379404725695,-3.522460927503171,60.2
,,0.04480596376154527,0.029526682659849757,0.0003950290683740245,0.07472767548976905,1.5601608188891523,0.599589957373686,0.39512379404725695,-3.522460927503171,60.3
,,0.044395385745047145,0.030783253565187303,0.000555787833542064,0.07573442714377651,1.5613184626543894,0.5861982115579433,0.40646314663141836,-3.4807844522854325,60.4
,,0.044395385745047145,0.030783253565187303,0.000555787833542064,0.07573442714377651,1.562476106419627,0.5861982115579433,0.40646314663141836,-3.4807844522854325,60.5
,,0.044395385745047145,0.030783253565187303,0.000555787833542064,0.07573442714377651,1.5636337501848643,0.5861982115579433,0.40646314663141836,-3.4807844522854325,60.6
,,0.044395385745047145,0.030783253565187303,0.000555787833542064,0.07573442714377651,1.5642910734032025,0.5861982115579433,0.40646314663141836,-3.4807844522854325,60.7
,,0.044395385745047145,0.030783253565187303,0.000555787833542064,0.07573442714377651,1.5648679318775935,0.5861982115579433,0.40646314663141836,-3.4807844522854325,60.8
,,0.044395385745047145,0.030783253565187303,0.000555787833542064,0.07573442714377651,1.5654447903519844,0.5861982115579433,0.40646314663141836,-3.4807844522854325,60.9
,,0.044395385745047145,0.030783253565187303,0.000555787833542064,0.07573442714377651,1.566021648826375,0.5861982115579433,0.40646314663141836,-3.4807844522854325,61.0
,,0.044395385745047145,0.030783253565187303,0.000555787833542064,0.07573442714377651,1.5658721657372707,0.5861982115579433,0.40646314663141836,-3.4807844522854325,61.1
,,0.042612817150216385,0.030047096471966992,0.0005192330289561578,0.07317914665113953,1.565456105529184,0.5823081998121773,0.4105964314561887,-3.5049892458982974,61.2
,,0.041888304489040365,0.030586280864166274,0.0005723640056373695,0.07304694935884401,1.5644990676991977,0.5734435846631126,0.4187208518991095,-3.4872037083295746,61.3
,,0.041888304489040365,0.030586280864166274,0.0005723640056373695,0.07304694935884401,1.5635420298692113,0.5734435846631126,0.4187208518991095,-3.4872037083295746,61.4
,,0.041888304489040365,0.030586280864166274,0.0005723640056373695,0.07304694935884401,1.562584992039225,0.5734435846631126,0.4187208518991095,-3.4872037083295746,61.5
,,0.041888304489040365,0.030586280864166274,0.0005723640056373695,0.07304694935884401,1.5616279542092384,0.5734435846631126,0.4187208518991095,-3.4872037083295746,61.6
,,0.041888304489040365,0.030586280864166274,0.0005723640056373695,0.07304694935884401,1.5600902345265555,0.5734435846631126,0.4187208518991095,-3.4872037083295746,61.7
,,0.041888304489040365,0.030586280864166274,0.0005723640056373695,0.07304694935884401,1.5585525148438728,0.5734435846631126,0.4187208518991095,-3.4872037083295746,61.8
,,0.041888304489040365,0.030586280864166274,0.0005723640056373695,0.07304694935884401,1.5569954781272246,0.5734435846631126,0.4187208518991095,-3.4872037083295746,61.9
,,0.033246735160880746,0.03742521227162329,0.0006023993313040802,0.07127434676380813,1.5494879675143074,0.4664614503035033,0.5250867103088929,-3.2854106767720683,62.0
,,0.038426788706868914,0.0292502213983097,0.0005717978634639413,0.06824880796864255,1.5473110816684985,0.5630397050234841,0.42858215797335164,-3.5318681361599364,62.1
,,0.03791664609193307,0.029015918016381263,0.0005614849647047047,0.06749404907301904,1.5450567164844844,0.5617776176224456,0.4299033531828878,-3.5399107024679872,62.2
,,0.03791664609193307,0.029015918016381263,0.0005614849647047047,0.06749404907301904,1.54280235130047,0.5617776176224456,0.4299033531828878,-3.5399107024679872,62.3
,,0.03791664609193307,0.029015918016381263,0.0005614849647047047,0.06749404907301904,1.540547986116456,0.5617776176224456,0.4299033531828878,-3.5399107024679872,62.4
,,0.03791664609193307,0.029015918016381263,0.0005614849647047047,0.06749404907301904,1.5371980960811389,0.5617776176224456,0.4299033531828878,-3.5399107024679872,62.5
,,0.03791664609193307,0.029015918016381263,0.0005614849647047047,0.06749404907301904,1.5338482060458214,0.5617776176224456,0.4299033531828878,-3.5399107024679872,62.6
,,0.03791664609193307,0.029015918016381263,0.0005614849647047047,0.06749404907301904,1.5304983160105043,0.5617776176224456,0.4299033531828878,-3.5399107024679872,62.7
,,0.03578686752927185,0.02759284937366408,0.0005001694940906233,0.06387988639702655,1.5265550792811915,0.5602212143404444,0.43194894246005516,-3.590198620490571,62.8
,,0.03578686752927185,0.02759284937366408,0.0005001694940906233,0.06387988639702655,1.522611842551879,0.5602212143404444,0.43194894246005516,-3.590198620490571,62.9
,,0.03578686752927185,0.02759284937366408,0.0005001694940906233,0.06387988639702655,1.5186686058225665,0.5602212143404444,0.43194894246005516,-3.590198620490571,63.0
,,0.03380661136905311,0.026803329491720502,0.0005395742874257576,0.061149515148199364,1.5143289510331988,0.552851666724108,0.4383244810160979,-3.619229164416135,63.1
,,0.03380661136905311,0.026803329491720502,0.0005395742874257576,0.061149515148199364,1.5099892962438313,0.552851666724108,0.4383244810160979,-3.619229164416135,63.2
,,0.03380661136905311,0.026803329491720502,0.0005395742874257576,0.061149515148199364,1.5053179915902806,0.552851666724108,0.4383244810160979,-3.619229164416135,63.3
,,0.03380661136905311,0.026803329491720502,0.0005395742874257576,0.061149515148199364,1.50064668693673,0.552851666724108,0.4383244810160979,-3.619229164416135,63.4
,,0.03380661136905311,0.026803329491720502,0.0005395742874257576,0.061149515148199364,1.4959753822831796,0.552851666724108,0.4383244810160979,-3.619229164416135,63.5
,,0.031954946371894354,0.02537212999164066,0.0004073089376235686,0.05773438530115858,1.4909697244104012,0.5534820576197094,0.4394630662350103,-3.674103951794608,63.6
,,0.031954946371894354,0.02537212999164066,0.0004073089376235686,0.05773438530115858,1.4859640665376221,0.5534820576197094,0.4394630662350103,-3.674103951794608,63.7
,,0.02191035782976837,0.02336912258727653,0.000380396397286362,0.04565987681433126,1.477382037286332,0.47986020459195305,0.5118087086021587,-3.7563396755402643,63.8
,,0.031954946371894354,0.02537212999164066,0.0004073089376235686,0.05773438530115858,1.4723763794135527,0.5534820576197094,0.4394630662350103,-3.674103951794608,63.9
,,0.03024582370050798,0.024461629858182784,0.0005098903076841374,0.0552173438663749,1.4671152681077892,0.5477594824861984,0.44300627566185624,-3.7106495173296716,64.0
,,0.03024582370050798,0.024461629858182784,0.0005098903076841374,0.0552173438663749,1.4618541568020251,0.5477594824861984,0.44300627566185624,-3.7106495173296716,64.1
,,0.03024582370050798,0.024461629858182784,0.0005098903076841374,0.0552173438663749,1.4564312256679481,0.5477594824861984,0.44300627566185624,-3.7106495173296716,64.2
,,0.03024582370050798,0.024461629858182784,0.0005098903076841374,0.0552173438663749,1.4509956248953333,0.5477594824861984,0.44300627566185624,-3.7106495173296716,64.3
,,0.03024582370050798,0.024461629858182784,0.0005098903076841374,0.0552173438663749,1.4454362396099516,0.5477594824861984,0.44300627566185624,-3.7106495173296716,64.4
,,0.02886080968131764,0.023153876588385042,0.00038814986775213313,0.05240283613745481,1.439988172578477,0.5507490015543155,0.44184395912563706,-3.7655930572471386,64.5
,,0.02886080968131764,0.023153876588385042,0.00038814986775213313,0.05240283613745481,1.4345401055470026,0.5507490015543155,0.44184395912563706,-3.7655930572471386,64.6
,,0.02886080968131764,0.023153876588385042,0.00038814986775213313,0.05240283613745481,1.429092038515528,0.5507490015543155,0.44184395912563706,-3.7655930572471386,64.7
,,0.02754778044023455,0.02228033668337718,0.00048456340127772354,0.05031268052488946,1.4235321735931712,0.5475315596951108,0.44283740104753905,-3.8040507525750593,64.8
,,0.02754778044023455,0.02228033668337718,0.00048456340127772354,0.05031268052488946,1.4179723086708143,0.5475315596951108,0.44283740104753905,-3.8040507525750593,64.9
,,0.02754778044023455,0.02228033668337718,0.00048456340127772354,0.05031268052488946,1.4196270058719629,0.5475315596951108,0.44283740104753905,-3.8040507525750593,65.0
,,0.02754778044023455,0.02228033668337718,0.00048456340127772354,0.05031268052488946,1.4212817030731115,0.5475315596951108,0.44283740104753905,-3.8040507525750593,65.1
,,0.026532475880589785,0.021097858095815,0.00037121494866565637,0.04800154892507044,1.4231716699272798,0.5527420775943398,0.43952452719282825,-3.8585837556994953,65.2
,,0.026532475880589785,0.021097858095815,0.00037121494866565637,0.04800154892507044,1.4194974134466725,0.5527420775943398,0.43952452719282825,-3.8585837556994953,65.3
,,0.026532475880589785,0.021097858095815,0.00037121494866565637,0.04800154892507044,1.4158231569660649,0.5527420775943398,0.43952452719282825,-3.8585837556994953,65.4
,,0.026532475880589785,0.021097858095815,0.00037121494866565637,0.04800154892507044,1.4121489004854573,0.5527420775943398,0.43952452719282825,-3.8585837556994953,65.5
,,0.026532475880589785,0.021097858095815,0.00037121494866565637,0.04800154892507044,1.4084746440048495,0.5527420775943398,0.43952452719282825,-3.8585837556994953,65.6
,,0.02019171710283025,0.020344229000760928,0.00046043972560822773,0.04099638582919941,1.4003748775398688,0.49252432121586753,0.4962444515357957,-3.8949579944981783,65.7
,,0.02019171710283025,0.020344229000760928,0.00046043972560822773,0.04099638582919941,1.3923050991128827,0.49252432121586753,0.4962444515357957,-3.8949579944981783,65.8
,,0.02019171710283025,0.020344229000760928,0.00046043972560822773,0.04099638582919941,1.3842353206858968,0.49252432121586753,0.4962444515357957,-3.8949579944981783,65.9
,,0.017423680926398174,0.017546187663713797,0.00025541074645290477,0.03522527933656488,1.3761712601538671,0.4946357063607975,0.49811351376567614,-4.04291857980631,66.0
,,0.017423680926398174,0.017546187663713797,0.00025541074645290477,0.03522527933656488,1.3682848170027584,0.4946357063607975,0.49811351376567614,-4.04291857980631,66.1
,,0.017423680926398174,0.017546187663713797,0.00025541074645290477,0.03522527933656488,1.3603983738516499,0.4946357063607975,0.49811351376567614,-4.04291857980631,66.2
,,0.017423680926398174,0.017546187663713797,0.00025541074645290477,0.03522527933656488,1.3525119307005415,0.4946357063607975,0.49811351376567614,-4.04291857980631,66.3
,,0.017423680926398174,0.017546187663713797,0.00025541074645290477,0.03522527933656488,1.3446254875494328,0.4946357063607975,0.49811351376567614,-4.04291857980631,66.4
,,0.024818409772612085,0.01883393876320372,0.00044476512832346043,0.044097113664139265,1.340347169571315,0.5628125677711863,0.42710139504028105,-3.9720947832957645,66.5
,,0.024818409772612085,0.01883393876320372,0.00044476512832346043,0.044097113664139265,1.3360688515931967,0.5628125677711863,0.42710139504028105,-3.9720947832957645,66.6
,,0.024818409772612085,0.01883393876320372,0.00044476512832346043,0.044097113664139265,1.3320689451406535,0.5628125677711863,0.42710139504028105,-3.9720947832957645,66.7
,,0.01733000630549631,0.016501073090634668,0.00024089327129574588,0.034071972667426724,1.325096658705356,0.5086293791866074,0.48430049095484046,-4.104329864394297,66.8
,,0.01733000630549631,0.016501073090634668,0.00024089327129574588,0.034071972667426724,1.3181243722700586,0.5086293791866074,0.48430049095484046,-4.104329864394297,66.9
,,0.01733000630549631,0.016501073090634668,0.00024089327129574588,0.034071972667426724,1.3114194615270376,0.5086293791866074,0.48430049095484046,-4.104329864394297,67.0
,,0.01733000630549631,0.016501073090634668,0.00024089327129574588,0.034071972667426724,1.3047145507840163,0.5086293791866074,0.48430049095484046,-4.104329864394297,67.1
,,0.01733000630549631,0.016501073090634668,0.00024089327129574588,0.034071972667426724,1.2980096400409955,0.5086293791866074,0.48430049095484046,-4.104329864394297,67.2
,,0.02473181688324495,0.017683852050539454,0.0004304605044003053,0.04284612943818471,1.2951749359635953,0.577224062185739,0.4127292775897631,-4.03510336934247,67.3
,,0.02473181688324495,0.017683852050539454,0.0004304605044003053,0.04284612943818471,1.2926621227727328,0.577224062185739,0.4127292775897631,-4.03510336934247,67.4
,,0.02473181688324495,0.017683852050539454,0.0004304605044003053,0.04284612943818471,1.2898274186953327,0.577224062185739,0.4127292775897631,-4.03510336934247,67.5
,,0.024769503472645102,0.017072257094046854,0.00034713537711465,0.042188895943806606,1.2879654965353846,0.5871095443131951,0.4046623338232459,-4.070300525137885,67.6
,,0.024769503472645102,0.017072257094046854,0.00034713537711465,0.042188895943806606,1.286103574375436,0.5871095443131951,0.4046623338232459,-4.070300525137885,67.7
,,0.024769503472645102,0.017072257094046854,0.00034713537711465,0.042188895943806606,1.287270722559236,0.5871095443131951,0.4046623338232459,-4.070300525137885,67.8
,,0.024769503472645102,0.017072257094046854,0.00034713537711465,0.042188895943806606,1.2884378707430355,0.5871095443131951,0.4046623338232459,-4.070300525137885,67.9
,,0.024769503472645102,0.017072257094046854,0.00034713537711465,0.042188895943806606,1.2896050189268353,0.5871095443131951,0.4046623338232459,-4.070300525137885,68.0
,,0.02531333134904426,0.01685910048859865,0.00041996814608141433,0.04259239998372433,1.2913344014531625,0.5943156844581932,0.3958241492623321,-4.0828646796348504,68.1
,,0.02531333134904426,0.01685910048859865,0.00041996814608141433,0.04259239998372433,1.2930637839794898,0.5943156844581932,0.3958241492623321,-4.0828646796348504,68.2
,,0.02531333134904426,0.01685910048859865,0.00041996814608141433,0.04259239998372433,1.2947931665058172,0.5943156844581932,0.3958241492623321,-4.0828646796348504,68.3
,,0.025551548376926563,0.016347946503435754,0.0003437242503029352,0.042243219130665255,1.2972060846277396,0.6048674533513037,0.38699575552868865,-4.1136529856468655,68.4
,,0.025551548376926563,0.016347946503435754,0.0003437242503029352,0.042243219130665255,1.3002296232706914,0.6048674533513037,0.38699575552868865,-4.1136529856468655,68.5
,,0.025551548376926563,0.016347946503435754,0.0003437242503029352,0.042243219130665255,1.3007352728156234,0.6048674533513037,0.38699575552868865,-4.1136529856468655,68.6
,,0.025551548376926563,0.016347946503435754,0.0003437242503029352,0.042243219130665255,1.3012409223605552,0.6048674533513037,0.38699575552868865,-4.1136529856468655,68.7
,,0.02635048595786979,0.01629463060655459,0.0004162379970176755,0.043061354561442056,1.3023481806990285,0.6119288681518744,0.37840497059386763,-4.116919636077847,68.8
,,0.025551548376926563,0.016347946503435754,0.0003437242503029352,0.042243219130665255,1.3028538302439603,0.6048674533513037,0.38699575552868865,-4.1136529856468655,68.9
,,0.026667944674131885,0.01636713756445192,0.00041436289695041557,0.043449445135534226,1.3040970016862852,0.6137695105413915,0.37669382228926085,-4.112479761504898,69.0
,,0.026667944674131885,0.01636713756445192,0.00041436289695041557,0.043449445135534226,1.3053401731286105,0.6137695105413915,0.37669382228926085,-4.112479761504898,69.1
,,0.02697036044327335,0.015894595422028163,0.0003409091918724956,0.04320586505717401,1.3073329750687912,0.62422915054666,0.3678805042092077,-4.141776138102908,69.2
,,0.02697036044327335,0.015894595422028163,0.0003409091918724956,0.04320586505717401,1.309325777008972,0.62422915054666,0.3678805042092077,-4.141776138102908,69.3
,,0.02697036044327335,0.015894595422028163,0.0003409091918724956,0.04320586505717401,1.3121550334866143,0.62422915054666,0.3678805042092077,-4.141776138102908,69.4
,,0.02697036044327335,0.015894595422028163,0.0003409091918724956,0.04320586505717401,1.3149842899642565,0.62422915054666,0.3678805042092077,-4.141776138102908,69.5
,,0.02697036044327335,0.015894595422028163,0.0003409091918724956,0.04320586505717401,1.3178135464418987,0.62422915054666,0.3678805042092077,-4.141776138102908,69.6
,,0.02697036044327335,0.015894595422028163,0.0003409091918724956,0.04320586505717401,1.3206428029195412,0.62422915054666,0.3678805042092077,-4.141776138102908,69.7
,,0.028523286413215856,0.016155645922744082,0.0004117887988480296,0.04509072113480797,1.324235444901038,0.6325755209800179,0.35829202807476646,-4.125485697667203,69.8
,,0.028523286413215856,0.016155645922744082,0.0004117887988480296,0.04509072113480797,1.3278280868825347,0.6325755209800179,0.35829202807476646,-4.125485697667203,69.9
,,0.028523286413215856,0.016155645922744082,0.0004117887988480296,0.04509072113480797,1.3314207288640314,0.6325755209800179,0.35829202807476646,-4.125485697667203,70.0
,,0.02873535486483233,0.015682959544495494,0.0003393370450771576,0.04475765145440498,1.3357548767877483,0.6420210607812005,0.350397284818929,-4.155180535410076,70.1
,,0.02873535486483233,0.015682959544495494,0.0003393370450771576,0.04475765145440498,1.3403556018304474,0.6420210607812005,0.350397284818929,-4.155180535410076,70.2
,,0.02873535486483233,0.015682959544495494,0.0003393370450771576,0.04475765145440498,1.3454973044950465,0.6420210607812005,0.350397284818929,-4.155180535410076,70.3
,,0.02873535486483233,0.015682959544495494,0.0003393370450771576,0.04475765145440498,1.3506390071596455,0.6420210607812005,0.350397284818929,-4.155180535410076,70.4
,,0.02998723824515813,0.015871910497828833,0.00040918137852086786,0.046268330121507835,1.3564147264462378,0.6481158530339646,0.3430404870058359,-4.143204367453198,70.5
,,0.021885939890900884,0.016079774342434947,0.00024491240900252284,0.03821062664233836,1.3563210838957565,0.5727710276975855,0.4208194357278125,-4.130193048760448,70.6
,,0.021885939890900884,0.016079774342434947,0.00024491240900252284,0.03821062664233836,1.3562274413452753,0.5727710276975855,0.4208194357278125,-4.130193048760448,70.7
,,0.021885939890900884,0.016079774342434947,0.00024491240900252284,0.03821062664233836,1.356133798794794,0.5727710276975855,0.4208194357278125,-4.130193048760448,70.8
,,0.021885939890900884,0.016079774342434947,0.00024491240900252284,0.03821062664233836,1.3560401562443125,0.5727710276975855,0.4208194357278125,-4.130193048760448,70.9
,,0.031053783767934134,0.015850944495523576,0.0003368279611241119,0.047241556224581815,1.3679375033416923,0.6573404064063307,0.335529685350959,-4.1445261908113,71.0
,,0.031053783767934134,0.015850944495523576,0.0003368279611241119,0.047241556224581815,1.3751084599506493,0.6573404064063307,0.335529685350959,-4.1445261908113,71.1
,,0.031053783767934134,0.015850944495523576,0.0003368279611241119,0.047241556224581815,1.3823568958978116,0.6573404064063307,0.335529685350959,-4.1445261908113,71.2
,,0.031053783767934134,0.015850944495523576,0.0003368279611241119,0.047241556224581815,1.389605331844974,0.6573404064063307,0.335529685350959,-4.1445261908113,71.3
,,0.03286593621472312,0.016340653838266005,0.0004131845664361274,0.049619774619425246,1.3974336145365787,0.6623556125919342,0.32931737323669613,-4.11409917576908,71.4
,,0.031053783767934134,0.015850944495523576,0.0003368279611241119,0.047241556224581815,1.404682050483741,0.6573404064063307,0.335529685350959,-4.1445261908113,71.5
,,0.033207972754351445,0.016445646751173028,0.00040832865150138427,0.05006194815702586,1.4125987486217253,0.6633376042456496,0.32850592828687175,-4.107694471979876,71.6
,,0.033207972754351445,0.016445646751173028,0.00040832865150138427,0.05006194815702586,1.4205154467597099,0.6633376042456496,0.32850592828687175,-4.107694471979876,71.7
,,0.033207972754351445,0.016445646751173028,0.00040832865150138427,0.05006194815702586,1.4285409407752563,0.6633376042456496,0.32850592828687175,-4.107694471979876,71.8
