HRV_ULF,HRV_VLF,HRV_LF,HRV_HF,HRV_VHF,HRV_TP,HRV_LFHF,HRV_LFn,HRV_HFn,HRV_LnHF,time
,,0.013129426486946923,0.009109532096679265,0.00033735955137986724,0.022576318135006056,1.4412843983208585,0.5815574713482129,0.40349945647489527,-4.698433930535435,0.0
,,0.013129426486946923,0.009109532096679265,0.00033735955137986724,0.022576318135006056,1.4412843983208585,0.5815574713482129,0.40349945647489527,-4.698433930535435,0.1
,,0.013129426486946923,0.009109532096679265,0.00033735955137986724,0.022576318135006056,1.4412843983208585,0.5815574713482129,0.40349945647489527,-4.698433930535435,0.2
,,0.013129426486946923,0.009109532096679265,0.00033735955137986724,0.022576318135006056,1.4412843983208585,0.5815574713482129,0.40349945647489527,-4.698433930535435,0.3
,,0.013129426486946923,0.009109532096679265,0.00033735955137986724,0.022576318135006056,1.4412843983208585,0.5815574713482129,0.40349945647489527,-4.698433930535435,0.4
,,0.012753456983509104,0.007726756029179005,0.0003009864563015501,0.02078119946898966,1.476163288912533,0.613701677929621,0.3718147280530706,-4.863066164338004,0.5
,,0.012748681086282047,0.009563873489426635,0.00035666331067403523,0.022669217886382716,1.4557119539991061,0.5623785147850255,0.42188811000716553,-4.649762457262481,0.6
,,0.012748681086282047,0.009563873489426635,0.00035666331067403523,0.022669217886382716,1.4403734528140362,0.5623785147850255,0.42188811000716553,-4.649762457262481,0.7
,,0.012748681086282047,0.009563873489426635,0.00035666331067403523,0.022669217886382716,1.4284435074478705,0.5623785147850255,0.42188811000716553,-4.649762457262481,0.8
,,0.012748681086282047,0.009563873489426635,0.00035666331067403523,0.022669217886382716,1.4188995511549378,0.5623785147850255,0.42188811000716553,-4.649762457262481,0.9
,,0.012748681086282047,0.009563873489426635,0.00035666331067403523,0.022669217886382716,1.4110908596425384,0.5623785147850255,0.42188811000716553,-4.649762457262481,1.0
,,0.012748681086282047,0.009563873489426635,0.00035666331067403523,0.022669217886382716,1.404583616715539,0.5623785147850255,0.42188811000716553,-4.649762457262481,1.1
,,0.012748681086282047,0.009563873489426635,0.00035666331067403523,0.022669217886382716,1.399077488085001,0.5623785147850255,0.42188811000716553,-4.649762457262481,1.2
,,0.012421910337391833,0.009928663604054283,0.0003787709585914192,0.022729344900037533,1.3885088135570016,0.5465142260818665,0.43682137112706176,-4.612329391648216,1.3
,,0.012244396011880258,0.009975736672918007,0.0003744873471127889,0.022594620031911053,1.3777694076505829,0.541916438275445,0.44150937961465947,-4.607599467011524,1.4
,,0.012244396011880258,0.009975736672918007,0.0003744873471127889,0.022594620031911053,1.3683724274824667,0.541916438275445,0.44150937961465947,-4.607599467011524,1.5
,,0.012244396011880258,0.009975736672918007,0.0003744873471127889,0.022594620031911053,1.360080974392952,0.541916438275445,0.44150937961465947,-4.607599467011524,1.6
,,0.012244396011880258,0.009975736672918007,0.0003744873471127889,0.022594620031911053,1.3527107938689396,0.541916438275445,0.44150937961465947,-4.607599467011524,1.7
,,0.012244396011880258,0.009975736672918007,0.0003744873471127889,0.022594620031911053,1.3461164218211383,0.541916438275445,0.44150937961465947,-4.607599467011524,1.8
,,0.012244396011880258,0.009975736672918007,0.0003744873471127889,0.022594620031911053,1.3401814869781177,0.541916438275445,0.44150937961465947,-4.607599467011524,1.9
,,0.012244396011880258,0.009975736672918007,0.0003744873471127889,0.022594620031911053,1.3348117840249083,0.541916438275445,0.44150937961465947,-4.607599467011524,2.0
,,0.011345894743355643,0.009821830112568587,0.0003785562879147983,0.021546281143839028,1.3266463004616726,0.5265825070977459,0.45584804389211514,-4.623147808137704,2.1
,,0.01114976732826214,0.009853218613558593,0.00037011734334881714,0.021373103285169552,1.318165431468792,0.5216728324145039,0.46101019969316204,-4.619957114375649,2.2
,,0.01114976732826214,0.009853218613558593,0.00037011734334881714,0.021373103285169552,1.3103913015586515,0.5216728324145039,0.46101019969316204,-4.619957114375649,2.3
,,0.01114976732826214,0.009853218613558593,0.00037011734334881714,0.021373103285169552,1.3032391020413223,0.5216728324145039,0.46101019969316204,-4.619957114375649,2.4
,,0.01114976732826214,0.009853218613558593,0.00037011734334881714,0.021373103285169552,1.2966370717176336,0.5216728324145039,0.46101019969316204,-4.619957114375649,2.5
,,0.01114976732826214,0.009853218613558593,0.00037011734334881714,0.021373103285169552,1.2905240806771814,0.5216728324145039,0.46101019969316204,-4.619957114375649,2.6
,,0.01114976732826214,0.009853218613558593,0.00037011734334881714,0.021373103285169552,1.2848477318539042,0.5216728324145039,0.46101019969316204,-4.619957114375649,2.7
,,0.01114976732826214,0.009853218613558593,0.00037011734334881714,0.021373103285169552,1.2795628553632667,0.5216728324145039,0.46101019969316204,-4.619957114375649,2.8
,,0.010484482321852338,0.0097745437718371,0.0003793836190010378,0.020638409712690476,1.2726651393370705,0.5080082461685733,0.47360934819637635,-4.627973847157765,2.9
,,0.0103439169168818,0.00984390925411967,0.0003685136587185814,0.02055633982972005,1.2655079931482625,0.5031983807704288,0.47887461170920576,-4.620902364890812,3.0
,,0.0103439169168818,0.00984390925411967,0.0003685136587185814,0.02055633982972005,1.258798168596255,0.5031983807704288,0.47887461170920576,-4.620902364890812,3.1
,,0.0103439169168818,0.00984390925411967,0.0003685136587185814,0.02055633982972005,1.2524950000777026,0.5031983807704288,0.47887461170920576,-4.620902364890812,3.2
,,0.0103439169168818,0.00984390925411967,0.0003685136587185814,0.02055633982972005,1.2465626061778887,0.5031983807704288,0.47887461170920576,-4.620902364890812,3.3
,,0.0103439169168818,0.00984390925411967,0.0003685136587185814,0.02055633982972005,1.240969206215207,0.5031983807704288,0.47887461170920576,-4.620902364890812,3.4
,,0.0103439169168818,0.00984390925411967,0.0003685136587185814,0.02055633982972005,1.2356865506948962,0.5031983807704288,0.47887461170920576,-4.620902364890812,3.5
,,0.0103439169168818,0.00984390925411967,0.0003685136587185814,0.02055633982972005,1.2306894441216296,0.5031983807704288,0.47887461170920576,-4.620902364890812,3.6
,,0.01011939497084591,0.007599523675482113,0.00029637783824679144,0.018015296484574814,1.233344532283174,0.5617112646195087,0.42183728044603824,-4.879669707932636,3.7
,,0.01011939497084591,0.007599523675482113,0.00029637783824679144,0.018015296484574814,1.2358634620774598,0.5617112646195087,0.42183728044603824,-4.879669707932636,3.8
,,0.01011939497084591,0.007599523675482113,0.00029637783824679144,0.018015296484574814,1.238256445382031,0.5617112646195087,0.42183728044603824,-4.879669707932636,3.9
,,0.01011939497084591,0.007599523675482113,0.00029637783824679144,0.018015296484574814,1.2405326977936968,0.5617112646195087,0.42183728044603824,-4.879669707932636,4.0
,,0.01011939497084591,0.007599523675482113,0.00029637783824679144,0.018015296484574814,1.242700557233378,0.5617112646195087,0.42183728044603824,-4.879669707932636,4.1
,,0.01011939497084591,0.007599523675482113,0.00029637783824679144,0.018015296484574814,1.2447675860014464,0.5617112646195087,0.42183728044603824,-4.879669707932636,4.2
,,0.01011939497084591,0.007599523675482113,0.00029637783824679144,0.018015296484574814,1.2467406589164207,0.5617112646195087,0.42183728044603824,-4.879669707932636,4.3
,,0.01011939497084591,0.007599523675482113,0.00029637783824679144,0.018015296484574814,1.2486260397018407,0.5617112646195087,0.42183728044603824,-4.879669707932636,4.4
,,0.010073358908259316,0.010532629665723447,0.00038756360002647865,0.020993552174009243,1.242273200422579,0.47983108455226026,0.5017078376456564,-4.553277253175874,4.5
,,0.010073358908259316,0.010532629665723447,0.00038756360002647865,0.020993552174009243,1.2361906947296684,0.47983108455226026,0.5017078376456564,-4.553277253175874,4.6
,,0.010073358908259316,0.010532629665723447,0.00038756360002647865,0.020993552174009243,1.2303616267739625,0.47983108455226026,0.5017078376456564,-4.553277253175874,4.7
,,0.010073358908259316,0.010532629665723447,0.00038756360002647865,0.020993552174009243,1.224770479959306,0.47983108455226026,0.5017078376456564,-4.553277253175874,4.8
,,0.010073358908259316,0.010532629665723447,0.00038756360002647865,0.020993552174009243,1.2194029790172356,0.47983108455226026,0.5017078376456564,-4.553277253175874,4.9
,,0.010073358908259316,0.010532629665723447,0.00038756360002647865,0.020993552174009243,1.2142459683081879,0.47983108455226026,0.5017078376456564,-4.553277253175874,5.0
,,0.010073358908259316,0.010532629665723447,0.00038756360002647865,0.020993552174009243,1.2092873041648724,0.47983108455226026,0.5017078376456564,-4.553277253175874,5.1
,,0.010073358908259316,0.010532629665723447,0.00038756360002647865,0.020993552174009243,1.2045157594231917,0.47983108455226026,0.5017078376456564,-4.553277253175874,5.2
,,0.010601481943069181,0.011252061763413637,0.000407801698332099,0.02226134540481492,1.1996577134884892,0.47622826699307136,0.5054529076656761,-4.4872038992642205,5.3
,,0.010601481943069181,0.011252061763413637,0.000407801698332099,0.02226134540481492,1.1949763237695943,0.47622826699307136,0.5054529076656761,-4.4872038992642205,5.4
,,0.010601481943069181,0.011252061763413637,0.000407801698332099,0.02226134540481492,1.19046212654066,0.47622826699307136,0.5054529076656761,-4.4872038992642205,5.5
,,0.010601481943069181,0.011252061763413637,0.000407801698332099,0.02226134540481492,1.1861063221969512,0.47622826699307136,0.5054529076656761,-4.4872038992642205,5.6
,,0.010601481943069181,0.011252061763413637,0.000407801698332099,0.02226134540481492,1.1819007180030257,0.47622826699307136,0.5054529076656761,-4.4872038992642205,5.7
,,0.010601481943069181,0.011252061763413637,0.000407801698332099,0.02226134540481492,1.1778376766631313,0.47622826699307136,0.5054529076656761,-4.4872038992642205,5.8
,,0.010601481943069181,0.011252061763413637,0.000407801698332099,0.02226134540481492,1.1739100700345668,0.47622826699307136,0.5054529076656761,-4.4872038992642205,5.9
,,0.011044830516663162,0.009005922554559282,0.0003369634693385647,0.020387716540561006,1.1747705007942744,0.5417394583983776,0.44173277260561067,-4.7098728564558225,6.0
,,0.011044830516663162,0.009005922554559282,0.0003369634693385647,0.020387716540561006,1.1756031757230234,0.5417394583983776,0.44173277260561067,-4.7098728564558225,6.1
,,0.01158008442458493,0.012189470045907619,0.00043160284603388326,0.02420115731652643,1.172022287371564,0.4784930023440304,0.5036730221816169,-4.407182810928863,6.2
,,0.011044830516663162,0.009005922554559282,0.0003369634693385647,0.020387716540561006,1.1728718820435196,0.5417394583983776,0.44173277260561067,-4.7098728564558225,6.3
,,0.01158008442458493,0.012189470045907619,0.00043160284603388326,0.02420115731652643,1.1694431947748665,0.4784930023440304,0.5036730221816169,-4.407182810928863,6.4
,,0.01158008442458493,0.012189470045907619,0.00043160284603388326,0.02420115731652643,1.1661184071204154,0.4784930023440304,0.5036730221816169,-4.407182810928863,6.5
,,0.01158008442458493,0.012189470045907619,0.00043160284603388326,0.02420115731652643,1.1628928668586342,0.4784930023440304,0.5036730221816169,-4.407182810928863,6.6
,,0.011928498516101567,0.012545094518088865,0.000445187378951279,0.02491878041314171,1.1597745840049898,0.4786951174308151,0.5034393461516604,-4.37842556486859,6.7
,,0.012526191437085337,0.01279014906609015,0.00043650572317771157,0.0257528462263532,1.1571599150697183,0.4864002730799959,0.4966499218638534,-4.359080008565625,6.8
,,0.012526191437085337,0.01279014906609015,0.00043650572317771157,0.0257528462263532,1.154619950961169,0.4864002730799959,0.4966499218638534,-4.359080008565625,6.9
,,0.012526191437085337,0.01279014906609015,0.00043650572317771157,0.0257528462263532,1.1521515351373675,0.4864002730799959,0.4966499218638534,-4.359080008565625,7.0
,,0.012514061563227697,0.012779188735624808,0.00043609865030840944,0.025729348949160916,1.1497501694807577,0.48637303602024506,0.49667750089112,-4.359937311263225,7.1
,,0.012514061563227697,0.012779188735624808,0.00043609865030840944,0.025729348949160916,1.147414594664055,0.48637303602024506,0.49667750089112,-4.359937311263225,7.2
,,0.012514061563227697,0.012779188735624808,0.00043609865030840944,0.025729348949160916,1.1451421434910471,0.48637303602024506,0.49667750089112,-4.359937311263225,7.3
,,0.012514061563227697,0.012779188735624808,0.00043609865030840944,0.025729348949160916,1.142930291015986,0.48637303602024506,0.49667750089112,-4.359937311263225,7.4
,,0.013142984444542387,0.012802942052284248,0.00041764081654665336,0.02636356731337329,1.1413990991237226,0.49852830189165726,0.4856301084030375,-4.358080286632825,7.5
,,0.013139841966825215,0.012803597730399161,0.00041753734603070593,0.02636097704325508,1.1399038082198345,0.4984580785933833,0.48570270022200057,-4.3580290748626584,7.6
,,0.013142984444542387,0.012802942052284248,0.00041764081654665336,0.02636356731337329,1.1384506787196311,0.49852830189165726,0.4856301084030375,-4.358080286632825,7.7
,,0.013142984444542387,0.012802942052284248,0.00041764081654665336,0.02636356731337329,1.1370343373080405,0.49852830189165726,0.4856301084030375,-4.358080286632825,7.8
,,0.013142984444542387,0.012802942052284248,0.00041764081654665336,0.02636356731337329,1.1356534044317397,0.49852830189165726,0.4856301084030375,-4.358080286632825,7.9
,,0.013142984444542387,0.012802942052284248,0.00041764081654665336,0.02636356731337329,1.1343065686634957,0.49852830189165726,0.4856301084030375,-4.358080286632825,8.0
,,0.013142984444542387,0.012802942052284248,0.00041764081654665336,0.02636356731337329,1.1329925825481357,0.49852830189165726,0.4856301084030375,-4.358080286632825,8.1
,,0.012945495117208682,0.010736511113019756,0.0003719485073708772,0.024053954737599317,1.1338691182875678,0.5381857269804065,0.44635118133972607,-4.534105092488489,8.2
,,0.013837560488401832,0.012724351780845992,0.0003622142656089102,0.026924126534856735,1.1333169439847859,0.5139464959239192,0.4726003558322565,-4.364237658444561,8.3
,,0.013837560488401832,0.012724351780845992,0.0003622142656089102,0.026924126534856735,1.1327777620185402,0.5139464959239192,0.4726003558322565,-4.364237658444561,8.4
,,0.013837560488401832,0.012724351780845992,0.0003622142656089102,0.026924126534856735,1.1322511191677884,0.5139464959239192,0.4726003558322565,-4.364237658444561,8.5
,,0.013837560488401832,0.012724351780845992,0.0003622142656089102,0.026924126534856735,1.1317365830492379,0.5139464959239192,0.4726003558322565,-4.364237658444561,8.6
,,0.013837560488401832,0.012724351780845992,0.0003622142656089102,0.026924126534856735,1.131233740933382,0.5139464959239192,0.4726003558322565,-4.364237658444561,8.7
,,0.013837560488401832,0.012724351780845992,0.0003622142656089102,0.026924126534856735,1.1307421986403539,0.5139464959239192,0.4726003558322565,-4.364237658444561,8.8
,,0.013837560488401832,0.012724351780845992,0.0003622142656089102,0.026924126534856735,1.1302615795093933,0.5139464959239192,0.4726003558322565,-4.364237658444561,8.9
,,0.013604415582687171,0.012566300395103166,0.00038877322365682,0.02655948920144716,1.1262763200105084,0.5122242931519143,0.47313787926382483,-4.376736619899305,9.0
,,0.014401823508238923,0.010844997601080314,0.0003092129826812275,0.025556034092000465,1.1250172629889836,0.5635390630797042,0.4243615250331431,-4.524051355903848,9.1
,,0.014401823508238923,0.010844997601080314,0.0003092129826812275,0.025556034092000465,1.1237582059674591,0.5635390630797042,0.4243615250331431,-4.524051355903848,9.2
,,0.014401823508238923,0.010844997601080314,0.0003092129826812275,0.025556034092000465,1.1224991489459344,0.5635390630797042,0.4243615250331431,-4.524051355903848,9.3
,,0.014401823508238923,0.010844997601080314,0.0003092129826812275,0.025556034092000465,1.1212400919244097,0.5635390630797042,0.4243615250331431,-4.524051355903848,9.4
,,0.014401823508238923,0.010844997601080314,0.0003092129826812275,0.025556034092000465,1.1176557755301066,0.5635390630797042,0.4243615250331431,-4.524051355903848,9.5
,,0.014401823508238923,0.010844997601080314,0.0003092129826812275,0.025556034092000465,1.1175998346619411,0.5635390630797042,0.4243615250331431,-4.524051355903848,9.6
,,0.014401823508238923,0.010844997601080314,0.0003092129826812275,0.025556034092000465,1.1175438937937754,0.5635390630797042,0.4243615250331431,-4.524051355903848,9.7
,,0.014239879735084853,0.01235420010089664,0.00035879664551566353,0.026952876481497155,1.115539791084141,0.5283250470449924,0.458362954669334,-4.393759184583926,9.8
,,0.015251282436645109,0.012224648381024085,0.0003069167026375632,0.027782847520306755,1.1145906866890554,0.5489459791872592,0.44000703571111527,-4.404301006323262,9.9
,,0.015251282436645109,0.012224648381024085,0.0003069167026375632,0.027782847520306755,1.1136415822939703,0.5489459791872592,0.44000703571111527,-4.404301006323262,10.0
,,0.015251282436645109,0.012224648381024085,0.0003069167026375632,0.027782847520306755,1.1126924778988847,0.5489459791872592,0.44000703571111527,-4.404301006323262,10.1
,,0.015251282436645109,0.012224648381024085,0.0003069167026375632,0.027782847520306755,1.1117433735037994,0.5489459791872592,0.44000703571111527,-4.404301006323262,10.2
,,0.015251282436645109,0.012224648381024085,0.0003069167026375632,0.027782847520306755,1.111704134662331,0.5489459791872592,0.44000703571111527,-4.404301006323262,10.3
,,0.015251282436645109,0.012224648381024085,0.0003069167026375632,0.027782847520306755,1.1119282104845551,0.5489459791872592,0.44000703571111527,-4.404301006323262,10.4
,,0.015251282436645109,0.012224648381024085,0.0003069167026375632,0.027782847520306755,1.112152286306779,0.5489459791872592,0.44000703571111527,-4.404301006323262,10.5
,,0.01480607577222555,0.011994080101447542,0.0003254930152679397,0.02712564888894103,1.1122304074950808,0.5458330539057409,0.4421674906489503,-4.423342075798262,10.6
,,0.015939009157333952,0.011863665406852368,0.00027819220801031223,0.028080866772196636,1.113520374153525,0.5676110102525556,0.42248216563595514,-4.434274876933583,10.7
,,0.015939009157333952,0.011863665406852368,0.00027819220801031223,0.028080866772196636,1.1148103408119692,0.5676110102525556,0.42248216563595514,-4.434274876933583,10.8
,,0.015939009157333952,0.011863665406852368,0.00027819220801031223,0.028080866772196636,1.1161003074704134,0.5676110102525556,0.42248216563595514,-4.434274876933583,10.9
,,0.015939009157333952,0.011863665406852368,0.00027819220801031223,0.028080866772196636,1.1173902741288577,0.5676110102525556,0.42248216563595514,-4.434274876933583,11.0
,,0.015939009157333952,0.011863665406852368,0.00027819220801031223,0.028080866772196636,1.1194829805576019,0.5676110102525556,0.42248216563595514,-4.434274876933583,11.1
,,0.015939009157333952,0.011863665406852368,0.00027819220801031223,0.028080866772196636,1.1218377406753273,0.5676110102525556,0.42248216563595514,-4.434274876933583,11.2
,,0.01545561231104375,0.011631548339314863,0.0002946731754779377,0.02738183382583655,1.1240286321457549,0.5644476702820529,0.42479069931173624,-4.454034188095905,11.3
,,0.015939009157333952,0.011863665406852368,0.00027819220801031223,0.028080866772196636,1.1263833922634805,0.5676110102525556,0.42248216563595514,-4.434274876933583,11.4
,,0.015307710164613863,0.011543429694204339,0.00029291998339432625,0.027144059842212527,1.1285446246892321,0.563943280909232,0.4252654083915926,-4.461638861519877,11.5
,,0.016417695275841495,0.011429053961199325,0.00025146838566528115,0.028098217622706104,1.1319324177136225,0.5842966801771224,0.40675369927961313,-4.4715965726499345,11.6
,,0.016417695275841495,0.011429053961199325,0.00025146838566528115,0.028098217622706104,1.135320210738013,0.5842966801771224,0.40675369927961313,-4.4715965726499345,11.7
,,0.016417695275841495,0.011429053961199325,0.00025146838566528115,0.028098217622706104,1.1387080037624033,0.5842966801771224,0.40675369927961313,-4.4715965726499345,11.8
,,0.016417695275841495,0.011429053961199325,0.00025146838566528115,0.028098217622706104,1.1427508516651055,0.5842966801771224,0.40675369927961313,-4.4715965726499345,11.9
,,0.016417695275841495,0.011429053961199325,0.00025146838566528115,0.028098217622706104,1.1470363414244003,0.5842966801771224,0.40675369927961313,-4.4715965726499345,12.0
,,0.016417695275841495,0.011429053961199325,0.00025146838566528115,0.028098217622706104,1.151321831183695,0.5842966801771224,0.40675369927961313,-4.4715965726499345,12.1
,,0.016417695275841495,0.011429053961199325,0.00025146838566528115,0.028098217622706104,1.1556073209429898,0.5842966801771224,0.40675369927961313,-4.4715965726499345,12.2
,,0.015641323863029417,0.011038254446589766,0.0002647712267123216,0.026944349536331506,1.1596763989463506,0.5805047860568615,0.40966861833891693,-4.506388362356105,12.3
,,0.015641323863029417,0.011038254446589766,0.0002647712267123216,0.026944349536331506,1.1637454769497115,0.5805047860568615,0.40966861833891693,-4.506388362356105,12.4
,,0.01669521319169754,0.01094417203538094,0.0002287684319235461,0.027868153659002026,1.1690198693243508,0.5990785538210429,0.39271249072669484,-4.514948198618318,12.5
,,0.01669521319169754,0.01094417203538094,0.0002287684319235461,0.027868153659002026,1.1742942616989902,0.5990785538210429,0.39271249072669484,-4.514948198618318,12.6
,,0.01669521319169754,0.01094417203538094,0.0002287684319235461,0.027868153659002026,1.1764487742205594,0.5990785538210429,0.39271249072669484,-4.514948198618318,12.7
,,0.01669521319169754,0.01094417203538094,0.0002287684319235461,0.027868153659002026,1.1786032867421288,0.5990785538210429,0.39271249072669484,-4.514948198618318,12.8
,,0.01669521319169754,0.01094417203538094,0.0002287684319235461,0.027868153659002026,1.1807577992636982,0.5990785538210429,0.39271249072669484,-4.514948198618318,12.9
,,0.01603835205439013,0.010625953595037738,0.00024368929788516348,0.02690799494731303,1.1827330625844954,0.5960441157282023,0.3948994942151504,-4.544455818077759,13.0
,,0.01669521319169754,0.01094417203538094,0.0002287684319235461,0.027868153659002026,1.1848875751060646,0.5990785538210429,0.39271249072669484,-4.514948198618318,13.1
,,0.01579639085469416,0.010487286265267251,0.00024195875173625947,0.02652563587169767,1.1868282327525927,0.5955141256971184,0.3953641796182906,-4.557591587347166,13.2
,,0.01579639085469416,0.010487286265267251,0.00024195875173625947,0.02652563587169767,1.1887688903991207,0.5955141256971184,0.3953641796182906,-4.557591587347166,13.3
,,0.016816876642519338,0.01043100180518193,0.0002116979681798418,0.02745957641588111,1.1918868758967007,0.6124230173045707,0.37986754228114067,-4.562972964228982,13.4
,,0.016816876642519338,0.01043100180518193,0.0002116979681798418,0.02745957641588111,1.1991736098543306,0.6124230173045707,0.37986754228114067,-4.562972964228982,13.5
,,0.016816876642519338,0.01043100180518193,0.0002116979681798418,0.02745957641588111,1.206460343811961,0.6124230173045707,0.37986754228114067,-4.562972964228982,13.6
,,0.016816876642519338,0.01043100180518193,0.0002116979681798418,0.02745957641588111,1.213747077769591,0.6124230173045707,0.37986754228114067,-4.562972964228982,13.7
,,0.016816876642519338,0.01043100180518193,0.0002116979681798418,0.02745957641588111,1.221033811727221,0.6124230173045707,0.37986754228114067,-4.562972964228982,13.8
,,0.016816876642519338,0.01043100180518193,0.0002116979681798418,0.02745957641588111,1.2283205456848512,0.6124230173045707,0.37986754228114067,-4.562972964228982,13.9
,,0.01583753362893345,0.009934990227866114,0.00022564807614204393,0.02599817193294161,1.235406337309783,0.6091787403277429,0.38214187726321425,-4.611692386585673,14.0
,,0.01583753362893345,0.009934990227866114,0.00022564807614204393,0.02599817193294161,1.2424921289347148,0.6091787403277429,0.38214187726321425,-4.611692386585673,14.1
,,0.01583753362893345,0.009934990227866114,0.00022564807614204393,0.02599817193294161,1.249577920559647,0.6091787403277429,0.38214187726321425,-4.611692386585673,14.2
,,0.01681508990571603,0.009866573353918185,0.0002498647635355943,0.026931528023169806,1.2580453308240993,0.6243644954437648,0.36635772561548485,-4.61860266373811,14.3
,,0.01681508990571603,0.009866573353918185,0.0002498647635355943,0.026931528023169806,1.2665127410885517,0.6243644954437648,0.36635772561548485,-4.61860266373811,14.4
,,0.01681508990571603,0.009866573353918185,0.0002498647635355943,0.026931528023169806,1.2749801513530041,0.6243644954437648,0.36635772561548485,-4.61860266373811,14.5
,,0.01681508990571603,0.009866573353918185,0.0002498647635355943,0.026931528023169806,1.2834475616174568,0.6243644954437648,0.36635772561548485,-4.61860266373811,14.6
,,0.01681508990571603,0.009866573353918185,0.0002498647635355943,0.026931528023169806,1.2919149718819094,0.6243644954437648,0.36635772561548485,-4.61860266373811,14.7
,,0.01681508990571603,0.009866573353918185,0.0002498647635355943,0.026931528023169806,1.3003823821463618,0.6243644954437648,0.36635772561548485,-4.61860266373811,14.8
,,0.015813563441237577,0.009416042938972389,0.00021589029099186547,0.02544549667120183,1.3085740091709903,0.6214680595775015,0.3700475200245975,-4.665340348820839,14.9
,,0.015813563441237577,0.009416042938972389,0.00021589029099186547,0.02544549667120183,1.3136076910019805,0.6214680595775015,0.3700475200245975,-4.665340348820839,15.0
,,0.015813563441237577,0.009416042938972389,0.00021589029099186547,0.02544549667120183,1.3186413728329707,0.6214680595775015,0.3700475200245975,-4.665340348820839,15.1
,,0.015813563441237577,0.009416042938972389,0.00021589029099186547,0.02544549667120183,1.326746045072801,0.6214680595775015,0.3700475200245975,-4.665340348820839,15.2
,,0.016702693057740716,0.009372888080560474,0.00024242650509072135,0.02631800764339191,1.3329196637956797,0.6346488413584199,0.35613972788376624,-4.66993400390996,15.3
,,0.016702693057740716,0.009372888080560474,0.00024242650509072135,0.02631800764339191,1.3421642729273988,0.6346488413584199,0.35613972788376624,-4.66993400390996,15.4
,,0.016702693057740716,0.009372888080560474,0.00024242650509072135,0.02631800764339191,1.351408882059118,0.6346488413584199,0.35613972788376624,-4.66993400390996,15.5
,,0.016702693057740716,0.009372888080560474,0.00024242650509072135,0.02631800764339191,1.3606534911908368,0.6346488413584199,0.35613972788376624,-4.66993400390996,15.6
,,0.022841559268089923,0.013673118957886388,0.0003442234609551104,0.03685890168693142,1.3686501053730258,0.6197026558767094,0.370958393552304,-4.292323493489252,15.7
,,0.022841559268089923,0.013673118957886388,0.0003442234609551104,0.03685890168693142,1.3763299107256541,0.6197026558767094,0.370958393552304,-4.292323493489252,15.8
,,0.022841559268089923,0.013673118957886388,0.0003442234609551104,0.03685890168693142,1.3840097160782823,0.6197026558767094,0.370958393552304,-4.292323493489252,15.9
,,0.022841559268089923,0.013673118957886388,0.0003442234609551104,0.03685890168693142,1.3916895214309108,0.6197026558767094,0.370958393552304,-4.292323493489252,16.0
,,0.022841559268089923,0.013673118957886388,0.0003442234609551104,0.03685890168693142,1.399370540334759,0.6197026558767094,0.370958393552304,-4.292323493489252,16.1
,,0.0162850276481959,0.00879567065088669,0.0002381808900238804,0.025318879189106473,1.4090619735820271,0.6431970201588775,0.3473957352216071,-4.733495650045805,16.2
,,0.0162850276481959,0.00879567065088669,0.0002381808900238804,0.025318879189106473,1.4187534068292953,0.6431970201588775,0.3473957352216071,-4.733495650045805,16.3
,,0.0162850276481959,0.00879567065088669,0.0002381808900238804,0.025318879189106473,1.4284448400765635,0.6431970201588775,0.3473957352216071,-4.733495650045805,16.4
,,0.015732652937287397,0.008576644260147025,0.00021758360246107485,0.024526880799895498,1.4374203985903486,0.6414453213860944,0.3496834485444871,-4.758712553857438,16.5
,,0.015732652937287397,0.008576644260147025,0.00021758360246107485,0.024526880799895498,1.4463992683005744,0.6414453213860944,0.3496834485444871,-4.758712553857438,16.6
,,0.015732652937287397,0.008576644260147025,0.00021758360246107485,0.024526880799895498,1.4553748268143596,0.6414453213860944,0.3496834485444871,-4.758712553857438,16.7
,,0.015732652937287397,0.008576644260147025,0.00021758360246107485,0.024526880799895498,1.4643503853281445,0.6414453213860944,0.3496834485444871,-4.758712553857438,16.8
,,0.015732652937287397,0.008576644260147025,0.00021758360246107485,0.024526880799895498,1.4733259438419297,0.6414453213860944,0.3496834485444871,-4.758712553857438,16.9
,,0.015732652937287397,0.008576644260147025,0.00021758360246107485,0.024526880799895498,1.482301502355715,0.6414453213860944,0.3496834485444871,-4.758712553857438,17.0
,,0.015732652937287397,0.008576644260147025,0.00021758360246107485,0.024526880799895498,1.4912770608695,0.6414453213860944,0.3496834485444871,-4.758712553857438,17.1
,,0.015943070293833204,0.008299198462636315,0.00023924426880780243,0.024481513025277322,1.4992247532001683,0.6512289611092207,0.3389985926959391,-4.7915963396095504,17.2
,,0.015594689480219064,0.0081663893864082,0.00022143595799950188,0.023982514824626766,1.5083595551305062,0.6502524691115983,0.34051430578174535,-4.807728403360681,17.3
,,0.015594689480219064,0.0081663893864082,0.00022143595799950188,0.023982514824626766,1.5174943570608446,0.6502524691115983,0.34051430578174535,-4.807728403360681,17.4
,,0.015594689480219064,0.0081663893864082,0.00022143595799950188,0.023982514824626766,1.5266291589911825,0.6502524691115983,0.34051430578174535,-4.807728403360681,17.5
,,0.015594689480219064,0.0081663893864082,0.00022143595799950188,0.023982514824626766,1.5357639609215208,0.6502524691115983,0.34051430578174535,-4.807728403360681,17.6
,,0.015594689480219064,0.0081663893864082,0.00022143595799950188,0.023982514824626766,1.544898762851859,0.6502524691115983,0.34051430578174535,-4.807728403360681,17.7
,,0.015594689480219064,0.0081663893864082,0.00022143595799950188,0.023982514824626766,1.5540335647821972,0.6502524691115983,0.34051430578174535,-4.807728403360681,17.8
,,0.015594689480219064,0.0081663893864082,0.00022143595799950188,0.023982514824626766,1.5631683667125353,0.6502524691115983,0.34051430578174535,-4.807728403360681,17.9
,,0.01577741776806852,0.007889308103947765,0.0002455080328194583,0.023912233904835743,1.5733598894874625,0.6598052624802182,0.32992769037577535,-4.842246840751877,18.0
,,0.01968057262978675,0.012191282275391572,0.00032151466005154723,0.032193369565229876,1.5765415112866412,0.6113237879592,0.3786892282489946,-4.407034150258888,18.1
,,0.01968057262978675,0.012191282275391572,0.00032151466005154723,0.032193369565229876,1.5797231330858197,0.6113237879592,0.3786892282489946,-4.407034150258888,18.2
,,0.01968057262978675,0.012191282275391572,0.00032151466005154723,0.032193369565229876,1.5829047548849982,0.6113237879592,0.3786892282489946,-4.407034150258888,18.3
,,0.01968057262978675,0.012191282275391572,0.00032151466005154723,0.032193369565229876,1.5860863766841764,0.6113237879592,0.3786892282489946,-4.407034150258888,18.4
,,0.01968057262978675,0.012191282275391572,0.00032151466005154723,0.032193369565229876,1.589267998483355,0.6113237879592,0.3786892282489946,-4.407034150258888,18.5
,,0.01968057262978675,0.012191282275391572,0.00032151466005154723,0.032193369565229876,1.5924496202825336,0.6113237879592,0.3786892282489946,-4.407034150258888,18.6
,,0.01968057262978675,0.012191282275391572,0.00032151466005154723,0.032193369565229876,1.595631242081712,0.6113237879592,0.3786892282489946,-4.407034150258888,18.7
,,0.01968057262978675,0.012191282275391572,0.00032151466005154723,0.032193369565229876,1.6007610257223597,0.6113237879592,0.3786892282489946,-4.407034150258888,18.8
,,0.01619522082118873,0.007732723589488132,0.00021451906033605515,0.02414246347101292,1.610169805427323,0.6708189013368008,0.3202955489100176,-4.862294138273386,18.9
,,0.01619522082118873,0.007732723589488132,0.00021451906033605515,0.02414246347101292,1.6195785851322861,0.6708189013368008,0.3202955489100176,-4.862294138273386,19.0
,,0.01619522082118873,0.007732723589488132,0.00021451906033605515,0.02414246347101292,1.6289873648372497,0.6708189013368008,0.3202955489100176,-4.862294138273386,19.1
,,0.01619522082118873,0.007732723589488132,0.00021451906033605515,0.02414246347101292,1.6383961445422133,0.6708189013368008,0.3202955489100176,-4.862294138273386,19.2
,,0.01619522082118873,0.007732723589488132,0.00021451906033605515,0.02414246347101292,1.6478049242471768,0.6708189013368008,0.3202955489100176,-4.862294138273386,19.3
,,0.01619522082118873,0.007732723589488132,0.00021451906033605515,0.02414246347101292,1.6572137039521402,0.6708189013368008,0.3202955489100176,-4.862294138273386,19.4
,,0.01619522082118873,0.007732723589488132,0.00021451906033605515,0.02414246347101292,1.6666224836571037,0.6708189013368008,0.3202955489100176,-4.862294138273386,19.5
,,0.01619522082118873,0.007732723589488132,0.00021451906033605515,0.02414246347101292,1.6761772179959893,0.6708189013368008,0.3202955489100176,-4.862294138273386,19.6
,,0.016710999601887436,0.00792027299825387,0.00025701259350574876,0.024888285193647056,1.6846926318378883,0.6714403773448023,0.31823297332978107,-4.838329604273363,19.7
,,0.016981972062571075,0.007734042500703971,0.00022494949079732377,0.02494096405407237,1.6941618383212544,0.6808867542471059,0.3100939676564408,-4.8621235905051785,19.8
,,0.016981972062571075,0.007734042500703971,0.00022494949079732377,0.02494096405407237,1.7036310448046208,0.6808867542471059,0.3100939676564408,-4.8621235905051785,19.9
,,0.016981972062571075,0.007734042500703971,0.00022494949079732377,0.02494096405407237,1.713100251287987,0.6808867542471059,0.3100939676564408,-4.8621235905051785,20.0
,,0.016981972062571075,0.007734042500703971,0.00022494949079732377,0.02494096405407237,1.722569457771353,0.6808867542471059,0.3100939676564408,-4.8621235905051785,20.1
,,0.016981972062571075,0.007734042500703971,0.00022494949079732377,0.02494096405407237,1.7320386642547192,0.6808867542471059,0.3100939676564408,-4.8621235905051785,20.2
,,0.016981972062571075,0.007734042500703971,0.00022494949079732377,0.02494096405407237,1.741671739385383,0.6808867542471059,0.3100939676564408,-4.8621235905051785,20.3
,,0.016981972062571075,0.007734042500703971,0.00022494949079732377,0.02494096405407237,1.7511409458687492,0.6808867542471059,0.3100939676564408,-4.8621235905051785,20.4
,,0.016981972062571075,0.007734042500703971,0.00022494949079732377,0.02494096405407237,1.760803680044089,0.6808867542471059,0.3100939676564408,-4.8621235905051785,20.5
,,0.017751386015288435,0.011547270029572594,0.0003437601022611293,0.02964241614712216,1.7619235934377422,0.598850846947975,0.3895522541840323,-4.461306231027982,20.6
,,0.01816654800832962,0.007954596464735193,0.00023850720126406967,0.026359651674328882,1.7713379520568897,0.6891801239551903,0.3017716835948181,-4.834005345727933,20.7
,,0.01816654800832962,0.007954596464735193,0.00023850720126406967,0.026359651674328882,1.7807523106760372,0.6891801239551903,0.3017716835948181,-4.834005345727933,20.8
,,0.01816654800832962,0.007954596464735193,0.00023850720126406967,0.026359651674328882,1.7901666692951848,0.6891801239551903,0.3017716835948181,-4.834005345727933,20.9
,,0.01816654800832962,0.007954596464735193,0.00023850720126406967,0.026359651674328882,1.799581027914332,0.6891801239551903,0.3017716835948181,-4.834005345727933,21.0
,,0.01816654800832962,0.007954596464735193,0.00023850720126406967,0.026359651674328882,1.8089953865334798,0.6891801239551903,0.3017716835948181,-4.834005345727933,21.1
,,0.01816654800832962,0.007954596464735193,0.00023850720126406967,0.026359651674328882,1.818409745152627,0.6891801239551903,0.3017716835948181,-4.834005345727933,21.2
,,0.018400719590151944,0.0120563348035472,0.0003569691126322049,0.030814023506331348,1.8196232750454449,0.597154071306889,0.3912612970217923,-4.418165047344536,21.3
,,0.01816654800832962,0.007954596464735193,0.00023850720126406967,0.026359651674328882,1.8292540454205264,0.6891801239551903,0.3017716835948181,-4.834005345727933,21.4
,,0.019473013766318492,0.008523503530077609,0.0002973431406530089,0.02829386043704911,1.8376888966247804,0.6882416702960672,0.30124922504094187,-4.764927810215158,21.5
,,0.019317126687472732,0.012468213532617225,0.0003362389263548486,0.032121579146444805,1.8379535741902224,0.6013753744610261,0.3881569295137596,-4.384572790770605,21.6
,,0.019317126687472732,0.012468213532617225,0.0003362389263548486,0.032121579146444805,1.8382182517556638,0.6013753744610261,0.3881569295137596,-4.384572790770605,21.7
,,0.019317126687472732,0.012468213532617225,0.0003362389263548486,0.032121579146444805,1.8384829293211058,0.6013753744610261,0.3881569295137596,-4.384572790770605,21.8
,,0.019317126687472732,0.012468213532617225,0.0003362389263548486,0.032121579146444805,1.8387476068865471,0.6013753744610261,0.3881569295137596,-4.384572790770605,21.9
,,0.019317126687472732,0.012468213532617225,0.0003362389263548486,0.032121579146444805,1.8391915336527613,0.6013753744610261,0.3881569295137596,-4.384572790770605,22.0
,,0.019317126687472732,0.012468213532617225,0.0003362389263548486,0.032121579146444805,1.839456211218203,0.6013753744610261,0.3881569295137596,-4.384572790770605,22.1
,,0.019317126687472732,0.012468213532617225,0.0003362389263548486,0.032121579146444805,1.839934743658686,0.6013753744610261,0.3881569295137596,-4.384572790770605,22.2
,,0.02059605544530574,0.013738886591327586,0.00040349798013881,0.03473844001677214,1.8398554615341118,0.5928894744657996,0.3954952089009836,-4.287525029581448,22.3
,,0.02188059050431948,0.009127772396625825,0.00027693476881535914,0.03128529766976067,1.8485770518916733,0.6993889185676035,0.2917591672924508,-4.696433601371073,22.4
,,0.02188059050431948,0.009127772396625825,0.00027693476881535914,0.03128529766976067,1.8572986422492344,0.6993889185676035,0.2917591672924508,-4.696433601371073,22.5
,,0.02188059050431948,0.009127772396625825,0.00027693476881535914,0.03128529766976067,1.8660202326067958,0.6993889185676035,0.2917591672924508,-4.696433601371073,22.6
,,0.02188059050431948,0.009127772396625825,0.00027693476881535914,0.03128529766976067,1.8747418229643567,0.6993889185676035,0.2917591672924508,-4.696433601371073,22.7
,,0.02188059050431948,0.009127772396625825,0.00027693476881535914,0.03128529766976067,1.8834634133219181,0.6993889185676035,0.2917591672924508,-4.696433601371073,22.8
,,0.02188059050431948,0.009127772396625825,0.00027693476881535914,0.03128529766976067,1.8921850036794796,0.6993889185676035,0.2917591672924508,-4.696433601371073,22.9
,,0.022873250709862833,0.009641865805634331,0.00033825687995441163,0.03285337339545157,1.900831314999427,0.6962222854420651,0.29348175877029453,-4.641640640785423,23.0
,,0.023045780790694435,0.009733996489860772,0.0003406799557520747,0.033120457236307285,1.9094250840869202,0.6958171086307108,0.2938968028252393,-4.632130728176983,23.1
,,0.023045780790694435,0.009733996489860772,0.0003406799557520747,0.033120457236307285,1.9180188531744133,0.6958171086307108,0.2938968028252393,-4.632130728176983,23.2
,,0.016036625226467413,0.009789367157557374,0.00029341600541043573,0.026119408389435224,1.9172846255312432,0.6139735244904668,0.3747928364838836,-4.626458466249475,23.3
,,0.016036625226467413,0.009789367157557374,0.00029341600541043573,0.026119408389435224,1.9165503978880736,0.6139735244904668,0.3747928364838836,-4.626458466249475,23.4
,,0.016036625226467413,0.009789367157557374,0.00029341600541043573,0.026119408389435224,1.9158161702449035,0.6139735244904668,0.3747928364838836,-4.626458466249475,23.5
,,0.016036625226467413,0.009789367157557374,0.00029341600541043573,0.026119408389435224,1.9150819426017338,0.6139735244904668,0.3747928364838836,-4.626458466249475,23.6
,,0.016036625226467413,0.009789367157557374,0.00029341600541043573,0.026119408389435224,1.9143477149585644,0.6139735244904668,0.3747928364838836,-4.626458466249475,23.7
,,0.016036625226467413,0.009789367157557374,0.00029341600541043573,0.026119408389435224,1.9136134873153945,0.6139735244904668,0.3747928364838836,-4.626458466249475,23.8
,,0.016036625226467413,0.009789367157557374,0.00029341600541043573,0.026119408389435224,1.9131550429120487,0.6139735244904668,0.3747928364838836,-4.626458466249475,23.9
,,0.024597199266070374,0.010408967273164978,0.0003589217163980307,0.035365088255633385,1.9207511547774239,0.6955220665157602,0.2943288928879432,-4.565087606543961,24.0
,,0.02496526088562027,0.010442950698074022,0.0003068215067494356,0.03571503309044373,1.9286534339870154,0.6990126768859196,0.2923965007012199,-4.561828102545949,24.1
,,0.02496526088562027,0.010442950698074022,0.0003068215067494356,0.03571503309044373,1.9365557131966067,0.6990126768859196,0.2923965007012199,-4.561828102545949,24.2
,,0.02496526088562027,0.010442950698074022,0.0003068215067494356,0.03571503309044373,1.9433180555143097,0.6990126768859196,0.2923965007012199,-4.561828102545949,24.3
,,0.02496526088562027,0.010442950698074022,0.0003068215067494356,0.03571503309044373,1.950080397832013,0.6990126768859196,0.2923965007012199,-4.561828102545949,24.4
,,0.02496526088562027,0.010442950698074022,0.0003068215067494356,0.03571503309044373,1.9568427401497162,0.6990126768859196,0.2923965007012199,-4.561828102545949,24.5
,,0.02496526088562027,0.010442950698074022,0.0003068215067494356,0.03571503309044373,1.963605082467419,0.6990126768859196,0.2923965007012199,-4.561828102545949,24.6
,,0.02496526088562027,0.010442950698074022,0.0003068215067494356,0.03571503309044373,1.9716060594765443,0.6990126768859196,0.2923965007012199,-4.561828102545949,24.7
,,0.02496526088562027,0.010442950698074022,0.0003068215067494356,0.03571503309044373,1.9796070364856693,0.6990126768859196,0.2923965007012199,-4.561828102545949,24.8
,,0.01970076850514173,0.014140956419519792,0.0003787539832019083,0.034220478907863436,1.9765251026754638,0.5757011337621796,0.41323081589809013,-4.25867998151403,24.9
,,0.019400158890888503,0.013852852592785616,0.00032994656479663515,0.03358295804847076,1.973523993167966,0.5776786804452418,0.4124964981581312,-4.279264104178312,25.0
,,0.019400158890888503,0.013852852592785616,0.00032994656479663515,0.03358295804847076,1.9705228836604682,0.5776786804452418,0.4124964981581312,-4.279264104178312,25.1
,,0.019400158890888503,0.013852852592785616,0.00032994656479663515,0.03358295804847076,1.9655113598095502,0.5776786804452418,0.4124964981581312,-4.279264104178312,25.2
,,0.019400158890888503,0.013852852592785616,0.00032994656479663515,0.03358295804847076,1.9604998359586328,0.5776786804452418,0.4124964981581312,-4.279264104178312,25.3
,,0.019400158890888503,0.013852852592785616,0.00032994656479663515,0.03358295804847076,1.9554883121077147,0.5776786804452418,0.4124964981581312,-4.279264104178312,25.4
,,0.019400158890888503,0.013852852592785616,0.00032994656479663515,0.03358295804847076,1.9506670352198079,0.5776786804452418,0.4124964981581312,-4.279264104178312,25.5
,,0.019400158890888503,0.013852852592785616,0.00032994656479663515,0.03358295804847076,1.9458457583319009,0.5776786804452418,0.4124964981581312,-4.279264104178312,25.6
,,0.019400158890888503,0.013852852592785616,0.00032994656479663515,0.03358295804847076,1.9410244814439939,0.5776786804452418,0.4124964981581312,-4.279264104178312,25.7
,,0.026006394558468676,0.011393261352940885,0.0003223467704800713,0.03772200268188963,1.9460050590049396,0.6894224248320296,0.30203225022331065,-4.474733207746871,25.8
,,0.026006394558468676,0.011393261352940885,0.0003223467704800713,0.03772200268188963,1.9509856365658853,0.6894224248320296,0.30203225022331065,-4.474733207746871,25.9
,,0.026006394558468676,0.011393261352940885,0.0003223467704800713,0.03772200268188963,1.955966214126831,0.6894224248320296,0.30203225022331065,-4.474733207746871,26.0
,,0.026006394558468676,0.011393261352940885,0.0003223467704800713,0.03772200268188963,1.9609467916877763,0.6894224248320296,0.30203225022331065,-4.474733207746871,26.1
,,0.026006394558468676,0.011393261352940885,0.0003223467704800713,0.03772200268188963,1.964964287190539,0.6894224248320296,0.30203225022331065,-4.474733207746871,26.2
,,0.026006394558468676,0.011393261352940885,0.0003223467704800713,0.03772200268188963,1.9691086572277108,0.6894224248320296,0.30203225022331065,-4.474733207746871,26.3
,,0.026006394558468676,0.011393261352940885,0.0003223467704800713,0.03772200268188963,1.9732530272648818,0.6894224248320296,0.30203225022331065,-4.474733207746871,26.4
,,0.017339173427978784,0.013266483530475883,0.0003327609145075017,0.030938417872962167,1.966557163519123,0.5604415034788158,0.4288029072769679,-4.322514459690621,26.5
,,0.025715283526905705,0.011162544097088486,0.00040433703045783515,0.03728216465445203,1.9709359752675653,0.689747598221471,0.2994070811217105,-4.495191382320269,26.6
,,0.025420703168558195,0.01155748522029766,0.00038142178152052777,0.03735961017037638,1.9741568930192932,0.6804327735923507,0.30935775741744637,-4.4604219809002315,26.7
,,0.025420703168558195,0.01155748522029766,0.00038142178152052777,0.03735961017037638,1.977377810771021,0.6804327735923507,0.30935775741744637,-4.4604219809002315,26.8
,,0.025420703168558195,0.01155748522029766,0.00038142178152052777,0.03735961017037638,1.9805987285227489,0.6804327735923507,0.30935775741744637,-4.4604219809002315,26.9
,,0.025420703168558195,0.01155748522029766,0.00038142178152052777,0.03735961017037638,1.982817096912473,0.6804327735923507,0.30935775741744637,-4.4604219809002315,27.0
,,0.025420703168558195,0.01155748522029766,0.00038142178152052777,0.03735961017037638,1.9893191638005854,0.6804327735923507,0.30935775741744637,-4.4604219809002315,27.1
,,0.025420703168558195,0.01155748522029766,0.00038142178152052777,0.03735961017037638,1.9958212306886982,0.6804327735923507,0.30935775741744637,-4.4604219809002315,27.2
,,0.025420703168558195,0.01155748522029766,0.00038142178152052777,0.03735961017037638,2.002323297576811,0.6804327735923507,0.30935775741744637,-4.4604219809002315,27.3
,,0.02485840565945643,0.011740510173453263,0.00038062652259401376,0.03697954235550371,2.007912228751463,0.6722204785683814,0.3174866270811464,-4.444710009525242,27.4
,,0.024139606413629895,0.011503948416300485,0.0003769844977226488,0.036020539327653034,2.0132906790191374,0.6701622703105358,0.3193719092226052,-4.465064961992942,27.5
,,0.024161863549377705,0.011504195492561473,0.00037708946855993786,0.03604314851049911,2.018690125179549,0.670359403877814,0.31917842829991344,-4.465043484705424,27.6
,,0.024139606413629895,0.011503948416300485,0.0003769844977226488,0.036020539327653034,2.024068575447223,0.6701622703105358,0.3193719092226052,-4.465064961992942,27.7
,,0.024139606413629895,0.011503948416300485,0.0003769844977226488,0.036020539327653034,2.029447025714897,0.6701622703105358,0.3193719092226052,-4.465064961992942,27.8
,,0.024139606413629895,0.011503948416300485,0.0003769844977226488,0.036020539327653034,2.0294914816037064,0.6701622703105358,0.3193719092226052,-4.465064961992942,27.9
,,0.024139606413629895,0.011503948416300485,0.0003769844977226488,0.036020539327653034,2.0295359374925157,0.6701622703105358,0.3193719092226052,-4.465064961992942,28.0
,,0.024139606413629895,0.011503948416300485,0.0003769844977226488,0.036020539327653034,2.029580393381325,0.6701622703105358,0.3193719092226052,-4.465064961992942,28.1
,,0.024139606413629895,0.011503948416300485,0.0003769844977226488,0.036020539327653034,2.029624849270134,0.6701622703105358,0.3193719092226052,-4.465064961992942,28.2
,,0.02339803143088962,0.01108318338806285,0.0003931774460736801,0.03487439226502615,2.0298110094820325,0.6709229870753727,0.3178029111973269,-4.502326329536485,28.3
,,0.014685919323470157,0.011244489170028118,0.00036744489876542447,0.0262978533922637,2.021051899499271,0.5584455546394695,0.4275820160034819,-4.4878771219012314,28.4
,,0.014685919323470157,0.011244489170028118,0.00036744489876542447,0.0262978533922637,2.012292789516509,0.5584455546394695,0.4275820160034819,-4.4878771219012314,28.5
,,0.014685919323470157,0.011244489170028118,0.00036744489876542447,0.0262978533922637,2.0035336795337475,0.5584455546394695,0.4275820160034819,-4.4878771219012314,28.6
,,0.014685919323470157,0.011244489170028118,0.00036744489876542447,0.0262978533922637,1.9946020445778294,0.5584455546394695,0.4275820160034819,-4.4878771219012314,28.7
,,0.014685919323470157,0.011244489170028118,0.00036744489876542447,0.0262978533922637,1.9847166169804444,0.5584455546394695,0.4275820160034819,-4.4878771219012314,28.8
,,0.014685919323470157,0.011244489170028118,0.00036744489876542447,0.0262978533922637,1.9748311893830595,0.5584455546394695,0.4275820160034819,-4.4878771219012314,28.9
,,0.014685919323470157,0.011244489170028118,0.00036744489876542447,0.0262978533922637,1.964945761785675,0.5584455546394695,0.4275820160034819,-4.4878771219012314,29.0
,,0.012014410228022762,0.010108043008340475,0.00029438869294024135,0.022416841929303478,1.953755269935303,0.5359546302691918,0.45091289130817125,-4.594423834583912,29.1
,,0.02023478228457149,0.010849934813299272,0.00035473672439746646,0.03143945382226823,1.9500799898194678,0.6436111262925124,0.34510570300093374,-4.523596207004567,29.2
,,0.02023478228457149,0.010849934813299272,0.00035473672439746646,0.03143945382226823,1.9464047097036326,0.6436111262925124,0.34510570300093374,-4.523596207004567,29.3
,,0.02023478228457149,0.010849934813299272,0.00035473672439746646,0.03143945382226823,1.9427294295877977,0.6436111262925124,0.34510570300093374,-4.523596207004567,29.4
,,0.02023478228457149,0.010849934813299272,0.00035473672439746646,0.03143945382226823,1.9390541494719629,0.6436111262925124,0.34510570300093374,-4.523596207004567,29.5
,,0.02023478228457149,0.010849934813299272,0.00035473672439746646,0.03143945382226823,1.9426951295391754,0.6436111262925124,0.34510570300093374,-4.523596207004567,29.6
,,0.02023478228457149,0.010849934813299272,0.00035473672439746646,0.03143945382226823,1.9380416643808938,0.6436111262925124,0.34510570300093374,-4.523596207004567,29.7
,,0.012945352367783321,0.01030521028589696,0.0003625133058768167,0.023613075959557094,1.9266240523306568,0.5482281253808381,0.43641964746765893,-4.57510565864734,29.8
,,0.012945352367783321,0.01030521028589696,0.0003625133058768167,0.023613075959557094,1.9152064402804196,0.5482281253808381,0.43641964746765893,-4.57510565864734,29.9
,,0.00580792167165467,0.008882718085461051,0.00024355540763167793,0.014934195164747399,1.897096052900906,0.38890088200832124,0.5947905452868973,-4.723647678109188,30.0
,,0.00580792167165467,0.008882718085461051,0.00024355540763167793,0.014934195164747399,1.8789856655213921,0.38890088200832124,0.5947905452868973,-4.723647678109188,30.1
,,0.00580792167165467,0.008882718085461051,0.00024355540763167793,0.014934195164747399,1.8608752781418783,0.38890088200832124,0.5947905452868973,-4.723647678109188,30.2
,,0.00580792167165467,0.008882718085461051,0.00024355540763167793,0.014934195164747399,1.851182131244628,0.38890088200832124,0.5947905452868973,-4.723647678109188,30.3
,,0.00580792167165467,0.008882718085461051,0.00024355540763167793,0.014934195164747399,1.8330717438651138,0.38890088200832124,0.5947905452868973,-4.723647678109188,30.4
,,0.00580792167165467,0.008882718085461051,0.00024355540763167793,0.014934195164747399,1.8149519612851486,0.38890088200832124,0.5947905452868973,-4.723647678109188,30.5
,,0.01714461933466618,0.009923396001969887,0.0002869021600711506,0.027354917496707216,1.816934037723597,0.6267472507175327,0.3627646109027524,-4.612860077361695,30.6
,,0.01616683906126583,0.009975888341744623,0.0003265814720868625,0.026469308875097318,1.8177260545978884,0.6107767731130982,0.376885108289702,-4.6075842633550295,30.7
,,0.01714461933466618,0.009923396001969887,0.0002869021600711506,0.027354917496707216,1.8197081310363368,0.6267472507175327,0.3627646109027524,-4.612860077361695,30.8
,,0.008534244300641479,0.007987299783137627,0.00023532853999983994,0.016756872623778948,1.8143655407177897,0.5092981543901518,0.4766581427493337,-4.829902525866498,30.9
,,0.008534244300641479,0.007987299783137627,0.00023532853999983994,0.016756872623778948,1.8090229503992419,0.5092981543901518,0.4766581427493337,-4.829902525866498,31.0
,,0.008534244300641479,0.007987299783137627,0.00023532853999983994,0.016756872623778948,1.8036803600806945,0.5092981543901518,0.4766581427493337,-4.829902525866498,31.1
,,0.008534244300641479,0.007987299783137627,0.00023532853999983994,0.016756872623778948,1.7983377697621472,0.5092981543901518,0.4766581427493337,-4.829902525866498,31.2
,,0.008534244300641479,0.007987299783137627,0.00023532853999983994,0.016756872623778948,1.793552994008657,0.5092981543901518,0.4766581427493337,-4.829902525866498,31.3
,,0.015082467810093144,0.009471091889694206,0.00027184441736710066,0.024825404117154448,1.7846122095913584,0.6075416834673439,0.38150806508521834,-4.659511078568555,31.4
,,0.015082467810093144,0.009471091889694206,0.00027184441736710066,0.024825404117154448,1.7756714251740595,0.6075416834673439,0.38150806508521834,-4.659511078568555,31.5
,,0.014157498437693431,0.009552190804438062,0.0003079915858341819,0.024017680827965675,1.765504491222577,0.5894615112550227,0.39771495311552707,-4.650984747192402,31.6
,,0.015082467810093144,0.009471091889694206,0.00027184441736710066,0.024825404117154448,1.7565637068052788,0.6075416834673439,0.38150806508521834,-4.659511078568555,31.7
,,0.013960733245436122,0.009530842185306634,0.00030567293921494036,0.023797248369957696,1.7462042703777,0.5866532562252255,0.4005018579096999,-4.653222193205217,31.8
,,0.013960733245436122,0.009530842185306634,0.00030567293921494036,0.023797248369957696,1.7358448339501216,0.5866532562252255,0.4005018579096999,-4.653222193205217,31.9
,,0.013960733245436122,0.009530842185306634,0.00030567293921494036,0.023797248369957696,1.725761618892855,0.5866532562252255,0.4005018579096999,-4.653222193205217,32.0
,,0.013329226497459448,0.009101363962873414,0.00025498602106062814,0.02268557648139349,1.7157280050583734,0.5875639311344794,0.4011960626320549,-4.699330990661076,32.1
,,0.013329226497459448,0.009101363962873414,0.00025498602106062814,0.02268557648139349,1.7056943912238918,0.5875639311344794,0.4011960626320549,-4.699330990661076,32.2
,,0.013329226497459448,0.009101363962873414,0.00025498602106062814,0.02268557648139349,1.7037650905239585,0.5875639311344794,0.4011960626320549,-4.699330990661076,32.3
,,0.013329226497459448,0.009101363962873414,0.00025498602106062814,0.02268557648139349,1.701835789824025,0.5875639311344794,0.4011960626320549,-4.699330990661076,32.4
,,0.013329226497459448,0.009101363962873414,0.00025498602106062814,0.02268557648139349,1.6999064891240916,0.5875639311344794,0.4011960626320549,-4.699330990661076,32.5
,,0.007143045847341026,0.006598417585023938,0.00022358273497256176,0.013965046167337526,1.693732839217548,0.5114946103112574,0.4724952217098144,-5.0209254185416015,32.6
,,0.012462182115623433,0.009201905290827901,0.00028882786548071695,0.021952915271932053,1.6905788039456262,0.5676777758786772,0.4191655266211052,-4.688344719539611,32.7
,,0.012462182115623433,0.009201905290827901,0.00028882786548071695,0.021952915271932053,1.687424768673705,0.5676777758786772,0.4191655266211052,-4.688344719539611,32.8
,,0.01216679921114304,0.008889912919479766,0.00024074412520408545,0.02129745625582689,1.6844296523195323,0.5712794553957239,0.4174166535521126,-4.722838024838408,32.9
,,0.01216679921114304,0.008889912919479766,0.00024074412520408545,0.02129745625582689,1.6733799796966389,0.5712794553957239,0.4174166535521126,-4.722838024838408,33.0
,,0.01216679921114304,0.008889912919479766,0.00024074412520408545,0.02129745625582689,1.662024139729529,0.5712794553957239,0.4174166535521126,-4.722838024838408,33.1
,,0.01216679921114304,0.008889912919479766,0.00024074412520408545,0.02129745625582689,1.6506682997624191,0.5712794553957239,0.4174166535521126,-4.722838024838408,33.2
,,0.01216679921114304,0.008889912919479766,0.00024074412520408545,0.02129745625582689,1.639312459795309,0.5712794553957239,0.4174166535521126,-4.722838024838408,33.3
,,0.01216679921114304,0.008889912919479766,0.00024074412520408545,0.02129745625582689,1.6279566198281992,0.5712794553957239,0.4174166535521126,-4.722838024838408,33.4
,,0.01216679921114304,0.008889912919479766,0.00024074412520408545,0.02129745625582689,1.616600779861089,0.5712794553957239,0.4174166535521126,-4.722838024838408,33.5
,,0.01176598976379222,0.009105625903554545,0.00028066936404432576,0.02115228503139109,1.6043956044182652,0.5562514757309142,0.4304795387373668,-4.698862825325648,33.6
,,0.011808970637936532,0.008901608049955937,0.00023330905244656647,0.020943887740339034,1.5925731388814504,0.5638385186333782,0.4250217610177011,-4.721523338794337,33.7
,,0.011808970637936532,0.008901608049955937,0.00023330905244656647,0.020943887740339034,1.5807506733446357,0.5638385186333782,0.4250217610177011,-4.721523338794337,33.8
,,0.011808970637936532,0.008901608049955937,0.00023330905244656647,0.020943887740339034,1.5800111186271515,0.5638385186333782,0.4250217610177011,-4.721523338794337,33.9
,,0.011808970637936532,0.008901608049955937,0.00023330905244656647,0.020943887740339034,1.5791907396069598,0.5638385186333782,0.4250217610177011,-4.721523338794337,34.0
,,0.011808970637936532,0.008901608049955937,0.00023330905244656647,0.020943887740339034,1.578370360586768,0.5638385186333782,0.4250217610177011,-4.721523338794337,34.1
,,0.011808970637936532,0.008901608049955937,0.00023330905244656647,0.020943887740339034,1.5775499815665766,0.5638385186333782,0.4250217610177011,-4.721523338794337,34.2
,,0.01185096150995748,0.009245314720798675,0.00028060120897531666,0.021376877439731472,1.5762320842889255,0.5543822545350359,0.4324913564604696,-4.683638372451119,34.3
,,0.011808970637936532,0.008901608049955937,0.00023330905244656647,0.020943887740339034,1.575411705268734,0.5638385186333782,0.4250217610177011,-4.721523338794337,34.4
,,0.012259441819568813,0.009188873675909199,0.00023408979271153312,0.021682405288189543,1.5746752217430169,0.5654096792594574,0.4237940188727308,-4.689761909874328,34.5
,,0.012259441819568813,0.009188873675909199,0.00023408979271153312,0.021682405288189543,1.5739387382173005,0.5654096792594574,0.4237940188727308,-4.689761909874328,34.6
,,0.012259441819568813,0.009188873675909199,0.00023408979271153312,0.021682405288189543,1.5732022546915838,0.5654096792594574,0.4237940188727308,-4.689761909874328,34.7
,,0.012259441819568813,0.009188873675909199,0.00023408979271153312,0.021682405288189543,1.5626639167170142,0.5654096792594574,0.4237940188727308,-4.689761909874328,34.8
,,0.012259441819568813,0.009188873675909199,0.00023408979271153312,0.021682405288189543,1.552125578742445,0.5654096792594574,0.4237940188727308,-4.689761909874328,34.9
,,0.012259441819568813,0.009188873675909199,0.00023408979271153312,0.021682405288189543,1.541587240767876,0.5654096792594574,0.4237940188727308,-4.689761909874328,35.0
,,0.012259441819568813,0.009188873675909199,0.00023408979271153312,0.021682405288189543,1.5310489027933063,0.5654096792594574,0.4237940188727308,-4.689761909874328,35.1
,,0.01254208717209991,0.009593772429327851,0.0002878719775593035,0.022423731578987065,1.5202122752630904,0.5593220346899312,0.42784013871794774,-4.646641096287005,35.2
,,0.012621656400190119,0.008876851005624157,0.00029651788004031666,0.021795025285854596,1.5106483859794042,0.5791072152773241,0.40728794250977124,-4.7243084013531185,35.3
,,0.01307458976582667,0.009459396162640172,0.00027998456384012904,0.022813970492306972,1.5006435883445368,0.5730957603471747,0.41463173478855625,-4.660746728543328,35.4
,,0.01307458976582667,0.009459396162640172,0.00027998456384012904,0.022813970492306972,1.5014790244926,0.5730957603471747,0.41463173478855625,-4.660746728543328,35.5
,,0.01307458976582667,0.009459396162640172,0.00027998456384012904,0.022813970492306972,1.4912397851464612,0.5730957603471747,0.41463173478855625,-4.660746728543328,35.6
,,0.01307458976582667,0.009459396162640172,0.00027998456384012904,0.022813970492306972,1.4821584397970373,0.5730957603471747,0.41463173478855625,-4.660746728543328,35.7
,,0.01307458976582667,0.009459396162640172,0.00027998456384012904,0.022813970492306972,1.4730770944476137,0.5730957603471747,0.41463173478855625,-4.660746728543328,35.8
,,0.01307458976582667,0.009459396162640172,0.00027998456384012904,0.022813970492306972,1.4639957490981894,0.5730957603471747,0.41463173478855625,-4.660746728543328,35.9
,,0.01307458976582667,0.009459396162640172,0.00027998456384012904,0.022813970492306972,1.4549144037487656,0.5730957603471747,0.41463173478855625,-4.660746728543328,36.0
,,0.014606028401956414,0.010001709830001227,0.0002483318173614895,0.02485607004931913,1.446701647042031,0.5876242049919919,0.4023850033475102,-4.604999217603896,36.1
,,0.01393992507722824,0.009373446240917582,0.00030856698355164635,0.023621938301697468,1.438786875583302,0.5901262165360291,0.3968110542496848,-4.669874455163234,36.2
,,0.014691040324202084,0.010072916813040034,0.0002953592986514343,0.025059316435893552,1.430553187700748,0.5862506410254458,0.40196295213432703,-4.5979049604653,36.3
,,0.014691040324202084,0.010072916813040034,0.0002953592986514343,0.025059316435893552,1.4232326355316542,0.5862506410254458,0.40196295213432703,-4.5979049604653,36.4
,,0.014691040324202084,0.010072916813040034,0.0002953592986514343,0.025059316435893552,1.416122564269538,0.5862506410254458,0.40196295213432703,-4.5979049604653,36.5
,,0.014691040324202084,0.010072916813040034,0.0002953592986514343,0.025059316435893552,1.408991497114685,0.5862506410254458,0.40196295213432703,-4.5979049604653,36.6
,,0.014691040324202084,0.010072916813040034,0.0002953592986514343,0.025059316435893552,1.401881425852569,0.5862506410254458,0.40196295213432703,-4.5979049604653,36.7
,,0.014691040324202084,0.010072916813040034,0.0002953592986514343,0.025059316435893552,1.3947713545904528,0.5862506410254458,0.40196295213432703,-4.5979049604653,36.8
,,0.014691040324202084,0.010072916813040034,0.0002953592986514343,0.025059316435893552,1.3876612833283366,0.5862506410254458,0.40196295213432703,-4.5979049604653,36.9
,,0.015827332543989187,0.010121066610698578,0.00033352219964115717,0.026281921354328924,1.3817215621634078,0.6022136787720906,0.3850961455309098,-4.59313622436253,37.0
,,0.0167526470272244,0.01087976117669614,0.0003222039191782937,0.02795461212309883,1.3755151554855367,0.5992802530564081,0.38919378057498494,-4.52085098846657,37.1
,,0.0167526470272244,0.01087976117669614,0.0003222039191782937,0.02795461212309883,1.3693087488076656,0.5992802530564081,0.38919378057498494,-4.52085098846657,37.2
,,0.0167526470272244,0.01087976117669614,0.0003222039191782937,0.02795461212309883,1.362960637806705,0.5992802530564081,0.38919378057498494,-4.52085098846657,37.3
,,0.0167526470272244,0.01087976117669614,0.0003222039191782937,0.02795461212309883,1.3655577970004047,0.5992802530564081,0.38919378057498494,-4.52085098846657,37.4
,,0.0167526470272244,0.01087976117669614,0.0003222039191782937,0.02795461212309883,1.3681549561941047,0.5992802530564081,0.38919378057498494,-4.52085098846657,37.5
,,0.0167526470272244,0.01087976117669614,0.0003222039191782937,0.02795461212309883,1.3707521153878044,0.5992802530564081,0.38919378057498494,-4.52085098846657,37.6
,,0.0167526470272244,0.01087976117669614,0.0003222039191782937,0.02795461212309883,1.3733492745815044,0.5992802530564081,0.38919378057498494,-4.52085098846657,37.7
,,0.019064086304782735,0.011753871208061971,0.0003540136239659761,0.03117197113681068,1.3768591216282786,0.6115778248706941,0.37706538211765306,-4.443572628137573,37.8
,,0.018115599824348322,0.010995592005621852,0.00036761593900031463,0.029478807768970487,1.3806533227158104,0.614529595848068,0.37299988831963066,-4.510260813257841,37.9
,,0.019174863323665838,0.011836299533919174,0.00035896229016554225,0.031370125147750554,1.384141656969939,0.6112459938669006,0.3773111990523224,-4.436584237741818,38.0
,,0.019174863323665838,0.011836299533919174,0.00035896229016554225,0.031370125147750554,1.3889350554770545,0.6112459938669006,0.3773111990523224,-4.436584237741818,38.1
,,0.019174863323665838,0.011836299533919174,0.00035896229016554225,0.031370125147750554,1.3862132422496336,0.6112459938669006,0.3773111990523224,-4.436584237741818,38.2
,,0.019174863323665838,0.011836299533919174,0.00035896229016554225,0.031370125147750554,1.3834914290222124,0.6112459938669006,0.3773111990523224,-4.436584237741818,38.3
,,0.019174863323665838,0.011836299533919174,0.00035896229016554225,0.031370125147750554,1.3807696157947915,0.6112459938669006,0.3773111990523224,-4.436584237741818,38.4
,,0.019174863323665838,0.011836299533919174,0.00035896229016554225,0.031370125147750554,1.3780478025673706,0.6112459938669006,0.3773111990523224,-4.436584237741818,38.5
,,0.013143885379258957,0.012010253246493324,0.00041476145408427917,0.025568900079836563,1.3694858092105424,0.5140575205901846,0.4697211537841832,-4.4219945568100325,38.6
,,0.021546439259405817,0.012721029171118515,0.0003957863639013147,0.03466325479442565,1.3675835571903832,0.6215930785262207,0.36698888337410945,-4.364498814664044,38.7
,,0.012955230771313248,0.008428130935302895,0.0003080399322215866,0.021691401638837732,1.3707051875780658,0.5972518967200966,0.38854708771850904,-4.7761802474106485,38.8
,,0.012955230771313248,0.008428130935302895,0.0003080399322215866,0.021691401638837732,1.3738268179657485,0.5972518967200966,0.38854708771850904,-4.7761802474106485,38.9
,,0.012955230771313248,0.008428130935302895,0.0003080399322215866,0.021691401638837732,1.383641223682708,0.5972518967200966,0.38854708771850904,-4.7761802474106485,39.0
,,0.012955230771313248,0.008428130935302895,0.0003080399322215866,0.021691401638837732,1.3934556293996678,0.5972518967200966,0.38854708771850904,-4.7761802474106485,39.1
,,0.012955230771313248,0.008428130935302895,0.0003080399322215866,0.021691401638837732,1.4032700351166274,0.5972518967200966,0.38854708771850904,-4.7761802474106485,39.2
,,0.012955230771313248,0.008428130935302895,0.0003080399322215866,0.021691401638837732,1.413084440833587,0.5972518967200966,0.38854708771850904,-4.7761802474106485,39.3
,,0.022943164472380866,0.012892219928736787,0.0003434303462129416,0.03617881474733059,1.4255929750570349,0.6341602021131358,0.356347216424165,-4.351131255855746,39.4
,,0.022943164472380866,0.012892219928736787,0.0003434303462129416,0.03617881474733059,1.4381015092804827,0.6341602021131358,0.356347216424165,-4.351131255855746,39.5
,,0.022943164472380866,0.012892219928736787,0.0003434303462129416,0.03617881474733059,1.4386783581243296,0.6341602021131358,0.356347216424165,-4.351131255855746,39.6
,,0.023692873875284307,0.013571844768574062,0.0004482110450761092,0.03771292968893448,1.440068866446825,0.628242729236603,0.35987245967147014,-4.299757869749048,39.7
,,0.023692873875284307,0.013571844768574062,0.0004482110450761092,0.03771292968893448,1.4402693152051635,0.628242729236603,0.35987245967147014,-4.299757869749048,39.8
,,0.023692873875284307,0.013571844768574062,0.0004482110450761092,0.03771292968893448,1.447794430720498,0.628242729236603,0.35987245967147014,-4.299757869749048,39.9
,,0.023692873875284307,0.013571844768574062,0.0004482110450761092,0.03771292968893448,1.455319546235832,0.628242729236603,0.35987245967147014,-4.299757869749048,40.0
,,0.023417561950885388,0.008683818194934391,0.00025180543819300615,0.03235318558401278,1.473410799527086,0.7238100832474778,0.2684068983681616,-4.746293962821543,40.1
,,0.023417561950885388,0.008683818194934391,0.00025180543819300615,0.03235318558401278,1.4915020528183403,0.7238100832474778,0.2684068983681616,-4.746293962821543,40.2
,,0.023417561950885388,0.008683818194934391,0.00025180543819300615,0.03235318558401278,1.5095933061095943,0.7238100832474778,0.2684068983681616,-4.746293962821543,40.3
,,0.02369913279883261,0.00896498877075432,0.00031312616062825744,0.03297724773021519,1.5212716017796795,0.7186510224477719,0.2718537594191103,-4.714428424490876,40.4
,,0.023417561950885388,0.008683818194934391,0.00025180543819300615,0.03235318558401278,1.5335406634015543,0.7238100832474778,0.2684068983681616,-4.746293962821543,40.5
,,0.01695769033776548,0.0140352897896549,0.0004893587412261322,0.031482338868646514,1.5304973020197916,0.5386413763131737,0.44581471053387156,-4.266180421739492,40.6
,,0.01695769033776548,0.0140352897896549,0.0004893587412261322,0.031482338868646514,1.526227791103845,0.5386413763131737,0.44581471053387156,-4.266180421739492,40.7
,,0.01695769033776548,0.0140352897896549,0.0004893587412261322,0.031482338868646514,1.5233769321981783,0.5386413763131737,0.44581471053387156,-4.266180421739492,40.8
,,0.024008963948744647,0.008641558003434394,0.00024357039516656942,0.03289409234734561,1.5379715869876358,0.7298868044517438,0.2627085104578581,-4.751172387951103,40.9
,,0.024008963948744647,0.008641558003434394,0.00024357039516656942,0.03289409234734561,1.5525662417770942,0.7298868044517438,0.2627085104578581,-4.751172387951103,41.0
,,0.024008963948744647,0.008641558003434394,0.00024357039516656942,0.03289409234734561,1.5671638375762216,0.7298868044517438,0.2627085104578581,-4.751172387951103,41.1
,,0.024008963948744647,0.008641558003434394,0.00024357039516656942,0.03289409234734561,1.5817614333753485,0.7298868044517438,0.2627085104578581,-4.751172387951103,41.2
,,0.0255150241847554,0.014103128828735996,0.0005138249780283067,0.0401319779915197,1.5855908119376172,0.6357778874030826,0.35141873225675874,-4.261358603467554,41.3
,,0.024008963948744647,0.008641558003434394,0.00024357039516656942,0.03289409234734561,1.6001884077367445,0.7298868044517438,0.2627085104578581,-4.751172387951103,41.4
,,0.023720465229210383,0.008823429907439282,0.0002991458064122256,0.03284304094306189,1.6137863972669066,0.7222371786563005,0.26865447455782066,-4.730344606162566,41.5
,,0.023720465229210383,0.008823429907439282,0.0002991458064122256,0.03284304094306189,1.6316287360036787,0.7222371786563005,0.26865447455782066,-4.730344606162566,41.6
,,0.02506682745193093,0.01337649011184158,0.0004253806199091877,0.0388686981836817,1.637402536073669,0.6449103937948395,0.34414556537572566,-4.314256582174579,41.7
,,0.02506682745193093,0.01337649011184158,0.0004253806199091877,0.0388686981836817,1.6431763361436595,0.6449103937948395,0.34414556537572566,-4.314256582174579,41.8
,,0.02506682745193093,0.01337649011184158,0.0004253806199091877,0.0388686981836817,1.6487912172959016,0.6449103937948395,0.34414556537572566,-4.314256582174579,41.9
,,0.02506682745193093,0.01337649011184158,0.0004253806199091877,0.0388686981836817,1.654406098448143,0.6449103937948395,0.34414556537572566,-4.314256582174579,42.0
,,0.02506682745193093,0.01337649011184158,0.0004253806199091877,0.0388686981836817,1.6600209796003849,0.6449103937948395,0.34414556537572566,-4.314256582174579,42.1
,,0.022885934831478078,0.008375951002374381,0.0002801291161045418,0.031542014949957,1.6751735510244379,0.7255698428837779,0.26554901504115225,-4.782390655195292,42.2
,,0.02506682745193093,0.01337649011184158,0.0004253806199091877,0.0388686981836817,1.6807884321766795,0.6449103937948395,0.34414556537572566,-4.314256582174579,42.3
,,0.023942231340508394,0.013334174673723926,0.0005176550087279667,0.03779406102296029,1.6855322855893244,0.6334918950880467,0.3528113759890284,-4.31742501499777,42.4
,,0.021910730805925635,0.007660369492783518,0.0002061926699391139,0.02977729296864827,1.7021063245728272,0.7358201038957728,0.2572554026603063,-4.871695059737175,42.5
,,0.021910730805925635,0.007660369492783518,0.0002061926699391139,0.02977729296864827,1.7195296990320446,0.7358201038957728,0.2572554026603063,-4.871695059737175,42.6
,,0.021910730805925635,0.007660369492783518,0.0002061926699391139,0.02977729296864827,1.736570363585252,0.7358201038957728,0.2572554026603063,-4.871695059737175,42.7
,,0.021910730805925635,0.007660369492783518,0.0002061926699391139,0.02977729296864827,1.75361102813846,0.7358201038957728,0.2572554026603063,-4.871695059737175,42.8
,,0.021910730805925635,0.007660369492783518,0.0002061926699391139,0.02977729296864827,1.7706516926916676,0.7358201038957728,0.2572554026603063,-4.871695059737175,42.9
,,0.021910730805925635,0.007660369492783518,0.0002061926699391139,0.02977729296864827,1.7876923572448753,0.7358201038957728,0.2572554026603063,-4.871695059737175,43.0
,,0.021957714769795016,0.012296827836959649,0.0004978548771127056,0.034752397483867374,1.7927926865400305,0.6318330923783932,0.35384113693646707,-4.3984139492997185,43.1
,,0.021910730805925635,0.007660369492783518,0.0002061926699391139,0.02977729296864827,1.8098333510932387,0.7358201038957728,0.2572554026603063,-4.871695059737175,43.2
,,0.020242358633273217,0.011057627050878824,0.00039124821976565627,0.0316912339039177,1.8159310156192934,0.638736841066035,0.3489175298255544,-4.504634858269369,43.3
,,0.020242358633273217,0.011057627050878824,0.00039124821976565627,0.0316912339039177,1.8215311618878893,0.638736841066035,0.3489175298255544,-4.504634858269369,43.4
,,0.020242358633273217,0.011057627050878824,0.00039124821976565627,0.0316912339039177,1.82704741266201,0.638736841066035,0.3489175298255544,-4.504634858269369,43.5
,,0.020242358633273217,0.011057627050878824,0.00039124821976565627,0.0316912339039177,1.8325636634361306,0.638736841066035,0.3489175298255544,-4.504634858269369,43.6
,,0.020242358633273217,0.011057627050878824,0.00039124821976565627,0.0316912339039177,1.8380799142102517,0.638736841066035,0.3489175298255544,-4.504634858269369,43.7
,,0.020242358633273217,0.011057627050878824,0.00039124821976565627,0.0316912339039177,1.8435961649843724,0.638736841066035,0.3489175298255544,-4.504634858269369,43.8
,,0.020242358633273217,0.011057627050878824,0.00039124821976565627,0.0316912339039177,1.849112415758493,0.638736841066035,0.3489175298255544,-4.504634858269369,43.9
,,0.020242358633273217,0.011057627050878824,0.00039124821976565627,0.0316912339039177,1.854628666532614,0.638736841066035,0.3489175298255544,-4.504634858269369,44.0
,,0.020242358633273217,0.011057627050878824,0.00039124821976565627,0.0316912339039177,1.8601449173067346,0.638736841066035,0.3489175298255544,-4.504634858269369,44.1
,,0.015860632386422054,0.005718989920731635,0.00019398994037903364,0.02177361224753272,1.8764339405063775,0.7284336749507102,0.26265691956462955,-5.16396307646848,44.2
,,0.015860632386422054,0.005718989920731635,0.00019398994037903364,0.02177361224753272,1.8914502254594898,0.7284336749507102,0.26265691956462955,-5.16396307646848,44.3
,,0.015860632386422054,0.005718989920731635,0.00019398994037903364,0.02177361224753272,1.9069074187637842,0.7284336749507102,0.26265691956462955,-5.16396307646848,44.4
,,0.015860632386422054,0.005718989920731635,0.00019398994037903364,0.02177361224753272,1.9223646120680782,0.7284336749507102,0.26265691956462955,-5.16396307646848,44.5
,,0.015860632386422054,0.005718989920731635,0.00019398994037903364,0.02177361224753272,1.937821805372372,0.7284336749507102,0.26265691956462955,-5.16396307646848,44.6
,,0.015860632386422054,0.005718989920731635,0.00019398994037903364,0.02177361224753272,1.953278998676666,0.7284336749507102,0.26265691956462955,-5.16396307646848,44.7
,,0.015860632386422054,0.005718989920731635,0.00019398994037903364,0.02177361224753272,1.96873619198096,0.7284336749507102,0.26265691956462955,-5.16396307646848,44.8
,,0.015129874854034194,0.005807479529162288,0.00018227820685776547,0.021119632590054244,1.9823257397244445,0.7163891128086776,0.2749801401326069,-5.148608618222644,44.9
,,0.015792981650555173,0.00856212911047286,0.0004237058150283944,0.024778816576056427,1.9874628013094704,0.6373581886802376,0.3455422935228625,-4.760406391897153,45.0
,,0.014665521341512156,0.008525877626763134,0.0003671472625235738,0.023558546230798862,1.9903490849996928,0.6225138511450014,0.36190168710907017,-4.764649313690383,45.1
,,0.014665521341512156,0.008525877626763134,0.0003671472625235738,0.023558546230798862,1.9929373834419095,0.6225138511450014,0.36190168710907017,-4.764649313690383,45.2
,,0.014665521341512156,0.008525877626763134,0.0003671472625235738,0.023558546230798862,1.9958445983079518,0.6225138511450014,0.36190168710907017,-4.764649313690383,45.3
,,0.014665521341512156,0.008525877626763134,0.0003671472625235738,0.023558546230798862,1.9987518131739939,0.6225138511450014,0.36190168710907017,-4.764649313690383,45.4
,,0.014665521341512156,0.008525877626763134,0.0003671472625235738,0.023558546230798862,2.001659028040036,0.6225138511450014,0.36190168710907017,-4.764649313690383,45.5
,,0.014665521341512156,0.008525877626763134,0.0003671472625235738,0.023558546230798862,2.004566242906078,0.6225138511450014,0.36190168710907017,-4.764649313690383,45.6
,,0.014665521341512156,0.008525877626763134,0.0003671472625235738,0.023558546230798862,2.0074734577721207,0.6225138511450014,0.36190168710907017,-4.764649313690383,45.7
,,0.013494233383356093,0.007592161847641093,0.00038118554648122565,0.02146758077747841,2.0110170218991468,0.6285865893893764,0.3536570760505074,-4.880638899719298,45.8
,,0.013494233383356093,0.007592161847641093,0.00038118554648122565,0.02146758077747841,2.014560586026173,0.6285865893893764,0.3536570760505074,-4.880638899719298,45.9
,,0.012576126715456742,0.0075601348462513976,0.00032645380014919396,0.020462715361857335,2.0156681227604456,0.61458738457061,0.369459024013184,-4.884866252144029,46.0
,,0.012576126715456742,0.0075601348462513976,0.00032645380014919396,0.020462715361857335,2.0170423450076607,0.61458738457061,0.369459024013184,-4.884866252144029,46.1
,,0.012576126715456742,0.0075601348462513976,0.00032645380014919396,0.020462715361857335,2.0184165672548753,0.61458738457061,0.369459024013184,-4.884866252144029,46.2
,,0.012576126715456742,0.0075601348462513976,0.00032645380014919396,0.020462715361857335,2.0197907895020903,0.61458738457061,0.369459024013184,-4.884866252144029,46.3
,,0.012576126715456742,0.0075601348462513976,0.00032645380014919396,0.020462715361857335,2.021165011749305,0.61458738457061,0.369459024013184,-4.884866252144029,46.4
,,0.012576126715456742,0.0075601348462513976,0.00032645380014919396,0.020462715361857335,2.02253923399652,0.61458738457061,0.369459024013184,-4.884866252144029,46.5
,,0.009644953607606277,0.003624202211894803,0.000117041323814371,0.01338619714331545,2.034999938387063,0.7205148336264116,0.27074173292783077,-5.620121094373837,46.6
,,0.011408727736582937,0.0069772192439650224,0.0002531890312410803,0.01863913601178904,2.036059277107659,0.6120845799594492,0.3743316878825291,-4.965104830702642,46.7
,,0.009644953607606277,0.003624202211894803,0.000117041323814371,0.01338619714331545,2.047607293645128,0.7205148336264116,0.27074173292783077,-5.620121094373837,46.8
,,0.00913113698566463,0.0037428137778860136,0.0001139597292922374,0.012987910492842881,2.0564085391555076,0.7030489616244611,0.2881767455934139,-5.587917603398507,46.9
,,0.00913113698566463,0.0037428137778860136,0.0001139597292922374,0.012987910492842881,2.0655156514992914,0.7030489616244611,0.2881767455934139,-5.587917603398507,47.0
,,0.00913113698566463,0.0037428137778860136,0.0001139597292922374,0.012987910492842881,2.0746227638430743,0.7030489616244611,0.2881767455934139,-5.587917603398507,47.1
,,0.00913113698566463,0.0037428137778860136,0.0001139597292922374,0.012987910492842881,2.0837298761868577,0.7030489616244611,0.2881767455934139,-5.587917603398507,47.2
,,0.00913113698566463,0.0037428137778860136,0.0001139597292922374,0.012987910492842881,2.092836988530641,0.7030489616244611,0.2881767455934139,-5.587917603398507,47.3
,,0.00913113698566463,0.0037428137778860136,0.0001139597292922374,0.012987910492842881,2.1019441008744244,0.7030489616244611,0.2881767455934139,-5.587917603398507,47.4
,,0.010791781295824646,0.006418277159448394,0.0003140574060049367,0.01752411586127798,2.1026264245197264,0.6158245803242273,0.3662539788172987,-5.048605552520081,47.5
,,0.010791781295824646,0.006418277159448394,0.0003140574060049367,0.01752411586127798,2.1091489282944353,0.6158245803242273,0.3662539788172987,-5.048605552520081,47.6
,,0.01032853833934421,0.006414971693445532,0.0002652614960756675,0.01700877152886541,2.1082189530185724,0.6072477557721176,0.3771566736938497,-5.049120693481477,47.7
,,0.01032853833934421,0.006414971693445532,0.0002652614960756675,0.01700877152886541,2.109029242226823,0.6072477557721176,0.3771566736938497,-5.049120693481477,47.8
,,0.01032853833934421,0.006414971693445532,0.0002652614960756675,0.01700877152886541,2.109839531435074,0.6072477557721176,0.3771566736938497,-5.049120693481477,47.9
,,0.01032853833934421,0.006414971693445532,0.0002652614960756675,0.01700877152886541,2.1106498206433253,0.6072477557721176,0.3771566736938497,-5.049120693481477,48.0
,,0.01032853833934421,0.006414971693445532,0.0002652614960756675,0.01700877152886541,2.111460109851576,0.6072477557721176,0.3771566736938497,-5.049120693481477,48.1
,,0.01032853833934421,0.006414971693445532,0.0002652614960756675,0.01700877152886541,2.112270399059827,0.6072477557721176,0.3771566736938497,-5.049120693481477,48.2
,,0.01032853833934421,0.006414971693445532,0.0002652614960756675,0.01700877152886541,2.1130806882680777,0.6072477557721176,0.3771566736938497,-5.049120693481477,48.3
,,0.008274206760240778,0.0033987293859645902,9.648428006444555e-05,0.011769420426269812,2.120357208747305,0.7030258466910079,0.28877627469051,-5.684353627217424,48.4
,,0.009895166115697879,0.006086121742335421,0.0002426604365053461,0.016223948294538645,2.118648811299187,0.6099110978447102,0.37513197353964384,-5.1017442240374615,48.5
,,0.009895166115697879,0.006086121742335421,0.0002426604365053461,0.016223948294538645,2.116940413851069,0.6099110978447102,0.37513197353964384,-5.1017442240374615,48.6
,,0.009895166115697879,0.006086121742335421,0.0002426604365053461,0.016223948294538645,2.115608416488459,0.6099110978447102,0.37513197353964384,-5.1017442240374615,48.7
,,0.009895166115697879,0.006086121742335421,0.0002426604365053461,0.016223948294538645,2.11427641912585,0.6099110978447102,0.37513197353964384,-5.1017442240374615,48.8
,,0.009895166115697879,0.006086121742335421,0.0002426604365053461,0.016223948294538645,2.1129444217632405,0.6099110978447102,0.37513197353964384,-5.1017442240374615,48.9
,,0.009895166115697879,0.006086121742335421,0.0002426604365053461,0.016223948294538645,2.111612424400631,0.6099110978447102,0.37513197353964384,-5.1017442240374615,49.0
,,0.009895166115697879,0.006086121742335421,0.0002426604365053461,0.016223948294538645,2.099714289262102,0.6099110978447102,0.37513197353964384,-5.1017442240374615,49.1
,,0.009853014505323316,0.006086427939933942,0.00024084233488168354,0.016180284780138943,2.087738295202728,0.6089518595752866,0.3761632148406276,-5.101693914512082,49.2
,,0.009987863032187926,0.00589774234014675,0.00026690528474495364,0.01615251065707963,2.076591812965872,0.6183474039566881,0.36512852183519695,-5.133185655513683,49.3
,,0.009915888397030401,0.00592737828916058,0.00018892911979201968,0.016032195805983,2.0658070966225512,0.6184984587906495,0.36971718415194016,-5.128173273485531,49.4
,,0.009915888397030401,0.00592737828916058,0.00018892911979201968,0.016032195805983,2.0544316143274406,0.6184984587906495,0.36971718415194016,-5.128173273485531,49.5
,,0.009915888397030401,0.00592737828916058,0.00018892911979201968,0.016032195805983,2.0595947045701517,0.6184984587906495,0.36971718415194016,-5.128173273485531,49.6
,,0.009915888397030401,0.00592737828916058,0.00018892911979201968,0.016032195805983,2.0647577948128624,0.6184984587906495,0.36971718415194016,-5.128173273485531,49.7
,,0.009915888397030401,0.00592737828916058,0.00018892911979201968,0.016032195805983,2.0699208850555735,0.6184984587906495,0.36971718415194016,-5.128173273485531,49.8
,,0.009915888397030401,0.00592737828916058,0.00018892911979201968,0.016032195805983,2.05763846160316,0.6184984587906495,0.36971718415194016,-5.128173273485531,49.9
,,0.009915888397030401,0.00592737828916058,0.00018892911979201968,0.016032195805983,2.045356038150746,0.6184984587906495,0.36971718415194016,-5.128173273485531,50.0
,,0.009915888397030401,0.00592737828916058,0.00018892911979201968,0.016032195805983,2.0330736146983326,0.6184984587906495,0.36971718415194016,-5.128173273485531,50.1
,,0.010212838067706053,0.005823996157741831,0.0001781885301784011,0.016215022755626283,2.0216876685651757,0.6298380348656869,0.3591728636779756,-5.145768627816365,50.2
,,0.010212838067706053,0.005823996157741831,0.0001781885301784011,0.016215022755626283,2.0210699396688767,0.6298380348656869,0.3591728636779756,-5.145768627816365,50.3
,,0.010212838067706053,0.005823996157741831,0.0001781885301784011,0.016215022755626283,2.0096839935357194,0.6298380348656869,0.3591728636779756,-5.145768627816365,50.4
,,0.010212838067706053,0.005823996157741831,0.0001781885301784011,0.016215022755626283,1.9992976536715275,0.6298380348656869,0.3591728636779756,-5.145768627816365,50.5
,,0.010212838067706053,0.005823996157741831,0.0001781885301784011,0.016215022755626283,1.9889113138073358,0.6298380348656869,0.3591728636779756,-5.145768627816365,50.6
,,0.010212838067706053,0.005823996157741831,0.0001781885301784011,0.016215022755626283,1.9875738979753028,0.6298380348656869,0.3591728636779756,-5.145768627816365,50.7
,,0.010212838067706053,0.005823996157741831,0.0001781885301784011,0.016215022755626283,1.9862364821432705,0.6298380348656869,0.3591728636779756,-5.145768627816365,50.8
,,0.010018614116360049,0.004512209221924494,0.00012273500835765139,0.014653558346642195,1.9900852379426672,0.6836983809230046,0.3079258372051625,-5.40096839575406,50.9
,,0.010546620116888946,0.004455993648670949,0.00012915731270273404,0.01513177107826263,1.9955618221672042,0.6969851752541757,0.2944793194150389,-5.413505201701314,51.0
,,0.010788948504612378,0.004695825828035124,0.00010155445405359237,0.015586328786701093,2.0002686546774915,0.6922058845453049,0.30127850453416577,-5.361081286574511,51.1
,,0.010788948504612378,0.004695825828035124,0.00010155445405359237,0.015586328786701093,1.9954377969159676,0.6922058845453049,0.30127850453416577,-5.361081286574511,51.2
,,0.010788948504612378,0.004695825828035124,0.00010155445405359237,0.015586328786701093,2.0001446294262553,0.6922058845453049,0.30127850453416577,-5.361081286574511,51.3
,,0.010788948504612378,0.004695825828035124,0.00010155445405359237,0.015586328786701093,2.0057224896761396,0.6922058845453049,0.30127850453416577,-5.361081286574511,51.4
,,0.010788948504612378,0.004695825828035124,0.00010155445405359237,0.015586328786701093,1.999470164355166,0.6922058845453049,0.30127850453416577,-5.361081286574511,51.5
,,0.010788948504612378,0.004695825828035124,0.00010155445405359237,0.015586328786701093,1.993217839034192,0.6922058845453049,0.30127850453416577,-5.361081286574511,51.6
,,0.010788948504612378,0.004695825828035124,0.00010155445405359237,0.015586328786701093,1.986965513713218,0.6922058845453049,0.30127850453416577,-5.361081286574511,51.7
,,0.010788948504612378,0.004695825828035124,0.00010155445405359237,0.015586328786701093,1.9807131883922444,0.6922058845453049,0.30127850453416577,-5.361081286574511,51.8
,,0.011542074161903306,0.005890971384644153,0.00024357387521910007,0.01767661942176656,1.9707022021992608,0.6529571003656206,0.3332634619824509,-5.134334373924397,51.9
,,0.01162669368133793,0.00580387635603171,0.00020845660097419276,0.01763902663834383,1.9611798994407328,0.6591459902931235,0.3290360899742169,-5.149229247420795,52.0
,,0.01162669368133793,0.00580387635603171,0.00020845660097419276,0.01763902663834383,1.9635979319402568,0.6591459902931235,0.3290360899742169,-5.149229247420795,52.1
,,0.01162669368133793,0.00580387635603171,0.00020845660097419276,0.01763902663834383,1.9540756291817283,0.6591459902931235,0.3290360899742169,-5.149229247420795,52.2
,,0.01162669368133793,0.00580387635603171,0.00020845660097419276,0.01763902663834383,1.9559938447078122,0.6591459902931235,0.3290360899742169,-5.149229247420795,52.3
,,0.01162669368133793,0.00580387635603171,0.00020845660097419276,0.01763902663834383,1.957912060233896,0.6591459902931235,0.3290360899742169,-5.149229247420795,52.4
,,0.01162669368133793,0.00580387635603171,0.00020845660097419276,0.01763902663834383,1.9598302757599795,0.6591459902931235,0.3290360899742169,-5.149229247420795,52.5
,,0.01162669368133793,0.00580387635603171,0.00020845660097419276,0.01763902663834383,1.9617484912860634,0.6591459902931235,0.3290360899742169,-5.149229247420795,52.6
,,0.012641379225044873,0.00549227524476175,0.0001815460676112874,0.01831520053741791,1.9669822820811378,0.690212438527144,0.2998752448023185,-5.204412674932074,52.7
,,0.012630109656663904,0.006014611886609629,0.0002525660187172585,0.018897287561990793,1.969974284779458,0.6683556894200824,0.3182791110565077,-5.1135634558917,52.8
,,0.012824693694995672,0.005988302028382421,0.00022244653659825805,0.01903544225997635,1.9734298435220896,0.6737271201710239,0.31458696607082987,-5.117947374755135,52.9
,,0.012824693694995672,0.005988302028382421,0.00022244653659825805,0.01903544225997635,1.9768854022647213,0.6737271201710239,0.31458696607082987,-5.117947374755135,53.0
,,0.012824693694995672,0.005988302028382421,0.00022244653659825805,0.01903544225997635,1.9803409610073528,0.6737271201710239,0.31458696607082987,-5.117947374755135,53.1
,,0.012824693694995672,0.005988302028382421,0.00022244653659825805,0.01903544225997635,1.9733220368801092,0.6737271201710239,0.31458696607082987,-5.117947374755135,53.2
,,0.012824693694995672,0.005988302028382421,0.00022244653659825805,0.01903544225997635,1.9663031127528654,0.6737271201710239,0.31458696607082987,-5.117947374755135,53.3
,,0.012824693694995672,0.005988302028382421,0.00022244653659825805,0.01903544225997635,1.9592841886256214,0.6737271201710239,0.31458696607082987,-5.117947374755135,53.4
,,0.012824693694995672,0.005988302028382421,0.00022244653659825805,0.01903544225997635,1.9522652644983778,0.6737271201710239,0.31458696607082987,-5.117947374755135,53.5
,,0.014295580862021248,0.006342535241175734,0.00021190209344776643,0.02085001819664475,1.9464940935709547,0.6856387714962157,0.304198067424056,-5.060476710152197,53.6
,,0.01667163733486825,0.00682531838464289,0.00028221214766253145,0.023779167867173674,1.9428195294971664,0.7011026385781512,0.2870293200656953,-4.987116289234654,53.7
,,0.014366847290920014,0.0063569535647924275,0.0002141144036630529,0.020937915259375495,1.9371161210235235,0.6861641721702396,0.30360967107009074,-5.058206015633366,53.8
,,0.014366847290920014,0.0063569535647924275,0.0002141144036630529,0.020937915259375495,1.9332803581106899,0.6861641721702396,0.30360967107009074,-5.058206015633366,53.9
,,0.014366847290920014,0.0063569535647924275,0.0002141144036630529,0.020937915259375495,1.9378970813563146,0.6861641721702396,0.30360967107009074,-5.058206015633366,54.0
,,0.014366847290920014,0.0063569535647924275,0.0002141144036630529,0.020937915259375495,1.9438959938540539,0.6861641721702396,0.30360967107009074,-5.058206015633366,54.1
,,0.014366847290920014,0.0063569535647924275,0.0002141144036630529,0.020937915259375495,1.949894906351793,0.6861641721702396,0.30360967107009074,-5.058206015633366,54.2
,,0.014366847290920014,0.0063569535647924275,0.0002141144036630529,0.020937915259375495,1.955893818849532,0.6861641721702396,0.30360967107009074,-5.058206015633366,54.3
,,0.014366847290920014,0.0063569535647924275,0.0002141144036630529,0.020937915259375495,1.9618927313472714,0.6861641721702396,0.30360967107009074,-5.058206015633366,54.4
,,0.015621580428498524,0.006692759054375674,0.0003182159269806527,0.02263255540985485,1.9687147651746235,0.6902260988918842,0.2957138039949947,-5.006729075156685,54.5
,,0.015958354871968877,0.006849436943531397,0.0002524803256100792,0.023060272141110352,1.975489872699821,0.6920280374106843,0.2970232485383668,-4.98358882811106,54.6
,,0.015958354871968877,0.006849436943531397,0.0002524803256100792,0.023060272141110352,1.9822649802250178,0.6920280374106843,0.2970232485383668,-4.98358882811106,54.7
,,0.015958354871968877,0.006849436943531397,0.0002524803256100792,0.023060272141110352,1.988403738489231,0.6920280374106843,0.2970232485383668,-4.98358882811106,54.8
,,0.015958354871968877,0.006849436943531397,0.0002524803256100792,0.023060272141110352,1.9945424967534444,0.6920280374106843,0.2970232485383668,-4.98358882811106,54.9
,,0.015958354871968877,0.006849436943531397,0.0002524803256100792,0.023060272141110352,2.0019469323132237,0.6920280374106843,0.2970232485383668,-4.98358882811106,55.0
,,0.015958354871968877,0.006849436943531397,0.0002524803256100792,0.023060272141110352,2.009351367873003,0.6920280374106843,0.2970232485383668,-4.98358882811106,55.1
,,0.015958354871968877,0.006849436943531397,0.0002524803256100792,0.023060272141110352,2.0167558034327824,0.6920280374106843,0.2970232485383668,-4.98358882811106,55.2
,,0.015958354871968877,0.006849436943531397,0.0002524803256100792,0.023060272141110352,2.0241602389925615,0.6920280374106843,0.2970232485383668,-4.98358882811106,55.3
,,0.017184684892188724,0.007232978672320315,0.0003741440142668489,0.024791807578775887,2.0320757970764904,0.6931598205408962,0.2917487419720224,-4.929104339782369,55.4
,,0.01757401262897207,0.007521247501551992,0.0003033604850245952,0.025398620615548657,2.0395547192155794,0.69192783714457,0.2961281880381959,-4.890023263614977,55.5
,,0.01757401262897207,0.007521247501551992,0.0003033604850245952,0.025398620615548657,2.0359471592113403,0.69192783714457,0.2961281880381959,-4.890023263614977,55.6
,,0.01757401262897207,0.007521247501551992,0.0003033604850245952,0.025398620615548657,2.043740964877048,0.69192783714457,0.2961281880381959,-4.890023263614977,55.7
,,0.01757401262897207,0.007521247501551992,0.0003033604850245952,0.025398620615548657,2.0401334048728095,0.69192783714457,0.2961281880381959,-4.890023263614977,55.8
,,0.01757401262897207,0.007521247501551992,0.0003033604850245952,0.025398620615548657,2.038988261854901,0.69192783714457,0.2961281880381959,-4.890023263614977,55.9
,,0.01757401262897207,0.007521247501551992,0.0003033604850245952,0.025398620615548657,2.037843118836993,0.69192783714457,0.2961281880381959,-4.890023263614977,56.0
,,0.01757401262897207,0.007521247501551992,0.0003033604850245952,0.025398620615548657,2.036697975819085,0.69192783714457,0.2961281880381959,-4.890023263614977,56.1
,,0.01774201307441608,0.0076702924592421074,0.0003877278315713271,0.025800033365229513,2.0352917166650832,0.6876740360470557,0.2972977728617706,-4.870400534050629,56.2
,,0.019391845302653084,0.00846909947227579,0.0004334407303195168,0.028294385505248393,2.03362585539816,0.685360185647292,0.29932084832536254,-4.771331095654598,56.3
,,0.019391845302653084,0.00846909947227579,0.0004334407303195168,0.028294385505248393,2.031959994131237,0.685360185647292,0.29932084832536254,-4.771331095654598,56.4
,,0.019391845302653084,0.00846909947227579,0.0004334407303195168,0.028294385505248393,2.038718921562795,0.685360185647292,0.29932084832536254,-4.771331095654598,56.5
,,0.019391845302653084,0.00846909947227579,0.0004334407303195168,0.028294385505248393,2.045477848994354,0.685360185647292,0.29932084832536254,-4.771331095654598,56.6
,,0.019391845302653084,0.00846909947227579,0.0004334407303195168,0.028294385505248393,2.0530295141398147,0.685360185647292,0.29932084832536254,-4.771331095654598,56.7
,,0.019391845302653084,0.00846909947227579,0.0004334407303195168,0.028294385505248393,2.060581179285276,0.685360185647292,0.29932084832536254,-4.771331095654598,56.8
,,0.019391845302653084,0.00846909947227579,0.0004334407303195168,0.028294385505248393,2.068132844430737,0.685360185647292,0.29932084832536254,-4.771331095654598,56.9
,,0.019391845302653084,0.00846909947227579,0.0004334407303195168,0.028294385505248393,2.0756845095761984,0.685360185647292,0.29932084832536254,-4.771331095654598,57.0
,,0.020996505284485368,0.009168657233137527,0.0005471413456091377,0.03071230386323203,2.083239653156495,0.6836512616567928,0.2985336845443889,-4.691964433846045,57.1
,,0.021326580966135187,0.009693857456689095,0.00052587887154442,0.0315463172943687,2.089794565535613,0.6760402733266799,0.3072896708111008,-4.636262845949186,57.2
,,0.021326580966135187,0.009693857456689095,0.00052587887154442,0.0315463172943687,2.0963494779147314,0.6760402733266799,0.3072896708111008,-4.636262845949186,57.3
,,0.021326580966135187,0.009693857456689095,0.00052587887154442,0.0315463172943687,2.0937440305163855,0.6760402733266799,0.3072896708111008,-4.636262845949186,57.4
,,0.021326580966135187,0.009693857456689095,0.00052587887154442,0.0315463172943687,2.100123501045384,0.6760402733266799,0.3072896708111008,-4.636262845949186,57.5
,,0.021326580966135187,0.009693857456689095,0.00052587887154442,0.0315463172943687,2.106502971574382,0.6760402733266799,0.3072896708111008,-4.636262845949186,57.6
,,0.021326580966135187,0.009693857456689095,0.00052587887154442,0.0315463172943687,2.112882442103381,0.6760402733266799,0.3072896708111008,-4.636262845949186,57.7
,,0.021326580966135187,0.009693857456689095,0.00052587887154442,0.0315463172943687,2.1192619126323793,0.6760402733266799,0.3072896708111008,-4.636262845949186,57.8
,,0.022798051186637913,0.010912250807626112,0.0006109236299764581,0.03432122562424048,2.124410343685117,0.6642551590738079,0.31794467153058137,-4.51786919357533,57.9
,,0.023198374333111976,0.011169522880994306,0.0006302381817190705,0.03499813539582535,2.1294223182601417,0.6628460079584447,0.31914622749664057,-4.494566381137902,58.0
,,0.023198374333111976,0.011169522880994306,0.0006302381817190705,0.03499813539582535,2.134434292835166,0.6628460079584447,0.31914622749664057,-4.494566381137902,58.1
,,0.023198374333111976,0.011169522880994306,0.0006302381817190705,0.03499813539582535,2.1395241263310356,0.6628460079584447,0.31914622749664057,-4.494566381137902,58.2
,,0.023198374333111976,0.011169522880994306,0.0006302381817190705,0.03499813539582535,2.143784448004387,0.6628460079584447,0.31914622749664057,-4.494566381137902,58.3
,,0.023198374333111976,0.011169522880994306,0.0006302381817190705,0.03499813539582535,2.1482737697359933,0.6628460079584447,0.31914622749664057,-4.494566381137902,58.4
,,0.023198374333111976,0.011169522880994306,0.0006302381817190705,0.03499813539582535,2.1527630914675995,0.6628460079584447,0.31914622749664057,-4.494566381137902,58.5
,,0.023198374333111976,0.011169522880994306,0.0006302381817190705,0.03499813539582535,2.1572524131992057,0.6628460079584447,0.31914622749664057,-4.494566381137902,58.6
,,0.025111618207308464,0.012255992490408561,0.0007813034303572739,0.0381489141280743,2.1614305193596874,0.6582525028891579,0.32126713880406915,-4.40174027871185,58.7
,,0.025111618207308464,0.012255992490408561,0.0007813034303572739,0.0381489141280743,2.1656086255201683,0.6582525028891579,0.32126713880406915,-4.40174027871185,58.8
,,0.025700889499590304,0.01326811725081729,0.0007619993677896306,0.03973100611819723,2.1685435701557583,0.6468723551357292,0.33394868509862247,-4.322391320823227,58.9
,,0.025700889499590304,0.01326811725081729,0.0007619993677896306,0.03973100611819723,2.171478514791348,0.6468723551357292,0.33394868509862247,-4.322391320823227,59.0
,,0.025700889499590304,0.01326811725081729,0.0007619993677896306,0.03973100611819723,2.1744134594269378,0.6468723551357292,0.33394868509862247,-4.322391320823227,59.1
,,0.025700889499590304,0.01326811725081729,0.0007619993677896306,0.03973100611819723,2.176451926743271,0.6468723551357292,0.33394868509862247,-4.322391320823227,59.2
,,0.025700889499590304,0.01326811725081729,0.0007619993677896306,0.03973100611819723,2.1784903940596054,0.6468723551357292,0.33394868509862247,-4.322391320823227,59.3
,,0.025700889499590304,0.01326811725081729,0.0007619993677896306,0.03973100611819723,2.180528861375939,0.6468723551357292,0.33394868509862247,-4.322391320823227,59.4
,,0.02782259111093688,0.014853411530584225,0.000702587207959779,0.043378589849480884,2.181857369315475,0.6413899393105752,0.34241342519717655,-4.20952570741867,59.5
,,0.02782259111093688,0.014853411530584225,0.000702587207959779,0.043378589849480884,2.183185877255011,0.6413899393105752,0.34241342519717655,-4.20952570741867,59.6
,,0.02793882448141541,0.015512852570574704,0.0008870519201420994,0.044338728972132216,2.1837129026794835,0.630122358694033,0.3498713862619933,-4.166086400550163,59.7
,,0.02865709474742158,0.016010720595659583,0.0009177494246333504,0.04558556476771451,2.1841161251344348,0.6286440651431319,0.3512234778102169,-4.134496743888355,59.8
,,0.02865709474742158,0.016010720595659583,0.0009177494246333504,0.04558556476771451,2.1793331759579573,0.6286440651431319,0.3512234778102169,-4.134496743888355,59.9
,,0.02865709474742158,0.016010720595659583,0.0009177494246333504,0.04558556476771451,2.1729223983563393,0.6286440651431319,0.3512234778102169,-4.134496743888355,60.0
,,0.02865709474742158,0.016010720595659583,0.0009177494246333504,0.04558556476771451,2.1672813724689712,0.6286440651431319,0.3512234778102169,-4.134496743888355,60.1
,,0.02865709474742158,0.016010720595659583,0.0009177494246333504,0.04558556476771451,2.161640346581603,0.6286440651431319,0.3512234778102169,-4.134496743888355,60.2
,,0.03103510964703582,0.017986977835499494,0.0008418503626630811,0.04986393784519839,2.1552832304435112,0.6223958834415305,0.36072116669444987,-4.018107236488161,60.3
,,0.03103510964703582,0.017986977835499494,0.0008418503626630811,0.04986393784519839,2.148926114305419,0.6223958834415305,0.36072116669444987,-4.018107236488161,60.4
,,0.03103510964703582,0.017986977835499494,0.0008418503626630811,0.04986393784519839,2.1425689981673273,0.6223958834415305,0.36072116669444987,-4.018107236488161,60.5
,,0.03104887521033202,0.018721099848935323,0.0010521932753887373,0.05082216833465608,2.1354682742520454,0.6109317297498997,0.36836483885653576,-3.978104057044492,60.6
,,0.03750496501641102,0.025702742124282543,0.0012480655493815882,0.06445577269007516,2.126152940881194,0.5818713119265111,0.3987655573980921,-3.6611575953298297,60.7
,,0.03750496501641102,0.025702742124282543,0.0012480655493815882,0.06445577269007516,2.116837607510342,0.5818713119265111,0.3987655573980921,-3.6611575953298297,60.8
,,0.03750496501641102,0.025702742124282543,0.0012480655493815882,0.06445577269007516,2.1112809350115,0.5818713119265111,0.3987655573980921,-3.6611575953298297,60.9
,,0.03431269481861767,0.021581313619189895,0.000984001581033183,0.05687801001884075,2.1066882977245402,0.6032682016697076,0.37943158721694237,-3.8359274489385173,61.0
,,0.03431269481861767,0.021581313619189895,0.000984001581033183,0.05687801001884075,2.1020956604375813,0.6032682016697076,0.37943158721694237,-3.8359274489385173,61.1
,,0.03431269481861767,0.021581313619189895,0.000984001581033183,0.05687801001884075,2.097503023150622,0.6032682016697076,0.37943158721694237,-3.8359274489385173,61.2
,,0.03431269481861767,0.021581313619189895,0.000984001581033183,0.05687801001884075,2.0929103858636626,0.6032682016697076,0.37943158721694237,-3.8359274489385173,61.3
,,0.03431269481861767,0.021581313619189895,0.000984001581033183,0.05687801001884075,2.0883177485767033,0.6032682016697076,0.37943158721694237,-3.8359274489385173,61.4
,,0.03431269481861767,0.021581313619189895,0.000984001581033183,0.05687801001884075,2.083725111289744,0.6032682016697076,0.37943158721694237,-3.8359274489385173,61.5
,,0.03448225822512307,0.022705075047544196,0.0012365743014222416,0.0584239075740895,2.0783411020941296,0.590208009989658,0.38862643719527074,-3.785166809106516,61.6
,,0.03448225822512307,0.022705075047544196,0.0012365743014222416,0.0584239075740895,2.0696415176295253,0.590208009989658,0.38862643719527074,-3.785166809106516,61.7
,,0.03734340254511745,0.025394771393977195,0.00111611820593474,0.06385429214502938,2.062648307145217,0.5848221206540205,0.3976987378749606,-3.673211976778614,61.8
,,0.03734340254511745,0.025394771393977195,0.00111611820593474,0.06385429214502938,2.0551915406165975,0.5848221206540205,0.3976987378749606,-3.673211976778614,61.9
,,0.03734340254511745,0.025394771393977195,0.00111611820593474,0.06385429214502938,2.047734774087978,0.5848221206540205,0.3976987378749606,-3.673211976778614,62.0
,,0.03734340254511745,0.025394771393977195,0.00111611820593474,0.06385429214502938,2.0402780075593583,0.5848221206540205,0.3976987378749606,-3.673211976778614,62.1
,,0.03734340254511745,0.025394771393977195,0.00111611820593474,0.06385429214502938,2.0328212410307387,0.5848221206540205,0.3976987378749606,-3.673211976778614,62.2
,,0.03734340254511745,0.025394771393977195,0.00111611820593474,0.06385429214502938,2.025364474502119,0.5848221206540205,0.3976987378749606,-3.673211976778614,62.3
,,0.03734340254511745,0.025394771393977195,0.00111611820593474,0.06385429214502938,2.0179077079734995,0.5848221206540205,0.3976987378749606,-3.673211976778614,62.4
,,0.03694466888990805,0.02629952252854809,0.001374881002600596,0.06461907242105673,2.009720389890169,0.5717301023632348,0.4069931916877554,-3.638204494771276,62.5
,,0.04080902097718602,0.03457211381386517,0.0011902345715679057,0.07657136936261909,1.9977923971020004,0.5329540442711258,0.4515018354986181,-3.364707881014983,62.6
,,0.04080902097718602,0.03457211381386517,0.0011902345715679057,0.07657136936261909,1.983767797460197,0.5329540442711258,0.4515018354986181,-3.364707881014983,62.7
,,0.04080902097718602,0.03457211381386517,0.0011902345715679057,0.07657136936261909,1.9717720422182483,0.5329540442711258,0.4515018354986181,-3.364707881014983,62.8
,,0.04080902097718602,0.03457211381386517,0.0011902345715679057,0.07657136936261909,1.9597762869762998,0.5329540442711258,0.4515018354986181,-3.364707881014983,62.9
,,0.04080902097718602,0.03457211381386517,0.0011902345715679057,0.07657136936261909,1.947780531734351,0.5329540442711258,0.4515018354986181,-3.364707881014983,63.0
,,0.04080902097718602,0.03457211381386517,0.0011902345715679057,0.07657136936261909,1.9357847764924025,0.5329540442711258,0.4515018354986181,-3.364707881014983,63.1
,,0.03918856917341131,0.029806747355438964,0.001488209299091197,0.07048352582794147,1.9252818227892434,0.5559961524778881,0.4228895618559253,-3.5130204897767623,63.2
,,0.04080902097718602,0.03457211381386517,0.0011902345715679057,0.07657136936261909,1.913286067547295,0.5329540442711258,0.4515018354986181,-3.364707881014983,63.3
,,0.043738462750416894,0.034277547878001025,0.0016331757874378495,0.07964918641585578,1.902352604109994,0.5491388514887563,0.4303565349561108,-3.3732647199580987,63.4
,,0.043738462750416894,0.034277547878001025,0.0016331757874378495,0.07964918641585578,1.8905960193430802,0.5491388514887563,0.4303565349561108,-3.3732647199580987,63.5
,,0.043738462750416894,0.034277547878001025,0.0016331757874378495,0.07964918641585578,1.8788863608783213,0.5491388514887563,0.4303565349561108,-3.3732647199580987,63.6
,,0.043738462750416894,0.034277547878001025,0.0016331757874378495,0.07964918641585578,1.8671767024135626,0.5491388514887563,0.4303565349561108,-3.3732647199580987,63.7
,,0.043738462750416894,0.034277547878001025,0.0016331757874378495,0.07964918641585578,1.855467043948804,0.5491388514887563,0.4303565349561108,-3.3732647199580987,63.8
,,0.043738462750416894,0.034277547878001025,0.0016331757874378495,0.07964918641585578,1.8437573854840452,0.5491388514887563,0.4303565349561108,-3.3732647199580987,63.9
,,0.043738462750416894,0.034277547878001025,0.0016331757874378495,0.07964918641585578,1.8320477270192865,0.5491388514887563,0.4303565349561108,-3.3732647199580987,64.0
,,0.04061832872253777,0.03823705549227536,0.001293086702410512,0.08014847091722364,1.817963262917231,0.5067885669894798,0.4770777914374202,-3.2639501944886615,64.1
,,0.031335122500584234,0.03915165058318637,0.0016473637092815833,0.07213413679305218,1.8009685315115882,0.43440074136441836,0.5427617536411329,-3.24031269694398,64.2
,,0.04765593951173672,0.03959794561610417,0.0017978056190683061,0.08905169074690919,1.7884531637039982,0.5351491825930409,0.4446624795552075,-3.2289780404486397,64.3
,,0.04777914001190836,0.039682706482586205,0.0018027101457982122,0.08926455664029277,1.775432606883279,0.535253204745561,0.4445516560676445,-3.2268397911650393,64.4
,,0.04765593951173672,0.03959794561610417,0.0017978056190683061,0.08905169074690919,1.762842752496379,0.5351491825930409,0.4446624795552075,-3.2289780404486397,64.5
,,0.04777914001190836,0.039682706482586205,0.0018027101457982122,0.08926455664029277,1.7502588316204994,0.535253204745561,0.4445516560676445,-3.2268397911650393,64.6
,,0.04765593951173672,0.03959794561610417,0.0017978056190683061,0.08905169074690919,1.7376689772336,0.5351491825930409,0.4446624795552075,-3.2289780404486397,64.7
,,0.04765593951173672,0.03959794561610417,0.0017978056190683061,0.08905169074690919,1.7250791228467,0.5351491825930409,0.4446624795552075,-3.2289780404486397,64.8
,,0.042541390794120656,0.0412616887783847,0.0011240298466488757,0.08492710941915423,1.7105728133429936,0.500916504577583,0.4858482651839632,-3.187820842017057,64.9
,,0.05040734453077645,0.04370051869456836,0.0018926034085467852,0.0960004666338916,1.6974271500945106,0.5250739532653569,0.45521152372337026,-3.1303953075101103,65.0
,,0.05157385752677243,0.044961209385267376,0.001949669676399735,0.09848473658843954,1.6842103986563006,0.5236736098741451,0.4565297216883156,-3.1019551746199676,65.1
,,0.05157385752677243,0.044961209385267376,0.001949669676399735,0.09848473658843954,1.6712547633541837,0.5236736098741451,0.4565297216883156,-3.1019551746199676,65.2
,,0.05157385752677243,0.044961209385267376,0.001949669676399735,0.09848473658843954,1.6585587301649884,0.5236736098741451,0.4565297216883156,-3.1019551746199676,65.3
,,0.05157385752677243,0.044961209385267376,0.001949669676399735,0.09848473658843954,1.6458626969757932,0.5236736098741451,0.4565297216883156,-3.1019551746199676,65.4
,,0.051654186242255984,0.045031293064652,0.0019527348706741509,0.09863821417758215,1.6331666483683873,0.523673169399245,0.4565298899631378,-3.100397629454649,65.5
,,0.04329893006809049,0.0426841502152029,0.0011128828042644996,0.08709596308755789,1.6189964872253506,0.4971404934642254,0.4900818442330372,-3.153927616994884,65.6
,,0.04329893006809049,0.0426841502152029,0.0011128828042644996,0.08709596308755789,1.6048263260823141,0.4971404934642254,0.4900818442330372,-3.153927616994884,65.7
,,0.04329893006809049,0.0426841502152029,0.0011128828042644996,0.08709596308755789,1.5906561649392779,0.4971404934642254,0.4900818442330372,-3.153927616994884,65.8
,,0.04329893006809049,0.0426841502152029,0.0011128828042644996,0.08709596308755789,1.5764860037962412,0.4971404934642254,0.4900818442330372,-3.153927616994884,65.9
,,0.04243221526418614,0.04133376439272531,0.0012664896053159952,0.08503246926222746,1.5624510887230538,0.4990119142998366,0.48609389744120146,-3.1860755732433326,66.0
,,0.04243221526418614,0.04133376439272531,0.0012664896053159952,0.08503246926222746,1.5484126952150308,0.4990119142998366,0.48609389744120146,-3.1860755732433326,66.1
,,0.04243221526418614,0.04133376439272531,0.0012664896053159952,0.08503246926222746,1.5353745329081863,0.4990119142998366,0.48609389744120146,-3.1860755732433326,66.2
,,0.04243221526418614,0.04133376439272531,0.0012664896053159952,0.08503246926222746,1.5223363706013417,0.4990119142998366,0.48609389744120146,-3.1860755732433326,66.3
,,0.05156377385362178,0.04648556562576981,0.0016169472208820243,0.09966628670027362,1.5102167365465227,0.5173642518526801,0.46641213558568534,-3.068613431228159,66.4
,,0.05156377385362178,0.04648556562576981,0.0016169472208820243,0.09966628670027362,1.4980971024917034,0.5173642518526801,0.46641213558568534,-3.068613431228159,66.5
,,0.05156377385362178,0.04648556562576981,0.0016169472208820243,0.09966628670027362,1.4859774684368843,0.5173642518526801,0.46641213558568534,-3.068613431228159,66.6
,,0.05156377385362178,0.04648556562576981,0.0016169472208820243,0.09966628670027362,1.473857834382065,0.5173642518526801,0.46641213558568534,-3.068613431228159,66.7
,,0.05156377385362178,0.04648556562576981,0.0016169472208820243,0.09966628670027362,1.4617382003272459,0.5173642518526801,0.46641213558568534,-3.068613431228159,66.8
,,0.04963423336016629,0.046156540882051164,0.0018848304017857228,0.09767560464400318,1.4504729714679914,0.5081538378090152,0.4725493233471881,-3.0757165971541354,66.9
,,0.04963423336016629,0.046156540882051164,0.0018848304017857228,0.09767560464400318,1.4393441990864502,0.5081538378090152,0.4725493233471881,-3.0757165971541354,67.0
,,0.05019039065994908,0.046124676718460246,0.0015761823502281175,0.09789124972863746,1.4283576552929804,0.5127158024755119,0.4711828365285112,-3.076407185459878,67.1
,,0.05019039065994908,0.046124676718460246,0.0015761823502281175,0.09789124972863746,1.4173711114995107,0.5127158024755119,0.4711828365285112,-3.076407185459878,67.2
,,0.05019039065994908,0.046124676718460246,0.0015761823502281175,0.09789124972863746,1.4063845677060411,0.5127158024755119,0.4711828365285112,-3.076407185459878,67.3
,,0.05019039065994908,0.046124676718460246,0.0015761823502281175,0.09789124972863746,1.3953980239125714,0.5127158024755119,0.4711828365285112,-3.076407185459878,67.4
,,0.05019039065994908,0.046124676718460246,0.0015761823502281175,0.09789124972863746,1.3844114801191016,0.5127158024755119,0.4711828365285112,-3.076407185459878,67.5
,,0.05019039065994908,0.046124676718460246,0.0015761823502281175,0.09789124972863746,1.373424936325632,0.5127158024755119,0.4711828365285112,-3.076407185459878,67.6
,,0.05019039065994908,0.046124676718460246,0.0015761823502281175,0.09789124972863746,1.3627496081032873,0.5127158024755119,0.4711828365285112,-3.076407185459878,67.7
,,0.04823088113284452,0.04563153843537731,0.0018500586305880559,0.09571247819880989,1.3517278082572044,0.5039142444171322,0.47675641979088057,-3.0871561691744636,67.8
,,0.0451020840580044,0.041960860565358256,0.0012043831902099687,0.08826732781357262,1.3421480262281744,0.5109714452131537,0.47538383232788944,-3.171017986480408,67.9
,,0.0451020840580044,0.041960860565358256,0.0012043831902099687,0.08826732781357262,1.3325682441991444,0.5109714452131537,0.47538383232788944,-3.171017986480408,68.0
,,0.0451020840580044,0.041960860565358256,0.0012043831902099687,0.08826732781357262,1.3229884621701145,0.5109714452131537,0.47538383232788944,-3.171017986480408,68.1
,,0.0451020840580044,0.041960860565358256,0.0012043831902099687,0.08826732781357262,1.3134086801410843,0.5109714452131537,0.47538383232788944,-3.171017986480408,68.2
,,0.0451020840580044,0.041960860565358256,0.0012043831902099687,0.08826732781357262,1.3038288981120545,0.5109714452131537,0.47538383232788944,-3.171017986480408,68.3
,,0.0451020840580044,0.041960860565358256,0.0012043831902099687,0.08826732781357262,1.2942491160830243,0.5109714452131537,0.47538383232788944,-3.171017986480408,68.4
,,0.0451020840580044,0.041960860565358256,0.0012043831902099687,0.08826732781357262,1.285379293430792,0.5109714452131537,0.47538383232788944,-3.171017986480408,68.5
,,0.04826323394923124,0.04468014257546953,0.0018456875497165136,0.09478906407441728,1.2765687315714418,0.5091645794850406,0.47136389637091375,-3.1082261137506526,68.6
,,0.04826323394923124,0.04468014257546953,0.0018456875497165136,0.09478906407441728,1.268559652227156,0.5091645794850406,0.47136389637091375,-3.1082261137506526,68.7
,,0.04826323394923124,0.04468014257546953,0.0018456875497165136,0.09478906407441728,1.2606743758523904,0.5091645794850406,0.47136389637091375,-3.1082261137506526,68.8
,,0.04826323394923124,0.04468014257546953,0.0018456875497165136,0.09478906407441728,1.2527890994776247,0.5091645794850406,0.47136389637091375,-3.1082261137506526,68.9
,,0.04826323394923124,0.04468014257546953,0.0018456875497165136,0.09478906407441728,1.2449038231028593,0.5091645794850406,0.47136389637091375,-3.1082261137506526,69.0
,,0.04826323394923124,0.04468014257546953,0.0018456875497165136,0.09478906407441728,1.2370185467280936,0.5091645794850406,0.47136389637091375,-3.1082261137506526,69.1
,,0.04826323394923124,0.04468014257546953,0.0018456875497165136,0.09478906407441728,1.229133270353328,0.5091645794850406,0.47136389637091375,-3.1082261137506526,69.2
,,0.04826323394923124,0.04468014257546953,0.0018456875497165136,0.09478906407441728,1.2219640842292863,0.5091645794850406,0.47136389637091375,-3.1082261137506526,69.3
,,0.04834949124519346,0.04425803613278034,0.001642981712764236,0.09425050909073804,1.2149310226009047,0.5129891786435427,0.4695787488020005,-3.117718316496388,69.4
,,0.04834949124519346,0.04425803613278034,0.001642981712764236,0.09425050909073804,1.2078979609725229,0.5129891786435427,0.4695787488020005,-3.117718316496388,69.5
,,0.04834949124519346,0.04425803613278034,0.001642981712764236,0.09425050909073804,1.201608507121331,0.5129891786435427,0.4695787488020005,-3.117718316496388,69.6
,,0.04834949124519346,0.04425803613278034,0.001642981712764236,0.09425050909073804,1.1975336627257092,0.5129891786435427,0.4695787488020005,-3.117718316496388,69.7
,,0.04834949124519346,0.04425803613278034,0.001642981712764236,0.09425050909073804,1.1934588183300874,0.5129891786435427,0.4695787488020005,-3.117718316496388,69.8
,,0.04834949124519346,0.04425803613278034,0.001642981712764236,0.09425050909073804,1.1893839739344654,0.5129891786435427,0.4695787488020005,-3.117718316496388,69.9
,,0.04834949124519346,0.04425803613278034,0.001642981712764236,0.09425050909073804,1.1838564108925054,0.5129891786435427,0.4695787488020005,-3.117718316496388,70.0
,,0.04834949124519346,0.04425803613278034,0.001642981712764236,0.09425050909073804,1.1783288478505454,0.5129891786435427,0.4695787488020005,-3.117718316496388,70.1
,,0.04834949124519346,0.04425803613278034,0.001642981712764236,0.09425050909073804,1.1728012848085856,0.5129891786435427,0.4695787488020005,-3.117718316496388,70.2
,,0.04909189870501007,0.04428678304714577,0.0017493333746901882,0.09512801512684603,1.1674521053169555,0.5160614214387815,0.4655493230684219,-3.117068997526816,70.3
,,0.04909189870501007,0.04428678304714577,0.0017493333746901882,0.09512801512684603,1.1621029258253255,0.5160614214387815,0.4655493230684219,-3.117068997526816,70.4
,,0.04909189870501007,0.04428678304714577,0.0017493333746901882,0.09512801512684603,1.1567537463336954,0.5160614214387815,0.4655493230684219,-3.117068997526816,70.5
,,0.04909189870501007,0.04428678304714577,0.0017493333746901882,0.09512801512684603,1.1521959387507197,0.5160614214387815,0.4655493230684219,-3.117068997526816,70.6
,,0.04909189870501007,0.04428678304714577,0.0017493333746901882,0.09512801512684603,1.147638131167744,0.5160614214387815,0.4655493230684219,-3.117068997526816,70.7
,,0.04909189870501007,0.04428678304714577,0.0017493333746901882,0.09512801512684603,1.1436157377012264,0.5160614214387815,0.4655493230684219,-3.117068997526816,70.8
,,0.04909189870501007,0.04428678304714577,0.0017493333746901882,0.09512801512684603,1.1395933442347084,0.5160614214387815,0.4655493230684219,-3.117068997526816,70.9
,,0.04909189870501007,0.04428678304714577,0.0017493333746901882,0.09512801512684603,1.1355709507681906,0.5160614214387815,0.4655493230684219,-3.117068997526816,71.0
,,0.04884151624897322,0.03787286735479769,0.0015756606407613908,0.0882900442445323,1.1335609751394953,0.5531939265281082,0.4289596599351927,-3.273520324202016,71.1
,,0.04884151624897322,0.03787286735479769,0.0015756606407613908,0.0882900442445323,1.1315509995107997,0.5531939265281082,0.4289596599351927,-3.273520324202016,71.2
,,0.04884151624897322,0.03787286735479769,0.0015756606407613908,0.0882900442445323,1.1295410238821042,0.5531939265281082,0.4289596599351927,-3.273520324202016,71.3
,,0.04884151624897322,0.03787286735479769,0.0015756606407613908,0.0882900442445323,1.1275310482534087,0.5531939265281082,0.4289596599351927,-3.273520324202016,71.4
,,0.04884151624897322,0.03787286735479769,0.0015756606407613908,0.0882900442445323,1.1262516241794236,0.5531939265281082,0.4289596599351927,-3.273520324202016,71.5
,,0.04884151624897322,0.03787286735479769,0.0015756606407613908,0.0882900442445323,1.1274651216104565,0.5531939265281082,0.4289596599351927,-3.273520324202016,71.6
,,0.04884151624897322,0.03787286735479769,0.0015756606407613908,0.0882900442445323,1.1286786190414895,0.5531939265281082,0.4289596599351927,-3.273520324202016,71.7
