HRV_ULF,HRV_VLF,HRV_LF,HRV_HF,HRV_VHF,HRV_TP,HRV_LFHF,HRV_LFn,HRV_HFn,HRV_LnHF,time
,,0.02941606212744094,0.011589861159534295,0.0005963581379139623,0.0416022814248892,2.538085808149831,0.707078100525572,0.2785871534583794,-4.4576246010349045,0.0
,,0.02941606212744094,0.011589861159534295,0.0005963581379139623,0.0416022814248892,2.538085808149831,0.707078100525572,0.2785871534583794,-4.4576246010349045,0.1
,,0.02941606212744094,0.011589861159534295,0.0005963581379139623,0.0416022814248892,2.538085808149831,0.707078100525572,0.2785871534583794,-4.4576246010349045,0.2
,,0.025855984815057572,0.01098632661734906,0.000519946979697957,0.03736225841210459,2.491931735756519,0.692034847836735,0.2940487830304637,-4.511103814178772,0.3
,,0.02530854644772356,0.011083551405678812,0.0005353748814020932,0.03692747273480447,2.450231977973247,0.6853582055148343,0.3001437841488802,-4.502293125041604,0.4
,,0.025301293411244173,0.011270750105493508,0.0004069485025728193,0.0369789920193105,2.4160038669880817,0.6842072222528887,0.3047879211961186,-4.4855443954262855,0.5
,,0.025301293411244173,0.011270750105493508,0.0004069485025728193,0.0369789920193105,2.391555216284392,0.6842072222528887,0.3047879211961186,-4.4855443954262855,0.6
,,0.025301293411244173,0.011270750105493508,0.0004069485025728193,0.0369789920193105,2.3732187282566253,0.6842072222528887,0.3047879211961186,-4.4855443954262855,0.7
,,0.025301293411244173,0.011270750105493508,0.0004069485025728193,0.0369789920193105,2.3589570153461397,0.6842072222528887,0.3047879211961186,-4.4855443954262855,0.8
,,0.025301293411244173,0.011270750105493508,0.0004069485025728193,0.0369789920193105,2.3475476450177513,0.6842072222528887,0.3047879211961186,-4.4855443954262855,0.9
,,0.025301293411244173,0.011270750105493508,0.0004069485025728193,0.0369789920193105,2.3382127056581608,0.6842072222528887,0.3047879211961186,-4.4855443954262855,1.0
,,0.025301293411244173,0.011270750105493508,0.0004069485025728193,0.0369789920193105,2.330433589525169,0.6842072222528887,0.3047879211961186,-4.4855443954262855,1.1
,,0.025301293411244173,0.011270750105493508,0.0004069485025728193,0.0369789920193105,2.32385126048956,0.6842072222528887,0.3047879211961186,-4.4855443954262855,1.2
,,0.024639806537456538,0.01179709821478919,0.0004390036152890375,0.036875908367534765,2.3070499434648255,0.6681816836042801,0.31991342686964847,-4.43990169175324,1.3
,,0.024639806537456538,0.01179709821478919,0.0004390036152890375,0.036875908367534765,2.2924888020433887,0.6681816836042801,0.31991342686964847,-4.43990169175324,1.4
,,0.024639806537456538,0.01179709821478919,0.0004390036152890375,0.036875908367534765,2.2797478032996317,0.6681816836042801,0.31991342686964847,-4.43990169175324,1.5
,,0.024639806537456538,0.01179709821478919,0.0004390036152890375,0.036875908367534765,2.2685057455845516,0.6681816836042801,0.31991342686964847,-4.43990169175324,1.6
,,0.024639806537456538,0.01179709821478919,0.0004390036152890375,0.036875908367534765,2.25851280539337,0.6681816836042801,0.31991342686964847,-4.43990169175324,1.7
,,0.024639806537456538,0.01179709821478919,0.0004390036152890375,0.036875908367534765,2.2495717536433646,0.6681816836042801,0.31991342686964847,-4.43990169175324,1.8
,,0.024639806537456538,0.01179709821478919,0.0004390036152890375,0.036875908367534765,2.24152480706836,0.6681816836042801,0.31991342686964847,-4.43990169175324,1.9
,,0.024639806537456538,0.01179709821478919,0.0004390036152890375,0.036875908367534765,2.234244236357642,0.6681816836042801,0.31991342686964847,-4.43990169175324,2.0
,,0.02386498512493725,0.012502657362689788,0.0004780087457522346,0.036845651233379274,2.219450999321673,0.6477015421379618,0.33932518341169554,-4.381814068252541,2.1
,,0.02386498512493725,0.012502657362689788,0.0004780087457522346,0.036845651233379274,2.205944130723615,0.6477015421379618,0.33932518341169554,-4.381814068252541,2.2
,,0.02386498512493725,0.012502657362689788,0.0004780087457522346,0.036845651233379274,2.193562834508729,0.6477015421379618,0.33932518341169554,-4.381814068252541,2.3
,,0.02386498512493725,0.012502657362689788,0.0004780087457522346,0.036845651233379274,2.182172041991033,0.6477015421379618,0.33932518341169554,-4.381814068252541,2.4
,,0.02386498512493725,0.012502657362689788,0.0004780087457522346,0.036845651233379274,2.171657464282391,0.6477015421379618,0.33932518341169554,-4.381814068252541,2.5
,,0.02386498512493725,0.012502657362689788,0.0004780087457522346,0.036845651233379274,2.161921744181796,0.6477015421379618,0.33932518341169554,-4.381814068252541,2.6
,,0.02386498512493725,0.012502657362689788,0.0004780087457522346,0.036845651233379274,2.1528814326598154,0.6477015421379618,0.33932518341169554,-4.381814068252541,2.7
,,0.02386498512493725,0.012502657362689788,0.0004780087457522346,0.036845651233379274,2.1444645908979716,0.6477015421379618,0.33932518341169554,-4.381814068252541,2.8
,,0.023821300638255303,0.012635552076340574,0.0006294813088909654,0.03708633402348684,2.135824437157909,0.6423201771080752,0.3407064194681107,-4.3712408448867635,2.9
,,0.022916398991269116,0.013361798203498351,0.0005224518237742955,0.036800649018541756,2.1222516644823517,0.6227172509844282,0.36308593896716607,-4.31535552386064,3.0
,,0.022916398991269116,0.013361798203498351,0.0005224518237742955,0.036800649018541756,2.109527190099017,0.6227172509844282,0.36308593896716607,-4.31535552386064,3.1
,,0.022916398991269116,0.013361798203498351,0.0005224518237742955,0.036800649018541756,2.0975738959813386,0.6227172509844282,0.36308593896716607,-4.31535552386064,3.2
,,0.022916398991269116,0.013361798203498351,0.0005224518237742955,0.036800649018541756,2.0863237368117593,0.6227172509844282,0.36308593896716607,-4.31535552386064,3.3
,,0.022916398991269116,0.013361798203498351,0.0005224518237742955,0.036800649018541756,2.075716443880441,0.6227172509844282,0.36308593896716607,-4.31535552386064,3.4
,,0.022916398991269116,0.013361798203498351,0.0005224518237742955,0.036800649018541756,2.0656984450008635,0.6227172509844282,0.36308593896716607,-4.31535552386064,3.5
,,0.022916398991269116,0.013361798203498351,0.0005224518237742955,0.036800649018541756,2.0562219595742355,0.6227172509844282,0.36308593896716607,-4.31535552386064,3.6
,,0.022730346445785744,0.013445444282733476,0.0006785039028694858,0.0368542946313887,2.046599308054708,0.6167624878764162,0.3648270687911099,-4.309114945349587,3.7
,,0.021583062852839688,0.014208004243115064,0.0005596131568435811,0.036350680252798334,2.033073113780585,0.5937457759453674,0.3908593771645115,-4.253949794089697,3.8
,,0.021583062852839688,0.014208004243115064,0.0005596131568435811,0.036350680252798334,2.020223229220167,0.5937457759453674,0.3908593771645115,-4.253949794089697,3.9
,,0.021583062852839688,0.014208004243115064,0.0005596131568435811,0.036350680252798334,2.0080001682968436,0.5937457759453674,0.3908593771645115,-4.253949794089697,4.0
,,0.021583062852839688,0.014208004243115064,0.0005596131568435811,0.036350680252798334,1.9963591578936775,0.5937457759453674,0.3908593771645115,-4.253949794089697,4.1
,,0.021583062852839688,0.014208004243115064,0.0005596131568435811,0.036350680252798334,1.9852595898348453,0.5937457759453674,0.3908593771645115,-4.253949794089697,4.2
,,0.021583062852839688,0.014208004243115064,0.0005596131568435811,0.036350680252798334,1.974664547596869,0.5937457759453674,0.3908593771645115,-4.253949794089697,4.3
,,0.020685786761974873,0.013803859273469502,0.0007148564608620039,0.03520450249630638,1.9640842459658232,0.587589237034246,0.3921049381373246,-4.282807068418057,4.4
,,0.02063744675962022,0.013820920283573427,0.0006987663110320098,0.035157133354225656,1.9538477083544614,0.5870059584121279,0.3931185214767302,-4.281571872152481,4.5
,,0.019231733652889122,0.01453259107605947,0.0008536942329240725,0.034618018961872665,1.9404329063231252,0.5555411381012422,0.4197984607976923,-4.231361491347717,4.6
,,0.019231733652889122,0.01453259107605947,0.0008536942329240725,0.034618018961872665,1.9275770543764275,0.5555411381012422,0.4197984607976923,-4.231361491347717,4.7
,,0.019231733652889122,0.01453259107605947,0.0008536942329240725,0.034618018961872665,1.9152459310806156,0.5555411381012422,0.4197984607976923,-4.231361491347717,4.8
,,0.019231733652889122,0.01453259107605947,0.0008536942329240725,0.034618018961872665,1.9034080527166362,0.5555411381012422,0.4197984607976923,-4.231361491347717,4.9
,,0.019231733652889122,0.01453259107605947,0.0008536942329240725,0.034618018961872665,1.8920344048767344,0.5555411381012422,0.4197984607976923,-4.231361491347717,5.0
,,0.019231733652889122,0.01453259107605947,0.0008536942329240725,0.034618018961872665,1.8810982050306748,0.5555411381012422,0.4197984607976923,-4.231361491347717,5.1
,,0.019231733652889122,0.01453259107605947,0.0008536942329240725,0.034618018961872665,1.8705746919712591,0.5555411381012422,0.4197984607976923,-4.231361491347717,5.2
,,0.01845050841502076,0.014199570691446164,0.0007229576711443821,0.033373036777611303,1.8599968432754517,0.5528567429440076,0.42548032970652866,-4.254543547828697,5.3
,,0.022282496377186555,0.024314764582870286,0.0014139965954418127,0.048011257555498656,1.8428408706237183,0.46410982573054005,0.506438819161602,-3.7166715171444578,5.4
,,0.022282496377186555,0.024314764582870286,0.0014139965954418127,0.048011257555498656,1.826297611280976,0.46410982573054005,0.506438819161602,-3.7166715171444578,5.5
,,0.022282496377186555,0.024314764582870286,0.0014139965954418127,0.048011257555498656,1.8103348171783293,0.46410982573054005,0.506438819161602,-3.7166715171444578,5.6
,,0.022282496377186555,0.024314764582870286,0.0014139965954418127,0.048011257555498656,1.7949224642516362,0.46410982573054005,0.506438819161602,-3.7166715171444578,5.7
,,0.022282496377186555,0.024314764582870286,0.0014139965954418127,0.048011257555498656,1.7800325639665258,0.46410982573054005,0.506438819161602,-3.7166715171444578,5.8
,,0.022282496377186555,0.024314764582870286,0.0014139965954418127,0.048011257555498656,1.7656389936909191,0.46410982573054005,0.506438819161602,-3.7166715171444578,5.9
,,0.016570206440724006,0.014704451777712554,0.0007780757907347759,0.03205273400917133,1.7551675947814782,0.5169670217830008,0.4587581132238246,-4.219604989023573,6.0
,,0.016457037493576306,0.014654574559913284,0.0007551406383169937,0.03186675269180658,1.7449712885112711,0.5164328368421316,0.4598703451726725,-4.223002735611651,6.1
,,0.020496960843962943,0.027445233521699978,0.0009782255064197244,0.04892041987208265,1.7291277974480157,0.41898579156839816,0.5610179469731434,-3.595562768300871,6.2
,,0.020496960843962943,0.027445233521699978,0.0009782255064197244,0.04892041987208265,1.713779415480487,0.41898579156839816,0.5610179469731434,-3.595562768300871,6.3
,,0.020496960843962943,0.027445233521699978,0.0009782255064197244,0.04892041987208265,1.6989032914196518,0.41898579156839816,0.5610179469731434,-3.595562768300871,6.4
,,0.020496960843962943,0.027445233521699978,0.0009782255064197244,0.04892041987208265,1.6844779589970236,0.41898579156839816,0.5610179469731434,-3.595562768300871,6.5
,,0.020496960843962943,0.027445233521699978,0.0009782255064197244,0.04892041987208265,1.670483233512384,0.41898579156839816,0.5610179469731434,-3.595562768300871,6.6
,,0.020496960843962943,0.027445233521699978,0.0009782255064197244,0.04892041987208265,1.6569001176008222,0.41898579156839816,0.5610179469731434,-3.595562768300871,6.7
,,0.014919400961165827,0.01530415994034701,0.0008112518993152682,0.031034812800828104,1.6470154664743628,0.48073114076485524,0.4931287982487411,-4.1796305960136015,6.8
,,0.020496960843962943,0.027445233521699978,0.0009782255064197244,0.04892041987208265,1.6341556934036745,0.41898579156839816,0.5610179469731434,-3.595562768300871,6.9
,,0.013785557081837882,0.01585094887523191,0.0006213297319842897,0.03025783568905408,1.6233887001174863,0.4556028799781233,0.5238626132458664,-4.14452591450551,7.0
,,0.013785557081837882,0.01585094887523191,0.0006213297319842897,0.03025783568905408,1.6129207899781361,0.4556028799781233,0.5238626132458664,-4.14452591450551,7.1
,,0.013785557081837882,0.01585094887523191,0.0006213297319842897,0.03025783568905408,1.6027396718973987,0.4556028799781233,0.5238626132458664,-4.14452591450551,7.2
,,0.013785557081837882,0.01585094887523191,0.0006213297319842897,0.03025783568905408,1.592833719170195,0.4556028799781233,0.5238626132458664,-4.14452591450551,7.3
,,0.013785557081837882,0.01585094887523191,0.0006213297319842897,0.03025783568905408,1.583191925182383,0.4556028799781233,0.5238626132458664,-4.14452591450551,7.4
,,0.013785557081837882,0.01585094887523191,0.0006213297319842897,0.03025783568905408,1.5738038626153028,0.4556028799781233,0.5238626132458664,-4.14452591450551,7.5
,,0.013785557081837882,0.01585094887523191,0.0006213297319842897,0.03025783568905408,1.564659645829186,0.4556028799781233,0.5238626132458664,-4.14452591450551,7.6
,,0.013785557081837882,0.01585094887523191,0.0006213297319842897,0.03025783568905408,1.555749896140149,0.4556028799781233,0.5238626132458664,-4.14452591450551,7.7
,,0.01295464955657125,0.016405589511702342,0.0006360980530375686,0.02999633712131116,1.5460524104271225,0.43187438200137795,0.5469197604145757,-4.110133178334962,7.8
,,0.01295464955657125,0.016405589511702342,0.0006360980530375686,0.02999633712131116,1.5365973618569213,0.43187438200137795,0.5469197604145757,-4.110133178334962,7.9
,,0.01295464955657125,0.016405589511702342,0.0006360980530375686,0.02999633712131116,1.527375771276108,0.43187438200137795,0.5469197604145757,-4.110133178334962,8.0
,,0.01295464955657125,0.016405589511702342,0.0006360980530375686,0.02999633712131116,1.5183790975387292,0.43187438200137795,0.5469197604145757,-4.110133178334962,8.1
,,0.01295464955657125,0.016405589511702342,0.0006360980530375686,0.02999633712131116,1.5095992111203234,0.43187438200137795,0.5469197604145757,-4.110133178334962,8.2
,,0.01295464955657125,0.016405589511702342,0.0006360980530375686,0.02999633712131116,1.5010283696166413,0.43187438200137795,0.5469197604145757,-4.110133178334962,8.3
,,0.01295464955657125,0.016405589511702342,0.0006360980530375686,0.02999633712131116,1.4926591949718695,0.43187438200137795,0.5469197604145757,-4.110133178334962,8.4
,,0.01295464955657125,0.016405589511702342,0.0006360980530375686,0.02999633712131116,1.4844846522955808,0.43187438200137795,0.5469197604145757,-4.110133178334962,8.5
,,0.012697208070012407,0.016985394345086308,0.0006421976532513239,0.03032480006835004,1.4760139878237453,0.41870706620962916,0.5601156250594359,-4.075401460383509,8.6
,,0.012697208070012407,0.016985394345086308,0.0006421976532513239,0.03032480006835004,1.4677358384535424,0.41870706620962916,0.5601156250594359,-4.075401460383509,8.7
,,0.012697208070012407,0.016985394345086308,0.0006421976532513239,0.03032480006835004,1.4596437149118833,0.41870706620962916,0.5601156250594359,-4.075401460383509,8.8
,,0.012697208070012407,0.016985394345086308,0.0006421976532513239,0.03032480006835004,1.451731416337817,0.41870706620962916,0.5601156250594359,-4.075401460383509,8.9
,,0.012697208070012407,0.016985394345086308,0.0006421976532513239,0.03032480006835004,1.431836427838884,0.41870706620962916,0.5601156250594359,-4.075401460383509,9.0
,,0.012697208070012407,0.016985394345086308,0.0006421976532513239,0.03032480006835004,1.4119414393399516,0.41870706620962916,0.5601156250594359,-4.075401460383509,9.1
,,0.012697208070012407,0.016985394345086308,0.0006421976532513239,0.03032480006835004,1.3920464508410189,0.41870706620962916,0.5601156250594359,-4.075401460383509,9.2
,,0.012967618001039707,0.017396565543953642,0.0009056693139505893,0.03126985285894394,1.3741791510098507,0.4147003204503616,0.5563366614620254,-4.05148247477555,9.3
,,0.012697208070012407,0.016985394345086308,0.0006421976532513239,0.03032480006835004,1.3571136387476923,0.41870706620962916,0.5601156250594359,-4.075401460383509,9.4
,,0.012931985183847609,0.017509416651210877,0.0006529084423030811,0.031094310277361568,1.3403770815012908,0.4158955470790047,0.5631067708216294,-4.0450164484186155,9.5
,,0.012931985183847609,0.017509416651210877,0.0006529084423030811,0.031094310277361568,1.3236405242548892,0.4158955470790047,0.5631067708216294,-4.0450164484186155,9.6
,,0.012931985183847609,0.017509416651210877,0.0006529084423030811,0.031094310277361568,1.3069039670084879,0.4158955470790047,0.5631067708216294,-4.0450164484186155,9.7
,,0.012931985183847609,0.017509416651210877,0.0006529084423030811,0.031094310277361568,1.2901674097620865,0.4158955470790047,0.5631067708216294,-4.0450164484186155,9.8
,,0.012931985183847609,0.017509416651210877,0.0006529084423030811,0.031094310277361568,1.2734308525156852,0.4158955470790047,0.5631067708216294,-4.0450164484186155,9.9
,,0.012931985183847609,0.017509416651210877,0.0006529084423030811,0.031094310277361568,1.2566942952692837,0.4158955470790047,0.5631067708216294,-4.0450164484186155,10.0
,,0.012931985183847609,0.017509416651210877,0.0006529084423030811,0.031094310277361568,1.2399577380228823,0.4158955470790047,0.5631067708216294,-4.0450164484186155,10.1
,,0.012931985183847609,0.017509416651210877,0.0006529084423030811,0.031094310277361568,1.223221180776481,0.4158955470790047,0.5631067708216294,-4.0450164484186155,10.2
,,0.009501753771561535,0.018661252500079797,0.0006906383270111004,0.02885364459865243,1.2056715961478306,0.3293086160770588,0.6467554709172284,-3.981305963624761,10.3
,,0.009501753771561535,0.018661252500079797,0.0006906383270111004,0.02885364459865243,1.1881220115191806,0.3293086160770588,0.6467554709172284,-3.981305963624761,10.4
,,0.009501753771561535,0.018661252500079797,0.0006906383270111004,0.02885364459865243,1.1705724268905304,0.3293086160770588,0.6467554709172284,-3.981305963624761,10.5
,,0.009501753771561535,0.018661252500079797,0.0006906383270111004,0.02885364459865243,1.1530228422618802,0.3293086160770588,0.6467554709172284,-3.981305963624761,10.6
,,0.009501753771561535,0.018661252500079797,0.0006906383270111004,0.02885364459865243,1.13547325763323,0.3293086160770588,0.6467554709172284,-3.981305963624761,10.7
,,0.009501753771561535,0.018661252500079797,0.0006906383270111004,0.02885364459865243,1.1179236730045798,0.3293086160770588,0.6467554709172284,-3.981305963624761,10.8
,,0.009501753771561535,0.018661252500079797,0.0006906383270111004,0.02885364459865243,1.1003740883759296,0.3293086160770588,0.6467554709172284,-3.981305963624761,10.9
,,0.018110089975444808,0.026593299683053157,0.0016280861764329077,0.04633147583493087,1.0847337457842843,0.3908809216431434,0.5739791190291323,-3.627095986539048,11.0
,,0.009501753771561535,0.018661252500079797,0.0006906383270111004,0.02885364459865243,1.0691823811620447,0.3293086160770588,0.6467554709172284,-3.981305963624761,11.1
,,0.016110468682613732,0.020421119815223772,0.0007521609170153026,0.03728374941485281,1.0567392599009935,0.4321043064460617,0.547721732275364,-3.891185628609964,11.2
,,0.016110468682613732,0.020421119815223772,0.0007521609170153026,0.03728374941485281,1.0442961386399423,0.4321043064460617,0.547721732275364,-3.891185628609964,11.3
,,0.016110468682613732,0.020421119815223772,0.0007521609170153026,0.03728374941485281,1.0318530173788911,0.4321043064460617,0.547721732275364,-3.891185628609964,11.4
,,0.016110468682613732,0.020421119815223772,0.0007521609170153026,0.03728374941485281,1.0194098961178402,0.4321043064460617,0.547721732275364,-3.891185628609964,11.5
,,0.016110468682613732,0.020421119815223772,0.0007521609170153026,0.03728374941485281,1.0069667748567892,0.4321043064460617,0.547721732275364,-3.891185628609964,11.6
,,0.016110468682613732,0.020421119815223772,0.0007521609170153026,0.03728374941485281,0.994523653595738,0.4321043064460617,0.547721732275364,-3.891185628609964,11.7
,,0.016110468682613732,0.020421119815223772,0.0007521609170153026,0.03728374941485281,0.982080532334687,0.4321043064460617,0.547721732275364,-3.891185628609964,11.8
,,0.01649746597249794,0.0208577446530567,0.0010571291521382182,0.03841233977769285,0.9699215500651189,0.42948349587593965,0.5429959428081856,-3.8700299535166143,11.9
,,0.019167133133215275,0.024325278817705895,0.0014932761047302678,0.04498568805565144,0.9596202471348543,0.42607180109157755,0.5407337281940267,-3.716239188788466,12.0
,,0.018557284124526133,0.02236974185063776,0.0008256663968478118,0.04175269237201171,0.9497813837194613,0.44445718516024924,0.5357676494566128,-3.8000460435271157,12.1
,,0.018557284124526133,0.02236974185063776,0.0008256663968478118,0.04175269237201171,0.9399425203040684,0.44445718516024924,0.5357676494566128,-3.8000460435271157,12.2
,,0.018557284124526133,0.02236974185063776,0.0008256663968478118,0.04175269237201171,0.9301036568886755,0.44445718516024924,0.5357676494566128,-3.8000460435271157,12.3
,,0.018557284124526133,0.02236974185063776,0.0008256663968478118,0.04175269237201171,0.9202647934732825,0.44445718516024924,0.5357676494566128,-3.8000460435271157,12.4
,,0.018557284124526133,0.02236974185063776,0.0008256663968478118,0.04175269237201171,0.9104259300578895,0.44445718516024924,0.5357676494566128,-3.8000460435271157,12.5
,,0.018557284124526133,0.02236974185063776,0.0008256663968478118,0.04175269237201171,0.9005870666424965,0.44445718516024924,0.5357676494566128,-3.8000460435271157,12.6
,,0.0112819306336162,0.02280958315676925,0.0014701439990465431,0.035561657789431995,0.8872987602447984,0.31724985096079794,0.6414094441780402,-3.7805745174354946,12.7
,,0.018557284124526133,0.02236974185063776,0.0008256663968478118,0.04175269237201171,0.8796375718610916,0.44445718516024924,0.5357676494566128,-3.8000460435271157,12.8
,,0.01875418213105579,0.022576526733554335,0.0011216403266768266,0.04245234919128695,0.8719888621760058,0.4417701844143163,0.5318086552013006,-3.7908445525725263,12.9
,,0.01875418213105579,0.022576526733554335,0.0011216403266768266,0.04245234919128695,0.86434015249092,0.4417701844143163,0.5318086552013006,-3.7908445525725263,13.0
,,0.02125733536381281,0.0242330925877976,0.0010676239168127195,0.04655805186842313,0.8572082082098899,0.4565769938975922,0.5204919796962791,-3.720036117638899,13.1
,,0.02125733536381281,0.0242330925877976,0.0010676239168127195,0.04655805186842313,0.8500762639288595,0.4565769938975922,0.5204919796962791,-3.720036117638899,13.2
,,0.02125733536381281,0.0242330925877976,0.0010676239168127195,0.04655805186842313,0.8429443196478293,0.4565769938975922,0.5204919796962791,-3.720036117638899,13.3
,,0.02125733536381281,0.0242330925877976,0.0010676239168127195,0.04655805186842313,0.8360404504463999,0.4565769938975922,0.5204919796962791,-3.720036117638899,13.4
,,0.02125733536381281,0.0242330925877976,0.0010676239168127195,0.04655805186842313,0.829195997448933,0.4565769938975922,0.5204919796962791,-3.720036117638899,13.5
,,0.02125733536381281,0.0242330925877976,0.0010676239168127195,0.04655805186842313,0.8242387833732611,0.4565769938975922,0.5204919796962791,-3.720036117638899,13.6
,,0.021786318534648668,0.025037429216433586,0.0012435639482848428,0.04806731169936709,0.8192032052313376,0.4532460369514597,0.5208826608200612,-3.6873834050962,13.7
,,0.021786318534648668,0.025037429216433586,0.0012435639482848428,0.04806731169936709,0.8141676270894143,0.4532460369514597,0.5208826608200612,-3.6873834050962,13.8
,,0.021786318534648668,0.025037429216433586,0.0012435639482848428,0.04806731169936709,0.8091320489474908,0.4532460369514597,0.5208826608200612,-3.6873834050962,13.9
,,0.021786318534648668,0.025037429216433586,0.0012435639482848428,0.04806731169936709,0.8040964708055676,0.4532460369514597,0.5208826608200612,-3.6873834050962,14.0
,,0.011877558989759666,0.0209709636452558,0.0011864598178720322,0.0340349824528875,0.7956856836965236,0.348980905343525,0.6161590849733681,-3.8646164816069337,14.1
,,0.011877558989759666,0.0209709636452558,0.0011864598178720322,0.0340349824528875,0.7872748965874794,0.348980905343525,0.6161590849733681,-3.8646164816069337,14.2
,,0.011877558989759666,0.0209709636452558,0.0011864598178720322,0.0340349824528875,0.7791305667060353,0.348980905343525,0.6161590849733681,-3.8646164816069337,14.3
,,0.011877558989759666,0.0209709636452558,0.0011864598178720322,0.0340349824528875,0.7752412647686749,0.348980905343525,0.6161590849733681,-3.8646164816069337,14.4
,,0.023138519174329755,0.02114960020717948,0.001353926244492436,0.04564204562600167,0.7772148442358245,0.5069562254928391,0.4633797612947223,-3.8561342764023396,14.5
,,0.023138519174329755,0.02114960020717948,0.001353926244492436,0.04564204562600167,0.7791884237029744,0.5069562254928391,0.4633797612947223,-3.8561342764023396,14.6
,,0.023138519174329755,0.02114960020717948,0.001353926244492436,0.04564204562600167,0.7811620031701242,0.5069562254928391,0.4633797612947223,-3.8561342764023396,14.7
,,0.023138519174329755,0.02114960020717948,0.001353926244492436,0.04564204562600167,0.783135582637274,0.5069562254928391,0.4633797612947223,-3.8561342764023396,14.8
,,0.023138519174329755,0.02114960020717948,0.001353926244492436,0.04564204562600167,0.7851091621044238,0.5069562254928391,0.4633797612947223,-3.8561342764023396,14.9
,,0.023398588536757976,0.02475318870848056,0.0011072536114827294,0.049259030856721266,0.7830912962178685,0.47501114272460965,0.5025106722152056,-3.698800961559888,15.0
,,0.023398588536757976,0.02475318870848056,0.0011072536114827294,0.049259030856721266,0.7811166198222731,0.47501114272460965,0.5025106722152056,-3.698800961559888,15.1
,,0.023398588536757976,0.02475318870848056,0.0011072536114827294,0.049259030856721266,0.7833215573655937,0.47501114272460965,0.5025106722152056,-3.698800961559888,15.2
,,0.023342389705616196,0.024741018496169935,0.0012184548314544152,0.049301863033240544,0.7855064226979659,0.47345857274963776,0.5018272530490161,-3.6992927448712396,15.3
,,0.023342389705616196,0.024741018496169935,0.0012184548314544152,0.049301863033240544,0.7876912880303378,0.47345857274963776,0.5018272530490161,-3.6992927448712396,15.4
,,0.023342389705616196,0.024741018496169935,0.0012184548314544152,0.049301863033240544,0.78987615336271,0.47345857274963776,0.5018272530490161,-3.6992927448712396,15.5
,,0.023342389705616196,0.024741018496169935,0.0012184548314544152,0.049301863033240544,0.7920610186950822,0.47345857274963776,0.5018272530490161,-3.6992927448712396,15.6
,,0.023342389705616196,0.024741018496169935,0.0012184548314544152,0.049301863033240544,0.7942458840274541,0.47345857274963776,0.5018272530490161,-3.6992927448712396,15.7
,,0.023342389705616196,0.024741018496169935,0.0012184548314544152,0.049301863033240544,0.7938971067115048,0.47345857274963776,0.5018272530490161,-3.6992927448712396,15.8
,,0.023342389705616196,0.024741018496169935,0.0012184548314544152,0.049301863033240544,0.796081972043877,0.47345857274963776,0.5018272530490161,-3.6992927448712396,15.9
,,0.02307448193660582,0.023673754790589408,0.0010679998396329387,0.04781623656682817,0.7972484945234172,0.48256583105106626,0.49509866293017163,-3.743388237255644,16.0
,,0.02319185292067747,0.02370986509962424,0.0011613813908916502,0.04806309941119336,0.7984535264138791,0.4825292834792994,0.4933070357527229,-3.7418640685193116,16.1
,,0.02319185292067747,0.02370986509962424,0.0011613813908916502,0.04806309941119336,0.799658558304341,0.4825292834792994,0.4933070357527229,-3.7418640685193116,16.2
,,0.02319185292067747,0.02370986509962424,0.0011613813908916502,0.04806309941119336,0.8008635901948026,0.4825292834792994,0.4933070357527229,-3.7418640685193116,16.3
,,0.02319185292067747,0.02370986509962424,0.0011613813908916502,0.04806309941119336,0.8020686220852643,0.4825292834792994,0.4933070357527229,-3.7418640685193116,16.4
,,0.02319185292067747,0.02370986509962424,0.0011613813908916502,0.04806309941119336,0.8032736539757261,0.4825292834792994,0.4933070357527229,-3.7418640685193116,16.5
,,0.02319185292067747,0.02370986509962424,0.0011613813908916502,0.04806309941119336,0.804478685866188,0.4825292834792994,0.4933070357527229,-3.7418640685193116,16.6
,,0.02319185292067747,0.02370986509962424,0.0011613813908916502,0.04806309941119336,0.8056837177566497,0.4825292834792994,0.4933070357527229,-3.7418640685193116,16.7
,,0.022574127306532375,0.02248465786682039,0.0010329593138857338,0.046091744487238503,0.8080651689565752,0.4897650882531146,0.4878239718838534,-3.7949220749383676,16.8
,,0.02280495114380945,0.0225121130530032,0.0008421979774171854,0.04615926217422984,0.8105469411618503,0.4940492995258746,0.4877052186846141,-3.79370175672314,16.9
,,0.02280495114380945,0.0225121130530032,0.0008421979774171854,0.04615926217422984,0.8130287133671257,0.4940492995258746,0.4877052186846141,-3.79370175672314,17.0
,,0.02280495114380945,0.0225121130530032,0.0008421979774171854,0.04615926217422984,0.8155104855724008,0.4940492995258746,0.4877052186846141,-3.79370175672314,17.1
,,0.02280495114380945,0.0225121130530032,0.0008421979774171854,0.04615926217422984,0.817992257777676,0.4940492995258746,0.4877052186846141,-3.79370175672314,17.2
,,0.02280495114380945,0.0225121130530032,0.0008421979774171854,0.04615926217422984,0.8204740299829513,0.4940492995258746,0.4877052186846141,-3.79370175672314,17.3
,,0.02280495114380945,0.0225121130530032,0.0008421979774171854,0.04615926217422984,0.8229558021882266,0.4940492995258746,0.4877052186846141,-3.79370175672314,17.4
,,0.02280495114380945,0.0225121130530032,0.0008421979774171854,0.04615926217422984,0.8254375743935017,0.4940492995258746,0.4877052186846141,-3.79370175672314,17.5
,,0.02280495114380945,0.0225121130530032,0.0008421979774171854,0.04615926217422984,0.828387254171723,0.4940492995258746,0.4877052186846141,-3.79370175672314,17.6
,,0.02212289840014254,0.016412064784653513,0.0006553087344389208,0.03919027191923497,0.8350586845622965,0.5644997423272382,0.4187790484964283,-4.109738557014576,17.7
,,0.02212289840014254,0.016412064784653513,0.0006553087344389208,0.03919027191923497,0.8417301149528698,0.5644997423272382,0.4187790484964283,-4.109738557014576,17.8
,,0.02212289840014254,0.016412064784653513,0.0006553087344389208,0.03919027191923497,0.848401545343443,0.5644997423272382,0.4187790484964283,-4.109738557014576,17.9
,,0.02212289840014254,0.016412064784653513,0.0006553087344389208,0.03919027191923497,0.8550729757340163,0.5644997423272382,0.4187790484964283,-4.109738557014576,18.0
,,0.02212289840014254,0.016412064784653513,0.0006553087344389208,0.03919027191923497,0.8617444061245896,0.5644997423272382,0.4187790484964283,-4.109738557014576,18.1
,,0.02212289840014254,0.016412064784653513,0.0006553087344389208,0.03919027191923497,0.868415836515163,0.5644997423272382,0.4187790484964283,-4.109738557014576,18.2
,,0.02212289840014254,0.016412064784653513,0.0006553087344389208,0.03919027191923497,0.8751108703443412,0.5644997423272382,0.4187790484964283,-4.109738557014576,18.3
,,0.021366205881920043,0.01978746392263314,0.0009608110504363975,0.04211448085498958,0.8788025160533269,0.5073363234724202,0.4698494085862343,-3.922706677016939,18.4
,,0.01783118060714436,0.013093879793145307,0.0005039520749676292,0.0314290124752573,0.8857272036529861,0.5673477848272223,0.416617601442411,-4.335610349305872,18.5
,,0.01783118060714436,0.013093879793145307,0.0005039520749676292,0.0314290124752573,0.8926518912526453,0.5673477848272223,0.416617601442411,-4.335610349305872,18.6
,,0.01783118060714436,0.013093879793145307,0.0005039520749676292,0.0314290124752573,0.8995765788523045,0.5673477848272223,0.416617601442411,-4.335610349305872,18.7
,,0.01783118060714436,0.013093879793145307,0.0005039520749676292,0.0314290124752573,0.9065012664519636,0.5673477848272223,0.416617601442411,-4.335610349305872,18.8
,,0.01783118060714436,0.013093879793145307,0.0005039520749676292,0.0314290124752573,0.9134259540516227,0.5673477848272223,0.416617601442411,-4.335610349305872,18.9
,,0.01783118060714436,0.013093879793145307,0.0005039520749676292,0.0314290124752573,0.920350641651282,0.5673477848272223,0.416617601442411,-4.335610349305872,19.0
,,0.01783118060714436,0.013093879793145307,0.0005039520749676292,0.0314290124752573,0.9272753292509411,0.5673477848272223,0.416617601442411,-4.335610349305872,19.1
,,0.01783118060714436,0.013093879793145307,0.0005039520749676292,0.0314290124752573,0.9342000168506003,0.5673477848272223,0.416617601442411,-4.335610349305872,19.2
,,0.01783118060714436,0.013093879793145307,0.0005039520749676292,0.0314290124752573,0.9436736261649413,0.5673477848272223,0.416617601442411,-4.335610349305872,19.3
,,0.01795864104705223,0.01585026008613467,0.0006595679797663017,0.034468469112953204,0.9506052760817988,0.5210164973733458,0.459848101585056,-4.144569369573624,19.4
,,0.01795864104705223,0.01585026008613467,0.0006595679797663017,0.034468469112953204,0.957536925998656,0.5210164973733458,0.459848101585056,-4.144569369573624,19.5
,,0.01795864104705223,0.01585026008613467,0.0006595679797663017,0.034468469112953204,0.9644685759155135,0.5210164973733458,0.459848101585056,-4.144569369573624,19.6
,,0.01795864104705223,0.01585026008613467,0.0006595679797663017,0.034468469112953204,0.9714002258323708,0.5210164973733458,0.459848101585056,-4.144569369573624,19.7
,,0.01795864104705223,0.01585026008613467,0.0006595679797663017,0.034468469112953204,0.9783318757492283,0.5210164973733458,0.459848101585056,-4.144569369573624,19.8
,,0.01795864104705223,0.01585026008613467,0.0006595679797663017,0.034468469112953204,0.9852635256660858,0.5210164973733458,0.459848101585056,-4.144569369573624,19.9
,,0.01795864104705223,0.01585026008613467,0.0006595679797663017,0.034468469112953204,0.9902859335459384,0.5210164973733458,0.459848101585056,-4.144569369573624,20.0
,,0.018317281173333467,0.0156161065878163,0.0007748608223956869,0.03470824858354545,0.997661527109902,0.5277500859555718,0.4499249378783005,-4.159452423782933,20.1
,,0.01462017680196779,0.01079694152518586,0.0004635463907778031,0.02588066471793145,1.003941431972436,0.5649073144492375,0.41718177036253573,-4.528492377070842,20.2
,,0.017078405134028682,0.014540995169706866,0.0006156258863989125,0.032235026190134464,1.0082257467022337,0.5298089423999144,0.4510930155272261,-4.230783365635228,20.3
,,0.017078405134028682,0.014540995169706866,0.0006156258863989125,0.032235026190134464,1.0125100614320315,0.5298089423999144,0.4510930155272261,-4.230783365635228,20.4
,,0.017078405134028682,0.014540995169706866,0.0006156258863989125,0.032235026190134464,1.0167943761618292,0.5298089423999144,0.4510930155272261,-4.230783365635228,20.5
,,0.017078405134028682,0.014540995169706866,0.0006156258863989125,0.032235026190134464,1.0210786908916267,0.5298089423999144,0.4510930155272261,-4.230783365635228,20.6
,,0.017078405134028682,0.014540995169706866,0.0006156258863989125,0.032235026190134464,1.0253630056214245,0.5298089423999144,0.4510930155272261,-4.230783365635228,20.7
,,0.017078405134028682,0.014540995169706866,0.0006156258863989125,0.032235026190134464,1.0296473203512222,0.5298089423999144,0.4510930155272261,-4.230783365635228,20.8
,,0.017078405134028682,0.014540995169706866,0.0006156258863989125,0.032235026190134464,1.0339089743436505,0.5298089423999144,0.4510930155272261,-4.230783365635228,20.9
,,0.017078405134028682,0.014540995169706866,0.0006156258863989125,0.032235026190134464,1.038203965602114,0.5298089423999144,0.4510930155272261,-4.230783365635228,21.0
,,0.011644727134556726,0.009254161082492112,0.00034990596407595857,0.021248794181124797,1.042967883273638,0.5480182562500738,0.43551464631873277,-4.6826819818526175,21.1
,,0.011644727134556726,0.009254161082492112,0.00034990596407595857,0.021248794181124797,1.047731800945162,0.5480182562500738,0.43551464631873277,-4.6826819818526175,21.2
,,0.011644727134556726,0.009254161082492112,0.00034990596407595857,0.021248794181124797,1.0524957186166861,0.5480182562500738,0.43551464631873277,-4.6826819818526175,21.3
,,0.011644727134556726,0.009254161082492112,0.00034990596407595857,0.021248794181124797,1.05725963628821,0.5480182562500738,0.43551464631873277,-4.6826819818526175,21.4
,,0.011644727134556726,0.009254161082492112,0.00034990596407595857,0.021248794181124797,1.0620235539597342,0.5480182562500738,0.43551464631873277,-4.6826819818526175,21.5
,,0.011644727134556726,0.009254161082492112,0.00034990596407595857,0.021248794181124797,1.0667874716312584,0.5480182562500738,0.43551464631873277,-4.6826819818526175,21.6
,,0.011644727134556726,0.009254161082492112,0.00034990596407595857,0.021248794181124797,1.0752731354226814,0.5480182562500738,0.43551464631873277,-4.6826819818526175,21.7
,,0.011644727134556726,0.009254161082492112,0.00034990596407595857,0.021248794181124797,1.0800370530942054,0.5480182562500738,0.43551464631873277,-4.6826819818526175,21.8
,,0.01727826158041832,0.013710527619194482,0.0005744901853894362,0.03156327938500224,1.084809549932148,0.5474165523062963,0.4343822279033922,-4.2895913018891525,21.9
,,0.01727826158041832,0.013710527619194482,0.0005744901853894362,0.03156327938500224,1.0895820467700903,0.5474165523062963,0.4343822279033922,-4.2895913018891525,22.0
,,0.01727826158041832,0.013710527619194482,0.0005744901853894362,0.03156327938500224,1.0938377782039774,0.5474165523062963,0.4343822279033922,-4.2895913018891525,22.1
,,0.01727826158041832,0.013710527619194482,0.0005744901853894362,0.03156327938500224,1.0980935096378643,0.5474165523062963,0.4343822279033922,-4.2895913018891525,22.2
,,0.01727826158041832,0.013710527619194482,0.0005744901853894362,0.03156327938500224,1.1023492410717515,0.5474165523062963,0.4343822279033922,-4.2895913018891525,22.3
,,0.01727826158041832,0.013710527619194482,0.0005744901853894362,0.03156327938500224,1.1066049725056384,0.5474165523062963,0.4343822279033922,-4.2895913018891525,22.4
,,0.01727826158041832,0.013710527619194482,0.0005744901853894362,0.03156327938500224,1.1108607039395255,0.5474165523062963,0.4343822279033922,-4.2895913018891525,22.5
,,0.01727826158041832,0.013710527619194482,0.0005744901853894362,0.03156327938500224,1.1151164353734124,0.5474165523062963,0.4343822279033922,-4.2895913018891525,22.6
,,0.010424822646875066,0.00924360932655974,0.00024840263565975075,0.019916834609094557,1.117979069186562,0.5234176439922242,0.4641103623132393,-4.6838228498430325,22.7
,,0.010424822646875066,0.00924360932655974,0.00024840263565975075,0.019916834609094557,1.1208417029997118,0.5234176439922242,0.4641103623132393,-4.6838228498430325,22.8
,,0.010424822646875066,0.00924360932655974,0.00024840263565975075,0.019916834609094557,1.1237043368128614,0.5234176439922242,0.4641103623132393,-4.6838228498430325,22.9
,,0.010424822646875066,0.00924360932655974,0.00024840263565975075,0.019916834609094557,1.126566970626011,0.5234176439922242,0.4641103623132393,-4.6838228498430325,23.0
,,0.010424822646875066,0.00924360932655974,0.00024840263565975075,0.019916834609094557,1.1328048134062814,0.5234176439922242,0.4641103623132393,-4.6838228498430325,23.1
,,0.010424822646875066,0.00924360932655974,0.00024840263565975075,0.019916834609094557,1.1390426561865519,0.5234176439922242,0.4641103623132393,-4.6838228498430325,23.2
,,0.010424822646875066,0.00924360932655974,0.00024840263565975075,0.019916834609094557,1.145280498966822,0.5234176439922242,0.4641103623132393,-4.6838228498430325,23.3
,,0.01915335170285454,0.014341799244428792,0.0006628087694747004,0.034157959716758036,1.1538261698217211,0.5607287982559985,0.419866975760635,-4.244576981358617,23.4
,,0.01915335170285454,0.014341799244428792,0.0006628087694747004,0.034157959716758036,1.1565089592721103,0.5607287982559985,0.419866975760635,-4.244576981358617,23.5
,,0.010578971479966393,0.009791503592488466,0.0002531422765977991,0.02062361734905266,1.156357660297332,0.5129542165624177,0.47477139566586446,-4.626240249708766,23.6
,,0.010578971479966393,0.009791503592488466,0.0002531422765977991,0.02062361734905266,1.1562063613225537,0.5129542165624177,0.47477139566586446,-4.626240249708766,23.7
,,0.010578971479966393,0.009791503592488466,0.0002531422765977991,0.02062361734905266,1.1560550623477754,0.5129542165624177,0.47477139566586446,-4.626240249708766,23.8
,,0.010578971479966393,0.009791503592488466,0.0002531422765977991,0.02062361734905266,1.1559037633729972,0.5129542165624177,0.47477139566586446,-4.626240249708766,23.9
,,0.010578971479966393,0.009791503592488466,0.0002531422765977991,0.02062361734905266,1.1574054062765362,0.5129542165624177,0.47477139566586446,-4.626240249708766,24.0
,,0.020535186086760505,0.015091922605406443,0.0006714830758238918,0.036298591767990836,1.1620209421542593,0.5657295527610258,0.41577157322987235,-4.193595605079914,24.1
,,0.020535186086760505,0.015091922605406443,0.0006714830758238918,0.036298591767990836,1.1666364780319824,0.5657295527610258,0.41577157322987235,-4.193595605079914,24.2
,,0.020535186086760505,0.015091922605406443,0.0006714830758238918,0.036298591767990836,1.171272086120654,0.5657295527610258,0.41577157322987235,-4.193595605079914,24.3
,,0.02171674270058972,0.01599609236792718,0.0005917538940443696,0.03830458896256127,1.175873850084699,0.5669488510062218,0.4176025066751582,-4.135410813575178,24.4
,,0.02171674270058972,0.01599609236792718,0.0005917538940443696,0.03830458896256127,1.1804756140487438,0.5669488510062218,0.4176025066751582,-4.135410813575178,24.5
,,0.02171674270058972,0.01599609236792718,0.0005917538940443696,0.03830458896256127,1.1850773780127888,0.5669488510062218,0.4176025066751582,-4.135410813575178,24.6
,,0.02171674270058972,0.01599609236792718,0.0005917538940443696,0.03830458896256127,1.1896791419768336,0.5669488510062218,0.4176025066751582,-4.135410813575178,24.7
,,0.02171674270058972,0.01599609236792718,0.0005917538940443696,0.03830458896256127,1.1942809059408785,0.5669488510062218,0.4176025066751582,-4.135410813575178,24.8
,,0.022612405724778666,0.01631863381075726,0.0006966678410993798,0.039627707376635304,1.1991943597595711,0.570621093717651,0.4117985846533935,-4.115447645526418,24.9
,,0.022612405724778666,0.01631863381075726,0.0006966678410993798,0.039627707376635304,1.2037609584471165,0.570621093717651,0.4117985846533935,-4.115447645526418,25.0
,,0.022612405724778666,0.01631863381075726,0.0006966678410993798,0.039627707376635304,1.2082890477237405,0.570621093717651,0.4117985846533935,-4.115447645526418,25.1
,,0.024472631510726053,0.017612672910698603,0.0006251295656641173,0.04271043398708877,1.212859468633495,0.5729895303364057,0.41237400949901043,-4.039136584306673,25.2
,,0.024472631510726053,0.017612672910698603,0.0006251295656641173,0.04271043398708877,1.2174298895432498,0.5729895303364057,0.41237400949901043,-4.039136584306673,25.3
,,0.024472631510726053,0.017612672910698603,0.0006251295656641173,0.04271043398708877,1.2220003104530044,0.5729895303364057,0.41237400949901043,-4.039136584306673,25.4
,,0.024472631510726053,0.017612672910698603,0.0006251295656641173,0.04271043398708877,1.2265707313627592,0.5729895303364057,0.41237400949901043,-4.039136584306673,25.5
,,0.024472631510726053,0.017612672910698603,0.0006251295656641173,0.04271043398708877,1.2311411522725138,0.5729895303364057,0.41237400949901043,-4.039136584306673,25.6
,,0.025565216583352694,0.018066598738137426,0.0007455207758945189,0.04437733609738464,1.2359956208123806,0.5760872290137166,0.4071131872019279,-4.013690419093407,25.7
,,0.025565216583352694,0.018066598738137426,0.0007455207758945189,0.04437733609738464,1.2405631216569308,0.5760872290137166,0.4071131872019279,-4.013690419093407,25.8
,,0.025565216583352694,0.018066598738137426,0.0007455207758945189,0.04437733609738464,1.2450303014961317,0.5760872290137166,0.4071131872019279,-4.013690419093407,25.9
,,0.025565216583352694,0.018066598738137426,0.0007455207758945189,0.04437733609738464,1.2494974813353321,0.5760872290137166,0.4071131872019279,-4.013690419093407,26.0
,,0.027071648185992,0.018988603099982296,0.0006544896778365556,0.046714740963810855,1.2540827117808793,0.5795097570371622,0.40647989709912885,-3.9639163166328264,26.1
,,0.027071648185992,0.018988603099982296,0.0006544896778365556,0.046714740963810855,1.2586679422264262,0.5795097570371622,0.40647989709912885,-3.9639163166328264,26.2
,,0.027071648185992,0.018988603099982296,0.0006544896778365556,0.046714740963810855,1.2632531726719731,0.5795097570371622,0.40647989709912885,-3.9639163166328264,26.3
,,0.027071648185992,0.018988603099982296,0.0006544896778365556,0.046714740963810855,1.2678384031175198,0.5795097570371622,0.40647989709912885,-3.9639163166328264,26.4
,,0.027822377820422087,0.019184468903008213,0.0007754768100566323,0.04778232353348693,1.2726967062593926,0.5822734384384538,0.4014971957059247,-3.9536542385953446,26.5
,,0.027822377820422087,0.019184468903008213,0.0007754768100566323,0.04778232353348693,1.277555009401265,0.5822734384384538,0.4014971957059247,-3.9536542385953446,26.6
,,0.027822377820422087,0.019184468903008213,0.0007754768100566323,0.04778232353348693,1.2786915619307857,0.5822734384384538,0.4014971957059247,-3.9536542385953446,26.7
,,0.027822377820422087,0.019184468903008213,0.0007754768100566323,0.04778232353348693,1.279828114460306,0.5822734384384538,0.4014971957059247,-3.9536542385953446,26.8
,,0.02076516304431468,0.019966652340165928,0.0009715613650078904,0.04170337674948849,1.276406188228676,0.49792522003795225,0.4787778327905024,-3.9136917800500055,26.9
,,0.02076516304431468,0.019966652340165928,0.0009715613650078904,0.04170337674948849,1.272984261997046,0.49792522003795225,0.4787778327905024,-3.9136917800500055,27.0
,,0.02076516304431468,0.019966652340165928,0.0009715613650078904,0.04170337674948849,1.269562335765416,0.49792522003795225,0.4787778327905024,-3.9136917800500055,27.1
,,0.030499605376740242,0.02042858873289032,0.0008194155026803318,0.051747609612310896,1.2711736783513172,0.5893915797317197,0.3947735728459678,-3.890819950713341,27.2
,,0.030499605376740242,0.02042858873289032,0.0008194155026803318,0.051747609612310896,1.2727850209372185,0.5893915797317197,0.3947735728459678,-3.890819950713341,27.3
,,0.030499605376740242,0.02042858873289032,0.0008194155026803318,0.051747609612310896,1.2773761482047072,0.5893915797317197,0.3947735728459678,-3.890819950713341,27.4
,,0.030499605376740242,0.02042858873289032,0.0008194155026803318,0.051747609612310896,1.278833830063298,0.5893915797317197,0.3947735728459678,-3.890819950713341,27.5
,,0.030499605376740242,0.02042858873289032,0.0008194155026803318,0.051747609612310896,1.2802915119218885,0.5893915797317197,0.3947735728459678,-3.890819950713341,27.6
,,0.030499605376740242,0.02042858873289032,0.0008194155026803318,0.051747609612310896,1.2817491937804792,0.5893915797317197,0.3947735728459678,-3.890819950713341,27.7
,,0.03335160810549657,0.02159794637960294,0.0010381487195267084,0.05598770320462622,1.2837759460255795,0.5956952365701037,0.3857623217845864,-3.8351570438303164,27.8
,,0.03335160810549657,0.02159794637960294,0.0010381487195267084,0.05598770320462622,1.2858026982706798,0.5956952365701037,0.3857623217845864,-3.8351570438303164,27.9
,,0.03389869815342868,0.021917866212764488,0.0008915393986442924,0.05670810376483746,1.2878563534606076,0.5977752014774292,0.38650324658457236,-3.820453165948776,28.0
,,0.03389869815342868,0.021917866212764488,0.0008915393986442924,0.05670810376483746,1.2899100086505357,0.5977752014774292,0.38650324658457236,-3.820453165948776,28.1
,,0.03389869815342868,0.021917866212764488,0.0008915393986442924,0.05670810376483746,1.2919636638404635,0.5977752014774292,0.38650324658457236,-3.820453165948776,28.2
,,0.03389869815342868,0.021917866212764488,0.0008915393986442924,0.05670810376483746,1.2940173190303916,0.5977752014774292,0.38650324658457236,-3.820453165948776,28.3
,,0.03389869815342868,0.021917866212764488,0.0008915393986442924,0.05670810376483746,1.298612933617803,0.5977752014774292,0.38650324658457236,-3.820453165948776,28.4
,,0.03389869815342868,0.021917866212764488,0.0008915393986442924,0.05670810376483746,1.3032085482052147,0.5977752014774292,0.38650324658457236,-3.820453165948776,28.5
,,0.03742282867532815,0.02329080680547523,0.0011255822696040413,0.061839217750407426,1.3084723843060926,0.6051633580872972,0.3766348872568295,-3.7596965539737797,28.6
,,0.03742282867532815,0.02329080680547523,0.0011255822696040413,0.061839217750407426,1.3137362204069705,0.6051633580872972,0.3766348872568295,-3.7596965539737797,28.7
,,0.03811659348155429,0.02360101543246722,0.0009955903123272597,0.06271319922634877,1.319092017131245,0.607792202467319,0.3763325061329565,-3.7464655410767405,28.8
,,0.03811659348155429,0.02360101543246722,0.0009955903123272597,0.06271319922634877,1.3244478138555198,0.607792202467319,0.3763325061329565,-3.7464655410767405,28.9
,,0.03811659348155429,0.02360101543246722,0.0009955903123272597,0.06271319922634877,1.3298036105797946,0.607792202467319,0.3763325061329565,-3.7464655410767405,29.0
,,0.03811659348155429,0.02360101543246722,0.0009955903123272597,0.06271319922634877,1.3347154636569631,0.607792202467319,0.3763325061329565,-3.7464655410767405,29.1
,,0.03811659348155429,0.02360101543246722,0.0009955903123272597,0.06271319922634877,1.3376147620743724,0.607792202467319,0.3763325061329565,-3.7464655410767405,29.2
,,0.03811659348155429,0.02360101543246722,0.0009955903123272597,0.06271319922634877,1.3425096506245182,0.607792202467319,0.3763325061329565,-3.7464655410767405,29.3
,,0.022357604537594947,0.02079915027318296,0.0009286602139244959,0.0440854150247024,1.3414032985472235,0.507142884445282,0.47179209408663986,-3.87284314536016,29.4
,,0.04284272069235914,0.02529092899807351,0.0011188110153510758,0.06925246070578372,1.3471754662921152,0.6186454640850194,0.365198994235324,-3.6773094851641974,29.5
,,0.022357604537594947,0.02079915027318296,0.0009286602139244959,0.0440854150247024,1.3460691142148202,0.507142884445282,0.47179209408663986,-3.87284314536016,29.6
,,0.022798127900443783,0.021401691874122598,0.0008520645080286884,0.04505188428259507,1.3448552078550775,0.506041606549438,0.47504543294742346,-3.8442853005409328,29.7
,,0.022798127900443783,0.021401691874122598,0.0008520645080286884,0.04505188428259507,1.3436413014953348,0.506041606549438,0.47504543294742346,-3.8442853005409328,29.8
,,0.022798127900443783,0.021401691874122598,0.0008520645080286884,0.04505188428259507,1.342427395135592,0.506041606549438,0.47504543294742346,-3.8442853005409328,29.9
,,0.022798127900443783,0.021401691874122598,0.0008520645080286884,0.04505188428259507,1.3412134887758493,0.506041606549438,0.47504543294742346,-3.8442853005409328,30.0
,,0.022798127900443783,0.021401691874122598,0.0008520645080286884,0.04505188428259507,1.3390682164881744,0.506041606549438,0.47504543294742346,-3.8442853005409328,30.1
,,0.04777190428058842,0.026745490635494463,0.0013992048074252174,0.07591659972350809,1.3449331422131272,0.6292682292749674,0.3523009556922047,-3.621389394224417,30.2
,,0.04777190428058842,0.026745490635494463,0.0013992048074252174,0.07591659972350809,1.3507980679380798,0.6292682292749674,0.3523009556922047,-3.621389394224417,30.3
,,0.04777190428058842,0.026745490635494463,0.0013992048074252174,0.07591659972350809,1.3566629936630326,0.6292682292749674,0.3523009556922047,-3.621389394224417,30.4
,,0.025886119282690755,0.023530405128339423,0.0010140116242444285,0.05043053603527461,1.3549051076374774,0.5133024813494786,0.46659042275260826,-3.7494618588670985,30.5
,,0.025886119282690755,0.023530405128339423,0.0010140116242444285,0.05043053603527461,1.3531472216119222,0.5133024813494786,0.46659042275260826,-3.7494618588670985,30.6
,,0.025886119282690755,0.023530405128339423,0.0010140116242444285,0.05043053603527461,1.3513893355863673,0.5133024813494786,0.46659042275260826,-3.7494618588670985,30.7
,,0.025886119282690755,0.023530405128339423,0.0010140116242444285,0.05043053603527461,1.3496314495608122,0.5133024813494786,0.46659042275260826,-3.7494618588670985,30.8
,,0.025886119282690755,0.023530405128339423,0.0010140116242444285,0.05043053603527461,1.3478525056702173,0.5133024813494786,0.46659042275260826,-3.7494618588670985,30.9
,,0.025886119282690755,0.023530405128339423,0.0010140116242444285,0.05043053603527461,1.3460735617796227,0.5133024813494786,0.46659042275260826,-3.7494618588670985,31.0
,,0.05354614348687339,0.0281129228902522,0.0015839798767893856,0.08324304625391499,1.3532342527821841,0.643250648511137,0.3377209767708378,-3.571525919026307,31.1
,,0.05354614348687339,0.0281129228902522,0.0015839798767893856,0.08324304625391499,1.3603949437847451,0.643250648511137,0.3377209767708378,-3.571525919026307,31.2
,,0.04231613045027435,0.027801936999374558,0.0014688798126474296,0.07158694726229634,1.363304258668286,0.5911151692951372,0.3883660089248893,-3.582649584476327,31.3
,,0.04231613045027435,0.027801936999374558,0.0014688798126474296,0.07158694726229634,1.3662135735518268,0.5911151692951372,0.3883660089248893,-3.582649584476327,31.4
,,0.04231613045027435,0.027801936999374558,0.0014688798126474296,0.07158694726229634,1.3691228884353674,0.5911151692951372,0.3883660089248893,-3.582649584476327,31.5
,,0.04231613045027435,0.027801936999374558,0.0014688798126474296,0.07158694726229634,1.3720322033189083,0.5911151692951372,0.3883660089248893,-3.582649584476327,31.6
,,0.04231613045027435,0.027801936999374558,0.0014688798126474296,0.07158694726229634,1.3764129798894376,0.5911151692951372,0.3883660089248893,-3.582649584476327,31.7
,,0.04231613045027435,0.027801936999374558,0.0014688798126474296,0.07158694726229634,1.3807937564599673,0.5911151692951372,0.3883660089248893,-3.582649584476327,31.8
,,0.05537116968896446,0.0272907314011072,0.001668475185942186,0.08433037627601384,1.3908065319400744,0.6565981575575364,0.3236168579609377,-3.6012081435544436,31.9
,,0.05537116968896446,0.0272907314011072,0.001668475185942186,0.08433037627601384,1.4008193074201818,0.6565981575575364,0.3236168579609377,-3.6012081435544436,32.0
,,0.03581678271723274,0.02968489736492804,0.0014924396953599074,0.06699411977752069,1.4016946274534123,0.5346257676968652,0.4430970578239996,-3.517116868738002,32.1
,,0.03581678271723274,0.02968489736492804,0.0014924396953599074,0.06699411977752069,1.4025699474866424,0.5346257676968652,0.4430970578239996,-3.517116868738002,32.2
,,0.03581678271723274,0.02968489736492804,0.0014924396953599074,0.06699411977752069,1.4034452675198728,0.5346257676968652,0.4430970578239996,-3.517116868738002,32.3
,,0.03581678271723274,0.02968489736492804,0.0014924396953599074,0.06699411977752069,1.4020127594784741,0.5346257676968652,0.4430970578239996,-3.517116868738002,32.4
,,0.03581678271723274,0.02968489736492804,0.0014924396953599074,0.06699411977752069,1.4005802514370758,0.5346257676968652,0.4430970578239996,-3.517116868738002,32.5
,,0.03581678271723274,0.02968489736492804,0.0014924396953599074,0.06699411977752069,1.4019818318208443,0.5346257676968652,0.4430970578239996,-3.517116868738002,32.6
,,0.05407217895060204,0.02507170873488587,0.0016719586669230147,0.08081584635241093,1.4139404695354114,0.6690789169590741,0.31023258267390424,-3.686015210583133,32.7
,,0.0539587488508327,0.025192638434530876,0.0015733729841081864,0.08072476026947176,1.4257340505219938,0.6684287283196634,0.31208068441992204,-3.681203452755612,32.8
,,0.05407217895060204,0.02507170873488587,0.0016719586669230147,0.08081584635241093,1.4376926882365608,0.6690789169590741,0.31023258267390424,-3.686015210583133,32.9
,,0.05393905593137451,0.0251853568166675,0.0015950973478697874,0.0807195100959118,1.4494844618165337,0.6682282371050511,0.3120107739348515,-3.6814925320600893,33.0
,,0.05393905593137451,0.0251853568166675,0.0015950973478697874,0.0807195100959118,1.458162342422323,0.6682282371050511,0.3120107739348515,-3.6814925320600893,33.1
,,0.05393905593137451,0.0251853568166675,0.0015950973478697874,0.0807195100959118,1.4668402230281117,0.6682282371050511,0.3120107739348515,-3.6814925320600893,33.2
,,0.05393905593137451,0.0251853568166675,0.0015950973478697874,0.0807195100959118,1.4755181036339005,0.6682282371050511,0.3120107739348515,-3.6814925320600893,33.3
,,0.05393905593137451,0.0251853568166675,0.0015950973478697874,0.0807195100959118,1.4842298283643163,0.6682282371050511,0.3120107739348515,-3.6814925320600893,33.4
,,0.05393905593137451,0.0251853568166675,0.0015950973478697874,0.0807195100959118,1.4929415530947319,0.6682282371050511,0.3120107739348515,-3.6814925320600893,33.5
,,0.05319907076143998,0.02343784921710962,0.0016944512552824623,0.07833137123383206,1.5030767221079682,0.6791540850552964,0.29921408048818365,-3.7534030754325,33.6
,,0.05319907076143998,0.02343784921710962,0.0016944512552824623,0.07833137123383206,1.5132118911212042,0.6791540850552964,0.29921408048818365,-3.7534030754325,33.7
,,0.05330303773466439,0.02391841611060322,0.0016455771365788724,0.07886703098184647,1.5228886404757516,0.6758595711170314,0.3032752192244784,-3.7331065682039952,33.8
,,0.05330303773466439,0.02391841611060322,0.0016455771365788724,0.07886703098184647,1.5322536999756515,0.6758595711170314,0.3032752192244784,-3.7331065682039952,33.9
,,0.05330303773466439,0.02391841611060322,0.0016455771365788724,0.07886703098184647,1.541618759475551,0.6758595711170314,0.3032752192244784,-3.7331065682039952,34.0
,,0.05330303773466439,0.02391841611060322,0.0016455771365788724,0.07886703098184647,1.550983818975451,0.6758595711170314,0.3032752192244784,-3.7331065682039952,34.1
,,0.05330303773466439,0.02391841611060322,0.0016455771365788724,0.07886703098184647,1.5603065468422197,0.6758595711170314,0.3032752192244784,-3.7331065682039952,34.2
,,0.05330303773466439,0.02391841611060322,0.0016455771365788724,0.07886703098184647,1.5696292747089884,0.6758595711170314,0.3032752192244784,-3.7331065682039952,34.3
,,0.05287787868160282,0.02256891473947123,0.0017415714498590854,0.07718836487093314,1.5802232952144748,0.6850498617248862,0.2923875220988133,-3.7911817735147464,34.4
,,0.05287787868160282,0.02256891473947123,0.0017415714498590854,0.07718836487093314,1.5908173157199614,0.6850498617248862,0.2923875220988133,-3.7911817735147464,34.5
,,0.05319254203013631,0.02337957145083731,0.0017017541406014573,0.07827386762157508,1.600658225649781,0.6795696143098792,0.29868936033503296,-3.7558926528394267,34.6
,,0.05319254203013631,0.02337957145083731,0.0017017541406014573,0.07827386762157508,1.6102150879494883,0.6795696143098792,0.29868936033503296,-3.7558926528394267,34.7
,,0.05319254203013631,0.02337957145083731,0.0017017541406014573,0.07827386762157508,1.619771950249196,0.6795696143098792,0.29868936033503296,-3.7558926528394267,34.8
,,0.05319254203013631,0.02337957145083731,0.0017017541406014573,0.07827386762157508,1.6293288125489036,0.6795696143098792,0.29868936033503296,-3.7558926528394267,34.9
,,0.05319254203013631,0.02337957145083731,0.0017017541406014573,0.07827386762157508,1.6388856748486114,0.6795696143098792,0.29868936033503296,-3.7558926528394267,35.0
,,0.05319254203013631,0.02337957145083731,0.0017017541406014573,0.07827386762157508,1.6483244865419724,0.6795696143098792,0.29868936033503296,-3.7558926528394267,35.1
,,0.05319254203013631,0.02337957145083731,0.0017017541406014573,0.07827386762157508,1.6577632982353339,0.6795696143098792,0.29868936033503296,-3.7558926528394267,35.2
,,0.05317684990994707,0.022503108068934023,0.0018025283881048162,0.0774824863669859,1.668178968897009,0.6863079955653683,0.2904283164372259,-3.7941018429146487,35.3
,,0.05363770313899585,0.023637646306702228,0.0017788236172977653,0.07905417306299585,1.6775510304167394,0.6784930012012599,0.2990056740947263,-3.744914655415353,35.4
,,0.05363770313899585,0.023637646306702228,0.0017788236172977653,0.07905417306299585,1.6866500192401446,0.6784930012012599,0.2990056740947263,-3.744914655415353,35.5
,,0.05363770313899585,0.023637646306702228,0.0017788236172977653,0.07905417306299585,1.6957490080635491,0.6784930012012599,0.2990056740947263,-3.744914655415353,35.6
,,0.05363770313899585,0.023637646306702228,0.0017788236172977653,0.07905417306299585,1.704847996886954,0.6784930012012599,0.2990056740947263,-3.744914655415353,35.7
,,0.05363770313899585,0.023637646306702228,0.0017788236172977653,0.07905417306299585,1.7139469857103589,0.6784930012012599,0.2990056740947263,-3.744914655415353,35.8
,,0.05363770313899585,0.023637646306702228,0.0017788236172977653,0.07905417306299585,1.7276044532949144,0.6784930012012599,0.2990056740947263,-3.744914655415353,35.9
,,0.05363770313899585,0.023637646306702228,0.0017788236172977653,0.07905417306299585,1.7412619208794697,0.6784930012012599,0.2990056740947263,-3.744914655415353,36.0
,,0.05363770313899585,0.023637646306702228,0.0017788236172977653,0.07905417306299585,1.7549193884640255,0.6784930012012599,0.2990056740947263,-3.744914655415353,36.1
,,0.05117166812409411,0.03336812461392436,0.0023330696294313657,0.08687286236744983,1.755370088554579,0.5890408895202639,0.38410297191297543,-3.4001541875606507,36.2
,,0.05088458692943285,0.03274189313536263,0.0019427814547033884,0.08556926151949887,1.756049267840421,0.594659647937217,0.3826361540808864,-3.4190998853949495,36.3
,,0.05088458692943285,0.03274189313536263,0.0019427814547033884,0.08556926151949887,1.756728447126263,0.594659647937217,0.3826361540808864,-3.4190998853949495,36.4
,,0.05088458692943285,0.03274189313536263,0.0019427814547033884,0.08556926151949887,1.7574076264121052,0.594659647937217,0.3826361540808864,-3.4190998853949495,36.5
,,0.05088458692943285,0.03274189313536263,0.0019427814547033884,0.08556926151949887,1.758086805697947,0.594659647937217,0.3826361540808864,-3.4190998853949495,36.6
,,0.05088458692943285,0.03274189313536263,0.0019427814547033884,0.08556926151949887,1.7587659849837893,0.594659647937217,0.3826361540808864,-3.4190998853949495,36.7
,,0.05088458692943285,0.03274189313536263,0.0019427814547033884,0.08556926151949887,1.7588760938831216,0.594659647937217,0.3826361540808864,-3.4190998853949495,36.8
,,0.05088458692943285,0.03274189313536263,0.0019427814547033884,0.08556926151949887,1.7589862027824539,0.594659647937217,0.3826361540808864,-3.4190998853949495,36.9
,,0.05598357591113372,0.02637595112087543,0.0017130317792680982,0.08407255881127725,1.7653850859192426,0.6658959439643491,0.31372842094747133,-3.6353026263811126,37.0
,,0.05605994521576149,0.026594042691974445,0.0017158931008868148,0.08436988100862275,1.7716224729131256,0.6644544776592972,0.31520777763401714,-3.627068047225363,37.1
,,0.05605994521576149,0.026594042691974445,0.0017158931008868148,0.08436988100862275,1.7778598599070083,0.6644544776592972,0.31520777763401714,-3.627068047225363,37.2
,,0.05605994521576149,0.026594042691974445,0.0017158931008868148,0.08436988100862275,1.7840972469008913,0.6644544776592972,0.31520777763401714,-3.627068047225363,37.3
,,0.05605994521576149,0.026594042691974445,0.0017158931008868148,0.08436988100862275,1.790334633894774,0.6644544776592972,0.31520777763401714,-3.627068047225363,37.4
,,0.05605994521576149,0.026594042691974445,0.0017158931008868148,0.08436988100862275,1.796572020888657,0.6644544776592972,0.31520777763401714,-3.627068047225363,37.5
,,0.05605994521576149,0.026594042691974445,0.0017158931008868148,0.08436988100862275,1.8021411863690737,0.6644544776592972,0.31520777763401714,-3.627068047225363,37.6
,,0.05605994521576149,0.026594042691974445,0.0017158931008868148,0.08436988100862275,1.8077103518494901,0.6644544776592972,0.31520777763401714,-3.627068047225363,37.7
,,0.05605994521576149,0.026594042691974445,0.0017158931008868148,0.08436988100862275,1.81318755670651,0.6644544776592972,0.31520777763401714,-3.627068047225363,37.8
,,0.05737354727456501,0.027212499420853267,0.0020641653717277846,0.08665021206714606,1.8186688047121107,0.6621281807147306,0.3140500037064658,-3.60407887370385,37.9
,,0.05777545546261466,0.029286169565446513,0.001779647437250896,0.08884127246531207,1.8226437975777086,0.6503222416717748,0.32964599394815347,-3.530639902882684,38.0
,,0.05777545546261466,0.029286169565446513,0.001779647437250896,0.08884127246531207,1.8266187904433062,0.6503222416717748,0.32964599394815347,-3.530639902882684,38.1
,,0.05777545546261466,0.029286169565446513,0.001779647437250896,0.08884127246531207,1.8305937833089043,0.6503222416717748,0.32964599394815347,-3.530639902882684,38.2
,,0.05777545546261466,0.029286169565446513,0.001779647437250896,0.08884127246531207,1.8345687761745018,0.6503222416717748,0.32964599394815347,-3.530639902882684,38.3
,,0.05777545546261466,0.029286169565446513,0.001779647437250896,0.08884127246531207,1.8445450096675402,0.6503222416717748,0.32964599394815347,-3.530639902882684,38.4
,,0.05777545546261466,0.029286169565446513,0.001779647437250896,0.08884127246531207,1.8476427233383927,0.6503222416717748,0.32964599394815347,-3.530639902882684,38.5
,,0.05777545546261466,0.029286169565446513,0.001779647437250896,0.08884127246531207,1.8576189568314307,0.6503222416717748,0.32964599394815347,-3.530639902882684,38.6
,,0.05797109497443677,0.030858570224484818,0.002108480654823753,0.09093814585374534,1.8666562582994242,0.6374783038535989,0.33933581925140927,-3.478340764148149,38.7
,,0.05849596752690901,0.0298680751990962,0.0021205186391352027,0.09048456136514041,1.8765810262634792,0.6464745658748903,0.3300902910781309,-3.5109650880973677,38.8
,,0.05853818944405069,0.0320160385733712,0.0018050397123007065,0.0923592677297226,1.8850605057496337,0.6338095881764145,0.346646734652141,-3.441518296326043,38.9
,,0.05853818944405069,0.0320160385733712,0.0018050397123007065,0.0923592677297226,1.8935399852357881,0.6338095881764145,0.346646734652141,-3.441518296326043,39.0
,,0.05853818944405069,0.0320160385733712,0.0018050397123007065,0.0923592677297226,1.9020194647219426,0.6338095881764145,0.346646734652141,-3.441518296326043,39.1
,,0.05853818944405069,0.0320160385733712,0.0018050397123007065,0.0923592677297226,1.9024887461954696,0.6338095881764145,0.346646734652141,-3.441518296326043,39.2
,,0.05853818944405069,0.0320160385733712,0.0018050397123007065,0.0923592677297226,1.9029580276689966,0.6338095881764145,0.346646734652141,-3.441518296326043,39.3
,,0.05853818944405069,0.0320160385733712,0.0018050397123007065,0.0923592677297226,1.9034273091425231,0.6338095881764145,0.346646734652141,-3.441518296326043,39.4
,,0.05853818944405069,0.0320160385733712,0.0018050397123007065,0.0923592677297226,1.9115194023665578,0.6338095881764145,0.346646734652141,-3.441518296326043,39.5
,,0.05853818944405069,0.0320160385733712,0.0018050397123007065,0.0923592677297226,1.9196114955905927,0.6338095881764145,0.346646734652141,-3.441518296326043,39.6
,,0.05903249986816335,0.035263536706596356,0.001812689348235275,0.09610872592299499,1.9259884329040835,0.6142262245309739,0.3669129558001892,-3.3449058033953984,39.7
,,0.05903249986816335,0.035263536706596356,0.001812689348235275,0.09610872592299499,1.932365370217575,0.6142262245309739,0.3669129558001892,-3.3449058033953984,39.8
,,0.05903249986816335,0.035263536706596356,0.001812689348235275,0.09610872592299499,1.938742307531066,0.6142262245309739,0.3669129558001892,-3.3449058033953984,39.9
,,0.05903249986816335,0.035263536706596356,0.001812689348235275,0.09610872592299499,1.9451192448445567,0.6142262245309739,0.3669129558001892,-3.3449058033953984,40.0
,,0.05903249986816335,0.035263536706596356,0.001812689348235275,0.09610872592299499,1.9425565472648918,0.6142262245309739,0.3669129558001892,-3.3449058033953984,40.1
,,0.05903249986816335,0.035263536706596356,0.001812689348235275,0.09610872592299499,1.9399938496852274,0.6142262245309739,0.3669129558001892,-3.3449058033953984,40.2
,,0.05903249986816335,0.035263536706596356,0.001812689348235275,0.09610872592299499,1.9416825282245829,0.6142262245309739,0.3669129558001892,-3.3449058033953984,40.3
,,0.052991646542634316,0.034105343271688626,0.0014730764623487067,0.08857006627667165,1.9420348265535137,0.5983019858774986,0.3850662498676665,-3.3783012127835,40.4
,,0.05907315739223474,0.03595005261244457,0.0021487464632018727,0.09717195646788118,1.9433808703977806,0.6079239272264785,0.3699632478258,-3.3256247313267346,40.5
,,0.05360350704710186,0.0348666457231838,0.001217544523467873,0.08968769729375353,1.943551198044336,0.5976684502394419,0.38875617030265924,-3.3562246166931096,40.6
,,0.05360350704710186,0.0348666457231838,0.001217544523467873,0.08968769729375353,1.9437215256908915,0.5976684502394419,0.38875617030265924,-3.3562246166931096,40.7
,,0.05360350704710186,0.0348666457231838,0.001217544523467873,0.08968769729375353,1.943891853337447,0.5976684502394419,0.38875617030265924,-3.3562246166931096,40.8
,,0.05360350704710186,0.0348666457231838,0.001217544523467873,0.08968769729375353,1.9384301820744247,0.5976684502394419,0.38875617030265924,-3.3562246166931096,40.9
,,0.05360350704710186,0.0348666457231838,0.001217544523467873,0.08968769729375353,1.9329685108114028,0.5976684502394419,0.38875617030265924,-3.3562246166931096,41.0
,,0.05360350704710186,0.0348666457231838,0.001217544523467873,0.08968769729375353,1.9366442949952576,0.5976684502394419,0.38875617030265924,-3.3562246166931096,41.1
,,0.05360350704710186,0.0348666457231838,0.001217544523467873,0.08968769729375353,1.9403200791791124,0.5976684502394419,0.38875617030265924,-3.3562246166931096,41.2
,,0.0575245065618795,0.04020490785457617,0.002112269253591617,0.09984168367004728,1.9428113832889677,0.5761572165788403,0.40268659718764066,-3.2137662048743123,41.3
,,0.054125710410964555,0.0349295760019797,0.0014504165292731415,0.09050570294221738,1.946622504932939,0.5980364623599539,0.3859378455331174,-3.3544213587432323,41.4
,,0.0531775955107609,0.03475499510690329,0.0011150654722144934,0.08904765608987868,1.9502170021931533,0.5971813054471309,0.39029657413805424,-3.359431973217979,41.5
,,0.0531775955107609,0.03475499510690329,0.0011150654722144934,0.08904765608987868,1.9538114994533677,0.5971813054471309,0.39029657413805424,-3.359431973217979,41.6
,,0.0531775955107609,0.03475499510690329,0.0011150654722144934,0.08904765608987868,1.9468489393827837,0.5971813054471309,0.39029657413805424,-3.359431973217979,41.7
,,0.0531775955107609,0.03475499510690329,0.0011150654722144934,0.08904765608987868,1.9400514360401844,0.5971813054471309,0.39029657413805424,-3.359431973217979,41.8
,,0.0531775955107609,0.03475499510690329,0.0011150654722144934,0.08904765608987868,1.9330888759696,0.5971813054471309,0.39029657413805424,-3.359431973217979,41.9
,,0.0531775955107609,0.03475499510690329,0.0011150654722144934,0.08904765608987868,1.9262931800336105,0.5971813054471309,0.39029657413805424,-3.359431973217979,42.0
,,0.0531775955107609,0.03475499510690329,0.0011150654722144934,0.08904765608987868,1.9194974840976202,0.5971813054471309,0.39029657413805424,-3.359431973217979,42.1
,,0.0531775955107609,0.03475499510690329,0.0011150654722144934,0.08904765608987868,1.9127017881616304,0.5971813054471309,0.39029657413805424,-3.359431973217979,42.2
,,0.05141939590772843,0.04086841927028192,0.0015553952402797477,0.0938432104182901,1.902884968375253,0.5479287811929626,0.43549681525299394,-3.197397659171741,42.3
,,0.05141939590772843,0.04086841927028192,0.0015553952402797477,0.0938432104182901,1.8930681485888754,0.5479287811929626,0.43549681525299394,-3.197397659171741,42.4
,,0.05141939590772843,0.04086841927028192,0.0015553952402797477,0.0938432104182901,1.8832513288024983,0.5479287811929626,0.43549681525299394,-3.197397659171741,42.5
,,0.05141939590772843,0.04086841927028192,0.0015553952402797477,0.0938432104182901,1.8720110647333004,0.5479287811929626,0.43549681525299394,-3.197397659171741,42.6
,,0.05141939590772843,0.04086841927028192,0.0015553952402797477,0.0938432104182901,1.8607708006641026,0.5479287811929626,0.43549681525299394,-3.197397659171741,42.7
,,0.05141939590772843,0.04086841927028192,0.0015553952402797477,0.0938432104182901,1.8499889562535934,0.5479287811929626,0.43549681525299394,-3.197397659171741,42.8
,,0.05141939590772843,0.04086841927028192,0.0015553952402797477,0.0938432104182901,1.8392071118430842,0.5479287811929626,0.43549681525299394,-3.197397659171741,42.9
,,0.05141939590772843,0.04086841927028192,0.0015553952402797477,0.0938432104182901,1.8284252674325754,0.5479287811929626,0.43549681525299394,-3.197397659171741,43.0
,,0.04983839900747226,0.04005000988730661,0.0018144461790238534,0.09170285507380271,1.8174904755689716,0.5434770702325699,0.43673678267785937,-3.217626358593727,43.1
,,0.04560964047469744,0.03927077791065985,0.0013730888472330434,0.08625350723259033,1.805633573398145,0.5287859234721546,0.4552948531676825,-3.237274601302455,43.2
,,0.04560964047469744,0.03927077791065985,0.0013730888472330434,0.08625350723259033,1.7937766712273182,0.5287859234721546,0.4552948531676825,-3.237274601302455,43.3
,,0.04560964047469744,0.03927077791065985,0.0013730888472330434,0.08625350723259033,1.7806484764177737,0.5287859234721546,0.4552948531676825,-3.237274601302455,43.4
,,0.04560964047469744,0.03927077791065985,0.0013730888472330434,0.08625350723259033,1.7675202816082296,0.5287859234721546,0.4552948531676825,-3.237274601302455,43.5
,,0.04560964047469744,0.03927077791065985,0.0013730888472330434,0.08625350723259033,1.755145197374352,0.5287859234721546,0.4552948531676825,-3.237274601302455,43.6
,,0.04560964047469744,0.03927077791065985,0.0013730888472330434,0.08625350723259033,1.7427701131404745,0.5287859234721546,0.4552948531676825,-3.237274601302455,43.7
,,0.04560964047469744,0.03927077791065985,0.0013730888472330434,0.08625350723259033,1.730395028906597,0.5287859234721546,0.4552948531676825,-3.237274601302455,43.8
,,0.04243845666889387,0.03844213838046959,0.0015712216237235802,0.08245181667308704,1.717381527747662,0.5147061445250865,0.4662376152715798,-3.258601067382809,43.9
,,0.04039477346530354,0.03707496796262312,0.001555624233660842,0.07902536566158751,1.7042078747323273,0.5111621202524667,0.46915275433700965,-3.294813255081964,44.0
,,0.04039477346530354,0.03707496796262312,0.001555624233660842,0.07902536566158751,1.6910342217169927,0.5111621202524667,0.46915275433700965,-3.294813255081964,44.1
,,0.04039477346530354,0.03707496796262312,0.001555624233660842,0.07902536566158751,1.6778605687016577,0.5111621202524667,0.46915275433700965,-3.294813255081964,44.2
,,0.04039477346530354,0.03707496796262312,0.001555624233660842,0.07902536566158751,1.6637100567180088,0.5111621202524667,0.46915275433700965,-3.294813255081964,44.3
,,0.04039477346530354,0.03707496796262312,0.001555624233660842,0.07902536566158751,1.6506031538763046,0.5111621202524667,0.46915275433700965,-3.294813255081964,44.4
,,0.04039477346530354,0.03707496796262312,0.001555624233660842,0.07902536566158751,1.6374962510346005,0.5111621202524667,0.46915275433700965,-3.294813255081964,44.5
,,0.04039477346530354,0.03707496796262312,0.001555624233660842,0.07902536566158751,1.6243893481928966,0.5111621202524667,0.46915275433700965,-3.294813255081964,44.6
,,0.04400934225466775,0.02697048803026193,0.001060023218103388,0.07203985350303307,1.6173070694187264,0.6109027172412953,0.37438288279037657,-3.6130120466934406,44.7
,,0.03983935747393312,0.036222057728873165,0.0014724427574036648,0.07753385796020995,1.6043148500491498,0.5138317442475068,0.467177291080526,-3.3180870161893883,44.8
,,0.03681427702474835,0.03519197517676998,0.0014096870171105562,0.07341593921862888,1.5907252314934923,0.501448015465924,0.47935060902742244,-3.3469372003016757,44.9
,,0.03681427702474835,0.03519197517676998,0.0014096870171105562,0.07341593921862888,1.577135612937835,0.501448015465924,0.47935060902742244,-3.3469372003016757,45.0
,,0.03681427702474835,0.03519197517676998,0.0014096870171105562,0.07341593921862888,1.5635459943821777,0.501448015465924,0.47935060902742244,-3.3469372003016757,45.1
,,0.03681427702474835,0.03519197517676998,0.0014096870171105562,0.07341593921862888,1.5581298745029903,0.501448015465924,0.47935060902742244,-3.3469372003016757,45.2
,,0.03681427702474835,0.03519197517676998,0.0014096870171105562,0.07341593921862888,1.5524852754285152,0.501448015465924,0.47935060902742244,-3.3469372003016757,45.3
,,0.03681427702474835,0.03519197517676998,0.0014096870171105562,0.07341593921862888,1.5468406763540397,0.501448015465924,0.47935060902742244,-3.3469372003016757,45.4
,,0.03681427702474835,0.03519197517676998,0.0014096870171105562,0.07341593921862888,1.5411960772795643,0.501448015465924,0.47935060902742244,-3.3469372003016757,45.5
,,0.036873979464811454,0.034410731071968494,0.0013849562860158934,0.07266966682279585,1.5358346459523426,0.5074191347915249,0.4735226205987522,-3.3693868134824703,45.6
,,0.03469133121831422,0.03358621231543071,0.0013226871094733149,0.06960023064321824,1.5300434392717202,0.4984370151896113,0.48255892265068673,-3.3936396439836964,45.7
,,0.03469133121831422,0.03358621231543071,0.0013226871094733149,0.06960023064321824,1.5242522325910983,0.4984370151896113,0.48255892265068673,-3.3936396439836964,45.8
,,0.03469133121831422,0.03358621231543071,0.0013226871094733149,0.06960023064321824,1.5184610259104763,0.4984370151896113,0.48255892265068673,-3.3936396439836964,45.9
,,0.03469133121831422,0.03358621231543071,0.0013226871094733149,0.06960023064321824,1.5063541420475703,0.4984370151896113,0.48255892265068673,-3.3936396439836964,46.0
,,0.03469133121831422,0.03358621231543071,0.0013226871094733149,0.06960023064321824,1.4944087543275701,0.4984370151896113,0.48255892265068673,-3.3936396439836964,46.1
,,0.03469133121831422,0.03358621231543071,0.0013226871094733149,0.06960023064321824,1.4824633666075697,0.4984370151896113,0.48255892265068673,-3.3936396439836964,46.2
,,0.03469133121831422,0.03358621231543071,0.0013226871094733149,0.06960023064321824,1.4705179788875695,0.4984370151896113,0.48255892265068673,-3.3936396439836964,46.3
,,0.03510847486975335,0.03277207549000825,0.0013437016250993172,0.06922425198486092,1.4589991293684497,0.5071701587679336,0.47341899045980845,-3.4181784832141853,46.4
,,0.033467894327819915,0.03208673373551785,0.0012698202595436202,0.06682444832288137,1.4471664155770163,0.5008330808226091,0.4801645885721592,-3.4393126135369365,46.5
,,0.033467894327819915,0.03208673373551785,0.0012698202595436202,0.06682444832288137,1.4353337017855832,0.5008330808226091,0.4801645885721592,-3.4393126135369365,46.6
,,0.033467894327819915,0.03208673373551785,0.0012698202595436202,0.06682444832288137,1.4235009879941498,0.5008330808226091,0.4801645885721592,-3.4393126135369365,46.7
,,0.033467894327819915,0.03208673373551785,0.0012698202595436202,0.06682444832288137,1.411668274202717,0.5008330808226091,0.4801645885721592,-3.4393126135369365,46.8
,,0.033467894327819915,0.03208673373551785,0.0012698202595436202,0.06682444832288137,1.3998315172627025,0.5008330808226091,0.4801645885721592,-3.4393126135369365,46.9
,,0.033467894327819915,0.03208673373551785,0.0012698202595436202,0.06682444832288137,1.3895010154626914,0.5008330808226091,0.4801645885721592,-3.4393126135369365,47.0
,,0.033467894327819915,0.03208673373551785,0.0012698202595436202,0.06682444832288137,1.3791705136626802,0.5008330808226091,0.4801645885721592,-3.4393126135369365,47.1
,,0.03330946445677675,0.030902549454528395,0.0012692355617248997,0.06548124947303005,1.3692271525738797,0.5086870627063403,0.47192974635061474,-3.4769165918628793,47.2
,,0.03446890108348398,0.03146745366141988,0.0013463887203050279,0.06728274346520889,1.3594781840728078,0.512299280740647,0.4676898122873263,-3.4588014843850683,47.3
,,0.03304862261494484,0.030678880376333446,0.0012570838838675115,0.0649845868751458,1.3495276693869773,0.508560940434088,0.4720947204800494,-3.484180796749594,47.4
,,0.03304862261494484,0.030678880376333446,0.0012570838838675115,0.0649845868751458,1.3395771547011466,0.508560940434088,0.4720947204800494,-3.484180796749594,47.5
,,0.03304862261494484,0.030678880376333446,0.0012570838838675115,0.0649845868751458,1.329626640015316,0.508560940434088,0.4720947204800494,-3.484180796749594,47.6
,,0.03304862261494484,0.030678880376333446,0.0012570838838675115,0.0649845868751458,1.3207226116369788,0.508560940434088,0.4720947204800494,-3.484180796749594,47.7
,,0.03304862261494484,0.030678880376333446,0.0012570838838675115,0.0649845868751458,1.3109311167625792,0.508560940434088,0.4720947204800494,-3.484180796749594,47.8
,,0.03304862261494484,0.030678880376333446,0.0012570838838675115,0.0649845868751458,1.3025849103660805,0.508560940434088,0.4720947204800494,-3.484180796749594,47.9
,,0.03449212717911716,0.030245468119904542,0.0013741118126861522,0.06611170711170786,1.294940515290505,0.5217249513892659,0.4574903514259475,-3.498408919946589,48.0
,,0.03348411030019607,0.029640962046158757,0.0012865690445147764,0.0644116413908696,1.2871766780547393,0.5198456300314444,0.4601802004437102,-3.5185980213833266,48.1
,,0.03330921460005605,0.029459489183137337,0.0012813155952397467,0.06405001937843313,1.2794241958958852,0.5200500315737906,0.4599450471525839,-3.524739207434799,48.2
,,0.03330921460005605,0.029459489183137337,0.0012813155952397467,0.06405001937843313,1.2716717137370313,0.5200500315737906,0.4599450471525839,-3.524739207434799,48.3
,,0.03330921460005605,0.029459489183137337,0.0012813155952397467,0.06405001937843313,1.2639192315781773,0.5200500315737906,0.4599450471525839,-3.524739207434799,48.4
,,0.03330921460005605,0.029459489183137337,0.0012813155952397467,0.06405001937843313,1.2561667494193234,0.5200500315737906,0.4599450471525839,-3.524739207434799,48.5
,,0.03330921460005605,0.029459489183137337,0.0012813155952397467,0.06405001937843313,1.2484142672604694,0.5200500315737906,0.4599450471525839,-3.524739207434799,48.6
,,0.03330921460005605,0.029459489183137337,0.0012813155952397467,0.06405001937843313,1.242376941012159,0.5200500315737906,0.4599450471525839,-3.524739207434799,48.7
,,0.035062230282769696,0.029171395952130138,0.001424140431298176,0.06565776666619802,1.2371313936326005,0.5340149697906259,0.44429467271460177,-3.5345666405008944,48.8
,,0.035062230282769696,0.029171395952130138,0.001424140431298176,0.06565776666619802,1.2318858462530422,0.5340149697906259,0.44429467271460177,-3.5345666405008944,48.9
,,0.035062230282769696,0.029171395952130138,0.001424140431298176,0.06565776666619802,1.2266402988734837,0.5340149697906259,0.44429467271460177,-3.5345666405008944,49.0
,,0.03420920897226501,0.028583353604871718,0.0013388356391172388,0.06413139821625397,1.2213379078238757,0.5334237194846433,0.44569983502445026,-3.554930772396109,49.1
,,0.03420920897226501,0.028583353604871718,0.0013388356391172388,0.06413139821625397,1.2160355167742674,0.5334237194846433,0.44569983502445026,-3.554930772396109,49.2
,,0.03420920897226501,0.028583353604871718,0.0013388356391172388,0.06413139821625397,1.2107331257246594,0.5334237194846433,0.44569983502445026,-3.554930772396109,49.3
,,0.03420920897226501,0.028583353604871718,0.0013388356391172388,0.06413139821625397,1.206767114885476,0.5334237194846433,0.44569983502445026,-3.554930772396109,49.4
,,0.03420920897226501,0.028583353604871718,0.0013388356391172388,0.06413139821625397,1.2018073585309568,0.5334237194846433,0.44569983502445026,-3.554930772396109,49.5
,,0.03594864110498044,0.028368035291871492,0.0014778264072042306,0.06579450280405616,1.198805548552115,0.5463775782612076,0.4311611773456951,-3.5624922855777545,49.6
,,0.03594864110498044,0.028368035291871492,0.0014778264072042306,0.06579450280405616,1.1958037385732732,0.5463775782612076,0.4311611773456951,-3.5624922855777545,49.7
,,0.03594864110498044,0.028368035291871492,0.0014778264072042306,0.06579450280405616,1.1928019285944313,0.5463775782612076,0.4311611773456951,-3.5624922855777545,49.8
,,0.03510742105067109,0.027796880566159688,0.0013983858290499574,0.06430268744588073,1.189753175154207,0.5459712874398703,0.43228178588265787,-3.582831474431913,49.9
,,0.03510742105067109,0.027796880566159688,0.0013983858290499574,0.06430268744588073,1.1867044217139826,0.5459712874398703,0.43228178588265787,-3.582831474431913,50.0
,,0.03510742105067109,0.027796880566159688,0.0013983858290499574,0.06430268744588073,1.183655668273758,0.5459712874398703,0.43228178588265787,-3.582831474431913,50.1
,,0.03510742105067109,0.027796880566159688,0.0013983858290499574,0.06430268744588073,1.1806069148335334,0.5459712874398703,0.43228178588265787,-3.582831474431913,50.2
,,0.03510742105067109,0.027796880566159688,0.0013983858290499574,0.06430268744588073,1.1787426414673083,0.5459712874398703,0.43228178588265787,-3.582831474431913,50.3
,,0.03669670542145936,0.027911765977662435,0.0012203953148371897,0.06582886671395898,1.1761334511936363,0.5574561321390308,0.424004959692611,-3.5787069594240695,50.4
,,0.03669670542145936,0.027911765977662435,0.0012203953148371897,0.06582886671395898,1.1737408853037212,0.5574561321390308,0.424004959692611,-3.5787069594240695,50.5
,,0.03669670542145936,0.027911765977662435,0.0012203953148371897,0.06582886671395898,1.1713483194138061,0.5574561321390308,0.424004959692611,-3.5787069594240695,50.6
,,0.03591281722992985,0.027148688465480124,0.0014523046226185368,0.06451381031802851,1.169045530755975,0.5566686737753257,0.42081979550808474,-3.6064265407494864,50.7
,,0.03591281722992985,0.027148688465480124,0.0014523046226185368,0.06451381031802851,1.1667427420981438,0.5566686737753257,0.42081979550808474,-3.6064265407494864,50.8
,,0.03591281722992985,0.027148688465480124,0.0014523046226185368,0.06451381031802851,1.1644399534403125,0.5566686737753257,0.42081979550808474,-3.6064265407494864,50.9
,,0.03591281722992985,0.027148688465480124,0.0014523046226185368,0.06451381031802851,1.162137164782481,0.5566686737753257,0.42081979550808474,-3.6064265407494864,51.0
,,0.03591281722992985,0.027148688465480124,0.0014523046226185368,0.06451381031802851,1.1598343761246497,0.5566686737753257,0.42081979550808474,-3.6064265407494864,51.1
,,0.037155854787412464,0.027206285834187112,0.00125601102373396,0.06561815164533354,1.1580081303740681,0.5662435447471922,0.41461524215490303,-3.6043072355338337,51.2
,,0.037155854787412464,0.027206285834187112,0.00125601102373396,0.06561815164533354,1.159203008473874,0.5662435447471922,0.41461524215490303,-3.6043072355338337,51.3
,,0.037155854787412464,0.027206285834187112,0.00125601102373396,0.06561815164533354,1.1603978865736797,0.5662435447471922,0.41461524215490303,-3.6043072355338337,51.4
,,0.037155854787412464,0.027206285834187112,0.00125601102373396,0.06561815164533354,1.1615927646734858,0.5662435447471922,0.41461524215490303,-3.6043072355338337,51.5
,,0.0361525295603254,0.02644632642218061,0.001478695358362661,0.06407755134086866,1.1628021618126085,0.564199611311728,0.41272373660934736,-3.6326380179538313,51.6
,,0.0361525295603254,0.02644632642218061,0.001478695358362661,0.06407755134086866,1.1640115589517315,0.564199611311728,0.41272373660934736,-3.6326380179538313,51.7
,,0.0361525295603254,0.02644632642218061,0.001478695358362661,0.06407755134086866,1.1652209560908546,0.564199611311728,0.41272373660934736,-3.6326380179538313,51.8
,,0.0361525295603254,0.02644632642218061,0.001478695358362661,0.06407755134086866,1.1664303532299773,0.564199611311728,0.41272373660934736,-3.6326380179538313,51.9
,,0.03554349135410777,0.0254372180680807,0.0012124010166920775,0.062193110438880546,1.1679762774853426,0.5715020699766683,0.4090037930017793,-3.671541899159439,52.0
,,0.03554349135410777,0.0254372180680807,0.0012124010166920775,0.062193110438880546,1.1696751491938018,0.5715020699766683,0.4090037930017793,-3.671541899159439,52.1
,,0.03554349135410777,0.0254372180680807,0.0012124010166920775,0.062193110438880546,1.1722961312094846,0.5715020699766683,0.4090037930017793,-3.671541899159439,52.2
,,0.03554349135410777,0.0254372180680807,0.0012124010166920775,0.062193110438880546,1.1749171132251672,0.5715020699766683,0.4090037930017793,-3.671541899159439,52.3
,,0.03355139600216813,0.024174127256207413,0.0013812534865947006,0.059106776744970245,1.1774336790819881,0.56764042720403,0.4089907890005952,-3.722472339382033,52.4
,,0.03355139600216813,0.024174127256207413,0.0013812534865947006,0.059106776744970245,1.1799502449388088,0.56764042720403,0.4089907890005952,-3.722472339382033,52.5
,,0.03355139600216813,0.024174127256207413,0.0013812534865947006,0.059106776744970245,1.1824668107956298,0.56764042720403,0.4089907890005952,-3.722472339382033,52.6
,,0.03355139600216813,0.024174127256207413,0.0013812534865947006,0.059106776744970245,1.1849833766524505,0.56764042720403,0.4089907890005952,-3.722472339382033,52.7
,,0.03286933911795366,0.023433258053523417,0.001123805234275145,0.057426402405752225,1.1876640963350753,0.5723732941811663,0.4080572188373092,-3.753598981348457,52.8
,,0.03286933911795366,0.023433258053523417,0.001123805234275145,0.057426402405752225,1.1909832329427572,0.5723732941811663,0.4080572188373092,-3.753598981348457,52.9
,,0.03286933911795366,0.023433258053523417,0.001123805234275145,0.057426402405752225,1.1944625214068392,0.5723732941811663,0.4080572188373092,-3.753598981348457,53.0
,,0.03286933911795366,0.023433258053523417,0.001123805234275145,0.057426402405752225,1.1979418098709214,0.5723732941811663,0.4080572188373092,-3.753598981348457,53.1
,,0.03140138006972154,0.022722347942658858,0.0012966205307635037,0.0554203485431439,1.201190889163529,0.5666037997807979,0.41000009094078244,-3.784406347922055,53.2
,,0.03140138006972154,0.022722347942658858,0.0012966205307635037,0.0554203485431439,1.2044399684561364,0.5666037997807979,0.41000009094078244,-3.784406347922055,53.3
,,0.03140138006972154,0.022722347942658858,0.0012966205307635037,0.0554203485431439,1.207689047748744,0.5666037997807979,0.41000009094078244,-3.784406347922055,53.4
,,0.03140138006972154,0.022722347942658858,0.0012966205307635037,0.0554203485431439,1.2109381270413515,0.5666037997807979,0.41000009094078244,-3.784406347922055,53.5
,,0.03140138006972154,0.022722347942658858,0.0012966205307635037,0.0554203485431439,1.2141872063339592,0.5666037997807979,0.41000009094078244,-3.784406347922055,53.6
,,0.05621635800248757,0.026997684298183416,0.002131420474406393,0.08534546277507737,1.2191928364682636,0.6586918176381826,0.31633414853387254,-3.6120041833899323,53.7
,,0.05621635800248757,0.026997684298183416,0.002131420474406393,0.08534546277507737,1.2301084071979742,0.6586918176381826,0.31633414853387254,-3.6120041833899323,53.8
,,0.029479759125318562,0.021852438112553316,0.0012209904616373932,0.05255318769950927,1.2334743949687197,0.5609509225944411,0.4158156539904309,-3.8234427795670305,53.9
,,0.029479759125318562,0.021852438112553316,0.0012209904616373932,0.05255318769950927,1.2368403827394647,0.5609509225944411,0.4158156539904309,-3.8234427795670305,54.0
,,0.029479759125318562,0.021852438112553316,0.0012209904616373932,0.05255318769950927,1.24020637051021,0.5609509225944411,0.4158156539904309,-3.8234427795670305,54.1
,,0.029479759125318562,0.021852438112553316,0.0012209904616373932,0.05255318769950927,1.243572358280955,0.5609509225944411,0.4158156539904309,-3.8234427795670305,54.2
,,0.029479759125318562,0.021852438112553316,0.0012209904616373932,0.05255318769950927,1.2469383460517003,0.5609509225944411,0.4158156539904309,-3.8234427795670305,54.3
,,0.029479759125318562,0.021852438112553316,0.0012209904616373932,0.05255318769950927,1.2503043338224453,0.5609509225944411,0.4158156539904309,-3.8234427795670305,54.4
,,0.028793637183768938,0.02141204821697521,0.0011497140645834306,0.05135539946532758,1.2536225709873108,0.5606739989085054,0.41693859730234367,-3.843801514586584,54.5
,,0.028793637183768938,0.02141204821697521,0.0011497140645834306,0.05135539946532758,1.2566576404049223,0.5606739989085054,0.41693859730234367,-3.843801514586584,54.6
,,0.027926962399625024,0.02162825658864586,0.0011568565959426654,0.05071207558421355,1.2595278829661853,0.5506964973904276,0.42649125162959495,-3.83375464380768,54.7
,,0.027926962399625024,0.02162825658864586,0.0011568565959426654,0.05071207558421355,1.2623981255274481,0.5506964973904276,0.42649125162959495,-3.83375464380768,54.8
,,0.027926962399625024,0.02162825658864586,0.0011568565959426654,0.05071207558421355,1.265268368088711,0.5506964973904276,0.42649125162959495,-3.83375464380768,54.9
,,0.027926962399625024,0.02162825658864586,0.0011568565959426654,0.05071207558421355,1.2681386106499737,0.5506964973904276,0.42649125162959495,-3.83375464380768,55.0
,,0.027926962399625024,0.02162825658864586,0.0011568565959426654,0.05071207558421355,1.2710088532112365,0.5506964973904276,0.42649125162959495,-3.83375464380768,55.1
,,0.027926962399625024,0.02162825658864586,0.0011568565959426654,0.05071207558421355,1.2738790957724992,0.5506964973904276,0.42649125162959495,-3.83375464380768,55.2
,,0.02734653115431483,0.02143369281855058,0.001076982685286229,0.04985720665815164,1.2765786799777012,0.5484970576433944,0.42990159808815076,-3.8427911642976875,55.3
,,0.02734653115431483,0.02143369281855058,0.001076982685286229,0.04985720665815164,1.278851725982023,0.5484970576433944,0.42990159808815076,-3.8427911642976875,55.4
,,0.026737735771476184,0.022016127809287092,0.0011036907396020747,0.04985755432036535,1.2807563562795468,0.5362825380416745,0.4415805811055226,-3.8159800119570346,55.5
,,0.026737735771476184,0.022016127809287092,0.0011036907396020747,0.04985755432036535,1.2826609865770704,0.5362825380416745,0.4415805811055226,-3.8159800119570346,55.6
,,0.026737735771476184,0.022016127809287092,0.0011036907396020747,0.04985755432036535,1.2845656168745943,0.5362825380416745,0.4415805811055226,-3.8159800119570346,55.7
,,0.026737735771476184,0.022016127809287092,0.0011036907396020747,0.04985755432036535,1.2864702471721179,0.5362825380416745,0.4415805811055226,-3.8159800119570346,55.8
,,0.026737735771476184,0.022016127809287092,0.0011036907396020747,0.04985755432036535,1.2883748774696417,0.5362825380416745,0.4415805811055226,-3.8159800119570346,55.9
,,0.026737735771476184,0.022016127809287092,0.0011036907396020747,0.04985755432036535,1.2902795077671654,0.5362825380416745,0.4415805811055226,-3.8159800119570346,56.0
,,0.0475152010536248,0.02834873178596053,0.001758944156428516,0.07762287699601385,1.2973134142205762,0.6121288322779487,0.36521104193827186,-3.5631729839902655,56.1
,,0.0475152010536248,0.02834873178596053,0.001758944156428516,0.07762287699601385,1.3039601799627765,0.6121288322779487,0.36521104193827186,-3.5631729839902655,56.2
,,0.02619030252687919,0.023153292746872795,0.0010730635013175968,0.05041665877506958,1.304357814122782,0.5194771562257905,0.4592389362843262,-3.7656182732782915,56.3
,,0.02619030252687919,0.023153292746872795,0.0010730635013175968,0.05041665877506958,1.304956994467546,0.5194771562257905,0.4592389362843262,-3.7656182732782915,56.4
,,0.02619030252687919,0.023153292746872795,0.0010730635013175968,0.05041665877506958,1.3055561748123103,0.5194771562257905,0.4592389362843262,-3.7656182732782915,56.5
,,0.02619030252687919,0.023153292746872795,0.0010730635013175968,0.05041665877506958,1.3061553551570744,0.5194771562257905,0.4592389362843262,-3.7656182732782915,56.6
,,0.02619030252687919,0.023153292746872795,0.0010730635013175968,0.05041665877506958,1.3067545355018384,0.5194771562257905,0.4592389362843262,-3.7656182732782915,56.7
,,0.02619030252687919,0.023153292746872795,0.0010730635013175968,0.05041665877506958,1.3073537158466026,0.5194771562257905,0.4592389362843262,-3.7656182732782915,56.8
,,0.0262011519294711,0.023615420331602823,0.0009898963241355896,0.05080646858520951,1.3077120482397804,0.5157050403046243,0.46481129252265346,-3.7458553764444713,56.9
,,0.0262011519294711,0.023615420331602823,0.0009898963241355896,0.05080646858520951,1.307368569312035,0.5157050403046243,0.46481129252265346,-3.7458553764444713,57.0
,,0.02616501216632018,0.024873922178994232,0.001058064191507091,0.0520969985368215,1.3065046659808077,0.5022364608553616,0.4774540353109528,-3.693935326363899,57.1
,,0.02616501216632018,0.024873922178994232,0.001058064191507091,0.0520969985368215,1.3056294075726687,0.5022364608553616,0.4774540353109528,-3.693935326363899,57.2
,,0.02616501216632018,0.024873922178994232,0.001058064191507091,0.0520969985368215,1.3047541491645296,0.5022364608553616,0.4774540353109528,-3.693935326363899,57.3
,,0.02616501216632018,0.024873922178994232,0.001058064191507091,0.0520969985368215,1.3038788907563905,0.5022364608553616,0.4774540353109528,-3.693935326363899,57.4
,,0.02616501216632018,0.024873922178994232,0.001058064191507091,0.0520969985368215,1.3030036323482512,0.5022364608553616,0.4774540353109528,-3.693935326363899,57.5
,,0.02616501216632018,0.024873922178994232,0.001058064191507091,0.0520969985368215,1.3021283739401122,0.5022364608553616,0.4774540353109528,-3.693935326363899,57.6
,,0.026400444307217608,0.02561922266980899,0.0009730828655984511,0.05299274984262505,1.3010152067422733,0.49818974077812894,0.48344769323901,-3.664412323730709,57.7
,,0.026395368483316608,0.026980197090301132,0.0010441098079997631,0.0544196753816175,1.2985305963419727,0.4850335526299875,0.4957801916513234,-3.6126521231772766,57.8
,,0.026395368483316608,0.026980197090301132,0.0010441098079997631,0.0544196753816175,1.296045985941672,0.4850335526299875,0.4957801916513234,-3.6126521231772766,57.9
,,0.026395368483316608,0.026980197090301132,0.0010441098079997631,0.0544196753816175,1.2935613755413713,0.4850335526299875,0.4957801916513234,-3.6126521231772766,58.0
,,0.026395368483316608,0.026980197090301132,0.0010441098079997631,0.0544196753816175,1.2911336088111203,0.4850335526299875,0.4957801916513234,-3.6126521231772766,58.1
,,0.026395368483316608,0.026980197090301132,0.0010441098079997631,0.0544196753816175,1.2887058420808695,0.4850335526299875,0.4957801916513234,-3.6126521231772766,58.2
,,0.026395368483316608,0.026980197090301132,0.0010441098079997631,0.0544196753816175,1.2862780753506184,0.4850335526299875,0.4957801916513234,-3.6126521231772766,58.3
,,0.026395368483316608,0.026980197090301132,0.0010441098079997631,0.0544196753816175,1.2838503086203674,0.4850335526299875,0.4957801916513234,-3.6126521231772766,58.4
,,0.038408086156966295,0.028130094180788566,0.0013403192613783937,0.06787849959913325,1.2857230947002356,0.5658358152256024,0.41441832608138207,-3.570915308430926,58.5
,,0.038408086156966295,0.028130094180788566,0.0013403192613783937,0.06787849959913325,1.2868136506021375,0.5658358152256024,0.41441832608138207,-3.570915308430926,58.6
,,0.02526686643608556,0.027549268125425724,0.0009697229241386151,0.053785857485649895,1.2829239672469845,0.46976784636791885,0.5122028245580335,-3.5917793090563785,58.7
,,0.02525570507627476,0.027536917348863932,0.0009692654993525587,0.05376188792449125,1.2790343509451085,0.4697696835302079,0.5122014574253722,-3.59222772553911,58.8
,,0.02525570507627476,0.027536917348863932,0.0009692654993525587,0.05376188792449125,1.2751916781046149,0.4697696835302079,0.5122014574253722,-3.59222772553911,58.9
,,0.02525570507627476,0.027536917348863932,0.0009692654993525587,0.05376188792449125,1.2713490052641212,0.4697696835302079,0.5122014574253722,-3.59222772553911,59.0
,,0.02525570507627476,0.027536917348863932,0.0009692654993525587,0.05376188792449125,1.2675063324236278,0.4697696835302079,0.5122014574253722,-3.59222772553911,59.1
,,0.02525570507627476,0.027536917348863932,0.0009692654993525587,0.05376188792449125,1.263663659583134,0.4697696835302079,0.5122014574253722,-3.59222772553911,59.2
,,0.025304519458616906,0.027710532044432912,0.0008758790461767562,0.05389093054922657,1.2597767124689692,0.46955061270472104,0.5141965774578856,-3.5859427198428966,59.3
,,0.024445361450035608,0.027865035981595836,0.0009109278539900011,0.05322132528562145,1.2549160188660133,0.4593151583288343,0.5235689985556222,-3.580382566678649,59.4
,,0.025304519458616906,0.027710532044432912,0.0008758790461767562,0.05389093054922657,1.2504541711251793,0.46955061270472104,0.5141965774578856,-3.5859427198428966,59.5
,,0.024565732043612273,0.028146168508755755,0.0009043124170923527,0.05361621296946038,1.2455436343181792,0.4581773065099699,0.524956294932425,-3.5703440434735136,59.6
,,0.024565732043612273,0.028146168508755755,0.0009043124170923527,0.05361621296946038,1.2405433202790954,0.4581773065099699,0.524956294932425,-3.5703440434735136,59.7
,,0.024565732043612273,0.028146168508755755,0.0009043124170923527,0.05361621296946038,1.2355430062400115,0.4581773065099699,0.524956294932425,-3.5703440434735136,59.8
,,0.024565732043612273,0.028146168508755755,0.0009043124170923527,0.05361621296946038,1.230542692200928,0.4581773065099699,0.524956294932425,-3.5703440434735136,59.9
,,0.024565732043612273,0.028146168508755755,0.0009043124170923527,0.05361621296946038,1.225542378161844,0.4581773065099699,0.524956294932425,-3.5703440434735136,60.0
,,0.02500014799322311,0.028412660735314864,0.0008353714807987506,0.05424818020933672,1.2206209897525773,0.460847679991306,0.5237532508127292,-3.5609204326152586,60.1
,,0.02500014799322311,0.028412660735314864,0.0008353714807987506,0.05424818020933672,1.2152230584360608,0.460847679991306,0.5237532508127292,-3.5609204326152586,60.2
,,0.02500014799322311,0.028412660735314864,0.0008353714807987506,0.05424818020933672,1.2098251271195442,0.460847679991306,0.5237532508127292,-3.5609204326152586,60.3
,,0.02500014799322311,0.028412660735314864,0.0008353714807987506,0.05424818020933672,1.2044271958030277,0.460847679991306,0.5237532508127292,-3.5609204326152586,60.4
,,0.02474202443612308,0.02911401291564008,0.0008695281605758267,0.05472556551233898,1.1986952368726047,0.45211089560224815,0.532000220428526,-3.536535677216764,60.5
,,0.02474202443612308,0.02911401291564008,0.0008695281605758267,0.05472556551233898,1.1929487589028651,0.45211089560224815,0.532000220428526,-3.536535677216764,60.6
,,0.02474202443612308,0.02911401291564008,0.0008695281605758267,0.05472556551233898,1.1872022809331253,0.45211089560224815,0.532000220428526,-3.536535677216764,60.7
,,0.02474202443612308,0.02911401291564008,0.0008695281605758267,0.05472556551233898,1.1814558029633857,0.45211089560224815,0.532000220428526,-3.536535677216764,60.8
,,0.02564616565055776,0.029733350518807315,0.0006608231130230244,0.0560403392823881,1.1758505088441624,0.4576375871196345,0.530570494389417,-3.515485950077657,60.9
,,0.02564616565055776,0.029733350518807315,0.0006608231130230244,0.0560403392823881,1.1699086876086966,0.4576375871196345,0.530570494389417,-3.515485950077657,61.0
,,0.02564616565055776,0.029733350518807315,0.0006608231130230244,0.0560403392823881,1.163966866373231,0.4576375871196345,0.530570494389417,-3.515485950077657,61.1
,,0.025374767007439694,0.0297641299574427,0.0008737662571171409,0.05601266322199953,1.1579138198696008,0.4530183988372384,0.5313821597711952,-3.5144513031939644,61.2
,,0.02564616565055776,0.029733350518807315,0.0006608231130230244,0.0560403392823881,1.1519719986341352,0.4576375871196345,0.530570494389417,-3.515485950077657,61.3
,,0.025542837821377996,0.029991396091239426,0.0008678134739701178,0.05640204738658754,1.1460138544399032,0.4528707556713998,0.5317430391431395,-3.50684473541278,61.4
,,0.025542837821377996,0.029991396091239426,0.0008678134739701178,0.05640204738658754,1.1400557102456708,0.4528707556713998,0.5317430391431395,-3.50684473541278,61.5
,,0.025542837821377996,0.029991396091239426,0.0008678134739701178,0.05640204738658754,1.1340975660514385,0.4528707556713998,0.5317430391431395,-3.50684473541278,61.6
,,0.03332266761397669,0.026651051867078807,0.0008282256289038404,0.060801945109959336,1.1325689772948648,0.5480526577515437,0.43832564597860824,-3.624926659465183,61.7
,,0.03332266761397669,0.026651051867078807,0.0008282256289038404,0.060801945109959336,1.1308762347124872,0.5480526577515437,0.43832564597860824,-3.624926659465183,61.8
,,0.03332266761397669,0.026651051867078807,0.0008282256289038404,0.060801945109959336,1.1291834921301096,0.5480526577515437,0.43832564597860824,-3.624926659465183,61.9
,,0.03332266761397669,0.026651051867078807,0.0008282256289038404,0.060801945109959336,1.127490749547732,0.5480526577515437,0.43832564597860824,-3.624926659465183,62.0
,,0.02661852667194292,0.030425099827346546,0.0009011890316153832,0.05794481553090485,1.1216263947851717,0.4593771923865378,0.5250702681263922,-3.4924873590179044,62.1
,,0.026798900042474164,0.030578288210378085,0.0008959215905317209,0.05827310984338397,1.1160090915124248,0.459884501007402,0.524740970450366,-3.4874650574718844,62.2
,,0.026798900042474164,0.030578288210378085,0.0008959215905317209,0.05827310984338397,1.110391788239678,0.459884501007402,0.524740970450366,-3.4874650574718844,62.3
,,0.026798900042474164,0.030578288210378085,0.0008959215905317209,0.05827310984338397,1.1047744849669312,0.459884501007402,0.524740970450366,-3.4874650574718844,62.4
,,0.027965490392201937,0.030955100159237473,0.0007076103560388015,0.05962820090747821,1.0994573839821191,0.46899772199390094,0.5191352361488953,-3.475217506376135,62.5
,,0.027965490392201937,0.030955100159237473,0.0007076103560388015,0.05962820090747821,1.094140282997307,0.46899772199390094,0.5191352361488953,-3.475217506376135,62.6
,,0.027965490392201937,0.030955100159237473,0.0007076103560388015,0.05962820090747821,1.0810420071032643,0.46899772199390094,0.5191352361488953,-3.475217506376135,62.7
,,0.027965490392201937,0.030955100159237473,0.0007076103560388015,0.05962820090747821,1.0679437312092215,0.46899772199390094,0.5191352361488953,-3.475217506376135,62.8
,,0.027965490392201937,0.030955100159237473,0.0007076103560388015,0.05962820090747821,1.062992437460225,0.46899772199390094,0.5191352361488953,-3.475217506376135,62.9
,,0.028319619052481565,0.030871256103321355,0.0009539045236448939,0.06014477967944781,1.0581958633807722,0.47085747430476854,0.5132823873967973,-3.4779297511980154,63.0
,,0.028467460973576986,0.030914055172679398,0.00094632711336348,0.060327843259619866,1.0534383151932638,0.4718793087143484,0.5124342841105934,-3.4765443385386066,63.1
,,0.028467460973576986,0.030914055172679398,0.00094632711336348,0.060327843259619866,1.0486807670057556,0.4718793087143484,0.5124342841105934,-3.4765443385386066,63.2
,,0.028467460973576986,0.030914055172679398,0.00094632711336348,0.060327843259619866,1.043923218818247,0.4718793087143484,0.5124342841105934,-3.4765443385386066,63.3
,,0.02368218946707077,0.03112256898299144,0.0007562810504137501,0.05556103950047596,1.0373887239326935,0.4262373360899394,0.5601509486287569,-3.4698220322117472,63.4
,,0.02368218946707077,0.03112256898299144,0.0007562810504137501,0.05556103950047596,1.0309019796530197,0.4262373360899394,0.5601509486287569,-3.4698220322117472,63.5
,,0.02368218946707077,0.03112256898299144,0.0007562810504137501,0.05556103950047596,1.0244152353733458,0.4262373360899394,0.5601509486287569,-3.4698220322117472,63.6
,,0.02368218946707077,0.03112256898299144,0.0007562810504137501,0.05556103950047596,1.018523093303421,0.4262373360899394,0.5601509486287569,-3.4698220322117472,63.7
,,0.02368218946707077,0.03112256898299144,0.0007562810504137501,0.05556103950047596,1.0126309512334963,0.4262373360899394,0.5601509486287569,-3.4698220322117472,63.8
,,0.030282745767629498,0.03105396616758706,0.0010205498779504245,0.06235726181316698,1.0091191665675152,0.48563302632437233,0.4980007983774216,-3.472028743894125,63.9
,,0.03156929502470917,0.024326727292558227,0.0010519518303856294,0.05694797414765303,1.0091913312255747,0.5543532583416793,0.42717458621942556,-3.716179644487272,64.0
,,0.03156929502470917,0.024326727292558227,0.0010519518303856294,0.05694797414765303,1.009263495883634,0.5543532583416793,0.42717458621942556,-3.716179644487272,64.1
,,0.031056137826886904,0.03084020808401114,0.0008028072526689564,0.062699153163567,1.006105449101196,0.49531989285196426,0.49187599078980315,-3.478935983097996,64.2
,,0.031056137826886904,0.03084020808401114,0.0008028072526689564,0.062699153163567,1.0031180606748193,0.49531989285196426,0.49187599078980315,-3.478935983097996,64.3
,,0.031056137826886904,0.03084020808401114,0.0008028072526689564,0.062699153163567,1.0001306722484427,0.49531989285196426,0.49187599078980315,-3.478935983097996,64.4
,,0.031056137826886904,0.03084020808401114,0.0008028072526689564,0.062699153163567,0.997825563801177,0.49531989285196426,0.49187599078980315,-3.478935983097996,64.5
,,0.031056137826886904,0.03084020808401114,0.0008028072526689564,0.062699153163567,0.9955204553539112,0.49531989285196426,0.49187599078980315,-3.478935983097996,64.6
,,0.031056137826886904,0.03084020808401114,0.0008028072526689564,0.062699153163567,0.9932153469066456,0.49531989285196426,0.49187599078980315,-3.478935983097996,64.7
,,0.031056137826886904,0.03084020808401114,0.0008028072526689564,0.062699153163567,0.9909102384593799,0.49531989285196426,0.49187599078980315,-3.478935983097996,64.8
,,0.03204687092967869,0.030470004658977794,0.0010549047623967917,0.06357178035105328,0.9891023507111393,0.5041052925167563,0.47930079180915935,-3.4910125330807635,64.9
,,0.03218946218698634,0.030038831252882734,0.0008378790128568607,0.06306617245272593,0.9875149473893275,0.5104077342114807,0.4763065536504484,-3.5052643592051678,65.0
,,0.03218946218698634,0.030038831252882734,0.0008378790128568607,0.06306617245272593,0.9807982679116287,0.5104077342114807,0.4763065536504484,-3.5052643592051678,65.1
,,0.03218946218698634,0.030038831252882734,0.0008378790128568607,0.06306617245272593,0.9740815884339297,0.5104077342114807,0.4763065536504484,-3.5052643592051678,65.2
,,0.03218946218698634,0.030038831252882734,0.0008378790128568607,0.06306617245272593,0.9734196479506969,0.5104077342114807,0.4763065536504484,-3.5052643592051678,65.3
,,0.03218946218698634,0.030038831252882734,0.0008378790128568607,0.06306617245272593,0.972757707467464,0.5104077342114807,0.4763065536504484,-3.5052643592051678,65.4
,,0.03218946218698634,0.030038831252882734,0.0008378790128568607,0.06306617245272593,0.9720957669842311,0.5104077342114807,0.4763065536504484,-3.5052643592051678,65.5
,,0.03218946218698634,0.030038831252882734,0.0008378790128568607,0.06306617245272593,0.9714338265009984,0.5104077342114807,0.4763065536504484,-3.5052643592051678,65.6
,,0.033617923949048154,0.029911428875258973,0.0011069840759272125,0.06463633690023435,0.9713532266161018,0.5201087431816741,0.4627649138197144,-3.509514634988572,65.7
,,0.025926854449810022,0.019284007269860362,0.0007933095491354702,0.046004171268805856,0.9737232793657843,0.5635761656984852,0.41917953824627,-3.9484791654495996,65.8
,,0.025926854449810022,0.019284007269860362,0.0007933095491354702,0.046004171268805856,0.976334180067053,0.5635761656984852,0.41917953824627,-3.9484791654495996,65.9
,,0.025926854449810022,0.019284007269860362,0.0007933095491354702,0.046004171268805856,0.9789450807683218,0.5635761656984852,0.41917953824627,-3.9484791654495996,66.0
,,0.025926854449810022,0.019284007269860362,0.0007933095491354702,0.046004171268805856,0.9821958480332628,0.5635761656984852,0.41917953824627,-3.9484791654495996,66.1
,,0.025926854449810022,0.019284007269860362,0.0007933095491354702,0.046004171268805856,0.9854466152982037,0.5635761656984852,0.41917953824627,-3.9484791654495996,66.2
,,0.025926854449810022,0.019284007269860362,0.0007933095491354702,0.046004171268805856,0.9886973825631445,0.5635761656984852,0.41917953824627,-3.9484791654495996,66.3
,,0.025926854449810022,0.019284007269860362,0.0007933095491354702,0.046004171268805856,0.9919481498280854,0.5635761656984852,0.41917953824627,-3.9484791654495996,66.4
,,0.035114451516679086,0.029466670505754265,0.0011612882102696167,0.06574241023270297,0.9935010541315988,0.5341217547757584,0.44821402807492955,-3.5244954677208793,66.5
,,0.03442044845837014,0.02889518854921691,0.0009073995006821142,0.06422303650826916,0.9950489645196231,0.5359517445728103,0.4499193766008939,-3.5440801839103804,66.6
,,0.03442044845837014,0.02889518854921691,0.0009073995006821142,0.06422303650826916,0.996834783697347,0.5359517445728103,0.4499193766008939,-3.5440801839103804,66.7
,,0.03442044845837014,0.02889518854921691,0.0009073995006821142,0.06422303650826916,0.9992002672087809,0.5359517445728103,0.4499193766008939,-3.5440801839103804,66.8
,,0.03442044845837014,0.02889518854921691,0.0009073995006821142,0.06422303650826916,1.0015657507202147,0.5359517445728103,0.4499193766008939,-3.5440801839103804,66.9
,,0.03442044845837014,0.02889518854921691,0.0009073995006821142,0.06422303650826916,1.0039312342316487,0.5359517445728103,0.4499193766008939,-3.5440801839103804,67.0
,,0.03442044845837014,0.02889518854921691,0.0009073995006821142,0.06422303650826916,1.0062967177430826,0.5359517445728103,0.4499193766008939,-3.5440801839103804,67.1
,,0.03442044845837014,0.02889518854921691,0.0009073995006821142,0.06422303650826916,1.0086622012545166,0.5359517445728103,0.4499193766008939,-3.5440801839103804,67.2
,,0.03665575870689354,0.029212627891403387,0.0012153599433956672,0.0670837465416926,1.011734065361061,0.5464178820738934,0.43546506266235024,-3.5331542011582924,67.3
,,0.021579516601261332,0.028654284588966624,0.0009350972699787564,0.05116889846020671,1.0092315691416616,0.4217311150061868,0.5599941654255198,-3.5524522976496673,67.4
,,0.021579516601261332,0.028654284588966624,0.0009350972699787564,0.05116889846020671,1.0024285201121432,0.4217311150061868,0.5599941654255198,-3.5524522976496673,67.5
,,0.021579516601261332,0.028654284588966624,0.0009350972699787564,0.05116889846020671,0.9956254710826247,0.4217311150061868,0.5599941654255198,-3.5524522976496673,67.6
,,0.021579516601261332,0.028654284588966624,0.0009350972699787564,0.05116889846020671,0.9938026613101609,0.4217311150061868,0.5599941654255198,-3.5524522976496673,67.7
,,0.021579516601261332,0.028654284588966624,0.0009350972699787564,0.05116889846020671,0.9919797844844207,0.4217311150061868,0.5599941654255198,-3.5524522976496673,67.8
,,0.021579516601261332,0.028654284588966624,0.0009350972699787564,0.05116889846020671,0.9901569076586806,0.4217311150061868,0.5599941654255198,-3.5524522976496673,67.9
,,0.021579516601261332,0.028654284588966624,0.0009350972699787564,0.05116889846020671,0.9883340308329402,0.4217311150061868,0.5599941654255198,-3.5524522976496673,68.0
,,0.03692082132579538,0.02824542092641544,0.0012109173877714822,0.06637715963998231,0.9926672038010166,0.5562277977251096,0.4255292193822919,-3.5668239256282077,68.1
,,0.03692082132579538,0.02824542092641544,0.0012109173877714822,0.06637715963998231,0.9970003767690933,0.5562277977251096,0.4255292193822919,-3.5668239256282077,68.2
,,0.03494943814083812,0.02732418131258755,0.0009104246089281982,0.06318404406235387,1.0010658534092636,0.5531370880019627,0.4324538214999721,-3.599983206481368,68.3
,,0.03494943814083812,0.02732418131258755,0.0009104246089281982,0.06318404406235387,1.0055301759115554,0.5531370880019627,0.4324538214999721,-3.599983206481368,68.4
,,0.03494943814083812,0.02732418131258755,0.0009104246089281982,0.06318404406235387,1.0095956525517258,0.5531370880019627,0.4324538214999721,-3.599983206481368,68.5
,,0.03494943814083812,0.02732418131258755,0.0009104246089281982,0.06318404406235387,1.0141098182580621,0.5531370880019627,0.4324538214999721,-3.599983206481368,68.6
,,0.03494943814083812,0.02732418131258755,0.0009104246089281982,0.06318404406235387,1.0186239839643982,0.5531370880019627,0.4324538214999721,-3.599983206481368,68.7
,,0.03494943814083812,0.02732418131258755,0.0009104246089281982,0.06318404406235387,1.0231381496707346,0.5531370880019627,0.4324538214999721,-3.599983206481368,68.8
,,0.03621454674967813,0.0269277008843728,0.0011753073420479863,0.06431755497609892,1.028383587670974,0.5630585112126205,0.41866798099491526,-3.6145997495732183,68.9
,,0.03621454674967813,0.0269277008843728,0.0011753073420479863,0.06431755497609892,1.0336290256712135,0.5630585112126205,0.41866798099491526,-3.6145997495732183,69.0
,,0.01796132747125535,0.017221684330319204,0.0006970656459629076,0.03588007744753746,1.0354407336579388,0.5005933305890364,0.47997901775714175,-4.061585972319931,69.1
,,0.01796132747125535,0.017221684330319204,0.0006970656459629076,0.03588007744753746,1.037252441644664,0.5005933305890364,0.47997901775714175,-4.061585972319931,69.2
,,0.01796132747125535,0.017221684330319204,0.0006970656459629076,0.03588007744753746,1.0390641496313893,0.5005933305890364,0.47997901775714175,-4.061585972319931,69.3
,,0.01796132747125535,0.017221684330319204,0.0006970656459629076,0.03588007744753746,1.0408758576181147,0.5005933305890364,0.47997901775714175,-4.061585972319931,69.4
,,0.01796132747125535,0.017221684330319204,0.0006970656459629076,0.03588007744753746,1.043021593218746,0.5005933305890364,0.47997901775714175,-4.061585972319931,69.5
,,0.01796132747125535,0.017221684330319204,0.0006970656459629076,0.03588007744753746,1.0451673288193775,0.5005933305890364,0.47997901775714175,-4.061585972319931,69.6
,,0.017821016022458547,0.01766375553691641,0.0008594602672831374,0.0363442318266581,1.046934782658834,0.4903395979712804,0.48601262563926956,-4.036240448605254,69.7
,,0.017821016022458547,0.01766375553691641,0.0008594602672831374,0.0363442318266581,1.0487022364982905,0.4903395979712804,0.48601262563926956,-4.036240448605254,69.8
,,0.03417958191059425,0.026016453538736467,0.0008662588832313935,0.06106229433256211,1.053715894383081,0.5597493884596412,0.42606413373601193,-3.6490261126991776,69.9
,,0.03417958191059425,0.026016453538736467,0.0008662588832313935,0.06106229433256211,1.0587295522678717,0.5597493884596412,0.42606413373601193,-3.6490261126991776,70.0
,,0.03417958191059425,0.026016453538736467,0.0008662588832313935,0.06106229433256211,1.0637432101526623,0.5597493884596412,0.42606413373601193,-3.6490261126991776,70.1
,,0.03417958191059425,0.026016453538736467,0.0008662588832313935,0.06106229433256211,1.0688680933056174,0.5597493884596412,0.42606413373601193,-3.6490261126991776,70.2
,,0.03417958191059425,0.026016453538736467,0.0008662588832313935,0.06106229433256211,1.073881751190408,0.5597493884596412,0.42606413373601193,-3.6490261126991776,70.3
,,0.01635708453234306,0.018703514207800268,0.0008603406230889744,0.035920939363232304,1.0741359052890609,0.45536349611964005,0.5206855538679113,-3.979043847226574,70.4
,,0.03559166560598616,0.025897980861969743,0.0011132362062631453,0.06260288267421905,1.079942911268321,0.5685307782263422,0.41368671466362006,-3.6535902723129126,70.5
,,0.03559166560598616,0.025897980861969743,0.0011132362062631453,0.06260288267421905,1.0857499172475813,0.5685307782263422,0.41368671466362006,-3.6535902723129126,70.6
,,0.03559166560598616,0.025897980861969743,0.0011132362062631453,0.06260288267421905,1.0871273677891828,0.5685307782263422,0.41368671466362006,-3.6535902723129126,70.7
,,0.03407855876534119,0.02593517643835173,0.0008265753172039535,0.060840310520896876,1.0878346753746635,0.5601312431440697,0.42628277561870354,-3.652155068103718,70.8
,,0.03407855876534119,0.02593517643835173,0.0008265753172039535,0.060840310520896876,1.0885419829601444,0.5601312431440697,0.42628277561870354,-3.652155068103718,70.9
,,0.03407855876534119,0.02593517643835173,0.0008265753172039535,0.060840310520896876,1.0892492905456252,0.5601312431440697,0.42628277561870354,-3.652155068103718,71.0
,,0.03407855876534119,0.02593517643835173,0.0008265753172039535,0.060840310520896876,1.0941282103112888,0.5601312431440697,0.42628277561870354,-3.652155068103718,71.1
,,0.03407855876534119,0.02593517643835173,0.0008265753172039535,0.060840310520896876,1.0989902877586135,0.5601312431440697,0.42628277561870354,-3.652155068103718,71.2
,,0.03407855876534119,0.02593517643835173,0.0008265753172039535,0.060840310520896876,1.103852365205938,0.5601312431440697,0.42628277561870354,-3.652155068103718,71.3
,,0.03531041950275773,0.025768812137940876,0.001058597300456475,0.06213782894115508,1.1093398592023962,0.56825962709764,0.41470409534816716,-3.6585903501439043,71.4
,,0.03531041950275773,0.025768812137940876,0.001058597300456475,0.06213782894115508,1.1145271509109196,0.56825962709764,0.41470409534816716,-3.6585903501439043,71.5
,,0.03531041950275773,0.025768812137940876,0.001058597300456475,0.06213782894115508,1.119714442619443,0.56825962709764,0.41470409534816716,-3.6585903501439043,71.6
,,0.03395430429908368,0.025954948704818917,0.0007784700931856668,0.06068772309708826,1.1242120033368512,0.5594921438189988,0.4276803837787121,-3.651392986017018,71.7
,,0.03395430429908368,0.025954948704818917,0.0007784700931856668,0.06068772309708826,1.1287095640542597,0.5594921438189988,0.4276803837787121,-3.651392986017018,71.8
,,0.03395430429908368,0.025954948704818917,0.0007784700931856668,0.06068772309708826,1.1332071247716682,0.5594921438189988,0.4276803837787121,-3.651392986017018,71.9
,,0.03395430429908368,0.025954948704818917,0.0007784700931856668,0.06068772309708826,1.1375499658195334,0.5594921438189988,0.4276803837787121,-3.651392986017018,72.0
