time,ecg,hr,rr,marker,norm_time
1715676071308375576,-0.016,,,,0.0
1715676071316070013,0.113,,,,0.007694437
1715676071323764450,-0.002,,,,0.015388874
1715676071331458887,-0.076,,,,0.023083311
1715676071339153324,-0.016,,,,0.030777748
1715676071346847761,-0.024,,,,0.038472185
1715676071354542198,-0.052,,,,0.046166622
1715676071362236635,-0.033,,,,0.053861059
1715676071369931072,-0.024,,,,0.061555496
1715676071377625509,-0.024,,,,0.069249933
1715676071385319946,-0.007,,,,0.07694437
1715676071393014383,0.002,,,,0.084638807
1715676071400708820,-0.002,,,,0.092333244
1715676071408403257,0.002,,,,0.100027681
1715676071416097694,0.021,,,,0.107722118
1715676071423792131,0.031,,,,0.115416555
1715676071431486568,0.038,,,,0.123110992
1715676071439181005,0.057,,,,0.130805429
1715676071446875442,0.072,,,,0.138499866
1715676071454569879,0.076,,,,0.146194303
1715676071462264316,0.088,,,,0.15388874
1715676071469958753,0.098,,,,0.161583177
1715676071477653190,0.103,,,,0.169277614
1715676071485347627,0.103,,,,0.176972051
1715676071493042064,0.101,,,,0.184666488
1715676071500736501,0.101,,,,0.192360925
1715676071508430938,0.096,,,,0.200055362
1715676071516125375,0.086,,,,0.207749799
1715676071523819812,0.079,,,,0.215444236
1715676071531514249,0.076,,,,0.223138673
1715676071539208686,0.067,,,,0.23083311
1715676071546903123,0.05,,,,0.238527547
1715676071554597560,0.038,,,,0.246221984
1715676071562291997,0.038,,,,0.253916421
1715676071569986434,0.038,,,,0.261610858
1715676071577680871,0.033,,,,0.269305295
1715676071585375308,0.026,,,,0.276999732
1715676071593069745,0.026,,,,0.284694169
1715676071600764182,0.031,,,,0.292388606
1715676071608458619,0.036,,,,0.300083043
1715676071616153056,0.033,,,,0.30777748
1715676071623847493,0.031,,,,0.315471917
1715676071631541930,0.036,,,,0.323166354
1715676071639236367,0.045,,,,0.330860791
1715676071646930804,0.052,,,,0.338555228
1715676071654625241,0.055,,,,0.346249665
1715676071662319678,0.062,,,,0.353944102
1715676071670014115,0.072,,,,0.361638539
1715676071677708552,0.076,,,,0.369332976
1715676071685402989,0.076,,,,0.377027413
1715676071693097426,0.081,,,,0.38472185
1715676071700791863,0.081,,,,0.392416287
1715676071708486300,0.081,,,,0.400110724
1715676071716180737,0.086,,,,0.407805161
1715676071723875174,0.088,,,,0.415499598
1715676071731569611,0.086,,,,0.423194035
1715676071739264048,0.084,,,,0.430888472
1715676071746958485,0.081,,,,0.438582909
1715676071754652922,0.079,,,,0.446277346
1715676071762347359,0.079,,,,0.453971783
1715676071770041796,0.084,,,,0.46166622
1715676071777736233,0.084,,,,0.469360657
1715676071785430670,0.079,,,,0.477055094
1715676071793125107,0.079,,,,0.484749531
1715676071800819544,0.086,,,,0.492443968
1715676071808513981,0.086,,,,0.500138405
1715676071816208418,0.086,,,,0.507832842
1715676071823902855,0.084,,,,0.515527279
1715676071831597292,0.079,,,,0.523221716
1715676071839291729,0.079,,,,0.530916153
1715676071846986166,0.084,,,,0.53861059
1715676071854680603,0.086,,,,0.546305027
1715676071862375040,0.081,,,,0.553999464
1715676071870069538,0.064,84.0,,,0.561693962
1715676071877764324,0.05,,,,0.569388748
1715676071885459110,0.05,,,,0.577083534
1715676071893153896,0.057,,688.0,,0.58477832
1715676071900848682,0.079,,,,0.592473106
1715676071908543468,0.113,,,,0.600167892
1715676071916238254,0.141,,,,0.607862678
1715676071923933040,0.151,,,,0.615557464
1715676071931627826,0.141,,,,0.62325225
1715676071939322612,0.125,,,,0.630947036
1715676071947017398,0.115,,,,0.638641822
1715676071954712184,0.117,,,,0.646336608
1715676071962406970,0.113,,,,0.654031394
1715676071970101756,0.093,,,,0.66172618
1715676071977796542,0.043,,,,0.669420966
1715676071985491328,-0.014,,,,0.677115752
1715676071993186114,0.137,,,,0.684810538
1715676072000880900,0.651,,,,0.692505324
1715676072008575686,1.303,,,,0.70020011
1715676072016270472,1.688,,,,0.707894896
1715676072023965258,1.409,,,,0.715589682
1715676072031660044,0.5670000000000001,,,,0.723284468
1715676072039354830,0.004,,,,0.730979254
1715676072047049616,0.04,,,,0.73867404
1715676072054744402,0.064,,,,0.746368826
1715676072062439188,-0.086,,,,0.754063612
1715676072070133974,-0.093,,,,0.761758398
1715676072077828760,-0.043,,,,0.769453184
1715676072085523546,-0.067,,,,0.77714797
1715676072093218332,-0.072,,,,0.784842756
1715676072100913118,-0.04,,,,0.792537542
1715676072108607904,-0.04,,,,0.800232328
1715676072116302690,-0.04,,,,0.807927114
1715676072123997476,-0.031,,,,0.8156219
1715676072131692262,-0.026,,,,0.823316686
1715676072139387048,-0.014,,,,0.831011472
1715676072147081834,0.0,,,,0.838706258
1715676072154776620,0.007,,,,0.846401044
1715676072162471406,0.016,,,,0.85409583
1715676072170166192,0.031,,,,0.861790616
1715676072177860978,0.043,,,,0.869485402
1715676072185555764,0.055,,,,0.877180188
1715676072193250550,0.067,,,,0.884874974
1715676072200945336,0.074,,,,0.89256976
1715676072208640122,0.084,,,,0.900264546
1715676072216334908,0.091,,,,0.907959332
1715676072224029694,0.093,,,,0.915654118
1715676072231724480,0.093,,,,0.923348904
1715676072239419266,0.091,,,,0.93104369
1715676072247114052,0.084,,,,0.938738476
1715676072254808838,0.084,,,,0.946433262
1715676072262503624,0.079,,,,0.954128048
1715676072270198410,0.067,,,,0.961822834
1715676072277893196,0.055,,,,0.96951762
1715676072285587982,0.045,,,,0.977212406
1715676072293282768,0.038,,,,0.984907192
1715676072300977554,0.033,,,,0.992601978
1715676072308672340,0.026,,,,1.000296764
1715676072316367126,0.021,,,,1.00799155
1715676072324061912,0.016,,,,1.015686336
1715676072331756698,0.019,,,,1.023381122
1715676072339451484,0.026,,,,1.031075908
1715676072347146270,0.028,,,,1.038770694
1715676072354841056,0.033,,,,1.04646548
1715676072362535842,0.038,,,,1.054160266
1715676072370230628,0.043,,,,1.061855052
1715676072377925414,0.043,,,,1.069549838
1715676072385620200,0.043,,,,1.077244624
1715676072393314986,0.048,,,,1.08493941
1715676072401009772,0.057,,,,1.092634196
1715676072408704558,0.06,,,,1.100328982
1715676072416399344,0.06,,,,1.108023768
1715676072424094130,0.064,,,,1.115718554
1715676072431788932,0.069,,,,1.123413356
1715676072439483718,0.072,,,,1.131108142
1715676072447178504,0.072,,,,1.138802928
1715676072454873290,0.074,,,,1.146497714
1715676072462568076,0.076,,,,1.1541925
1715676072470262862,0.072,,,,1.161887286
1715676072477957648,0.064,,,,1.169582072
1715676072485652434,0.067,,,,1.177276858
1715676072493347220,0.067,,,,1.184971644
1715676072501042006,0.064,,,,1.19266643
1715676072508736792,0.064,,,,1.200361216
1715676072516431578,0.067,,,,1.208056002
1715676072524126364,0.069,,,,1.215750788
1715676072531821150,0.069,,,,1.223445574
1715676072539515936,0.067,,,,1.23114036
1715676072547210722,0.069,,,,1.238835146
1715676072554905508,0.072,,,,1.246529932
1715676072562600294,0.072,,,,1.254224718
1715676072570295080,0.064,,,,1.261919504
1715676072577989866,0.069,,,,1.26961429
1715676072585684652,0.079,,,,1.277309076
1715676072593379438,0.079,,702.0,,1.285003862
1715676072601074224,0.076,,,,1.292698648
1715676072608769010,0.081,,,,1.300393434
1715676072616463796,0.086,,,,1.30808822
1715676072624158582,0.081,,,,1.315783006
1715676072631853368,0.074,,,,1.323477792
1715676072639548154,0.076,,,,1.331172578
1715676072647242940,0.084,,,,1.338867364
1715676072654937726,0.084,,,,1.34656215
1715676072662632512,0.081,,,,1.354256936
1715676072670327298,0.079,,,,1.361951722
1715676072678022084,0.079,,,,1.369646508
1715676072685716870,0.081,,,,1.377341294
1715676072693411656,0.086,,,,1.38503608
1715676072701106442,0.086,,,,1.392730866
1715676072708801228,0.081,,,,1.400425652
1715676072716496014,0.076,,,,1.408120438
1715676072724190800,0.076,,,,1.415815224
1715676072731885586,0.076,,,,1.42351001
1715676072739580372,0.076,,,,1.431204796
1715676072747275158,0.074,,,,1.438899582
1715676072754969944,0.074,,,,1.446594368
1715676072762664730,0.079,,,,1.454289154
1715676072770359516,0.081,,,,1.46198394
1715676072778054302,0.076,,,,1.469678726
1715676072785749088,0.079,,,,1.477373512
1715676072793443874,0.084,,,,1.485068298
1715676072801138660,0.084,,,,1.492763084
1715676072808833446,0.081,,,,1.50045787
1715676072816528232,0.079,,,,1.508152656
1715676072824223018,0.076,,,,1.515847442
1715676072831917804,0.069,,,,1.523542228
1715676072839612590,0.055,,,,1.531237014
1715676072847307376,0.045,,,,1.5389318
1715676072855002162,0.045,,,,1.546626586
1715676072862696948,0.057,,,,1.554321372
1715676072870391734,0.086,,,,1.562016158
1715676072878086520,0.122,,,,1.569710944
1715676072885781306,0.137,,,,1.57740573
1715676072893476092,0.134,,,,1.585100516
1715676072901170878,0.122,,,,1.592795302
1715676072908865664,0.108,,,,1.600490088
1715676072916560450,0.105,,,,1.608184874
1715676072924255236,0.11,,,,1.61587966
1715676072931950022,0.11,,,,1.623574446
1715676072939644808,0.091,,,,1.631269232
1715676072947339594,0.026,,,,1.638964018
1715676072955034380,0.014,,,,1.646658804
1715676072962729166,0.286,,,,1.65435359
1715676072970423952,0.844,,,,1.662048376
1715676072978118738,1.399,,,,1.669743162
1715676072985813524,1.558,,,,1.677437948
1715676072993508326,1.079,84.0,,,1.68513275
1715676073001203112,0.336,,,,1.692827536
1715676073008897898,0.038,,,,1.700522322
1715676073016592684,0.105,,,,1.708217108
1715676073024287470,0.038,,,,1.715911894
1715676073031982256,-0.062,,,,1.72360668
1715676073039677042,-0.028,,,,1.731301466
1715676073047371828,-0.016,,,,1.738996252
1715676073055066614,-0.052,,,,1.746691038
1715676073062761400,-0.045,,,,1.754385824
1715676073070456186,-0.026,,,,1.76208061
1715676073078150972,-0.038,,,,1.769775396
1715676073085845758,-0.033,,,,1.777470182
1715676073093540544,-0.012,,,,1.785164968
1715676073101235330,0.0,,,,1.792859754
1715676073108930116,0.002,,,,1.80055454
1715676073116624902,0.012,,,,1.808249326
1715676073124319688,0.016,,,,1.815944112
1715676073132014474,0.021,,,,1.823638898
1715676073139709260,0.033,,,,1.831333684
1715676073147404046,0.05,,,,1.83902847
1715676073155098832,0.06,,,,1.846723256
1715676073162793618,0.069,,,,1.854418042
1715676073170488404,0.081,,,,1.862112828
1715676073178183190,0.091,,,,1.869807614
1715676073185877976,0.098,,,,1.8775024
1715676073193572762,0.103,,,,1.885197186
1715676073201267548,0.105,,,,1.892891972
1715676073208962334,0.105,,,,1.900586758
1715676073216657120,0.105,,,,1.908281544
1715676073224351906,0.098,,,,1.91597633
1715676073232046692,0.088,,,,1.923671116
1715676073239741478,0.079,,,,1.931365902
1715676073247436264,0.072,,,,1.939060688
1715676073255131050,0.064,,,,1.946755474
1715676073262825836,0.057,,,,1.95445026
1715676073270520622,0.05,,,,1.962145046
1715676073278215408,0.045,,,,1.969839832
1715676073285910194,0.043,,,,1.977534618
1715676073293604980,0.038,,,,1.985229404
1715676073301299766,0.033,,705.0,,1.99292419
1715676073308994552,0.031,,,,2.000618976
1715676073316689338,0.033,,,,2.008313762
1715676073324384124,0.038,,,,2.016008548
1715676073332078910,0.045,,,,2.023703334
1715676073339773696,0.052,,,,2.03139812
1715676073347468482,0.052,,,,2.039092906
1715676073355163268,0.055,,,,2.046787692
1715676073362858054,0.06,,,,2.054482478
1715676073370552840,0.062,,,,2.062177264
1715676073378247626,0.055,,,,2.06987205
1715676073385942412,0.055,,,,2.077566836
1715676073393637198,0.06,,,,2.085261622
1715676073401331984,0.062,,,,2.092956408
1715676073409026770,0.06,,,,2.100651194
1715676073416721556,0.057,,,,2.10834598
1715676073424416342,0.055,,,,2.116040766
1715676073432111128,0.055,,,,2.123735552
1715676073439805914,0.052,,,,2.131430338
1715676073447500700,0.05,,,,2.139125124
1715676073455195486,0.048,,,,2.14681991
1715676073462890272,0.045,,,,2.154514696
1715676073470585058,0.045,,,,2.162209482
1715676073478279844,0.05,,,,2.169904268
1715676073485974630,0.05,,,,2.177599054
1715676073493669416,0.048,,,,2.18529384
1715676073501364202,0.048,,,,2.192988626
1715676073509058988,0.05,,,,2.200683412
1715676073516753774,0.052,,,,2.208378198
1715676073524448560,0.057,,,,2.216072984
1715676073532143346,0.055,,,,2.22376777
1715676073539838132,0.057,,,,2.231462556
1715676073547532918,0.057,,,,2.239157342
1715676073555227720,0.055,,,,2.246852144
1715676073562922088,0.055,,,,2.254546512
1715676073570616456,0.06,,,,2.26224088
1715676073578310824,0.06,,,,2.269935248
1715676073586005192,0.052,,,,2.277629616
1715676073593699560,0.05,,,,2.285323984
1715676073601393928,0.057,,,,2.293018352
1715676073609088296,0.064,,,,2.30071272
1715676073616782664,0.062,,,,2.308407088
1715676073624477032,0.06,,,,2.316101456
1715676073632171400,0.055,,,,2.323795824
1715676073639865768,0.057,,,,2.331490192
1715676073647560136,0.062,,,,2.33918456
1715676073655254504,0.067,,,,2.346878928
1715676073662948872,0.072,,,,2.354573296
1715676073670643240,0.074,,,,2.362267664
1715676073678337608,0.074,,,,2.369962032
1715676073686031976,0.079,,,,2.3776564
1715676073693726344,0.086,,,,2.385350768
1715676073701420712,0.088,,,,2.393045136
1715676073709115080,0.086,,,,2.400739504
1715676073716809448,0.088,,,,2.408433872
1715676073724503816,0.093,,,,2.41612824
1715676073732198184,0.096,,,,2.423822608
1715676073739892552,0.098,,,,2.431516976
1715676073747586920,0.101,,,,2.439211344
1715676073755281288,0.103,,,,2.446905712
1715676073762975656,0.105,,,,2.45460008
1715676073770670024,0.108,,,,2.462294448
1715676073778364392,0.11,,,,2.469988816
1715676073786058760,0.113,,,,2.477683184
1715676073793753128,0.11,,,,2.485377552
1715676073801447496,0.11,,,,2.49307192
1715676073809141864,0.115,,,,2.500766288
1715676073816836232,0.117,,,,2.508460656
1715676073824530600,0.115,,,,2.516155024
1715676073832224968,0.117,,,,2.523849392
1715676073839919336,0.122,,,,2.53154376
1715676073847613704,0.122,,,,2.539238128
1715676073855308072,0.122,,,,2.546932496
1715676073863002440,0.12,,,,2.554626864
1715676073870696808,0.11,,,,2.562321232
1715676073878391176,0.098,,,,2.5700156
1715676073886085544,0.091,,,,2.577709968
1715676073893779912,0.091,,,,2.585404336
1715676073901474280,0.103,,,,2.593098704
1715676073909168648,0.134,,,,2.600793072
1715676073916863016,0.165,,,,2.60848744
1715676073924557384,0.175,,,,2.616181808
1715676073932251752,0.168,,,,2.623876176
1715676073939946120,0.158,,,,2.631570544
1715676073947640488,0.144,,,,2.639264912
1715676073955334856,0.134,,,,2.64695928
1715676073963029224,0.139,,,,2.654653648
1715676073970723592,0.139,,,,2.662348016
1715676073978417960,0.122,,,,2.670042384
1715676073986112328,0.067,,,,2.677736752
1715676073993806696,0.033,,,,2.68543112
1715676074001501064,0.242,,,,2.693125488
1715676074009195432,0.75,,708.0,,2.700819856
1715676074016889800,1.31,,,,2.708514224
1715676074024584168,1.548,,,,2.716208592
1715676074032278536,1.154,,,,2.72390296
1715676074039972904,0.404,,,,2.731597328
1715676074047667272,0.05,,,,2.739291696
1715676074055361640,0.115,,,,2.746986064
1715676074063056008,0.067,,,,2.754680432
1715676074070750376,-0.043,,,,2.7623748
1715676074078444744,-0.007,,,,2.770069168
1715676074086139112,0.019,,,,2.777763536
1715676074093833480,-0.021,,,,2.785457904
1715676074101527848,-0.021,,,,2.793152272
1715676074109222216,0.007,,,,2.80084664
1715676074116916596,0.007,84.0,,,2.80854102
1715676074124611312,0.002,,,,2.816235736
1715676074132306028,0.004,,,,2.823930452
1715676074140000744,0.002,,,,2.831625168
1715676074147695460,0.004,,,,2.839319884
1715676074155390176,0.014,,,,2.8470146
1715676074163084892,0.021,,,,2.854709316
1715676074170779608,0.026,,,,2.862404032
1715676074178474324,0.036,,,,2.870098748
1715676074186169040,0.04,,,,2.877793464
1715676074193863756,0.05,,,,2.88548818
1715676074201558472,0.069,,,,2.893182896
1715676074209253188,0.079,,,,2.900877612
1715676074216947904,0.084,,,,2.908572328
1715676074224642620,0.091,,,,2.916267044
1715676074232337336,0.098,,,,2.92396176
1715676074240032052,0.103,,,,2.931656476
1715676074247726768,0.098,,,,2.939351192
1715676074255421484,0.093,,,,2.947045908
1715676074263116200,0.091,,,,2.954740624
1715676074270810916,0.084,,,,2.96243534
1715676074278505632,0.069,,,,2.970130056
1715676074286200348,0.052,,,,2.977824772
1715676074293895064,0.033,,,,2.985519488
1715676074301589780,0.021,,,,2.993214204
1715676074309284496,0.014,,,,3.00090892
1715676074316979212,0.009,,,,3.008603636
1715676074324673928,0.004,,,,3.016298352
1715676074332368644,0.0,,,,3.023993068
1715676074340063360,0.0,,,,3.031687784
1715676074347758076,0.0,,,,3.0393825
1715676074355452792,0.004,,,,3.047077216
1715676074363147508,0.007,,,,3.054771932
1715676074370842224,0.004,,,,3.062466648
1715676074378536940,0.009,,,,3.070161364
1715676074386231656,0.016,,,,3.07785608
1715676074393926372,0.019,,,,3.085550796
1715676074401621088,0.021,,,,3.093245512
1715676074409315804,0.026,,,,3.100940228
1715676074417010520,0.031,,,,3.108634944
1715676074424705236,0.031,,,,3.11632966
1715676074432399952,0.033,,,,3.124024376
1715676074440094668,0.036,,,,3.131719092
1715676074447789384,0.036,,,,3.139413808
1715676074455484100,0.033,,,,3.147108524
1715676074463178816,0.033,,,,3.15480324
1715676074470873532,0.036,,,,3.162497956
1715676074478568248,0.033,,,,3.170192672
1715676074486262964,0.031,,,,3.177887388
1715676074493957680,0.033,,,,3.185582104
1715676074501652396,0.033,,,,3.19327682
1715676074509347112,0.028,,,,3.200971536
1715676074517041828,0.024,,,,3.208666252
1715676074524736544,0.026,,,,3.216360968
1715676074532431260,0.021,,,,3.224055684
1715676074540125976,0.014,,,,3.2317504
1715676074547820692,0.009,,,,3.239445116
1715676074555515408,0.012,,,,3.247139832
1715676074563210124,0.016,,,,3.254834548
1715676074570904840,0.016,,,,3.262529264
1715676074578599556,0.014,,,,3.27022398
1715676074586294272,0.014,,,,3.277918696
1715676074593988988,0.016,,,,3.285613412
1715676074601683704,0.019,,,,3.293308128
1715676074609378420,0.016,,,,3.301002844
1715676074617073136,0.019,,,,3.30869756
1715676074624767852,0.024,,,,3.316392276
1715676074632462568,0.021,,,,3.324086992
1715676074640157284,0.016,,,,3.331781708
1715676074647852000,0.014,,,,3.339476424
1715676074655546716,0.019,,,,3.34717114
1715676074663241432,0.024,,,,3.354865856
1715676074670936148,0.021,,,,3.362560572
1715676074678630906,0.021,,,,3.37025533
1715676074686325343,0.021,,,,3.377949767
1715676074694019780,0.016,,,,3.385644204
1715676074701714217,0.016,,693.0,,3.393338641
1715676074709408654,0.021,,,,3.401033078
1715676074717103091,0.026,,,,3.408727515
1715676074724797528,0.026,,,,3.416421952
1715676074732491965,0.024,,,,3.424116389
1715676074740186402,0.024,,,,3.431810826
1715676074747880839,0.024,,,,3.439505263
1715676074755575276,0.016,,,,3.4471997
1715676074763269713,0.014,,,,3.454894137
1715676074770964150,0.016,,,,3.462588574
1715676074778658587,0.009,,,,3.470283011
1715676074786353024,-0.009,,,,3.477977448
1715676074794047461,-0.021,,,,3.485671885
1715676074801741898,-0.026,,,,3.493366322
1715676074809436335,-0.036,,,,3.501060759
1715676074817130772,-0.048,,,,3.508755196
1715676074824825209,-0.043,,,,3.516449633
1715676074832519646,-0.019,,,,3.52414407
1715676074840214083,0.014,,,,3.531838507
1715676074847908520,0.033,,,,3.539532944
1715676074855602957,0.031,,,,3.547227381
1715676074863297394,0.016,,,,3.554921818
1715676074870991831,-0.002,,,,3.562616255
1715676074878686268,-0.012,,,,3.570310692
1715676074886380705,-0.007,,,,3.578005129
1715676074894075142,0.0,,,,3.585699566
1715676074901769579,-0.009,,,,3.593394003
1715676074909464016,-0.057,,,,3.60108844
1715676074917158453,-0.101,,,,3.608782877
1715676074924852890,0.067,,,,3.616477314
1715676074932547327,0.536,,,,3.624171751
1715676074940241764,1.082,,,,3.631866188
1715676074947936201,1.361,,,,3.639560625
1715676074955630638,1.055,,,,3.647255062
1715676074963325075,0.341,,,,3.654949499
1715676074971019512,-0.052,,,,3.662643936
1715676074978713949,0.007,,,,3.670338373
1715676074986408386,-0.014,,,,3.67803281
1715676074994102823,-0.132,,,,3.685727247
1715676075001797260,-0.11,,,,3.693421684
1715676075009491697,-0.074,,,,3.701116121
1715676075017186134,-0.105,,,,3.708810558
1715676075024880571,-0.105,,,,3.716504995
1715676075032575008,-0.086,,,,3.724199432
1715676075040269445,-0.079,,,,3.731893869
1715676075047963882,-0.072,,,,3.739588306
1715676075055658319,-0.06,,,,3.747282743
1715676075063352756,-0.055,,,,3.75497718
1715676075071047193,-0.043,,,,3.762671617
1715676075078741630,-0.028,,,,3.770366054
1715676075086436067,-0.019,,,,3.778060491
1715676075094130504,-0.009,,,,3.785754928
1715676075101824941,0.007,,,,3.793449365
1715676075109519378,0.019,,,,3.801143802
1715676075117213815,0.033,,,,3.808838239
1715676075124908252,0.05,,,,3.816532676
1715676075132602689,0.064,,,,3.824227113
1715676075140297126,0.074,,,,3.83192155
1715676075147991563,0.074,,,,3.839615987
1715676075155686000,0.076,,,,3.847310424
1715676075163380437,0.084,,,,3.855004861
1715676075171074874,0.081,,,,3.862699298
1715676075178769311,0.076,,,,3.870393735
1715676075186463748,0.076,,,,3.878088172
1715676075194158185,0.072,,,,3.885782609
1715676075201852622,0.057,,,,3.893477046
1715676075209547059,0.043,,,,3.901171483
1715676075217241496,0.036,,,,3.90886592
1715676075224935933,0.028,,,,3.916560357
1715676075232630370,0.021,,,,3.924254794
1715676075240324868,0.012,84.0,,,3.931949292
1715676075248019654,0.007,,,,3.939644078
1715676075255714440,0.009,,,,3.947338864
1715676075263409226,0.016,,,,3.95503365
1715676075271104012,0.016,,,,3.962728436
1715676075278798798,0.012,,,,3.970423222
1715676075286493584,0.014,,,,3.978118008
1715676075294188370,0.012,,,,3.985812794
1715676075301883156,0.007,,,,3.99350758
1715676075309577942,0.014,,,,4.001202366
1715676075317272728,0.026,,,,4.008897152
1715676075324967514,0.028,,,,4.016591938
1715676075332662300,0.028,,,,4.024286724
1715676075340357086,0.036,,,,4.03198151
1715676075348051872,0.038,,,,4.039676296
1715676075355746658,0.04,,,,4.047371082
1715676075363441444,0.045,,,,4.055065868
1715676075371136230,0.052,,,,4.062760654
1715676075378831016,0.057,,,,4.07045544
1715676075386525802,0.055,,,,4.078150226
1715676075394220588,0.057,,,,4.085845012
1715676075401915374,0.064,,,,4.093539798
1715676075409610160,0.064,,,,4.101234584
1715676075417304946,0.064,,,,4.10892937
1715676075424999732,0.062,,,,4.116624156
1715676075432694518,0.057,,736.0,,4.124318942
1715676075440389304,0.06,,,,4.132013728
1715676075448084090,0.062,,,,4.139708514
1715676075455778876,0.067,,,,4.1474033
1715676075463473662,0.072,,,,4.155098086
1715676075471168448,0.067,,,,4.162792872
1715676075478863234,0.062,,,,4.170487658
1715676075486558020,0.064,,,,4.178182444
1715676075494252806,0.074,,,,4.18587723
1715676075501947592,0.074,,,,4.193572016
1715676075509642378,0.072,,,,4.201266802
1715676075517337164,0.067,,,,4.208961588
1715676075525031950,0.062,,,,4.216656374
1715676075532726736,0.064,,,,4.22435116
1715676075540421522,0.069,,,,4.232045946
1715676075548116308,0.069,,,,4.239740732
1715676075555811094,0.062,,,,4.247435518
1715676075563505880,0.06,,,,4.255130304
1715676075571200666,0.055,,,,4.26282509
1715676075578895452,0.055,,,,4.270519876
1715676075586590238,0.057,,,,4.278214662
1715676075594285024,0.052,,,,4.285909448
1715676075601979810,0.055,,,,4.293604234
1715676075609674596,0.062,,,,4.30129902
1715676075617369382,0.067,,,,4.308993806
1715676075625064168,0.062,,,,4.316688592
1715676075632758954,0.062,,,,4.324383378
1715676075640453740,0.069,,,,4.332078164
1715676075648148526,0.069,,,,4.33977295
1715676075655843312,0.057,,,,4.347467736
1715676075663538098,0.055,,,,4.355162522
1715676075671232884,0.057,,,,4.362857308
1715676075678927670,0.045,,,,4.370552094
1715676075686622456,0.031,,,,4.37824688
1715676075694317242,0.028,,,,4.385941666
1715676075702012028,0.038,,,,4.393636452
1715676075709706814,0.057,,,,4.401331238
1715676075717401600,0.093,,,,4.409026024
1715676075725096386,0.125,,,,4.41672081
1715676075732791172,0.127,,,,4.424415596
1715676075740485958,0.11,,,,4.432110382
1715676075748180744,0.096,,,,4.439805168
1715676075755875530,0.088,,,,4.447499954
1715676075763570316,0.088,,,,4.45519474
1715676075771265102,0.088,,,,4.462889526
1715676075778959888,0.079,,,,4.470584312
1715676075786654674,0.033,,,,4.478279098
1715676075794349460,-0.007,,,,4.485973884
1715676075802044262,0.168,81.0,,,4.493668686
1715676075809739048,0.644,,,,4.501363472
1715676075817433834,1.19,,,,4.509058258
1715676075825128620,1.469,,,,4.516753044
1715676075832823406,1.171,,,,4.52444783
1715676075840518192,0.461,,,,4.532142616
1715676075848212978,0.05,,,,4.539837402
1715676075855907764,0.088,,,,4.547532188
1715676075863602550,0.069,,,,4.555226974
1715676075871297336,-0.045,,,,4.56292176
1715676075878992122,-0.028,,,,4.570616546
1715676075886686908,0.007,,,,4.578311332
1715676075894381694,-0.019,,,,4.586006118
1715676075902076480,-0.019,,,,4.593700904
1715676075909771266,0.002,,,,4.60139569
1715676075917466052,0.004,,,,4.609090476
1715676075925160838,0.012,,,,4.616785262
1715676075932855624,0.024,,,,4.624480048
1715676075940550410,0.033,,,,4.632174834
1715676075948245196,0.045,,,,4.63986962
1715676075955939982,0.057,,,,4.647564406
1715676075963634768,0.067,,,,4.655259192
1715676075971329554,0.079,,,,4.662953978
1715676075979024340,0.088,,,,4.670648764
1715676075986719126,0.098,,,,4.67834355
1715676075994413912,0.113,,,,4.686038336
1715676076002108698,0.129,,,,4.693733122
1715676076009803484,0.139,,,,4.701427908
1715676076017498270,0.141,,,,4.709122694
1715676076025193056,0.149,,,,4.71681748
1715676076032887842,0.156,,,,4.724512266
1715676076040582628,0.161,,,,4.732207052
1715676076048277414,0.156,,,,4.739901838
1715676076055972200,0.151,,,,4.747596624
1715676076063666986,0.149,,,,4.75529141
1715676076071361772,0.141,,,,4.762986196
1715676076079056558,0.127,,,,4.770680982
1715676076086751344,0.117,,,,4.778375768
1715676076094446130,0.105,,,,4.786070554
1715676076102140916,0.093,,,,4.79376534
1715676076109835702,0.084,,,,4.801460126
1715676076117530488,0.076,,,,4.809154912
1715676076125225274,0.067,,,,4.816849698
1715676076132920060,0.064,,,,4.824544484
1715676076140614846,0.067,,,,4.83223927
1715676076148309632,0.067,,,,4.839934056
1715676076156004418,0.064,,,,4.847628842
1715676076163699204,0.06,,,,4.855323628
1715676076171393990,0.062,,,,4.863018414
1715676076179088776,0.069,,,,4.8707132
1715676076186783562,0.072,,,,4.878407986
1715676076194478348,0.076,,,,4.886102772
1715676076202173134,0.081,,,,4.893797558
1715676076209867920,0.086,,,,4.901492344
1715676076217562706,0.088,,,,4.90918713
1715676076225257492,0.096,,,,4.916881916
1715676076232952278,0.101,,,,4.924576702
1715676076240647064,0.103,,,,4.932271488
1715676076248341850,0.105,,,,4.939966274
1715676076256036636,0.103,,,,4.94766106
1715676076263731422,0.101,,,,4.955355846
1715676076271426208,0.101,,,,4.963050632
1715676076279120994,0.105,,,,4.970745418
1715676076286815780,0.103,,,,4.978440204
1715676076294510566,0.103,,,,4.98613499
1715676076302205352,0.105,,,,4.993829776
1715676076309900138,0.103,,,,5.001524562
1715676076317594924,0.101,,,,5.009219348
1715676076325289710,0.103,,,,5.016914134
1715676076332984496,0.103,,,,5.02460892
1715676076340679282,0.103,,,,5.032303706
1715676076348374068,0.101,,,,5.039998492
1715676076356068854,0.101,,,,5.047693278
1715676076363763656,0.105,,,,5.05538808
1715676076371458093,0.113,,,,5.063082517
1715676076379152530,0.11,,,,5.070776954
1715676076386846967,0.108,,,,5.078471391
1715676076394541404,0.11,,,,5.086165828
1715676076402235841,0.105,,967.0,,5.093860265
1715676076409930278,0.096,,,,5.101554702
1715676076417624715,0.098,,,,5.109249139
1715676076425319152,0.105,,,,5.116943576
1715676076433013589,0.108,,,,5.124638013
1715676076440708026,0.108,,,,5.13233245
1715676076448402463,0.11,,,,5.140026887
1715676076456096900,0.115,,,,5.147721324
1715676076463791337,0.117,,,,5.155415761
1715676076471485774,0.115,,,,5.163110198
1715676076479180211,0.11,,,,5.170804635
1715676076486874648,0.103,,,,5.178499072
1715676076494569085,0.086,,,,5.186193509
1715676076502263522,0.072,,,,5.193887946
1715676076509957959,0.069,,,,5.201582383
1715676076517652396,0.072,,,,5.20927682
1715676076525346833,0.088,,,,5.216971257
1715676076533041270,0.125,,,,5.224665694
1715676076540735707,0.149,,,,5.232360131
1715676076548430144,0.144,,,,5.240054568
1715676076556124581,0.137,,,,5.247749005
1715676076563819018,0.129,,,,5.255443442
1715676076571513455,0.113,,,,5.263137879
1715676076579207892,0.11,,,,5.270832316
1715676076586902329,0.113,,,,5.278526753
1715676076594596766,0.105,,,,5.28622119
1715676076602291203,0.055,,,,5.293915627
1715676076609985640,0.031,,,,5.301610064
1715676076617680077,0.25,,,,5.309304501
1715676076625374514,0.757,,,,5.316998938
1715676076633068951,1.269,,,,5.324693375
1715676076640763388,1.445,,,,5.332387812
1715676076648457825,1.029,,,,5.340082249
1715676076656152262,0.334,,,,5.347776686
1715676076663846699,0.052,,,,5.355471123
1715676076671541136,0.11,,,,5.36316556
1715676076679235573,0.045,,,,5.370859997
1715676076686930010,-0.036,,,,5.378554434
1715676076694624447,0.004,,,,5.386248871
1715676076702318884,0.019,,,,5.393943308
1715676076710013321,-0.004,,,,5.401637745
1715676076717707758,0.004,,,,5.409332182
1715676076725402195,0.019,,,,5.417026619
1715676076733096632,0.016,,,,5.424721056
1715676076740791069,0.021,,,,5.432415493
1715676076748485506,0.031,,,,5.44010993
1715676076756179943,0.038,,,,5.447804367
1715676076763874380,0.045,,,,5.455498804
1715676076771568817,0.06,,,,5.463193241
1715676076779263254,0.072,,,,5.470887678
1715676076786957691,0.086,,,,5.478582115
1715676076794652128,0.096,,,,5.486276552
1715676076802346565,0.105,,,,5.493970989
1715676076810041002,0.117,,,,5.501665426
1715676076817735439,0.132,,,,5.509359863
1715676076825429876,0.144,,,,5.5170543
1715676076833124313,0.153,,,,5.524748737
1715676076840818750,0.165,,,,5.532443174
1715676076848513187,0.175,,,,5.540137611
1715676076856207624,0.175,,,,5.547832048
1715676076863902061,0.168,,,,5.555526485
1715676076871596498,0.165,,,,5.563220922
1715676076879290935,0.161,,,,5.570915359
1715676076886985372,0.149,,,,5.578609796
1715676076894679809,0.129,,,,5.586304233
1715676076902374246,0.117,,,,5.59399867
1715676076910068683,0.101,,,,5.601693107
1715676076917763120,0.086,,,,5.609387544
1715676076925457620,0.079,76.0,,,5.617082044
1715676076933152336,0.074,,,,5.62477676
1715676076940847052,0.069,,,,5.632471476
1715676076948541768,0.064,,,,5.640166192
1715676076956236484,0.06,,,,5.647860908
1715676076963931200,0.062,,,,5.655555624
1715676076971625916,0.06,,,,5.66325034
1715676076979320632,0.052,,,,5.670945056
1715676076987015348,0.057,,,,5.678639772
1715676076994710064,0.064,,,,5.686334488
1715676077002404780,0.057,,,,5.694029204
1715676077010099496,0.055,,,,5.70172392
1715676077017794212,0.064,,,,5.709418636
1715676077025488928,0.074,,,,5.717113352
1715676077033183644,0.076,,,,5.724808068
1715676077040878360,0.079,,,,5.732502784
1715676077048573076,0.084,,,,5.7401975
1715676077056267792,0.084,,,,5.747892216
1715676077063962508,0.086,,,,5.755586932
1715676077071657224,0.091,,,,5.763281648
1715676077079351940,0.096,,,,5.770976364
1715676077087046656,0.093,,,,5.77867108
1715676077094741372,0.088,,,,5.786365796
1715676077102436088,0.091,,,,5.794060512
1715676077110130804,0.093,,,,5.801755228
1715676077117825520,0.093,,,,5.809449944
1715676077125520236,0.091,,,,5.81714466
1715676077133214952,0.091,,,,5.824839376
1715676077140909668,0.091,,,,5.832534092
1715676077148604384,0.093,,,,5.840228808
1715676077156299100,0.096,,,,5.847923524
1715676077163993816,0.091,,,,5.85561824
1715676077171688532,0.084,,,,5.863312956
1715676077179383248,0.081,,,,5.871007672
1715676077187077964,0.084,,,,5.878702388
1715676077194772680,0.086,,,,5.886397104
1715676077202467396,0.091,,,,5.89409182
1715676077210162112,0.096,,,,5.901786536
1715676077217856828,0.091,,,,5.909481252
1715676077225551544,0.088,,,,5.917175968
1715676077233246260,0.086,,,,5.924870684
1715676077240940976,0.072,,,,5.9325654
1715676077248635692,0.057,,,,5.940260116
1715676077256330408,0.055,,,,5.947954832
1715676077264025124,0.057,,,,5.955649548
1715676077271719840,0.069,,,,5.963344264
1715676077279414556,0.103,,,,5.97103898
1715676077287109272,0.141,,,,5.978733696
1715676077294803988,0.156,,,,5.986428412
1715676077302498704,0.151,,,,5.994123128
1715676077310193420,0.137,,,,6.001817844
1715676077317888136,0.12,,,,6.00951256
1715676077325582852,0.115,,,,6.017207276
1715676077333277568,0.12,,,,6.024901992
1715676077340972284,0.12,,,,6.032596708
1715676077348667000,0.093,,,,6.040291424
1715676077356361716,0.048,,,,6.04798614
1715676077364056432,0.161,,,,6.055680856
1715676077371751148,0.577,,,,6.063375572
1715676077379445864,1.111,,,,6.071070288
1715676077387140580,1.423,,,,6.078765004
1715676077394835296,1.187,,,,6.08645972
1715676077402530012,0.505,,,,6.094154436
1715676077410224728,0.076,,,,6.101849152
1715676077417919444,0.117,,,,6.109543868
1715676077425614160,0.113,,,,6.117238584
1715676077433308876,-0.004,,,,6.1249333
1715676077441003592,0.012,,1040.0,,6.132628016
1715676077448698308,0.05,,,,6.140322732
1715676077456393024,0.021,,,,6.148017448
1715676077464087740,0.016,,,,6.155712164
1715676077471782456,0.04,,,,6.16340688
1715676077479477172,0.04,,,,6.171101596
1715676077487171926,0.038,,,,6.17879635
1715676077494866642,0.045,,,,6.186491066
1715676077502561358,0.052,,,,6.194185782
1715676077510256074,0.06,,,,6.201880498
1715676077517950790,0.06,,,,6.209575214
1715676077525645506,0.062,,,,6.21726993
1715676077533340222,0.074,,,,6.224964646
1715676077541034938,0.086,,,,6.232659362
1715676077548729654,0.091,,,,6.240354078
1715676077556424370,0.101,,,,6.248048794
1715676077564119086,0.115,,,,6.25574351
1715676077571813802,0.122,,,,6.263438226
1715676077579508518,0.125,,,,6.271132942
1715676077587203234,0.129,,,,6.278827658
1715676077594897950,0.137,,,,6.286522374
1715676077602592666,0.134,,,,6.29421709
1715676077610287382,0.127,,,,6.301911806
1715676077617982098,0.127,,,,6.309606522
1715676077625676814,0.125,,,,6.317301238
1715676077633371530,0.113,,,,6.324995954
1715676077641066246,0.098,,,,6.33269067
1715676077648760962,0.086,,,,6.340385386
1715676077656455678,0.074,,,,6.348080102
1715676077664150394,0.057,,,,6.355774818
1715676077671845110,0.043,,,,6.363469534
1715676077679539826,0.033,,,,6.37116425
1715676077687234542,0.031,,,,6.378858966
1715676077694929258,0.024,,,,6.386553682
1715676077702623974,0.024,,,,6.394248398
1715676077710318690,0.028,,,,6.401943114
1715676077718013406,0.033,,,,6.40963783
1715676077725708122,0.031,,,,6.417332546
1715676077733402838,0.031,,,,6.425027262
1715676077741097554,0.033,,,,6.432721978
1715676077748792270,0.038,,,,6.440416694
1715676077756486986,0.048,,,,6.44811141
1715676077764181702,0.057,,,,6.455806126
1715676077771876418,0.062,,,,6.463500842
1715676077779571134,0.067,,,,6.471195558
1715676077787265850,0.069,,,,6.478890274
1715676077794960566,0.072,,,,6.48658499
1715676077802655282,0.079,,,,6.494279706
1715676077810349998,0.081,,,,6.501974422
1715676077818044714,0.079,,,,6.509669138
1715676077825739430,0.079,,,,6.517363854
1715676077833434146,0.081,,,,6.52505857
1715676077841128862,0.081,,,,6.532753286
1715676077848823578,0.079,,,,6.540448002
1715676077856518294,0.081,,,,6.548142718
1715676077864213010,0.084,,,,6.555837434
1715676077871907726,0.084,,,,6.56353215
1715676077879602442,0.084,,,,6.571226866
1715676077887297158,0.084,,,,6.578921582
1715676077894991874,0.086,,,,6.586616298
1715676077902686590,0.088,,,,6.594311014
1715676077910381306,0.091,,,,6.60200573
1715676077918076022,0.093,,,,6.609700446
1715676077925770738,0.091,,,,6.617395162
1715676077933465454,0.091,,,,6.625089878
1715676077941160170,0.096,,,,6.632784594
1715676077948854886,0.098,,,,6.64047931
1715676077956549602,0.093,,,,6.648174026
1715676077964244318,0.081,,,,6.655868742
1715676077971939034,0.067,,,,6.663563458
1715676077979633750,0.057,,,,6.671258174
1715676077987328466,0.057,,,,6.67895289
1715676077995023182,0.076,,,,6.686647606
1715676078002717898,0.113,,,,6.694342322
1715676078010412614,0.141,,,,6.702037038
1715676078018107330,0.151,,,,6.709731754
1715676078025802046,0.151,,,,6.71742647
1715676078033496762,0.139,,,,6.725121186
1715676078041191478,0.122,,,,6.732815902
1715676078048886236,0.117,74.0,,,6.74051066
1715676078056580673,0.125,,,,6.748205097
1715676078064275110,0.122,,,,6.755899534
1715676078071969547,0.086,,,,6.763593971
1715676078079663984,0.033,,,,6.771288408
1715676078087358421,0.161,,,,6.778982845
1715676078095052858,0.603,,,,6.786677282
1715676078102747295,1.156,,,,6.794371719
1715676078110441732,1.476,,,,6.802066156
1715676078118136169,1.236,,,,6.809760593
1715676078125830606,0.543,,,,6.81745503
1715676078133525043,0.088,,,,6.825149467
1715676078141219480,0.096,,,,6.832843904
1715676078148913917,0.086,,,,6.840538341
1715676078156608354,-0.019,,,,6.848232778
1715676078164302791,-0.009,,,,6.855927215
1715676078171997228,0.024,,,,6.863621652
1715676078179691665,-0.002,,,,6.871316089
1715676078187386102,-0.012,,,,6.879010526
1715676078195080539,0.007,,,,6.886704963
1715676078202774976,0.012,,,,6.8943994
1715676078210469413,0.014,,,,6.902093837
1715676078218163850,0.026,,,,6.909788274
1715676078225858287,0.033,,,,6.917482711
1715676078233552724,0.033,,,,6.925177148
1715676078241247161,0.043,,,,6.932871585
1715676078248941598,0.06,,,,6.940566022
1715676078256636035,0.069,,,,6.948260459
1715676078264330472,0.076,,,,6.955954896
1715676078272024909,0.088,,,,6.963649333
1715676078279719346,0.105,,,,6.97134377
1715676078287413783,0.115,,,,6.979038207
1715676078295108220,0.12,,,,6.986732644
1715676078302802657,0.129,,,,6.994427081
1715676078310497094,0.144,,,,7.002121518
1715676078318191531,0.151,,,,7.009815955
1715676078325885968,0.149,,,,7.017510392
1715676078333580405,0.149,,,,7.025204829
1715676078341274842,0.146,,,,7.032899266
1715676078348969279,0.141,,,,7.040593703
1715676078356663716,0.132,,,,7.04828814
1715676078364358153,0.122,,924.0,,7.055982577
1715676078372052590,0.11,,,,7.063677014
1715676078379747027,0.093,,,,7.071371451
1715676078387441464,0.079,,,,7.079065888
1715676078395135901,0.069,,,,7.086760325
1715676078402830338,0.067,,,,7.094454762
1715676078410524775,0.062,,,,7.102149199
1715676078418219212,0.057,,,,7.109843636
1715676078425913649,0.06,,,,7.117538073
1715676078433608086,0.057,,,,7.12523251
1715676078441302523,0.055,,,,7.132926947
1715676078448996960,0.057,,,,7.140621384
1715676078456691397,0.062,,,,7.148315821
1715676078464385834,0.064,,,,7.156010258
1715676078472080271,0.064,,,,7.163704695
1715676078479774708,0.06,,,,7.171399132
1715676078487469145,0.067,,,,7.179093569
1715676078495163582,0.072,,,,7.186788006
1715676078502858019,0.069,,,,7.194482443
1715676078510552456,0.067,,,,7.20217688
1715676078518246893,0.072,,,,7.209871317
1715676078525941330,0.072,,,,7.217565754
1715676078533635767,0.069,,,,7.225260191
1715676078541330204,0.072,,,,7.232954628
1715676078549024641,0.072,,,,7.240649065
1715676078556719078,0.074,,,,7.248343502
1715676078564413515,0.074,,,,7.256037939
1715676078572107952,0.072,,,,7.263732376
1715676078579802389,0.072,,,,7.271426813
1715676078587496826,0.074,,,,7.27912125
1715676078595191263,0.072,,,,7.286815687
1715676078602885700,0.067,,,,7.294510124
1715676078610580198,0.069,,,,7.302204622
1715676078618274775,0.072,,,,7.309899199
1715676078625969352,0.069,,,,7.317593776
1715676078633663929,0.067,,,,7.325288353
1715676078641358506,0.074,,,,7.33298293
1715676078649053083,0.079,,,,7.340677507
1715676078656747660,0.074,,,,7.348372084
1715676078664442237,0.067,,,,7.356066661
1715676078672136814,0.06,,,,7.363761238
1715676078679831391,0.05,,,,7.371455815
1715676078687525968,0.033,,,,7.379150392
1715676078695220545,0.026,,,,7.386844969
1715676078702915122,0.04,,,,7.394539546
1715676078710609699,0.072,,,,7.402234123
1715676078718304276,0.103,,,,7.4099287
1715676078725998853,0.12,,,,7.417623277
1715676078733693430,0.122,,,,7.425317854
1715676078741388007,0.108,,,,7.433012431
1715676078749082584,0.081,,,,7.440707008
1715676078756777161,0.072,,,,7.448401585
1715676078764471738,0.081,,,,7.456096162
1715676078772166315,0.086,,,,7.463790739
1715676078779860892,0.062,,,,7.471485316
1715676078787555469,0.009,,,,7.479179893
1715676078795250046,0.038,,,,7.48687447
1715676078802944623,0.351,,,,7.494569047
1715676078810639200,0.887,,,,7.502263624
1715676078818333777,1.337,,,,7.509958201
1715676078826028354,1.344,,,,7.517652778
1715676078833722931,0.781,,,,7.525347355
1715676078841417508,0.168,,,,7.533041932
1715676078849112085,0.04,,,,7.540736509
1715676078856806662,0.088,,,,7.548431086
1715676078864501239,0.0,,,,7.556125663
1715676078872195816,-0.038,,,,7.56382024
1715676078879890393,0.0,,,,7.571514817
1715676078887584970,-0.004,,,,7.579209394
1715676078895279547,-0.024,,,,7.586903971
1715676078902974124,-0.004,,,,7.594598548
1715676078910668701,0.007,,,,7.602293125
1715676078918363278,0.004,,,,7.609987702
1715676078926057855,0.009,,,,7.617682279
1715676078933752432,0.019,,,,7.625376856
1715676078941447009,0.028,,,,7.633071433
1715676078949141586,0.038,,,,7.64076601
1715676078956836163,0.05,,,,7.648460587
1715676078964530740,0.057,,,,7.656155164
1715676078972225317,0.062,,,,7.663849741
1715676078979919894,0.072,,,,7.671544318
1715676078987614471,0.084,,,,7.679238895
1715676078995309048,0.093,,,,7.686933472
1715676079003003625,0.105,,,,7.694628049
1715676079010698202,0.117,,,,7.702322626
1715676079018392779,0.122,,,,7.710017203
1715676079026087356,0.127,,,,7.71771178
1715676079033781933,0.127,,,,7.725406357
1715676079041476510,0.127,,,,7.733100934
1715676079049171087,0.125,,,,7.740795511
1715676079056865664,0.125,,,,7.748490088
1715676079064560241,0.125,,,,7.756184665
1715676079072254818,0.11,,,,7.763879242
1715676079079949395,0.091,,,,7.771573819
1715676079087643972,0.081,,,,7.779268396
1715676079095338549,0.074,,,,7.786962973
1715676079103033126,0.064,,,,7.79465755
1715676079110727703,0.055,,,,7.802352127
1715676079118422280,0.05,,,,7.810046704
1715676079126116857,0.045,,,,7.817741281
1715676079133811434,0.048,,,,7.825435858
1715676079141506011,0.05,,,,7.833130435
1715676079149200588,0.052,,,,7.840825012
1715676079156895165,0.06,,,,7.848519589
1715676079164589742,0.062,,,,7.856214166
1715676079172284334,0.064,73.0,,,7.863908758
1715676079179978911,0.072,,,,7.871603335
1715676079187673488,0.072,,,,7.879297912
1715676079195368065,0.064,,,,7.886992489
1715676079203062642,0.067,,,,7.894687066
1715676079210757219,0.074,,,,7.902381643
1715676079218451796,0.067,,,,7.91007622
1715676079226146373,0.06,,,,7.917770797
1715676079233840950,0.062,,,,7.925465374
1715676079241535527,0.064,,877.0,,7.933159951
1715676079249230104,0.067,,,,7.940854528
1715676079256924681,0.067,,,,7.948549105
1715676079264619258,0.069,,,,7.956243682
1715676079272313835,0.069,,,,7.963938259
1715676079280008412,0.072,,,,7.971632836
1715676079287702989,0.069,,,,7.979327413
1715676079295397566,0.067,,,,7.98702199
1715676079303092143,0.069,,,,7.994716567
1715676079310786720,0.069,,,,8.002411144
1715676079318481297,0.067,,,,8.010105721
1715676079326175874,0.064,,,,8.017800298
1715676079333870451,0.064,,,,8.025494875
1715676079341565028,0.064,,,,8.033189452
1715676079349259605,0.064,,,,8.040884029
1715676079356954182,0.06,,,,8.048578606
1715676079364648759,0.055,,,,8.056273183
1715676079372343336,0.045,,,,8.06396776
1715676079380037913,0.026,,,,8.071662337
1715676079387732490,0.016,,,,8.079356914
1715676079395427067,0.012,,,,8.087051491
1715676079403121644,0.014,,,,8.094746068
1715676079410816221,0.038,,,,8.102440645
1715676079418510798,0.079,,,,8.110135222
1715676079426205375,0.105,,,,8.117829799
1715676079433899952,0.108,,,,8.125524376
1715676079441594529,0.093,,,,8.133218953
1715676079449289106,0.072,,,,8.14091353
1715676079456983683,0.062,,,,8.148608107
1715676079464678260,0.062,,,,8.156302684
1715676079472372837,0.062,,,,8.163997261
1715676079480067414,0.055,,,,8.171691838
1715676079487761991,0.007,,,,8.179386415
1715676079495456568,-0.021,,,,8.187080992
1715676079503151145,0.199,,,,8.194775569
1715676079510845722,0.709,,,,8.202470146
1715676079518540299,1.221,,,,8.210164723
1715676079526234876,1.394,,,,8.2178593
1715676079533929453,0.981,,,,8.225553877
1715676079541624030,0.298,,,,8.233248454
1715676079549318607,0.009,,,,8.240943031
1715676079557013184,0.06,,,,8.248637608
1715676079564707761,0.009,,,,8.256332185
1715676079572402338,-0.067,,,,8.264026762
1715676079580096915,-0.036,,,,8.271721339
1715676079587791492,-0.026,,,,8.279415916
1715676079595486069,-0.048,,,,8.287110493
1715676079603180646,-0.033,,,,8.29480507
1715676079610875223,-0.016,,,,8.302499647
1715676079618569800,-0.019,,,,8.310194224
1715676079626264377,-0.012,,,,8.317888801
1715676079633958954,0.002,,,,8.325583378
1715676079641653531,0.009,,,,8.333277955
1715676079649348108,0.021,,,,8.340972532
1715676079657042685,0.038,,,,8.348667109
1715676079664737262,0.045,,,,8.356361686
1715676079672431839,0.052,,,,8.364056263
1715676079680126416,0.062,,,,8.37175084
1715676079687820993,0.069,,,,8.379445417
1715676079695515570,0.074,,,,8.387139994
1715676079703210147,0.086,,,,8.394834571
1715676079710904724,0.098,,,,8.402529148
1715676079718599301,0.105,,,,8.410223725
1715676079726293878,0.108,,,,8.417918302
1715676079733988468,0.113,74.0,,,8.425612892
1715676079741682975,0.115,,,,8.433307399
1715676079749377482,0.113,,,,8.441001906
1715676079757071989,0.113,,,,8.448696413
1715676079764766496,0.11,,,,8.45639092
1715676079772461003,0.101,,,,8.464085427
1715676079780155510,0.088,,,,8.471779934
1715676079787850017,0.076,,,,8.479474441
1715676079795544524,0.057,,,,8.487168948
1715676079803239031,0.048,,,,8.494863455
1715676079810933538,0.04,,,,8.502557962
1715676079818628045,0.026,,,,8.510252469
1715676079826322552,0.019,,,,8.517946976
1715676079834017059,0.028,,,,8.525641483
1715676079841711566,0.036,,,,8.53333599
1715676079849406073,0.033,,,,8.541030497
1715676079857100580,0.028,,,,8.548725004
1715676079864795087,0.036,,,,8.556419511
1715676079872489594,0.052,,,,8.564114018
1715676079880184101,0.052,,,,8.571808525
1715676079887878608,0.05,,,,8.579503032
1715676079895573115,0.06,,,,8.587197539
1715676079903267622,0.072,,,,8.594892046
1715676079910962129,0.072,,,,8.602586553
1715676079918656636,0.074,,,,8.61028106
1715676079926351143,0.081,,,,8.617975567
1715676079934045650,0.088,,,,8.625670074
1715676079941740157,0.091,,,,8.633364581
1715676079949434664,0.088,,,,8.641059088
1715676079957129171,0.081,,,,8.648753595
1715676079964823678,0.076,,,,8.656448102
1715676079972518185,0.079,,,,8.664142609
1715676079980212692,0.081,,,,8.671837116
1715676079987907199,0.084,,,,8.679531623
1715676079995601706,0.086,,,,8.68722613
1715676080003296213,0.086,,,,8.694920637
1715676080010990720,0.081,,,,8.702615144
1715676080018685227,0.076,,,,8.710309651
1715676080026379734,0.076,,,,8.718004158
1715676080034074241,0.084,,,,8.725698665
1715676080041768748,0.086,,,,8.733393172
1715676080049463255,0.079,,,,8.741087679
1715676080057157762,0.081,,814.0,,8.748782186
1715676080064852269,0.081,,,,8.756476693
1715676080072546776,0.067,,,,8.7641712
1715676080080241283,0.057,,,,8.771865707
1715676080087935790,0.057,,,,8.779560214
1715676080095630297,0.052,,,,8.787254721
1715676080103324804,0.05,,,,8.794949228
1715676080111019311,0.069,,,,8.802643735
1715676080118713818,0.108,,,,8.810338242
1715676080126408325,0.139,,,,8.818032749
1715676080134102832,0.144,,,,8.825727256
1715676080141797339,0.127,,,,8.833421763
1715676080149491846,0.103,,,,8.84111627
1715676080157186353,0.088,,,,8.848810777
1715676080164880860,0.091,,,,8.856505284
1715676080172575367,0.093,,,,8.864199791
1715676080180269874,0.081,,,,8.871894298
1715676080187964381,0.031,,,,8.879588805
1715676080195658888,-0.012,,,,8.887283312
1715676080203353395,0.177,,,,8.894977819
1715676080211047902,0.666,,,,8.902672326
1715676080218742409,1.173,,,,8.910366833
1715676080226436916,1.363,,,,8.91806134
1715676080234131423,0.966,,,,8.925755847
1715676080241825930,0.264,,,,8.933450354
1715676080249520437,-0.021,,,,8.941144861
1715676080257214944,0.067,,,,8.948839368
1715676080264909451,0.019,,,,8.956533875
1715676080272603958,-0.079,,,,8.964228382
1715676080280298465,-0.04,,,,8.971922889
1715676080287992972,-0.021,,,,8.979617396
1715676080295687515,-0.052,,,,8.987311939
1715676080303382161,-0.045,,,,8.995006585
1715676080311076807,-0.026,,,,9.002701231
1715676080318771453,-0.028,,,,9.010395877
1715676080326466099,-0.028,,,,9.018090523
1715676080334160745,-0.019,,,,9.025785169
1715676080341855391,-0.016,,,,9.033479815
1715676080349550037,-0.002,,,,9.041174461
1715676080357244683,0.016,,,,9.048869107
1715676080364939329,0.021,,,,9.056563753
1715676080372633975,0.024,,,,9.064258399
1715676080380328621,0.038,,,,9.071953045
1715676080388023267,0.055,,,,9.079647691
1715676080395717913,0.067,,,,9.087342337
1715676080403412559,0.079,,,,9.095036983
1715676080411107205,0.088,,,,9.102731629
1715676080418801851,0.098,,,,9.110426275
1715676080426496497,0.108,,,,9.118120921
1715676080434191143,0.113,,,,9.125815567
1715676080441885789,0.105,,,,9.133510213
1715676080449580435,0.101,,,,9.141204859
1715676080457275081,0.098,,,,9.148899505
1715676080464969727,0.096,,,,9.156594151
1715676080472664373,0.091,,,,9.164288797
1715676080480359019,0.079,,,,9.171983443
1715676080488053665,0.064,,,,9.179678089
1715676080495748311,0.05,,,,9.187372735
1715676080503442957,0.043,,,,9.195067381
1715676080511137603,0.031,,,,9.202762027
1715676080518832249,0.024,,,,9.210456673
1715676080526526895,0.026,,,,9.218151319
1715676080534221541,0.026,,,,9.225845965
1715676080541916187,0.026,,,,9.233540611
1715676080549610833,0.026,,,,9.241235257
1715676080557305479,0.024,,,,9.248929903
1715676080565000125,0.028,,,,9.256624549
1715676080572694771,0.038,,,,9.264319195
1715676080580389417,0.045,,,,9.272013841
1715676080588084063,0.05,,,,9.279708487
1715676080595778709,0.055,,,,9.287403133
1715676080603473355,0.06,,,,9.295097779
1715676080611168001,0.062,,,,9.302792425
1715676080618862647,0.067,,,,9.310487071
1715676080626557293,0.072,,,,9.318181717
1715676080634251939,0.076,,,,9.325876363
1715676080641946585,0.076,,,,9.333571009
1715676080649641231,0.076,,,,9.341265655
1715676080657335877,0.076,,,,9.348960301
1715676080665030523,0.076,,,,9.356654947
1715676080672725169,0.076,,,,9.364349593
1715676080680419815,0.074,,,,9.372044239
1715676080688114461,0.069,,,,9.379738885
1715676080695809107,0.057,,,,9.387433531
1715676080703503753,0.048,,,,9.395128177
1715676080711198399,0.05,,,,9.402822823
1715676080718893045,0.055,,,,9.410517469
1715676080726587691,0.052,,,,9.418212115
1715676080734282337,0.048,,,,9.425906761
1715676080741976983,0.052,,,,9.433601407
1715676080749671629,0.057,,,,9.441296053
1715676080757366275,0.057,,,,9.448990699
1715676080765060921,0.052,,,,9.456685345
1715676080772755567,0.05,,,,9.464379991
1715676080780450213,0.04,,,,9.472074637
1715676080788144859,0.026,,,,9.479769283
1715676080795839505,0.019,,,,9.487463929
1715676080803534151,0.021,,,,9.495158575
1715676080811228797,0.04,,749.0,,9.502853221
1715676080818923443,0.076,,,,9.510547867
1715676080826618089,0.108,,,,9.518242513
1715676080834312735,0.122,,,,9.525937159
1715676080842007381,0.122,,,,9.533631805
1715676080849702027,0.103,,,,9.541326451
1715676080857396738,0.084,75.0,,,9.549021162
1715676080865091454,0.088,,,,9.556715878
1715676080872786170,0.096,,,,9.564410594
1715676080880480886,0.088,,,,9.57210531
1715676080888175602,0.055,,,,9.579800026
1715676080895870318,0.002,,,,9.587494742
1715676080903565034,0.108,,,,9.595189458
1715676080911259750,0.524,,,,9.602884174
1715676080918954466,1.077,,,,9.61057889
1715676080926649182,1.426,,,,9.618273606
1715676080934343898,1.219,,,,9.625968322
1715676080942038614,0.529,,,,9.633663038
1715676080949733330,0.036,,,,9.641357754
1715676080957428046,0.028,,,,9.64905247
1715676080965122762,0.038,,,,9.656747186
1715676080972817478,-0.069,,,,9.664441902
1715676080980512194,-0.069,,,,9.672136618
1715676080988206910,-0.033,,,,9.679831334
1715676080995901626,-0.06,,,,9.68752605
1715676081003596342,-0.062,,,,9.695220766
1715676081011291058,-0.036,,,,9.702915482
1715676081018985774,-0.031,,,,9.710610198
1715676081026680490,-0.031,,,,9.718304914
1715676081034375206,-0.021,,,,9.72599963
1715676081042069922,-0.009,,,,9.733694346
1715676081049764638,0.0,,,,9.741389062
1715676081057459354,0.009,,,,9.749083778
1715676081065154070,0.019,,,,9.756778494
1715676081072848786,0.033,,,,9.76447321
1715676081080543502,0.048,,,,9.772167926
1715676081088238218,0.06,,,,9.779862642
1715676081095932934,0.069,,,,9.787557358
1715676081103627650,0.081,,,,9.795252074
1715676081111322366,0.091,,,,9.80294679
1715676081119017082,0.096,,,,9.810641506
1715676081126711798,0.103,,,,9.818336222
1715676081134406514,0.11,,,,9.826030938
1715676081142101230,0.11,,,,9.833725654
1715676081149795946,0.103,,,,9.84142037
1715676081157490662,0.101,,,,9.849115086
1715676081165185378,0.103,,,,9.856809802
1715676081172880094,0.096,,,,9.864504518
1715676081180574810,0.079,,,,9.872199234
1715676081188269526,0.067,,,,9.87989395
1715676081195964242,0.05,,,,9.887588666
1715676081203658958,0.028,,,,9.895283382
1715676081211353674,0.014,,,,9.902978098
1715676081219048390,0.016,,,,9.910672814
1715676081226743106,0.016,,,,9.91836753
1715676081234437822,0.007,,,,9.926062246
1715676081242132538,0.009,,,,9.933756962
1715676081249827254,0.014,,,,9.941451678
1715676081257521970,0.014,,,,9.949146394
1715676081265216686,0.016,,,,9.95684111
1715676081272911402,0.024,,,,9.964535826
1715676081280606118,0.033,,,,9.972230542
1715676081288300834,0.036,,,,9.979925258
1715676081295995550,0.038,,,,9.987619974
1715676081303690266,0.048,,,,9.99531469
1715676081311384982,0.057,,,,10.003009406
1715676081319079698,0.057,,,,10.010704122
1715676081326774414,0.06,,,,10.018398838
1715676081334469130,0.069,,,,10.026093554
1715676081342163846,0.072,,,,10.03378827
1715676081349858562,0.072,,,,10.041482986
1715676081357553278,0.072,,,,10.049177702
1715676081365247994,0.072,,,,10.056872418
1715676081372942710,0.074,,,,10.064567134
1715676081380637426,0.072,,,,10.07226185
1715676081388332142,0.069,,,,10.079956566
1715676081396026858,0.069,,,,10.087651282
1715676081403721574,0.074,,,,10.095345998
1715676081411416290,0.072,,,,10.103040714
1715676081419111048,0.069,,,,10.110735472
1715676081426805485,0.067,,,,10.118429909
1715676081434499922,0.062,,,,10.126124346
1715676081442194359,0.062,,,,10.133818783
1715676081449888796,0.067,,,,10.14151322
1715676081457583233,0.064,,,,10.149207657
1715676081465277670,0.064,,,,10.156902094
1715676081472972107,0.069,,,,10.164596531
1715676081480666544,0.072,,,,10.172290968
1715676081488360981,0.074,,,,10.179985405
1715676081496055418,0.076,,,,10.187679842
1715676081503749855,0.069,,,,10.195374279
1715676081511444292,0.062,,,,10.203068716
1715676081519138729,0.055,,,,10.210763153
1715676081526833166,0.043,,,,10.21845759
1715676081534527603,0.038,,724.0,,10.226152027
1715676081542222040,0.036,,,,10.233846464
1715676081549916477,0.043,,,,10.241540901
1715676081557610914,0.076,,,,10.249235338
1715676081565305351,0.115,,,,10.256929775
1715676081572999788,0.129,,,,10.264624212
1715676081580694225,0.132,,,,10.272318649
1715676081588388662,0.127,,,,10.280013086
1715676081596083099,0.105,,,,10.287707523
1715676081603777536,0.093,,,,10.29540196
1715676081611471973,0.098,,,,10.303096397
1715676081619166410,0.098,,,,10.310790834
1715676081626860847,0.079,,,,10.318485271
1715676081634555284,0.024,,,,10.326179708
1715676081642249721,0.002,,,,10.333874145
1715676081649944158,0.245,,,,10.341568582
1715676081657638595,0.781,,,,10.349263019
1715676081665333032,1.327,,,,10.356957456
1715676081673027469,1.51,,,,10.364651893
1715676081680721906,1.072,,,,10.37234633
1715676081688416343,0.336,,,,10.380040767
1715676081696110780,0.004,,,,10.387735204
1715676081703805217,0.048,,,,10.395429641
1715676081711499654,-0.009,,,,10.403124078
1715676081719194091,-0.103,,,,10.410818515
1715676081726888528,-0.072,,,,10.418512952
1715676081734582965,-0.05,,,,10.426207389
1715676081742277402,-0.072,,,,10.433901826
1715676081749971839,-0.062,,,,10.441596263
1715676081757666276,-0.048,,,,10.4492907
1715676081765360713,-0.048,,,,10.456985137
1715676081773055150,-0.036,,,,10.464679574
1715676081780749587,-0.021,,,,10.472374011
1715676081788444024,-0.016,,,,10.480068448
1715676081796138461,-0.004,,,,10.487762885
1715676081803832898,0.007,,,,10.495457322
1715676081811527335,0.014,,,,10.503151759
1715676081819221772,0.021,,,,10.510846196
1715676081826916209,0.033,,,,10.518540633
1715676081834610646,0.052,,,,10.52623507
1715676081842305083,0.064,,,,10.533929507
1715676081849999520,0.072,,,,10.541623944
1715676081857693957,0.086,,,,10.549318381
1715676081865388394,0.098,,,,10.557012818
1715676081873082831,0.101,,,,10.564707255
1715676081880777268,0.108,,,,10.572401692
1715676081888471705,0.113,,,,10.580096129
1715676081896166142,0.105,,,,10.587790566
1715676081903860579,0.105,,,,10.595485003
1715676081911555016,0.108,,,,10.60317944
1715676081919249453,0.093,,,,10.610873877
1715676081926943890,0.072,,,,10.618568314
1715676081934638327,0.06,,,,10.626262751
1715676081942332764,0.052,,,,10.633957188
1715676081950027201,0.043,,,,10.641651625
1715676081957721638,0.033,,,,10.649346062
1715676081965416075,0.026,,,,10.657040499
1715676081973110512,0.028,,,,10.664734936
1715676081980805010,0.026,76.0,,,10.672429434
1715676081988499796,0.026,,,,10.68012422
1715676081996194582,0.031,,,,10.687819006
1715676082003889368,0.038,,,,10.695513792
1715676082011584154,0.04,,,,10.703208578
1715676082019278940,0.038,,,,10.710903364
1715676082026973726,0.045,,,,10.71859815
1715676082034668512,0.052,,,,10.726292936
1715676082042363298,0.055,,,,10.733987722
1715676082050058084,0.055,,,,10.741682508
1715676082057752870,0.062,,,,10.749377294
1715676082065447656,0.069,,,,10.75707208
1715676082073142442,0.072,,,,10.764766866
1715676082080837228,0.072,,,,10.772461652
1715676082088532014,0.076,,,,10.780156438
1715676082096226800,0.084,,,,10.787851224
1715676082103921586,0.086,,,,10.79554601
1715676082111616372,0.086,,,,10.803240796
1715676082119311158,0.088,,,,10.810935582
1715676082127005944,0.086,,,,10.818630368
1715676082134700730,0.084,,,,10.826325154
1715676082142395516,0.086,,,,10.83401994
1715676082150090302,0.086,,,,10.841714726
1715676082157785088,0.084,,,,10.849409512
1715676082165479874,0.084,,,,10.857104298
1715676082173174660,0.079,,,,10.864799084
1715676082180869446,0.081,,,,10.87249387
1715676082188564232,0.086,,,,10.880188656
1715676082196259018,0.084,,,,10.887883442
1715676082203953804,0.076,,,,10.895578228
1715676082211648590,0.072,,,,10.903273014
1715676082219343376,0.072,,,,10.9109678
1715676082227038162,0.076,,,,10.918662586
1715676082234732948,0.081,,,,10.926357372
1715676082242427734,0.086,,711.0,,10.934052158
1715676082250122520,0.088,,,,10.941746944
1715676082257817306,0.086,,,,10.94944173
1715676082265512092,0.086,,,,10.957136516
1715676082273206878,0.091,,,,10.964831302
1715676082280901664,0.096,,,,10.972526088
1715676082288596450,0.093,,,,10.980220874
1715676082296291236,0.093,,,,10.98791566
1715676082303986022,0.093,,,,10.995610446
1715676082311680808,0.084,,,,11.003305232
1715676082319375594,0.067,,,,11.011000018
1715676082327070380,0.06,,,,11.018694804
1715676082334765166,0.052,,,,11.02638959
1715676082342459952,0.052,,,,11.034084376
1715676082350154738,0.076,,,,11.041779162
1715676082357849524,0.11,,,,11.049473948
1715676082365544310,0.132,,,,11.057168734
1715676082373239096,0.134,,,,11.06486352
1715676082380933882,0.12,,,,11.072558306
1715676082388628668,0.103,,,,11.080253092
1715676082396323454,0.093,,,,11.087947878
1715676082404018240,0.088,,,,11.095642664
1715676082411713026,0.091,,,,11.10333745
1715676082419407812,0.086,,,,11.111032236
1715676082427102598,0.05,,,,11.118727022
1715676082434797384,-0.004,,,,11.126421808
1715676082442492170,0.113,,,,11.134116594
1715676082450186956,0.541,,,,11.14181138
1715676082457881742,1.098,,,,11.149506166
1715676082465576528,1.457,,,,11.157200952
1715676082473271314,1.276,,,,11.164895738
1715676082480966100,0.608,,,,11.172590524
1715676082488660886,0.091,,,,11.18028531
1715676082496355672,0.04,,,,11.187980096
1715676082504050458,0.05,,,,11.195674882
1715676082511745244,-0.043,,,,11.203369668
1715676082519440030,-0.055,,,,11.211064454
1715676082527134816,-0.019,,,,11.21875924
1715676082534829602,-0.038,,,,11.226454026
1715676082542524404,-0.045,,,,11.234148828
1715676082550218772,-0.024,,,,11.241843196
1715676082557913140,-0.016,,,,11.249537564
1715676082565607508,-0.016,,,,11.257231932
1715676082573301876,-0.002,,,,11.2649263
1715676082580996244,0.002,,,,11.272620668
1715676082588690612,0.0,,,,11.280315036
1715676082596384980,0.012,,,,11.288009404
1715676082604079348,0.028,,,,11.295703772
1715676082611773716,0.036,,,,11.30339814
1715676082619468084,0.036,,,,11.311092508
1715676082627162452,0.045,,,,11.318786876
1715676082634856820,0.062,,,,11.326481244
1715676082642551188,0.076,,,,11.334175612
1715676082650245556,0.084,,,,11.34186998
1715676082657939924,0.088,,,,11.349564348
1715676082665634292,0.096,,,,11.357258716
1715676082673328660,0.103,,,,11.364953084
1715676082681023028,0.108,,,,11.372647452
1715676082688717396,0.11,,,,11.38034182
1715676082696411764,0.108,,,,11.388036188
1715676082704106132,0.105,,,,11.395730556
1715676082711800500,0.101,,,,11.403424924
1715676082719494868,0.086,,,,11.411119292
1715676082727189236,0.074,,,,11.41881366
1715676082734883604,0.062,,,,11.426508028
1715676082742577972,0.052,,,,11.434202396
1715676082750272340,0.048,,,,11.441896764
1715676082757966708,0.043,,,,11.449591132
1715676082765661076,0.033,,,,11.4572855
1715676082773355444,0.028,,,,11.464979868
1715676082781049812,0.033,,,,11.472674236
1715676082788744180,0.043,,,,11.480368604
1715676082796438548,0.04,,,,11.488062972
1715676082804132916,0.04,,,,11.49575734
1715676082811827284,0.05,,,,11.503451708
1715676082819521652,0.057,,,,11.511146076
1715676082827216020,0.055,,,,11.518840444
1715676082834910388,0.064,,,,11.526534812
1715676082842604756,0.076,,,,11.53422918
1715676082850299124,0.074,,,,11.541923548
1715676082857993492,0.069,,,,11.549617916
1715676082865687860,0.081,,,,11.557312284
1715676082873382228,0.091,,,,11.565006652
1715676082881076596,0.091,,,,11.57270102
1715676082888770964,0.088,,,,11.580395388
1715676082896465332,0.093,,,,11.588089756
1715676082904159700,0.101,,,,11.595784124
1715676082911854068,0.098,,,,11.603478492
1715676082919548436,0.086,,,,11.61117286
1715676082927242804,0.086,,,,11.618867228
1715676082934937172,0.091,,,,11.626561596
1715676082942631540,0.093,,702.0,,11.634255964
1715676082950325908,0.088,,,,11.641950332
1715676082958020276,0.086,,,,11.6496447
1715676082965714644,0.091,,,,11.657339068
1715676082973409012,0.088,,,,11.665033436
1715676082981103380,0.084,,,,11.672727804
1715676082988797748,0.091,,,,11.680422172
1715676082996492116,0.093,,,,11.68811654
1715676083004186484,0.086,,,,11.695810908
1715676083011880852,0.081,,,,11.703505276
1715676083019575220,0.081,,,,11.711199644
1715676083027269588,0.074,,,,11.718894012
1715676083034963956,0.074,,,,11.72658838
1715676083042658324,0.081,,,,11.734282748
1715676083050352692,0.079,,,,11.741977116
1715676083058047060,0.072,,,,11.749671484
1715676083065741428,0.072,,,,11.757365852
1715676083073435796,0.076,,,,11.76506022
1715676083081130164,0.074,,,,11.772754588
1715676083088824532,0.069,,,,11.780448956
1715676083096518900,0.062,,,,11.788143324
1715676083104213280,0.06,77.0,,,11.795837704
1715676083111908066,0.067,,,,11.80353249
1715676083119602852,0.067,,,,11.811227276
1715676083127297638,0.055,,,,11.818922062
1715676083134992424,0.04,,,,11.826616848
1715676083142687210,0.038,,,,11.834311634
1715676083150381996,0.033,,,,11.84200642
1715676083158076782,0.024,,,,11.849701206
1715676083165771568,0.038,,,,11.857395992
1715676083173466354,0.079,,,,11.865090778
1715676083181161140,0.11,,,,11.872785564
1715676083188855926,0.113,,,,11.88048035
1715676083196550712,0.101,,,,11.888175136
1715676083204245498,0.084,,,,11.895869922
1715676083211940284,0.062,,,,11.903564708
1715676083219635070,0.062,,,,11.911259494
1715676083227329856,0.074,,,,11.91895428
1715676083235024642,0.074,,,,11.926649066
1715676083242719428,0.043,,,,11.934343852
1715676083250414214,-0.012,,,,11.942038638
1715676083258109000,0.072,,,,11.949733424
1715676083265803786,0.461,,,,11.95742821
1715676083273498572,1.007,,,,11.965122996
1715676083281193358,1.373,,,,11.972817782
1715676083288888144,1.238,,,,11.980512568
1715676083296582930,0.596,,,,11.988207354
1715676083304277716,0.076,,,,11.99590214
1715676083311972502,0.05,,,,12.003596926
1715676083319667288,0.076,,,,12.011291712
1715676083327362074,-0.033,,,,12.018986498
1715676083335056860,-0.045,,,,12.026681284
1715676083342751646,-0.002,,,,12.03437607
1715676083350446432,-0.012,,,,12.042070856
1715676083358141218,-0.028,,,,12.049765642
1715676083365836004,-0.019,,,,12.057460428
1715676083373530790,-0.007,,,,12.065155214
1715676083381225576,-0.002,,,,12.07285
1715676083388920362,0.009,,,,12.080544786
1715676083396615148,0.019,,,,12.088239572
1715676083404309934,0.021,,,,12.095934358
1715676083412004720,0.031,,,,12.103629144
1715676083419699506,0.048,,,,12.11132393
1715676083427394292,0.057,,,,12.119018716
1715676083435089078,0.06,,,,12.126713502
1715676083442783864,0.064,,,,12.134408288
1715676083450478650,0.081,,,,12.142103074
1715676083458173436,0.105,,,,12.14979786
1715676083465868222,0.117,,,,12.157492646
1715676083473563008,0.12,,,,12.165187432
1715676083481257794,0.127,,,,12.172882218
1715676083488952580,0.137,,,,12.180577004
1715676083496647366,0.137,,,,12.18827179
1715676083504342152,0.137,,,,12.195966576
1715676083512036938,0.139,,,,12.203661362
1715676083519731724,0.132,,,,12.211356148
1715676083527426510,0.117,,,,12.219050934
1715676083535121296,0.11,,,,12.22674572
1715676083542816082,0.105,,,,12.234440506
1715676083550510868,0.096,,,,12.242135292
1715676083558205654,0.081,,,,12.249830078
1715676083565900440,0.067,,,,12.257524864
1715676083573595226,0.055,,,,12.26521965
1715676083581290012,0.048,,,,12.272914436
1715676083588984798,0.048,,,,12.280609222
1715676083596679584,0.05,,,,12.288304008
1715676083604374370,0.05,,,,12.295998794
1715676083612069156,0.052,,,,12.30369358
1715676083619763942,0.052,,,,12.311388366
1715676083627458728,0.057,,,,12.319083152
1715676083635153514,0.064,,,,12.326777938
1715676083642848300,0.064,,700.0,,12.334472724
1715676083650543086,0.057,,,,12.34216751
1715676083658237872,0.064,,,,12.349862296
1715676083665932674,0.076,,,,12.357557098
1715676083673627042,0.081,,,,12.365251466
1715676083681321410,0.084,,,,12.372945834
1715676083689015778,0.091,,,,12.380640202
1715676083696710146,0.086,,,,12.38833457
1715676083704404514,0.084,,,,12.396028938
1715676083712098882,0.093,,,,12.403723306
1715676083719793250,0.088,,,,12.411417674
1715676083727487618,0.072,,,,12.419112042
1715676083735181986,0.067,,,,12.42680641
1715676083742876354,0.069,,,,12.434500778
1715676083750570722,0.069,,,,12.442195146
1715676083758265090,0.064,,,,12.449889514
1715676083765959458,0.06,,,,12.457583882
1715676083773653826,0.06,,,,12.46527825
1715676083781348194,0.055,,,,12.472972618
1715676083789042562,0.052,,,,12.480666986
1715676083796736930,0.055,,,,12.488361354
1715676083804431298,0.055,,,,12.496055722
1715676083812125666,0.057,,,,12.50375009
1715676083819820034,0.06,,,,12.511444458
1715676083827514402,0.057,,,,12.519138826
1715676083835208770,0.057,,,,12.526833194
1715676083842903138,0.062,,,,12.534527562
1715676083850597506,0.062,,,,12.54222193
1715676083858291874,0.062,,,,12.549916298
1715676083865986242,0.064,,,,12.557610666
1715676083873680610,0.064,,,,12.565305034
1715676083881374978,0.064,,,,12.572999402
1715676083889069346,0.069,,,,12.58069377
1715676083896763714,0.064,,,,12.588388138
1715676083904458082,0.048,,,,12.596082506
1715676083912152450,0.036,,,,12.603776874
1715676083919846818,0.028,,,,12.611471242
1715676083927541186,0.028,,,,12.61916561
1715676083935235554,0.04,,,,12.626859978
1715676083942929922,0.067,,,,12.634554346
1715676083950624290,0.105,,,,12.642248714
1715676083958318658,0.127,,,,12.649943082
1715676083966013026,0.125,,,,12.65763745
1715676083973707394,0.103,,,,12.665331818
1715676083981401762,0.086,,,,12.673026186
1715676083989096130,0.084,,,,12.680720554
1715676083996790498,0.091,,,,12.688414922
1715676084004484866,0.093,,,,12.69610929
1715676084012179234,0.081,,,,12.703803658
1715676084019873602,0.033,,,,12.711498026
1715676084027567970,0.012,,,,12.719192394
1715676084035262338,0.238,,,,12.726886762
1715676084042956706,0.75,,,,12.73458113
1715676084050651074,1.267,,,,12.742275498
1715676084058345442,1.433,,,,12.749969866
1715676084066039810,0.997,,,,12.757664234
1715676084073734178,0.303,,,,12.765358602
1715676084081428546,0.028,,,,12.77305297
1715676084089122914,0.101,,,,12.780747338
1715676084096817282,0.043,,,,12.788441706
1715676084104511650,-0.045,,,,12.796136074
1715676084112206018,-0.014,,,,12.803830442
1715676084119900386,0.0,,,,12.81152481
1715676084127594754,-0.019,,,,12.819219178
1715676084135289122,-0.012,,,,12.826913546
1715676084142983490,0.0,,,,12.834607914
1715676084150677858,-0.002,,,,12.842302282
1715676084158372226,0.004,,,,12.84999665
1715676084166066594,0.019,,,,12.857691018
1715676084173760962,0.028,,,,12.865385386
1715676084181455330,0.036,,,,12.873079754
1715676084189149698,0.048,,,,12.880774122
1715676084196844066,0.06,,,,12.88846849
1715676084204538434,0.067,,,,12.896162858
1715676084212232802,0.079,,,,12.903857226
1715676084219927170,0.098,,,,12.911551594
1715676084227621550,0.105,78.0,,,12.919245974
1715676084235316336,0.103,,,,12.92694076
1715676084243011122,0.11,,,,12.934635546
1715676084250705908,0.125,,,,12.942330332
1715676084258400694,0.127,,,,12.950025118
1715676084266095480,0.122,,,,12.957719904
1715676084273790266,0.117,,,,12.96541469
1715676084281485052,0.115,,,,12.973109476
1715676084289179838,0.11,,,,12.980804262
1715676084296874624,0.105,,,,12.988499048
1715676084304569410,0.093,,,,12.996193834
1715676084312264196,0.084,,,,13.00388862
1715676084319958982,0.074,,,,13.011583406
1715676084327653768,0.064,,,,13.019278192
1715676084335348554,0.052,,,,13.026972978
1715676084343043340,0.04,,,,13.034667764
1715676084350738126,0.036,,703.0,,13.04236255
1715676084358432912,0.033,,,,13.050057336
1715676084366127698,0.036,,,,13.057752122
1715676084373822484,0.038,,,,13.065446908
1715676084381517270,0.038,,,,13.073141694
1715676084389212056,0.033,,,,13.08083648
1715676084396906842,0.036,,,,13.088531266
1715676084404601628,0.043,,,,13.096226052
1715676084412296414,0.052,,,,13.103920838
1715676084419991200,0.052,,,,13.111615624
1715676084427685986,0.052,,,,13.11931041
1715676084435380772,0.055,,,,13.127005196
1715676084443075558,0.06,,,,13.134699982
1715676084450770344,0.067,,,,13.142394768
1715676084458465130,0.072,,,,13.150089554
1715676084466159916,0.072,,,,13.15778434
1715676084473854702,0.069,,,,13.165479126
1715676084481549488,0.067,,,,13.173173912
1715676084489244274,0.064,,,,13.180868698
1715676084496939060,0.064,,,,13.188563484
1715676084504633846,0.064,,,,13.19625827
1715676084512328632,0.067,,,,13.203953056
1715676084520023418,0.067,,,,13.211647842
1715676084527718204,0.064,,,,13.219342628
1715676084535412990,0.062,,,,13.227037414
1715676084543107776,0.06,,,,13.2347322
1715676084550802562,0.062,,,,13.242426986
1715676084558497348,0.064,,,,13.250121772
1715676084566192134,0.064,,,,13.257816558
1715676084573886920,0.062,,,,13.265511344
1715676084581581706,0.062,,,,13.27320613
1715676084589276492,0.064,,,,13.280900916
1715676084596971278,0.072,,,,13.288595702
1715676084604666064,0.074,,,,13.296290488
1715676084612360850,0.076,,,,13.303985274
1715676084620055636,0.076,,,,13.31168006
1715676084627750422,0.074,,,,13.319374846
1715676084635445208,0.072,,,,13.327069632
1715676084643139994,0.076,,,,13.334764418
1715676084650834780,0.084,,,,13.342459204
1715676084658529566,0.081,,,,13.35015399
1715676084666224352,0.076,,,,13.357848776
1715676084673919138,0.081,,,,13.365543562
1715676084681613924,0.088,,,,13.373238348
1715676084689308710,0.093,,,,13.380933134
1715676084697003496,0.096,,,,13.38862792
1715676084704698282,0.098,,,,13.396322706
1715676084712393068,0.098,,,,13.404017492
1715676084720087854,0.096,,,,13.411712278
1715676084727782640,0.101,,,,13.419407064
1715676084735477426,0.098,,,,13.42710185
1715676084743172212,0.088,,,,13.434796636
1715676084750866998,0.084,,,,13.442491422
1715676084758561784,0.076,,,,13.450186208
1715676084766256570,0.064,,,,13.457880994
1715676084773951356,0.057,,,,13.46557578
1715676084781646142,0.057,,,,13.473270566
1715676084789340946,0.074,79.0,,,13.48096537
1715676084797035592,0.11,,,,13.488660016
1715676084804730238,0.144,,,,13.496354662
1715676084812424884,0.153,,,,13.504049308
1715676084820119530,0.146,,,,13.511743954
1715676084827814176,0.134,,,,13.5194386
1715676084835508822,0.12,,,,13.527133246
1715676084843203468,0.115,,,,13.534827892
1715676084850898114,0.122,,,,13.542522538
1715676084858592760,0.12,,,,13.550217184
1715676084866287406,0.096,,,,13.55791183
1715676084873982052,0.028,,,,13.565606476
1715676084881676698,0.033,,,,13.573301122
1715676084889371344,0.324,,,,13.580995768
1715676084897065990,0.865,,,,13.588690414
1715676084904760636,1.363,,,,13.59638506
1715676084912455282,1.483,,,,13.604079706
1715676084920149928,1.014,,,,13.611774352
1715676084927844574,0.319,,,,13.619468998
1715676084935539220,0.033,,,,13.627163644
1715676084943233866,0.076,,,,13.63485829
1715676084950928512,0.026,,,,13.642552936
1715676084958623158,-0.055,,,,13.650247582
1715676084966317804,-0.031,,,,13.657942228
1715676084974012450,-0.014,,,,13.665636874
1715676084981707096,-0.033,,,,13.67333152
1715676084989401742,-0.024,,,,13.681026166
1715676084997096388,-0.012,,,,13.688720812
1715676085004791034,-0.012,,,,13.696415458
1715676085012485680,-0.002,,,,13.704110104
1715676085020180326,0.012,,,,13.71180475
1715676085027874972,0.019,,,,13.719499396
1715676085035569618,0.028,,,,13.727194042
1715676085043264264,0.038,,,,13.734888688
1715676085050958910,0.048,,,,13.742583334
1715676085058653556,0.062,,,,13.75027798
1715676085066348202,0.076,,,,13.757972626
1715676085074042848,0.084,,,,13.765667272
1715676085081737494,0.096,,,,13.773361918
1715676085089432140,0.115,,743.0,,13.781056564
1715676085097126786,0.127,,,,13.78875121
1715676085104821432,0.134,,,,13.796445856
1715676085112516078,0.144,,,,13.804140502
1715676085120210724,0.144,,,,13.811835148
1715676085127905370,0.137,,,,13.819529794
1715676085135600016,0.132,,,,13.82722444
1715676085143294662,0.134,,,,13.834919086
1715676085150989308,0.134,,,,13.842613732
1715676085158683954,0.122,,,,13.850308378
1715676085166378600,0.105,,,,13.858003024
1715676085174073246,0.086,,,,13.86569767
1715676085181767892,0.072,,,,13.873392316
1715676085189462538,0.064,,,,13.881086962
1715676085197157184,0.055,,,,13.888781608
1715676085204851830,0.045,,,,13.896476254
1715676085212546476,0.04,,,,13.9041709
1715676085220241122,0.031,,,,13.911865546
1715676085227935768,0.024,,,,13.919560192
1715676085235630414,0.024,,,,13.927254838
1715676085243325060,0.024,,,,13.934949484
1715676085251019706,0.019,,,,13.94264413
1715676085258714352,0.019,,,,13.950338776
1715676085266408998,0.026,,,,13.958033422
1715676085274103644,0.031,,,,13.965728068
1715676085281798290,0.033,,,,13.973422714
1715676085289492936,0.038,,,,13.98111736
1715676085297187582,0.043,,,,13.988812006
1715676085304882228,0.045,,,,13.996506652
1715676085312576874,0.048,,,,14.004201298
1715676085320271520,0.052,,,,14.011895944
1715676085327966166,0.06,,,,14.01959059
1715676085335660812,0.064,,,,14.027285236
1715676085343355458,0.064,,,,14.034979882
1715676085351050168,0.067,,,,14.042674592
1715676085358744675,0.064,,,,14.050369099
1715676085366439182,0.062,,,,14.058063606
1715676085374133689,0.057,,,,14.065758113
1715676085381828196,0.057,,,,14.07345262
1715676085389522703,0.062,,,,14.081147127
1715676085397217210,0.057,,,,14.088841634
1715676085404911717,0.048,,,,14.096536141
1715676085412606224,0.04,,,,14.104230648
1715676085420300731,0.048,,,,14.111925155
1715676085427995238,0.055,,,,14.119619662
1715676085435689745,0.048,,,,14.127314169
1715676085443384252,0.036,,,,14.135008676
1715676085451078759,0.043,,,,14.142703183
1715676085458773266,0.055,,,,14.15039769
1715676085466467773,0.057,,,,14.158092197
1715676085474162280,0.055,,,,14.165786704
1715676085481856787,0.062,,,,14.173481211
1715676085489551294,0.067,,,,14.181175718
1715676085497245801,0.064,,,,14.188870225
1715676085504940308,0.067,,,,14.196564732
1715676085512634815,0.074,,,,14.204259239
1715676085520329322,0.076,,,,14.211953746
1715676085528023829,0.079,,,,14.219648253
1715676085535718336,0.084,,,,14.22734276
1715676085543412843,0.086,,,,14.235037267
1715676085551107350,0.088,,,,14.242731774
1715676085558801857,0.088,,,,14.250426281
1715676085566496364,0.091,,,,14.258120788
1715676085574190871,0.096,,,,14.265815295
1715676085581885378,0.098,,,,14.273509802
1715676085589579885,0.098,,,,14.281204309
1715676085597274392,0.096,,,,14.288898816
1715676085604968899,0.086,,,,14.296593323
1715676085612663406,0.079,,,,14.30428783
1715676085620357913,0.069,,,,14.311982337
1715676085628052420,0.062,,,,14.319676844
1715676085635746927,0.069,,,,14.327371351
1715676085643441434,0.098,,,,14.335065858
1715676085651135941,0.139,,,,14.342760365
1715676085658830448,0.158,,,,14.350454872
1715676085666524955,0.156,,,,14.358149379
1715676085674219462,0.149,,,,14.365843886
1715676085681913969,0.132,,,,14.373538393
1715676085689608476,0.12,,,,14.3812329
1715676085697302983,0.122,,,,14.388927407
1715676085704997490,0.129,,,,14.396621914
1715676085712691997,0.122,,,,14.404316421
1715676085720386504,0.084,,,,14.412010928
1715676085728081011,0.031,,,,14.419705435
1715676085735775518,0.151,,,,14.427399942
1715676085743470025,0.5740000000000001,,,,14.435094449
1715676085751164532,1.113,,,,14.442788956
1715676085758859039,1.459,,,,14.450483463
1715676085766553546,1.296,,,,14.45817797
1715676085774248053,0.632,,,,14.465872477
1715676085781942560,0.103,,,,14.473566984
1715676085789637067,0.055,,,,14.481261491
1715676085797331574,0.072,,,,14.488955998
1715676085805026081,-0.021,,,,14.496650505
1715676085812720588,-0.033,,,,14.504345012
1715676085820415095,-0.004,,,,14.512039519
1715676085828109602,-0.016,,,,14.519734026
1715676085835804109,-0.024,,,,14.527428533
1715676085843498616,-0.009,,,,14.53512304
1715676085851193123,0.0,,,,14.542817547
1715676085858887630,0.002,,,,14.550512054
1715676085866582137,0.004,,,,14.558206561
1715676085874276644,0.016,,,,14.565901068
1715676085881971151,0.026,,,,14.573595575
1715676085889665658,0.033,,796.0,,14.581290082
1715676085897360165,0.043,,,,14.588984589
1715676085905054672,0.055,,,,14.596679096
1715676085912749216,0.064,78.0,,,14.60437364
1715676085920444002,0.076,,,,14.612068426
1715676085928138788,0.091,,,,14.619763212
1715676085935833574,0.103,,,,14.627457998
1715676085943528360,0.115,,,,14.635152784
1715676085951223146,0.122,,,,14.64284757
1715676085958917932,0.134,,,,14.650542356
1715676085966612718,0.144,,,,14.658237142
1715676085974307504,0.137,,,,14.665931928
1715676085982002290,0.125,,,,14.673626714
1715676085989697076,0.127,,,,14.6813215
1715676085997391862,0.117,,,,14.689016286
1715676086005086648,0.096,,,,14.696711072
1715676086012781434,0.079,,,,14.704405858
1715676086020476220,0.064,,,,14.712100644
1715676086028171006,0.045,,,,14.71979543
1715676086035865792,0.031,,,,14.727490216
1715676086043560578,0.024,,,,14.735185002
1715676086051255364,0.019,,,,14.742879788
1715676086058950150,0.012,,,,14.750574574
1715676086066644936,0.007,,,,14.75826936
1715676086074339722,0.004,,,,14.765964146
1715676086082034508,0.004,,,,14.773658932
1715676086089729294,0.002,,,,14.781353718
1715676086097424080,-0.002,,,,14.789048504
1715676086105118866,0.007,,,,14.79674329
1715676086112813652,0.014,,,,14.804438076
1715676086120508438,0.014,,,,14.812132862
1715676086128203224,0.024,,,,14.819827648
1715676086135898010,0.031,,,,14.827522434
1715676086143592796,0.036,,,,14.83521722
1715676086151287582,0.036,,,,14.842912006
1715676086158982368,0.038,,,,14.850606792
1715676086166677154,0.048,,,,14.858301578
1715676086174371940,0.052,,,,14.865996364
1715676086182066726,0.048,,,,14.87369115
1715676086189761512,0.052,,,,14.881385936
1715676086197456298,0.057,,,,14.889080722
1715676086205151084,0.057,,,,14.896775508
1715676086212845870,0.06,,,,14.904470294
1715676086220540656,0.064,,,,14.91216508
1715676086228235442,0.069,,,,14.919859866
1715676086235930228,0.062,,,,14.927554652
1715676086243625014,0.052,,,,14.935249438
1715676086251319800,0.052,,,,14.942944224
1715676086259014586,0.055,,,,14.95063901
1715676086266709372,0.048,,,,14.958333796
1715676086274404158,0.05,,,,14.966028582
1715676086282098944,0.052,,,,14.973723368
1715676086289793730,0.048,,,,14.981418154
1715676086297488516,0.055,,,,14.98911294
1715676086305183302,0.06,,,,14.996807726
1715676086312878088,0.057,,,,15.004502512
1715676086320572874,0.057,,,,15.012197298
1715676086328267660,0.067,,,,15.019892084
1715676086335962446,0.067,,,,15.02758687
1715676086343657232,0.064,,,,15.035281656
1715676086351352018,0.064,,,,15.042976442
1715676086359046804,0.067,,,,15.050671228
1715676086366741590,0.067,,,,15.058366014
1715676086374436376,0.069,,,,15.0660608
1715676086382131162,0.074,,,,15.073755586
1715676086389825948,0.069,,,,15.081450372
1715676086397520734,0.055,,,,15.089145158
1715676086405215520,0.048,,,,15.096839944
1715676086412910306,0.048,,,,15.10453473
1715676086420605092,0.05,,,,15.112229516
1715676086428299878,0.06,,,,15.119924302
1715676086435994664,0.091,,,,15.127619088
1715676086443689450,0.134,,,,15.135313874
1715676086451384236,0.149,,,,15.14300866
1715676086459079022,0.132,,,,15.150703446
1715676086466773808,0.11,,,,15.158398232
1715676086474468610,0.098,,,,15.166093034
1715676086482163396,0.101,,,,15.17378782
1715676086489858182,0.11,,,,15.181482606
1715676086497552968,0.11,,,,15.189177392
1715676086505247754,0.081,,,,15.196872178
1715676086512942540,0.026,,,,15.204566964
1715676086520637326,0.064,,,,15.21226175
1715676086528332112,0.399,,,,15.219956536
1715676086536026898,0.93,,,,15.227651322
1715676086543721684,1.339,,,,15.235346108
1715676086551416470,1.288,,,,15.243040894
1715676086559111256,0.6990000000000001,,,,15.25073568
1715676086566806042,0.11,,,,15.258430466
1715676086574500828,0.031,,,,15.266125252
1715676086582195614,0.103,,,,15.273820038
1715676086589890400,0.004,,,,15.281514824
1715676086597585186,-0.043,,,,15.28920961
1715676086605279972,-0.004,,,,15.296904396
1715676086612974758,-0.019,,,,15.304599182
1715676086620669544,-0.031,,,,15.312293968
1715676086628364330,-0.007,,,,15.319988754
1715676086636059116,0.007,,,,15.32768354
1715676086643753902,0.004,,,,15.335378326
1715676086651448688,0.009,,,,15.343073112
1715676086659143474,0.019,,,,15.350767898
1715676086666838260,0.031,,,,15.358462684
1715676086674533046,0.043,,,,15.36615747
1715676086682227832,0.05,,,,15.373852256
1715676086689922618,0.057,,,,15.381547042
1715676086697617404,0.067,,,,15.389241828
1715676086705312190,0.076,,816.0,,15.396936614
1715676086713006976,0.091,,,,15.4046314
1715676086720701762,0.105,,,,15.412326186
1715676086728396548,0.115,,,,15.420020972
1715676086736091334,0.12,,,,15.427715758
1715676086743786120,0.127,,,,15.435410544
1715676086751480906,0.134,,,,15.44310533
1715676086759175692,0.132,,,,15.450800116
1715676086766870478,0.129,,,,15.458494902
1715676086774565264,0.127,,,,15.466189688
1715676086782260050,0.117,,,,15.473884474
1715676086789954836,0.103,,,,15.48157926
1715676086797649622,0.098,,,,15.489274046
1715676086805344408,0.091,,,,15.496968832
1715676086813039194,0.069,,,,15.504663618
1715676086820733980,0.048,,,,15.512358404
1715676086828428766,0.036,,,,15.52005319
1715676086836123552,0.026,,,,15.527747976
1715676086843818338,0.009,,,,15.535442762
1715676086851513124,0.002,,,,15.543137548
1715676086859207910,0.004,,,,15.550832334
1715676086866902696,0.007,,,,15.55852712
1715676086874597482,0.007,,,,15.566221906
1715676086882292268,0.007,,,,15.573916692
1715676086889987054,0.012,,,,15.581611478
1715676086897681840,0.016,,,,15.589306264
1715676086905376626,0.019,,,,15.59700105
1715676086913071412,0.028,,,,15.604695836
1715676086920766198,0.036,,,,15.612390622
1715676086928460984,0.038,,,,15.620085408
1715676086936155770,0.043,,,,15.627780194
1715676086943850556,0.05,,,,15.63547498
1715676086951545342,0.06,,,,15.643169766
1715676086959240128,0.062,,,,15.650864552
1715676086966934914,0.06,,,,15.658559338
1715676086974629700,0.06,,,,15.666254124
1715676086982324486,0.064,,,,15.67394891
1715676086990019272,0.067,,,,15.681643696
1715676086997714058,0.062,,,,15.689338482
1715676087005408844,0.062,,,,15.697033268
1715676087013103630,0.067,,,,15.704728054
1715676087020798416,0.064,,,,15.71242284
1715676087028493202,0.06,,,,15.720117626
1715676087036188004,0.057,78.0,,,15.727812428
1715676087043882372,0.062,,,,15.735506796
1715676087051576740,0.062,,,,15.743201164
1715676087059271108,0.057,,,,15.750895532
1715676087066965476,0.055,,,,15.7585899
1715676087074659844,0.06,,,,15.766284268
1715676087082354212,0.064,,,,15.773978636
1715676087090048580,0.062,,,,15.781673004
1715676087097742948,0.062,,,,15.789367372
1715676087105437316,0.064,,,,15.79706174
1715676087113131684,0.062,,,,15.804756108
1715676087120826052,0.055,,,,15.812450476
1715676087128520420,0.055,,,,15.820144844
1715676087136214788,0.06,,,,15.827839212
1715676087143909156,0.057,,,,15.83553358
1715676087151603524,0.04,,,,15.843227948
1715676087159297892,0.031,,,,15.850922316
1715676087166992260,0.026,,,,15.858616684
1715676087174686628,0.021,,,,15.866311052
1715676087182380996,0.024,,,,15.87400542
1715676087190075364,0.048,,,,15.881699788
1715676087197769732,0.088,,,,15.889394156
1715676087205464100,0.117,,,,15.897088524
1715676087213158468,0.127,,,,15.904782892
1715676087220852836,0.12,,,,15.91247726
1715676087228547204,0.108,,,,15.920171628
1715676087236241572,0.091,,,,15.927865996
1715676087243935940,0.088,,,,15.935560364
1715676087251630308,0.098,,,,15.943254732
1715676087259324676,0.096,,,,15.9509491
1715676087267019044,0.057,,,,15.958643468
1715676087274713412,-0.007,,,,15.966337836
1715676087282407780,0.072,,,,15.974032204
1715676087290102148,0.461,,,,15.981726572
1715676087297796516,1.036,,,,15.98942094
1715676087305490884,1.49,,,,15.997115308
1715676087313185252,1.454,,,,16.004809676
1715676087320879620,0.8290000000000001,,,,16.012504044
1715676087328573988,0.177,,,,16.020198412
1715676087336268356,0.014,,,,16.02789278
1715676087343962724,0.057,,,,16.035587148
1715676087351657092,-0.024,,,,16.043281516
1715676087359351460,-0.074,,,,16.050975884
1715676087367045828,-0.038,,,,16.058670252
1715676087374740196,-0.033,,,,16.06636462
1715676087382434564,-0.048,,,,16.074058988
1715676087390128932,-0.036,,,,16.081753356
1715676087397823300,-0.024,,,,16.089447724
1715676087405517668,-0.016,,,,16.097142092
1715676087413212036,-0.004,,,,16.10483646
1715676087420906404,0.002,,,,16.112530828
1715676087428600772,0.012,,,,16.120225196
1715676087436295140,0.024,,,,16.127919564
1715676087443989508,0.033,,,,16.135613932
1715676087451683876,0.04,,,,16.1433083
1715676087459378244,0.052,,,,16.151002668
1715676087467072612,0.069,,,,16.158697036
1715676087474766980,0.076,,773.0,,16.166391404
1715676087482461348,0.084,,,,16.174085772
1715676087490155716,0.096,,,,16.18178014
1715676087497850084,0.11,,,,16.189474508
1715676087505544452,0.12,,,,16.197168876
1715676087513238820,0.122,,,,16.204863244
1715676087520933188,0.125,,,,16.212557612
1715676087528627556,0.125,,,,16.22025198
1715676087536321924,0.12,,,,16.227946348
1715676087544016292,0.117,,,,16.235640716
1715676087551710660,0.113,,,,16.243335084
1715676087559405028,0.098,,,,16.251029452
1715676087567099396,0.076,,,,16.25872382
1715676087574793764,0.06,,,,16.266418188
1715676087582488132,0.048,,,,16.274112556
1715676087590182500,0.033,,,,16.281806924
1715676087597876882,0.016,,,,16.289501306
1715676087605571668,0.012,,,,16.297196092
1715676087613266454,0.007,,,,16.304890878
1715676087620961240,-0.002,,,,16.312585664
1715676087628656026,-0.009,,,,16.32028045
1715676087636350812,-0.007,,,,16.327975236
1715676087644045598,0.0,,,,16.335670022
1715676087651740384,0.007,,,,16.343364808
1715676087659435170,0.007,,,,16.351059594
1715676087667129956,0.009,,,,16.35875438
1715676087674824742,0.016,,,,16.366449166
1715676087682519528,0.024,,,,16.374143952
1715676087690214314,0.028,,,,16.381838738
1715676087697909100,0.036,,,,16.389533524
1715676087705603886,0.043,,,,16.39722831
1715676087713298672,0.045,,,,16.404923096
1715676087720993458,0.048,,,,16.412617882
1715676087728688244,0.052,,,,16.420312668
1715676087736383030,0.06,,,,16.428007454
1715676087744077816,0.057,,,,16.43570224
1715676087751772602,0.055,,,,16.443397026
1715676087759467388,0.052,,,,16.451091812
1715676087767162174,0.048,,,,16.458786598
1715676087774856960,0.04,,,,16.466481384
1715676087782551746,0.043,,,,16.47417617
1715676087790246532,0.048,,,,16.481870956
1715676087797941318,0.048,,,,16.489565742
1715676087805636104,0.045,,,,16.497260528
1715676087813330890,0.045,,,,16.504955314
1715676087821025676,0.048,,,,16.5126501
1715676087828720462,0.048,,,,16.520344886
1715676087836415248,0.043,,,,16.528039672
1715676087844110034,0.043,,,,16.535734458
1715676087851804820,0.048,,,,16.543429244
1715676087859499606,0.05,,,,16.55112403
1715676087867194392,0.052,,,,16.558818816
1715676087874889178,0.057,,,,16.566513602
1715676087882583964,0.064,,,,16.574208388
1715676087890278750,0.064,,,,16.581903174
1715676087897973536,0.06,,,,16.58959796
1715676087905668322,0.064,,,,16.597292746
1715676087913363108,0.067,,,,16.604987532
1715676087921057894,0.06,,,,16.612682318
1715676087928752680,0.045,,,,16.620377104
1715676087936447466,0.038,,,,16.62807189
1715676087944142252,0.031,,,,16.635766676
1715676087951837038,0.04,,,,16.643461462
1715676087959531824,0.074,,,,16.651156248
1715676087967226610,0.117,,,,16.658851034
1715676087974921396,0.137,,,,16.66654582
1715676087982616182,0.132,,,,16.674240606
1715676087990310968,0.122,,,,16.681935392
1715676087998005754,0.108,,,,16.689630178
1715676088005700540,0.098,,,,16.697324964
1715676088013395326,0.098,,,,16.70501975
1715676088021090112,0.098,,,,16.712714536
1715676088028784898,0.088,,,,16.720409322
1715676088036479684,0.043,,,,16.728104108
1715676088044174470,0.016,,,,16.735798894
1715676088051869256,0.223,,,,16.74349368
1715676088059564042,0.711,,,,16.751188466
1715676088067258828,1.24,,,,16.758883252
1715676088074953614,1.476,,,,16.766578038
1715676088082648400,1.144,,,,16.774272824
1715676088090343186,0.452,,,,16.78196761
1715676088098037972,0.055,,,,16.789662396
1715676088105732758,0.06,,,,16.797357182
1715676088113427544,0.04,,,,16.805051968
1715676088121122330,-0.045,,,,16.812746754
1715676088128817116,-0.04,,,,16.82044154
1715676088136511902,-0.016,,,,16.828136326
1715676088144206688,-0.028,,,,16.835831112
1715676088151901474,-0.026,,,,16.843525898
1715676088159596276,-0.009,77.0,,,16.8512207
1715676088167291062,-0.007,,,,16.858915486
1715676088174985848,-0.004,,,,16.866610272
1715676088182680634,0.007,,,,16.874305058
1715676088190375420,0.016,,,,16.881999844
1715676088198070206,0.024,,,,16.88969463
1715676088205764992,0.038,,,,16.897389416
1715676088213459778,0.05,,,,16.905084202
1715676088221154564,0.052,,,,16.912778988
1715676088228849350,0.052,,,,16.920473774
1715676088236544136,0.062,,,,16.92816856
1715676088244238922,0.079,,,,16.935863346
1715676088251933708,0.086,,,,16.943558132
1715676088259628494,0.086,,,,16.951252918
1715676088267323280,0.088,,,,16.958947704
1715676088275018066,0.091,,,,16.96664249
1715676088282712852,0.096,,,,16.974337276
1715676088290407638,0.098,,,,16.982032062
1715676088298102424,0.096,,,,16.989726848
1715676088305797210,0.096,,,,16.997421634
1715676088313491996,0.093,,,,17.00511642
1715676088321186782,0.086,,,,17.012811206
1715676088328881568,0.069,,854.0,,17.020505992
1715676088336576354,0.057,,,,17.028200778
1715676088344271140,0.048,,,,17.035895564
1715676088351965926,0.036,,,,17.04359035
1715676088359660712,0.026,,,,17.051285136
1715676088367355498,0.021,,,,17.058979922
1715676088375050284,0.016,,,,17.066674708
1715676088382745070,0.016,,,,17.074369494
1715676088390439856,0.019,,,,17.08206428
1715676088398134642,0.014,,,,17.089759066
1715676088405829428,0.012,,,,17.097453852
1715676088413524214,0.019,,,,17.105148638
1715676088421219000,0.026,,,,17.112843424
1715676088428913786,0.028,,,,17.12053821
1715676088436608572,0.033,,,,17.128232996
1715676088444303358,0.033,,,,17.135927782
1715676088451998144,0.033,,,,17.143622568
1715676088459692930,0.036,,,,17.151317354
1715676088467387716,0.04,,,,17.15901214
1715676088475082502,0.043,,,,17.166706926
1715676088482777288,0.043,,,,17.174401712
1715676088490472074,0.043,,,,17.182096498
1715676088498166860,0.038,,,,17.189791284
1715676088505861646,0.043,,,,17.19748607
1715676088513556432,0.048,,,,17.205180856
1715676088521251218,0.048,,,,17.212875642
1715676088528946004,0.05,,,,17.220570428
1715676088536640790,0.05,,,,17.228265214
1715676088544335576,0.045,,,,17.23596
1715676088552030362,0.043,,,,17.243654786
1715676088559725148,0.045,,,,17.251349572
1715676088567419934,0.043,,,,17.259044358
1715676088575114720,0.04,,,,17.266739144
1715676088582809506,0.038,,,,17.27443393
1715676088590504292,0.036,,,,17.282128716
1715676088598199078,0.04,,,,17.289823502
1715676088605893864,0.048,,,,17.297518288
1715676088613588650,0.05,,,,17.305213074
1715676088621283436,0.043,,,,17.31290786
1715676088628978222,0.048,,,,17.320602646
1715676088636673008,0.055,,,,17.328297432
1715676088644367794,0.057,,,,17.335992218
1715676088652062580,0.057,,,,17.343687004
1715676088659757366,0.052,,,,17.35138179
1715676088667452152,0.04,,,,17.359076576
1715676088675146938,0.026,,,,17.366771362
1715676088682841724,0.021,,,,17.374466148
1715676088690536510,0.024,,,,17.382160934
1715676088698231296,0.038,,,,17.38985572
1715676088705926082,0.072,,,,17.397550506
1715676088713620868,0.11,,,,17.405245292
1715676088721315670,0.129,76.0,,,17.412940094
1715676088729010038,0.125,,,,17.420634462
1715676088736704406,0.103,,,,17.42832883
1715676088744398774,0.084,,,,17.436023198
1715676088752093142,0.086,,,,17.443717566
1715676088759787510,0.091,,,,17.451411934
1715676088767481878,0.088,,,,17.459106302
1715676088775176246,0.06,,,,17.46680067
1715676088782870614,-0.004,,,,17.474495038
1715676088790564982,0.033,,,,17.482189406
1715676088798259350,0.363,,,,17.489883774
1715676088805953718,0.896,,,,17.497578142
1715676088813648086,1.344,,,,17.50527251
1715676088821342454,1.341,,,,17.512966878
1715676088829036822,0.74,,,,17.520661246
1715676088836731190,0.11,,,,17.528355614
1715676088844425558,0.009,,,,17.536049982
1715676088852119926,0.074,,,,17.54374435
1715676088859814294,-0.026,,,,17.551438718
1715676088867508662,-0.072,,,,17.559133086
1715676088875203030,-0.028,,,,17.566827454
1715676088882897398,-0.036,,,,17.574521822
1715676088890591766,-0.05,,,,17.58221619
1715676088898286134,-0.028,,,,17.589910558
1715676088905980502,-0.016,,,,17.597604926
1715676088913674870,-0.016,,,,17.605299294
1715676088921369238,-0.004,,,,17.612993662
1715676088929063606,0.007,,,,17.62068803
1715676088936757974,0.012,,,,17.628382398
1715676088944452342,0.024,,,,17.636076766
1715676088952146710,0.036,,,,17.643771134
1715676088959841078,0.036,,,,17.651465502
1715676088967535446,0.045,,,,17.65915987
1715676088975229814,0.067,,,,17.666854238
1715676088982924182,0.081,,,,17.674548606
1715676088990618550,0.086,,,,17.682242974
1715676088998312918,0.096,,,,17.689937342
1715676089006007286,0.113,,,,17.69763171
1715676089013701654,0.12,,,,17.705326078
1715676089021396022,0.12,,,,17.713020446
1715676089029090390,0.117,,,,17.720714814
1715676089036784758,0.115,,,,17.728409182
1715676089044479126,0.117,,,,17.73610355
1715676089052173494,0.115,,,,17.743797918
1715676089059867862,0.11,,,,17.751492286
1715676089067562230,0.096,,,,17.759186654
1715676089075256598,0.086,,,,17.766881022
1715676089082950966,0.074,,,,17.77457539
1715676089090645334,0.057,,,,17.782269758
1715676089098339702,0.04,,,,17.789964126
1715676089106034070,0.033,,,,17.797658494
1715676089113728438,0.031,,,,17.805352862
1715676089121422806,0.033,,,,17.81304723
1715676089129117174,0.036,,,,17.820741598
1715676089136811542,0.033,,,,17.828435966
1715676089144505910,0.038,,,,17.836130334
1715676089152200278,0.045,,,,17.843824702
1715676089159894646,0.043,,,,17.85151907
1715676089167589014,0.045,,,,17.859213438
1715676089175283382,0.052,,,,17.866907806
1715676089182977750,0.06,,851.0,,17.874602174
1715676089190672118,0.062,,,,17.882296542
1715676089198366486,0.067,,,,17.88999091
1715676089206060854,0.079,,,,17.897685278
1715676089213755222,0.091,,,,17.905379646
1715676089221449590,0.088,,,,17.913074014
1715676089229143958,0.086,,,,17.920768382
1715676089236838326,0.093,,,,17.92846275
1715676089244532694,0.093,,,,17.936157118
1715676089252227062,0.081,,,,17.943851486
1715676089259921430,0.079,,,,17.951545854
1715676089267615798,0.081,,,,17.959240222
1715676089275310166,0.076,,,,17.96693459
1715676089283004546,0.062,,,,17.97462897
1715676089290699332,0.055,,,,17.982323756
1715676089298394118,0.06,,,,17.990018542
1715676089306088904,0.057,,,,17.997713328
1715676089313783690,0.04,,,,18.005408114
1715676089321478476,0.028,,,,18.0131029
1715676089329173262,0.036,,,,18.020797686
1715676089336868048,0.045,,,,18.028492472
1715676089344562834,0.045,,,,18.036187258
1715676089352257620,0.04,,,,18.043882044
1715676089359952406,0.043,,,,18.05157683
1715676089367647192,0.038,,,,18.059271616
1715676089375341978,0.028,,,,18.066966402
1715676089383036764,0.024,,,,18.074661188
1715676089390731550,0.019,,,,18.082355974
1715676089398426336,0.012,,,,18.09005076
1715676089406121122,0.002,,,,18.097745546
1715676089413815908,0.012,,,,18.105440332
1715676089421510694,0.05,,,,18.113135118
1715676089429205480,0.091,,,,18.120829904
1715676089436900266,0.108,,,,18.12852469
1715676089444595052,0.113,,,,18.136219476
1715676089452289838,0.108,,,,18.143914262
1715676089459984624,0.088,,,,18.151609048
1715676089467679410,0.086,,,,18.159303834
1715676089475374196,0.091,,,,18.16699862
1715676089483068982,0.081,,,,18.174693406
1715676089490763768,0.064,,,,18.182388192
1715676089498458554,0.024,,,,18.190082978
1715676089506153340,0.084,,,,18.197777764
1715676089513848126,0.456,,,,18.20547255
1715676089521542912,1.043,,,,18.213167336
1715676089529237698,1.447,,,,18.220862122
1715676089536932484,1.305,,,,18.228556908
1715676089544627270,0.622,,,,18.236251694
1715676089552322056,0.043,,,,18.24394648
1715676089560016842,0.014,,,,18.251641266
1715676089567711628,0.084,,,,18.259336052
1715676089575406414,-0.026,,,,18.267030838
1715676089583101200,-0.048,,,,18.274725624
1715676089590795986,0.019,,,,18.28242041
1715676089598490772,-0.002,,,,18.290115196
1715676089606185558,-0.062,,,,18.297809982
1715676089613880344,-0.04,,,,18.305504768
1715676089621575130,-0.002,,,,18.313199554
1715676089629269916,-0.009,,,,18.32089434
1715676089636964702,-0.007,,,,18.328589126
1715676089644659488,0.016,,,,18.336283912
1715676089652354274,0.012,,,,18.343978698
1715676089660049060,0.012,,,,18.351673484
1715676089667743846,0.045,,,,18.35936827
1715676089675438632,0.072,,,,18.367063056
1715676089683133418,0.067,,,,18.374757842
1715676089690828204,0.062,,,,18.382452628
1715676089698522990,0.088,,,,18.390147414
1715676089706217776,0.108,,,,18.3978422
1715676089713912562,0.091,,,,18.405536986
1715676089721607348,0.093,,,,18.413231772
1715676089729302134,0.117,,,,18.420926558
1715676089736996920,0.125,,,,18.428621344
1715676089744691706,0.134,,,,18.43631613
1715676089752386492,0.127,,,,18.444010916
1715676089760081278,0.101,,,,18.451705702
1715676089767776064,0.108,,,,18.459400488
1715676089775470850,0.117,,,,18.467095274
1715676089783165636,0.081,,,,18.47479006
1715676089790860422,0.055,,,,18.482484846
1715676089798555208,0.062,,,,18.490179632
1715676089806249994,0.06,,,,18.497874418
1715676089813944780,0.062,,,,18.505569204
1715676089821639566,0.072,,,,18.51326399
1715676089829334352,0.026,,,,18.520958776
1715676089837029138,-0.014,,,,18.528653562
1715676089844723940,0.036,77.0,,,18.536348364
1715676089852418726,0.067,,,,18.54404315
1715676089860113512,0.016,,,,18.551737936
1715676089867808298,-0.007,,,,18.559432722
1715676089875503084,0.028,,,,18.567127508
1715676089883197870,0.05,,,,18.574822294
1715676089890892656,0.055,,,,18.58251708
1715676089898587442,0.072,,,,18.590211866
1715676089906282228,0.079,,,,18.597906652
1715676089913977014,0.088,,,,18.605601438
1715676089921671800,0.088,,,,18.613296224
1715676089929366586,0.055,,,,18.62099101
1715676089937061372,0.05,,,,18.628685796
1715676089944756158,0.093,,,,18.636380582
1715676089952450944,0.096,,,,18.644075368
1715676089960145730,0.055,,,,18.651770154
1715676089967840516,0.043,,786.0,,18.65946494
1715676089975535302,0.067,,,,18.667159726
1715676089983230088,0.079,,,,18.674854512
1715676089990924874,0.074,,,,18.682549298
1715676089998619660,0.079,,,,18.690244084
1715676090006314446,0.088,,,,18.69793887
1715676090014009232,0.084,,,,18.705633656
1715676090021704018,0.076,,,,18.713328442
1715676090029398804,0.086,,,,18.721023228
1715676090037093590,0.091,,,,18.728718014
1715676090044788376,0.084,,,,18.7364128
1715676090052483162,0.062,,,,18.744107586
1715676090060177948,0.033,,,,18.751802372
1715676090067872734,0.043,,,,18.759497158
1715676090075567520,0.057,,,,18.767191944
1715676090083262306,0.036,,,,18.77488673
1715676090090957092,0.021,,,,18.782581516
1715676090098651878,0.021,,,,18.790276302
1715676090106346664,0.019,,,,18.797971088
1715676090114041450,0.038,,,,18.805665874
1715676090121736236,0.086,,,,18.81336066
1715676090129431022,0.129,,,,18.821055446
1715676090137125808,0.134,,,,18.828750232
1715676090144820594,0.122,,,,18.836445018
1715676090152515380,0.103,,,,18.844139804
1715676090160210166,0.067,,,,18.85183459
1715676090167904952,0.062,,,,18.859529376
1715676090175599738,0.091,,,,18.867224162
1715676090183294524,0.079,,,,18.874918948
1715676090190989310,-0.004,,,,18.882613734
1715676090198684096,-0.009,,,,18.89030852
1715676090206378882,0.303,,,,18.898003306
1715676090214073668,0.884,,,,18.905698092
1715676090221768454,1.418,,,,18.913392878
1715676090229463240,1.56,,,,18.921087664
1715676090237158026,1.036,,,,18.92878245
1715676090244852812,0.23,,,,18.936477236
1715676090252547598,-0.036,,,,18.944172022
1715676090260242384,0.093,,,,18.951866808
1715676090267937170,0.021,,,,18.959561594
1715676090275631956,-0.091,,,,18.96725638
1715676090283326742,-0.048,,,,18.974951166
1715676090291021528,-0.036,,,,18.982645952
1715676090298716314,-0.074,,,,18.990340738
1715676090306411100,-0.067,,,,18.998035524
1715676090314105886,-0.048,,,,19.00573031
1715676090321800672,-0.036,,,,19.013425096
1715676090329495458,-0.009,,,,19.021119882
1715676090337190244,-0.007,,,,19.028814668
1715676090344885030,-0.016,,,,19.036509454
1715676090352579816,0.009,,,,19.04420424
1715676090360274602,0.026,,,,19.051899026
1715676090367969388,0.007,,,,19.059593812
1715676090375664174,0.019,,,,19.067288598
1715676090383358960,0.057,,,,19.074983384
1715676090391053746,0.064,,,,19.08267817
1715676090398748532,0.076,,,,19.090372956
1715676090406443334,0.11,,,,19.098067758
1715676090414137702,0.105,,,,19.105762126
1715676090421832070,0.081,,,,19.113456494
1715676090429526438,0.088,,,,19.121150862
1715676090437220806,0.11,,,,19.12884523
1715676090444915174,0.105,,,,19.136539598
1715676090452609542,0.088,,,,19.144233966
1715676090460303910,0.086,,,,19.151928334
1715676090467998278,0.093,,,,19.159622702
1715676090475692646,0.096,,,,19.16731707
1715676090483387014,0.081,,,,19.175011438
1715676090491081382,0.045,,,,19.182705806
1715676090498775750,0.026,,,,19.190400174
1715676090506470118,0.033,,,,19.198094542
1715676090514164486,0.036,,,,19.20578891
1715676090521858854,0.036,,,,19.213483278
1715676090529553222,0.038,,,,19.221177646
1715676090537247590,0.019,,,,19.228872014
1715676090544941958,0.004,,,,19.236566382
1715676090552636326,0.024,,,,19.24426075
1715676090560330694,0.033,,,,19.251955118
1715676090568025062,0.016,,,,19.259649486
1715676090575719430,0.024,,,,19.267343854
1715676090583413798,0.045,,,,19.275038222
1715676090591108166,0.043,,,,19.28273259
1715676090598802534,0.04,,,,19.290426958
1715676090606496902,0.057,,,,19.298121326
1715676090614191270,0.076,,,,19.305815694
1715676090621885638,0.074,,,,19.313510062
1715676090629580006,0.057,,,,19.32120443
1715676090637274374,0.067,,,,19.328898798
1715676090644968742,0.086,,,,19.336593166
1715676090652663110,0.069,,,,19.344287534
1715676090660357478,0.043,,,,19.351981902
1715676090668051846,0.06,,,,19.35967627
1715676090675746214,0.084,,,,19.367370638
1715676090683440582,0.069,,,,19.375065006
1715676090691134950,0.048,,,,19.382759374
1715676090698829318,0.057,,,,19.390453742
1715676090706523686,0.069,,,,19.39814811
1715676090714218054,0.057,,,,19.405842478
1715676090721912422,0.055,,,,19.413536846
1715676090729606790,0.074,,762.0,,19.421231214
1715676090737301158,0.079,,,,19.428925582
1715676090744995526,0.064,,,,19.43661995
1715676090752689894,0.062,,,,19.444314318
1715676090760384262,0.072,,,,19.452008686
1715676090768078630,0.067,,,,19.459703054
1715676090775772998,0.057,,,,19.467397422
1715676090783467366,0.048,,,,19.47509179
1715676090791161734,0.024,,,,19.482786158
1715676090798856102,0.016,,,,19.490480526
1715676090806550470,0.036,,,,19.498174894
1715676090814244838,0.05,,,,19.505869262
1715676090821939206,0.088,,,,19.51356363
1715676090829633574,0.132,,,,19.521257998
1715676090837327942,0.115,,,,19.528952366
1715676090845022310,0.076,,,,19.536646734
1715676090852716678,0.069,,,,19.544341102
1715676090860411046,0.081,,,,19.55203547
1715676090868105414,0.088,,,,19.559729838
1715676090875799782,0.076,,,,19.567424206
1715676090883494150,0.026,,,,19.575118574
1715676090891188518,-0.026,,,,19.582812942
1715676090898882886,0.117,,,,19.59050731
1715676090906577254,0.577,,,,19.598201678
1715676090914271622,1.151,,,,19.605896046
1715676090921965990,1.524,,,,19.613590414
1715676090929660358,1.332,,,,19.621284782
1715676090937354726,0.596,,,,19.62897915
1715676090945049094,0.048,,,,19.636673518
1715676090952743462,0.038,,,,19.644367886
1715676090960437830,0.072,,,,19.652062254
1715676090968132212,-0.045,77.0,,,19.659756636
1715676090975826998,-0.079,,,,19.667451422
1715676090983521784,-0.045,,,,19.675146208
1715676090991216570,-0.04,,,,19.682840994
1715676090998911356,-0.038,,,,19.69053578
1715676091006606142,-0.031,,,,19.698230566
1715676091014300928,-0.038,,,,19.705925352
1715676091021995714,-0.026,,,,19.713620138
1715676091029690500,-0.021,,,,19.721314924
1715676091037385286,-0.045,,,,19.72900971
1715676091045080072,-0.028,,,,19.736704496
1715676091052774858,0.014,,,,19.744399282
1715676091060469644,0.028,,,,19.752094068
1715676091068164430,0.04,,,,19.759788854
1715676091075859216,0.064,,,,19.76748364
1715676091083554002,0.084,,,,19.775178426
1715676091091248788,0.086,,,,19.782873212
1715676091098943574,0.074,,,,19.790567998
1715676091106638360,0.067,,,,19.798262784
1715676091114333146,0.088,,,,19.80595757
1715676091122027932,0.115,,,,19.813652356
1715676091129722718,0.101,,,,19.821347142
1715676091137417504,0.086,,,,19.829041928
1715676091145112290,0.11,,,,19.836736714
1715676091152807076,0.144,,,,19.8444315
1715676091160501862,0.146,,,,19.852126286
1715676091168196648,0.132,,,,19.859821072
1715676091175891434,0.129,,,,19.867515858
1715676091183586220,0.117,,,,19.875210644
1715676091191281006,0.093,,,,19.88290543
1715676091198975792,0.069,,,,19.890600216
1715676091206670578,0.031,,,,19.898295002
1715676091214365364,0.021,,,,19.905989788
1715676091222060150,0.052,,,,19.913684574
1715676091229754936,0.06,,,,19.92137936
1715676091237449722,0.064,,,,19.929074146
1715676091245144508,0.098,,,,19.936768932
1715676091252839294,0.11,,,,19.944463718
1715676091260534080,0.096,,,,19.952158504
1715676091268228866,0.086,,,,19.95985329
1715676091275923652,0.057,,,,19.967548076
1715676091283618438,0.043,,,,19.975242862
1715676091291313224,0.079,,,,19.982937648
1715676091299008010,0.081,,,,19.990632434
1715676091306702796,0.072,,,,19.99832722
1715676091314397582,0.12,,,,20.006022006
1715676091322092368,0.137,,,,20.013716792
1715676091329787154,0.076,,,,20.021411578
1715676091337481940,0.05,,,,20.029106364
1715676091345176726,0.096,,,,20.03680115
1715676091352871512,0.105,,,,20.044495936
1715676091360566298,0.057,,,,20.052190722
1715676091368261084,0.055,,,,20.059885508
1715676091375955870,0.096,,,,20.067580294
1715676091383650656,0.088,,,,20.07527508
1715676091391345442,0.074,,,,20.082969866
1715676091399040228,0.098,,,,20.090664652
1715676091406735014,0.091,,,,20.098359438
1715676091414429800,0.062,,,,20.106054224
1715676091422124586,0.076,,,,20.11374901
1715676091429819372,0.088,,,,20.121443796
1715676091437514158,0.067,,,,20.129138582
1715676091445208944,0.048,,,,20.136833368
1715676091452903730,0.05,,,,20.144528154
1715676091460598516,0.064,,,,20.15222294
1715676091468293302,0.064,,,,20.159917726
1715676091475988088,0.048,,,,20.167612512
1715676091483682874,0.05,,,,20.175307298
1715676091491377660,0.048,,766.0,,20.183002084
1715676091499072446,0.038,,,,20.19069687
1715676091506767232,0.062,,,,20.198391656
1715676091514462018,0.11,,,,20.206086442
1715676091522156804,0.132,,,,20.213781228
1715676091529851606,0.12,,,,20.22147603
1715676091537546392,0.101,,,,20.229170816
1715676091545241178,0.091,,,,20.236865602
1715676091552935964,0.096,,,,20.244560388
1715676091560630750,0.098,,,,20.252255174
1715676091568325536,0.076,,,,20.25994996
1715676091576020322,0.048,,,,20.267644746
1715676091583715108,-0.007,,,,20.275339532
1715676091591409894,0.004,,,,20.283034318
1715676091599104680,0.334,,,,20.290729104
1715676091606799466,0.918,,,,20.29842389
1715676091614494252,1.37,,,,20.306118676
1715676091622189038,1.31,,,,20.313813462
1715676091629883824,0.716,,,,20.321508248
1715676091637578610,0.137,,,,20.329203034
1715676091645273396,-0.016,,,,20.33689782
1715676091652968182,-0.021,,,,20.344592606
1715676091660662968,-0.079,,,,20.352287392
1715676091668357754,-0.081,,,,20.359982178
1715676091676052540,-0.086,,,,20.367676964
1715676091683747326,-0.122,,,,20.37537175
1715676091691442112,-0.084,,,,20.383066536
1715676091699136898,-0.024,,,,20.390761322
1715676091706831684,-0.06,,,,20.398456108
1715676091714526470,-0.125,,,,20.406150894
1715676091722221256,-0.084,,,,20.41384568
1715676091729916042,-0.021,,,,20.421540466
1715676091737610828,-0.055,,,,20.429235252
1715676091745305614,-0.064,,,,20.436930038
1715676091753000400,0.004,,,,20.444624824
1715676091760695186,0.009,,,,20.45231961
1715676091768389972,-0.045,,,,20.460014396
1715676091776084758,-0.007,,,,20.467709182
1715676091783779544,0.052,,,,20.475403968
1715676091791474330,0.028,,,,20.483098754
1715676091799169116,0.028,,,,20.49079354
1715676091806863902,0.057,,,,20.498488326
1715676091814558688,0.036,,,,20.506183112
1715676091822253474,0.009,,,,20.513877898
1715676091829948260,0.026,,,,20.521572684
1715676091837643046,0.04,,,,20.52926747
1715676091845337832,0.05,,,,20.536962256
1715676091853032618,0.06,,,,20.544657042
1715676091860727404,0.043,,,,20.552351828
1715676091868422190,0.028,,,,20.560046614
1715676091876116976,0.04,,,,20.5677414
1715676091883811762,0.045,,,,20.575436186
1715676091891506548,0.038,,,,20.583130972
1715676091899201334,0.019,,,,20.590825758
1715676091906896120,0.0,,,,20.598520544
1715676091914590906,0.002,,,,20.60621533
1715676091922285692,-0.002,,,,20.613910116
1715676091929980478,-0.014,,,,20.621604902
1715676091937675264,-0.016,,,,20.629299688
1715676091945370050,0.002,,,,20.636994474
1715676091953064836,0.007,,,,20.64468926
1715676091960759622,-0.002,,,,20.652384046
1715676091968454408,0.016,,,,20.660078832
1715676091976149194,0.043,,,,20.667773618
1715676091983843980,0.04,,,,20.675468404
1715676091991538766,0.038,,,,20.68316319
1715676091999233552,0.048,,,,20.690857976
1715676092006928338,0.036,,,,20.698552762
1715676092014623124,0.024,,,,20.706247548
1715676092022317910,0.045,,,,20.713942334
1715676092030012696,0.055,,,,20.72163712
1715676092037707482,0.038,,,,20.729331906
1715676092045402268,0.036,,,,20.737026692
1715676092053097054,0.048,,,,20.744721478
1715676092060791840,0.062,,,,20.752416264
1715676092068486626,0.076,,,,20.76011105
1715676092076181412,0.064,,,,20.767805836
1715676092083876198,0.036,,,,20.775500622
1715676092091571000,0.043,78.0,,,20.783195424
1715676092099265577,0.045,,,,20.790890001
1715676092106960154,0.036,,,,20.798584578
1715676092114654731,0.052,,,,20.806279155
1715676092122349308,0.062,,,,20.813973732
1715676092130043885,0.04,,,,20.821668309
1715676092137738462,0.055,,,,20.829362886
1715676092145433039,0.084,,,,20.837057463
1715676092153127616,0.04,,,,20.84475204
1715676092160822193,-0.002,,,,20.852446617
1715676092168516770,0.026,,,,20.860141194
1715676092176211347,0.052,,,,20.867835771
1715676092183905924,0.021,,,,20.875530348
1715676092191600501,0.012,,,,20.883224925
1715676092199295078,0.06,,,,20.890919502
1715676092206989655,0.088,,,,20.898614079
1715676092214684232,0.081,,,,20.906308656
1715676092222378809,0.108,,,,20.914003233
1715676092230073386,0.134,,,,20.92169781
1715676092237767963,0.101,,743.0,,20.929392387
1715676092245462540,0.057,,,,20.937086964
1715676092253157117,0.072,,,,20.944781541
1715676092260851694,0.108,,,,20.952476118
1715676092268546271,0.076,,,,20.960170695
1715676092276240848,-0.033,,,,20.967865272
1715676092283935425,-0.038,,,,20.975559849
1715676092291630002,0.271,,,,20.983254426
1715676092299324579,0.793,,,,20.990949003
1715676092307019156,1.224,,,,20.99864358
1715676092314713733,1.351,,,,21.006338157
1715676092322408310,0.988,,,,21.014032734
1715676092330102887,0.317,,,,21.021727311
1715676092337797464,-0.009,,,,21.029421888
1715676092345492041,0.031,,,,21.037116465
1715676092353186618,-0.004,,,,21.044811042
1715676092360881195,-0.081,,,,21.052505619
1715676092368575772,-0.06,,,,21.060200196
1715676092376270349,-0.055,,,,21.067894773
1715676092383964926,-0.076,,,,21.07558935
1715676092391659503,-0.076,,,,21.083283927
1715676092399354080,-0.072,,,,21.090978504
1715676092407048657,-0.05,,,,21.098673081
1715676092414743234,-0.009,,,,21.106367658
1715676092422437811,-0.007,,,,21.114062235
1715676092430132388,-0.026,,,,21.121756812
1715676092437826965,-0.021,,,,21.129451389
1715676092445521542,0.0,,,,21.137145966
1715676092453216119,0.016,,,,21.144840543
1715676092460910696,0.016,,,,21.15253512
1715676092468605273,0.021,,,,21.160229697
1715676092476299850,0.055,,,,21.167924274
1715676092483994427,0.076,,,,21.175618851
1715676092491689004,0.064,,,,21.183313428
1715676092499383581,0.072,,,,21.191008005
1715676092507078158,0.086,,,,21.198702582
1715676092514772735,0.074,,,,21.206397159
1715676092522467312,0.081,,,,21.214091736
1715676092530161889,0.11,,,,21.221786313
1715676092537856466,0.113,,,,21.22948089
1715676092545551043,0.088,,,,21.237175467
1715676092553245620,0.088,,,,21.244870044
1715676092560940197,0.11,,,,21.252564621
1715676092568634774,0.096,,,,21.260259198
1715676092576329351,0.076,,,,21.267953775
1715676092584023928,0.081,,,,21.275648352
1715676092591718505,0.072,,,,21.283342929
1715676092599413082,0.06,,,,21.291037506
1715676092607107659,0.069,,,,21.298732083
1715676092614802236,0.072,,,,21.30642666
1715676092622496813,0.055,,,,21.314121237
1715676092630191390,0.045,,,,21.321815814
1715676092637885967,0.079,,,,21.329510391
1715676092645580544,0.076,,,,21.337204968
1715676092653275136,0.04,,,,21.34489956
1715676092660969713,0.067,,,,21.352594137
1715676092668664290,0.105,,,,21.360288714
1715676092676358867,0.086,,,,21.367983291
1715676092684053444,0.084,,,,21.375677868
1715676092691748021,0.108,,,,21.383372445
1715676092699442598,0.105,,,,21.391067022
1715676092707137175,0.101,,,,21.398761599
1715676092714831752,0.11,,,,21.406456176
1715676092722526329,0.108,,,,21.414150753
1715676092730220906,0.11,,,,21.42184533
1715676092737915483,0.127,,,,21.429539907
1715676092745610060,0.134,,,,21.437234484
1715676092753304637,0.113,,,,21.444929061
1715676092760999214,0.074,,,,21.452623638
1715676092768693791,0.081,,,,21.460318215
1715676092776388368,0.122,,,,21.468012792
1715676092784082945,0.122,,,,21.475707369
1715676092791777522,0.103,,,,21.483401946
1715676092799472099,0.105,,,,21.491096523
1715676092807166676,0.117,,,,21.4987911
1715676092814861253,0.12,,,,21.506485677
1715676092822555830,0.105,,,,21.514180254
1715676092830250407,0.084,,,,21.521874831
1715676092837944984,0.093,,,,21.529569408
1715676092845639561,0.11,,,,21.537263985
1715676092853334138,0.088,,,,21.544958562
1715676092861028715,0.062,,,,21.552653139
1715676092868723292,0.072,,,,21.560347716
1715676092876417869,0.086,,,,21.568042293
1715676092884112446,0.096,,,,21.57573687
1715676092891807023,0.137,,,,21.583431447
1715676092899501600,0.177,,,,21.591126024
1715676092907196177,0.175,,,,21.598820601
1715676092914890754,0.173,,,,21.606515178
1715676092922585331,0.175,,,,21.614209755
1715676092930279908,0.137,,,,21.621904332
1715676092937974485,0.117,,,,21.629598909
1715676092945669062,0.137,,,,21.637293486
1715676092953363639,0.139,,714.0,,21.644988063
1715676092961058216,0.105,,,,21.65268264
1715676092968752793,0.06,,,,21.660377217
1715676092976447370,0.139,,,,21.668071794
1715676092984141947,0.505,,,,21.675766371
1715676092991836524,1.01,,,,21.683460948
1715676092999531101,1.38,,,,21.691155525
1715676093007225678,1.317,,,,21.698850102
1715676093014920255,0.738,,,,21.706544679
1715676093022614832,0.214,,,,21.714239256
1715676093030309409,0.141,,,,21.721933833
1715676093038003986,0.132,,,,21.72962841
1715676093045698563,0.016,,,,21.737322987
1715676093053393140,0.0,,,,21.745017564
1715676093061087717,0.016,,,,21.752712141
1715676093068782294,-0.016,,,,21.760406718
1715676093076476871,-0.016,,,,21.768101295
1715676093084171448,0.012,,,,21.775795872
1715676093091866025,-0.004,,,,21.783490449
1715676093099560602,-0.004,,,,21.791185026
1715676093107255179,0.026,,,,21.798879603
1715676093114949756,0.028,,,,21.80657418
1715676093122644333,0.033,,,,21.814268757
1715676093130338910,0.064,,,,21.821963334
1715676093138033487,0.057,,,,21.829657911
1715676093145728064,0.031,,,,21.837352488
1715676093153422641,0.052,,,,21.845047065
1715676093161117218,0.079,,,,21.852741642
1715676093168811795,0.072,,,,21.860436219
1715676093176506372,0.074,,,,21.868130796
1715676093184200949,0.105,,,,21.875825373
1715676093191895526,0.127,,,,21.88351995
1715676093199590103,0.117,,,,21.891214527
1715676093207284680,0.096,,,,21.898909104
1715676093214979270,0.098,79.0,,,21.906603694
1715676093222674056,0.12,,,,21.91429848
1715676093230368842,0.125,,,,21.921993266
1715676093238063628,0.103,,,,21.929688052
1715676093245758414,0.096,,,,21.937382838
1715676093253453200,0.11,,,,21.945077624
1715676093261147986,0.081,,,,21.95277241
1715676093268842772,0.04,,,,21.960467196
1715676093276537558,0.05,,,,21.968161982
1715676093284232344,0.062,,,,21.975856768
1715676093291927130,0.036,,,,21.983551554
1715676093299621916,0.019,,,,21.99124634
1715676093307316702,0.028,,,,21.998941126
1715676093315011488,0.036,,,,22.006635912
1715676093322706274,0.021,,,,22.014330698
1715676093330401060,0.019,,,,22.022025484
1715676093338095846,0.026,,,,22.02972027
1715676093345790632,0.024,,,,22.037415056
1715676093353485418,0.028,,,,22.045109842
1715676093361180204,0.052,,,,22.052804628
1715676093368874990,0.072,,,,22.060499414
1715676093376569776,0.062,,,,22.0681942
1715676093384264562,0.043,,,,22.075888986
1715676093391959348,0.055,,,,22.083583772
1715676093399654134,0.079,,,,22.091278558
1715676093407348920,0.079,,,,22.098973344
1715676093415043706,0.074,,,,22.10666813
1715676093422738492,0.084,,,,22.114362916
1715676093430433278,0.079,,,,22.122057702
1715676093438128064,0.062,,,,22.129752488
1715676093445822850,0.074,,,,22.137447274
1715676093453517636,0.088,,,,22.14514206
1715676093461212422,0.084,,,,22.152836846
1715676093468907208,0.072,,,,22.160531632
1715676093476601994,0.072,,,,22.168226418
1715676093484296780,0.086,,,,22.175921204
1715676093491991566,0.076,,,,22.18361599
1715676093499686352,0.055,,,,22.191310776
1715676093507381138,0.067,,,,22.199005562
1715676093515075924,0.081,,,,22.206700348
1715676093522770710,0.072,,,,22.214395134
1715676093530465496,0.057,,,,22.22208992
1715676093538160282,0.052,,,,22.229784706
1715676093545855068,0.05,,,,22.237479492
1715676093553549854,0.05,,,,22.245174278
1715676093561244640,0.05,,,,22.252869064
