time,ecg,hr,rr,marker,norm_time
1715675883136045720,0.081,82.0,,,0.0
1715675883143740297,0.076,,,,0.007694577
1715675883151434874,0.079,,,,0.015389154
1715675883159129451,0.081,,,,0.023083731
1715675883166824028,0.079,,,,0.030778308
1715675883174518605,0.074,,,,0.038472885
1715675883182213182,0.069,,,,0.046167462
1715675883189907759,0.069,,,,0.053862039
1715675883197602336,0.064,,,,0.061556616
1715675883205296913,0.052,,,,0.069251193
1715675883212991490,0.045,,,,0.07694577
1715675883220686067,0.038,,,,0.084640347
1715675883228380644,0.026,,,,0.092334924
1715675883236075221,0.016,,,,0.100029501
1715675883243769798,0.031,,,,0.107724078
1715675883251464375,0.067,,,,0.115418655
1715675883259158952,0.103,,,,0.123113232
1715675883266853529,0.122,,,,0.130807809
1715675883274548106,0.122,,,,0.138502386
1715675883282242683,0.108,,,,0.146196963
1715675883289937260,0.088,,,,0.15389154
1715675883297631837,0.081,,700.0,,0.161586117
1715675883305326414,0.091,,,,0.169280694
1715675883313020991,0.091,,,,0.176975271
1715675883320715568,0.069,,,,0.184669848
1715675883328410145,0.002,,,,0.192364425
1715675883336104722,0.002,,,,0.200059002
1715675883343799299,0.295,,,,0.207753579
1715675883351493876,0.836,,,,0.215448156
1715675883359188453,1.332,,,,0.223142733
1715675883366883030,1.447,,,,0.23083731
1715675883374577607,0.966,,,,0.238531887
1715675883382272184,0.283,,,,0.246226464
1715675883389966761,0.026,,,,0.253921041
1715675883397661338,0.069,,,,0.261615618
1715675883405355915,-0.002,,,,0.269310195
1715675883413050492,-0.084,,,,0.277004772
1715675883420745069,-0.055,,,,0.284699349
1715675883428439646,-0.048,,,,0.292393926
1715675883436134223,-0.072,,,,0.300088503
1715675883443828800,-0.062,,,,0.30778308
1715675883451523377,-0.045,,,,0.315477657
1715675883459217954,-0.045,,,,0.323172234
1715675883466912531,-0.04,,,,0.330866811
1715675883474607108,-0.028,,,,0.338561388
1715675883482301685,-0.016,,,,0.346255965
1715675883489996262,-0.004,,,,0.353950542
1715675883497690839,0.002,,,,0.361645119
1715675883505385416,0.012,,,,0.369339696
1715675883513079993,0.021,,,,0.377034273
1715675883520774570,0.033,,,,0.38472885
1715675883528469147,0.045,,,,0.392423427
1715675883536163724,0.055,,,,0.400118004
1715675883543858301,0.067,,,,0.407812581
1715675883551552878,0.079,,,,0.415507158
1715675883559247455,0.081,,,,0.423201735
1715675883566942032,0.086,,,,0.430896312
1715675883574636609,0.093,,,,0.438590889
1715675883582331186,0.096,,,,0.446285466
1715675883590025763,0.096,,,,0.453980043
1715675883597720340,0.093,,,,0.46167462
1715675883605414917,0.093,,,,0.469369197
1715675883613109494,0.086,,,,0.477063774
1715675883620804071,0.072,,,,0.484758351
1715675883628498648,0.06,,,,0.492452928
1715675883636193225,0.052,,,,0.500147505
1715675883643887802,0.045,,,,0.507842082
1715675883651582379,0.031,,,,0.515536659
1715675883659276956,0.024,,,,0.523231236
1715675883666971533,0.021,,,,0.530925813
1715675883674666110,0.019,,,,0.53862039
1715675883682360687,0.021,,,,0.546314967
1715675883690055264,0.024,,,,0.554009544
1715675883697749856,0.024,,,,0.561704136
1715675883705444433,0.031,,,,0.569398713
1715675883713139010,0.038,,,,0.57709329
1715675883720833587,0.045,,,,0.584787867
1715675883728528164,0.055,,,,0.592482444
1715675883736222741,0.057,,,,0.600177021
1715675883743917318,0.055,,,,0.607871598
1715675883751611895,0.062,,,,0.615566175
1715675883759306472,0.072,,,,0.623260752
1715675883767001049,0.067,,,,0.630955329
1715675883774695626,0.06,,,,0.638649906
1715675883782390203,0.06,,,,0.646344483
1715675883790084780,0.06,,,,0.65403906
1715675883797779357,0.057,,,,0.661733637
1715675883805473934,0.06,,,,0.669428214
1715675883813168511,0.064,,,,0.677122791
1715675883820863088,0.067,,,,0.684817368
1715675883828557665,0.064,,,,0.692511945
1715675883836252242,0.06,,,,0.700206522
1715675883843946819,0.055,,,,0.707901099
1715675883851641396,0.055,,,,0.715595676
1715675883859335973,0.06,,,,0.723290253
1715675883867030550,0.06,,,,0.73098483
1715675883874725127,0.06,,,,0.738679407
1715675883882419704,0.06,,,,0.746373984
1715675883890114281,0.052,,,,0.754068561
1715675883897808858,0.048,,,,0.761763138
1715675883905503435,0.043,,,,0.769457715
1715675883913198012,0.031,,,,0.777152292
1715675883920892589,0.021,,,,0.784846869
1715675883928587166,0.031,,,,0.792541446
1715675883936281743,0.064,,,,0.800236023
1715675883943976320,0.105,,,,0.8079306
1715675883951670897,0.122,,,,0.815625177
1715675883959365474,0.117,,,,0.823319754
1715675883967060051,0.11,,,,0.831014331
1715675883974754628,0.093,,,,0.838708908
1715675883982449205,0.081,,,,0.846403485
1715675883990143782,0.091,,,,0.854098062
1715675883997838359,0.096,,,,0.861792639
1715675884005532936,0.081,,703.0,,0.869487216
1715675884013227513,0.024,,,,0.877181793
1715675884020922090,0.028,,,,0.88487637
1715675884028616667,0.303,,,,0.892570947
1715675884036311244,0.8170000000000001,,,,0.900265524
1715675884044005821,1.279,,,,0.907960101
1715675884051700398,1.361,,,,0.915654678
1715675884059394975,0.88,,,,0.923349255
1715675884067089552,0.252,,,,0.931043832
1715675884074784129,0.06,,,,0.938738409
1715675884082478706,0.101,,,,0.946432986
1715675884090173283,0.009,,,,0.954127563
1715675884097867860,-0.052,,,,0.96182214
1715675884105562437,-0.014,,,,0.969516717
1715675884113257014,-0.014,,,,0.977211294
1715675884120951591,-0.038,,,,0.984905871
1715675884128646168,-0.028,,,,0.992600448
1715675884136340745,-0.021,,,,1.000295025
1715675884144035322,-0.021,,,,1.007989602
1715675884151729899,-0.016,,,,1.015684179
1715675884159424476,-0.012,,,,1.023378756
1715675884167119053,-0.004,,,,1.031073333
1715675884174813630,0.009,,,,1.03876791
1715675884182508207,0.019,,,,1.046462487
1715675884190202784,0.024,,,,1.054157064
1715675884197897361,0.033,,,,1.061851641
1715675884205591938,0.045,,,,1.069546218
1715675884213286515,0.057,,,,1.077240795
1715675884220981092,0.069,,,,1.084935372
1715675884228675669,0.079,,,,1.092629949
1715675884236370246,0.088,,,,1.100324526
1715675884244064823,0.096,,,,1.108019103
1715675884251759400,0.098,,,,1.11571368
1715675884259453990,0.098,82.0,,,1.12340827
1715675884267148427,0.103,,,,1.131102707
1715675884274842864,0.103,,,,1.138797144
1715675884282537301,0.101,,,,1.146491581
1715675884290231738,0.096,,,,1.154186018
1715675884297926175,0.088,,,,1.161880455
1715675884305620612,0.074,,,,1.169574892
1715675884313315049,0.052,,,,1.177269329
1715675884321009486,0.038,,,,1.184963766
1715675884328703923,0.033,,,,1.192658203
1715675884336398360,0.028,,,,1.20035264
1715675884344092797,0.016,,,,1.208047077
1715675884351787234,0.007,,,,1.215741514
1715675884359481671,0.007,,,,1.223435951
1715675884367176108,0.014,,,,1.231130388
1715675884374870545,0.016,,,,1.238824825
1715675884382564982,0.021,,,,1.246519262
1715675884390259419,0.033,,,,1.254213699
1715675884397953856,0.038,,,,1.261908136
1715675884405648293,0.04,,,,1.269602573
1715675884413342730,0.04,,,,1.27729701
1715675884421037167,0.05,,,,1.284991447
1715675884428731604,0.055,,,,1.292685884
1715675884436426041,0.052,,,,1.300380321
1715675884444120478,0.057,,,,1.308074758
1715675884451814915,0.062,,,,1.315769195
1715675884459509352,0.062,,,,1.323463632
1715675884467203789,0.06,,,,1.331158069
1715675884474898226,0.064,,,,1.338852506
1715675884482592663,0.062,,,,1.346546943
1715675884490287100,0.057,,,,1.35424138
1715675884497981537,0.057,,,,1.361935817
1715675884505675974,0.067,,,,1.369630254
1715675884513370411,0.072,,,,1.377324691
1715675884521064848,0.064,,,,1.385019128
1715675884528759285,0.06,,,,1.392713565
1715675884536453722,0.064,,,,1.400408002
1715675884544148159,0.069,,,,1.408102439
1715675884551842596,0.067,,,,1.415796876
1715675884559537033,0.067,,,,1.423491313
1715675884567231470,0.072,,,,1.43118575
1715675884574925907,0.069,,,,1.438880187
1715675884582620344,0.064,,,,1.446574624
1715675884590314781,0.06,,,,1.454269061
1715675884598009218,0.048,,,,1.461963498
1715675884605703655,0.038,,,,1.469657935
1715675884613398092,0.033,,,,1.477352372
1715675884621092529,0.036,,,,1.485046809
1715675884628786966,0.06,,,,1.492741246
1715675884636481403,0.098,,,,1.500435683
1715675884644175840,0.125,,,,1.50813012
1715675884651870277,0.122,,,,1.515824557
1715675884659564714,0.105,,,,1.523518994
1715675884667259151,0.088,,,,1.531213431
1715675884674953588,0.076,,,,1.538907868
1715675884682648025,0.076,,,,1.546602305
1715675884690342462,0.084,,,,1.554296742
1715675884698036899,0.079,,,,1.561991179
1715675884705731336,0.028,,,,1.569685616
1715675884713425773,-0.009,,708.0,,1.577380053
1715675884721120210,0.182,,,,1.58507449
1715675884728814647,0.668,,,,1.592768927
1715675884736509084,1.185,,,,1.600463364
1715675884744203521,1.426,,,,1.608157801
1715675884751897958,1.111,,,,1.615852238
1715675884759592395,0.435,,,,1.623546675
1715675884767286832,0.06,,,,1.631241112
1715675884774981269,0.069,,,,1.638935549
1715675884782675706,0.036,,,,1.646629986
1715675884790370143,-0.055,,,,1.654324423
1715675884798064580,-0.045,,,,1.66201886
1715675884805759017,-0.024,,,,1.669713297
1715675884813453454,-0.045,,,,1.677407734
1715675884821147954,-0.043,83.0,,,1.685102234
1715675884828842670,-0.028,,,,1.69279695
1715675884836537386,-0.028,,,,1.700491666
1715675884844232102,-0.031,,,,1.708186382
1715675884851926818,-0.028,,,,1.715881098
1715675884859621534,-0.019,,,,1.723575814
1715675884867316250,-0.004,,,,1.73127053
1715675884875010966,0.002,,,,1.738965246
1715675884882705682,0.002,,,,1.746659962
1715675884890400398,0.009,,,,1.754354678
1715675884898095114,0.016,,,,1.762049394
1715675884905789830,0.024,,,,1.76974411
1715675884913484546,0.033,,,,1.777438826
1715675884921179262,0.048,,,,1.785133542
1715675884928873978,0.06,,,,1.792828258
1715675884936568694,0.062,,,,1.800522974
1715675884944263410,0.064,,,,1.80821769
1715675884951958126,0.072,,,,1.815912406
1715675884959652842,0.074,,,,1.823607122
1715675884967347558,0.074,,,,1.831301838
1715675884975042274,0.076,,,,1.838996554
1715675884982736990,0.076,,,,1.84669127
1715675884990431706,0.072,,,,1.854385986
1715675884998126422,0.064,,,,1.862080702
1715675885005821138,0.052,,,,1.869775418
1715675885013515854,0.043,,,,1.877470134
1715675885021210570,0.036,,,,1.88516485
1715675885028905286,0.026,,,,1.892859566
1715675885036600002,0.019,,,,1.900554282
1715675885044294718,0.019,,,,1.908248998
1715675885051989434,0.021,,,,1.915943714
1715675885059684150,0.021,,,,1.92363843
1715675885067378866,0.024,,,,1.931333146
1715675885075073582,0.028,,,,1.939027862
1715675885082768298,0.033,,,,1.946722578
1715675885090463014,0.038,,,,1.954417294
1715675885098157730,0.045,,,,1.96211201
1715675885105852446,0.052,,,,1.969806726
1715675885113547162,0.06,,,,1.977501442
1715675885121241878,0.06,,,,1.985196158
1715675885128936594,0.062,,,,1.992890874
1715675885136631310,0.064,,,,2.00058559
1715675885144326026,0.062,,,,2.008280306
1715675885152020742,0.06,,,,2.015975022
1715675885159715458,0.062,,,,2.023669738
1715675885167410174,0.067,,,,2.031364454
1715675885175104890,0.062,,,,2.03905917
1715675885182799606,0.06,,,,2.046753886
1715675885190494322,0.064,,,,2.054448602
1715675885198189038,0.064,,,,2.062143318
1715675885205883754,0.064,,,,2.069838034
1715675885213578470,0.067,,,,2.07753275
1715675885221273186,0.067,,,,2.085227466
1715675885228967902,0.069,,,,2.092922182
1715675885236662618,0.069,,,,2.100616898
1715675885244357334,0.069,,,,2.108311614
1715675885252052050,0.072,,,,2.11600633
1715675885259746766,0.074,,,,2.123701046
1715675885267441482,0.074,,,,2.131395762
1715675885275136198,0.074,,,,2.139090478
1715675885282830914,0.079,,,,2.146785194
1715675885290525630,0.076,,,,2.15447991
1715675885298220346,0.064,,,,2.162174626
1715675885305915062,0.052,,,,2.169869342
1715675885313609778,0.048,,,,2.177564058
1715675885321304494,0.045,,,,2.185258774
1715675885328999210,0.055,,,,2.19295349
1715675885336693926,0.086,,,,2.200648206
1715675885344388642,0.12,,,,2.208342922
1715675885352083358,0.127,,,,2.216037638
1715675885359778074,0.117,,,,2.223732354
1715675885367472790,0.108,,,,2.23142707
1715675885375167506,0.093,,,,2.239121786
1715675885382862260,0.086,,,,2.24681654
1715675885390556976,0.088,,,,2.254511256
1715675885398251692,0.086,,688.0,,2.262205972
1715675885405946408,0.074,,,,2.269900688
1715675885413641124,0.024,,,,2.277595404
1715675885421335840,0.019,,,,2.28529012
1715675885429030556,0.283,,,,2.292984836
1715675885436725272,0.791,,,,2.300679552
1715675885444419988,1.245,,,,2.308374268
1715675885452114704,1.332,,,,2.316068984
1715675885459809420,0.88,,,,2.3237637
1715675885467504136,0.269,,,,2.331458416
1715675885475198852,0.05,,,,2.339153132
1715675885482893568,0.064,,,,2.346847848
1715675885490588284,-0.009,,,,2.354542564
1715675885498283000,-0.064,,,,2.36223728
1715675885505977716,-0.036,,,,2.369931996
1715675885513672432,-0.033,,,,2.377626712
1715675885521367148,-0.05,,,,2.385321428
1715675885529061864,-0.038,,,,2.393016144
1715675885536756580,-0.031,,,,2.40071086
1715675885544451296,-0.036,,,,2.408405576
1715675885552146012,-0.026,,,,2.416100292
1715675885559840728,-0.012,,,,2.423795008
1715675885567535444,-0.007,,,,2.431489724
1715675885575230160,0.002,,,,2.43918444
1715675885582924876,0.014,,,,2.446879156
1715675885590619592,0.024,,,,2.454573872
1715675885598314308,0.031,,,,2.462268588
1715675885606009024,0.043,,,,2.469963304
1715675885613703740,0.055,,,,2.47765802
1715675885621398456,0.064,,,,2.485352736
1715675885629093172,0.069,,,,2.493047452
1715675885636787888,0.072,,,,2.500742168
1715675885644482604,0.079,,,,2.508436884
1715675885652177320,0.086,,,,2.5161316
1715675885659872036,0.091,,,,2.523826316
1715675885667566752,0.091,,,,2.531521032
1715675885675261468,0.091,,,,2.539215748
1715675885682956184,0.091,,,,2.546910464
1715675885690650900,0.086,,,,2.55460518
1715675885698345616,0.081,,,,2.562299896
1715675885706040332,0.072,,,,2.569994612
1715675885713735048,0.062,,,,2.577689328
1715675885721429764,0.052,,,,2.585384044
1715675885729124480,0.04,,,,2.59307876
1715675885736819196,0.036,,,,2.600773476
1715675885744513912,0.036,,,,2.608468192
1715675885752208628,0.033,,,,2.616162908
1715675885759903344,0.031,,,,2.623857624
1715675885767598060,0.036,,,,2.63155234
1715675885775292776,0.036,,,,2.639247056
1715675885782987492,0.036,,,,2.646941772
1715675885790682208,0.04,,,,2.654636488
1715675885798376924,0.05,,,,2.662331204
1715675885806071640,0.057,,,,2.67002592
1715675885813766356,0.06,,,,2.677720636
1715675885821461072,0.064,,,,2.685415352
1715675885829155788,0.069,,,,2.693110068
1715675885836850504,0.074,,,,2.700804784
1715675885844545220,0.074,,,,2.7084995
1715675885852239936,0.067,,,,2.716194216
1715675885859934652,0.057,,,,2.723888932
1715675885867629368,0.055,,,,2.731583648
1715675885875324084,0.055,,,,2.739278364
1715675885883018800,0.055,,,,2.74697308
1715675885890713516,0.055,,,,2.754667796
1715675885898408232,0.052,,,,2.762362512
1715675885906102948,0.052,,,,2.770057228
1715675885913797664,0.05,,,,2.777751944
1715675885921492380,0.05,,,,2.78544666
1715675885929187096,0.057,,,,2.793141376
1715675885936881812,0.062,,,,2.800836092
1715675885944576570,0.057,84.0,,,2.80853085
1715675885952271007,0.057,,,,2.816225287
1715675885959965444,0.062,,,,2.823919724
1715675885967659881,0.064,,,,2.831614161
1715675885975354318,0.067,,,,2.839308598
1715675885983048755,0.069,,,,2.847003035
1715675885990743192,0.069,,,,2.854697472
1715675885998437629,0.064,,,,2.862391909
1715675886006132066,0.069,,,,2.870086346
1715675886013826503,0.067,,,,2.877780783
1715675886021520940,0.048,,,,2.88547522
1715675886029215377,0.028,,,,2.893169657
1715675886036909814,0.028,,,,2.900864094
1715675886044604251,0.031,,,,2.908558531
1715675886052298688,0.038,,,,2.916252968
1715675886059993125,0.069,,,,2.923947405
1715675886067687562,0.108,,,,2.931641842
1715675886075381999,0.12,,,,2.939336279
1715675886083076436,0.117,,,,2.947030716
1715675886090770873,0.108,,689.0,,2.954725153
1715675886098465310,0.088,,,,2.96241959
1715675886106159747,0.079,,,,2.970114027
1715675886113854184,0.086,,,,2.977808464
1715675886121548621,0.091,,,,2.985502901
1715675886129243058,0.069,,,,2.993197338
1715675886136937495,0.002,,,,3.000891775
1715675886144631932,0.033,,,,3.008586212
1715675886152326369,0.353,,,,3.016280649
1715675886160020806,0.858,,,,3.023975086
1715675886167715243,1.267,,,,3.031669523
1715675886175409680,1.281,,,,3.03936396
1715675886183104117,0.779,,,,3.047058397
1715675886190798554,0.209,,,,3.054752834
1715675886198492991,0.045,,,,3.062447271
1715675886206187428,0.057,,,,3.070141708
1715675886213881865,-0.021,,,,3.077836145
1715675886221576302,-0.062,,,,3.085530582
1715675886229270739,-0.038,,,,3.093225019
1715675886236965176,-0.045,,,,3.100919456
1715675886244659613,-0.052,,,,3.108613893
1715675886252354050,-0.038,,,,3.11630833
1715675886260048487,-0.031,,,,3.124002767
1715675886267742924,-0.028,,,,3.131697204
1715675886275437361,-0.016,,,,3.139391641
1715675886283131798,-0.007,,,,3.147086078
1715675886290826235,-0.002,,,,3.154780515
1715675886298520672,0.009,,,,3.162474952
1715675886306215109,0.019,,,,3.170169389
1715675886313909546,0.026,,,,3.177863826
1715675886321603983,0.033,,,,3.185558263
1715675886329298420,0.043,,,,3.1932527
1715675886336992857,0.052,,,,3.200947137
1715675886344687294,0.064,,,,3.208641574
1715675886352381731,0.074,,,,3.216336011
1715675886360076168,0.074,,,,3.224030448
1715675886367770605,0.072,,,,3.231724885
1715675886375465042,0.069,,,,3.239419322
1715675886383159479,0.072,,,,3.247113759
1715675886390853916,0.079,,,,3.254808196
1715675886398548353,0.084,,,,3.262502633
1715675886406242790,0.084,,,,3.27019707
1715675886413937227,0.079,,,,3.277891507
1715675886421631664,0.072,,,,3.285585944
1715675886429326101,0.067,,,,3.293280381
1715675886437020538,0.052,,,,3.300974818
1715675886444714975,0.04,,,,3.308669255
1715675886452409412,0.036,,,,3.316363692
1715675886460103849,0.028,,,,3.324058129
1715675886467798286,0.021,,,,3.331752566
1715675886475492723,0.019,,,,3.339447003
1715675886483187160,0.021,,,,3.34714144
1715675886490881597,0.026,,,,3.354835877
1715675886498576034,0.031,,,,3.362530314
1715675886506270532,0.033,,,,3.370224812
1715675886513965318,0.038,,,,3.377919598
1715675886521660104,0.045,,,,3.385614384
1715675886529354890,0.055,,,,3.39330917
1715675886537049676,0.062,,,,3.401003956
1715675886544744462,0.067,,,,3.408698742
1715675886552439248,0.069,,,,3.416393528
1715675886560134034,0.064,,,,3.424088314
1715675886567828820,0.057,,,,3.4317831
1715675886575523606,0.064,,,,3.439477886
1715675886583218392,0.067,,,,3.447172672
1715675886590913178,0.055,,,,3.454867458
1715675886598607964,0.052,,,,3.462562244
1715675886606302750,0.062,,,,3.47025703
1715675886613997536,0.06,,,,3.477951816
1715675886621692322,0.052,,,,3.485646602
1715675886629387108,0.052,,,,3.493341388
1715675886637081894,0.057,,,,3.501036174
1715675886644776680,0.057,,,,3.50873096
1715675886652471466,0.057,,,,3.516425746
1715675886660166252,0.06,,,,3.524120532
1715675886667861038,0.06,,,,3.531815318
1715675886675555824,0.062,,,,3.539510104
1715675886683250610,0.064,,,,3.54720489
1715675886690945396,0.064,,,,3.554899676
1715675886698640182,0.062,,,,3.562594462
1715675886706334968,0.064,,,,3.570289248
1715675886714029754,0.067,,,,3.577984034
1715675886721724540,0.069,,,,3.58567882
1715675886729419326,0.064,,,,3.593373606
1715675886737114112,0.052,,,,3.601068392
1715675886744808898,0.043,,,,3.608763178
1715675886752503684,0.045,,,,3.616457964
1715675886760198470,0.067,,,,3.62415275
1715675886767893256,0.096,,,,3.631847536
1715675886775588042,0.125,,688.0,,3.639542322
1715675886783282828,0.141,,,,3.647237108
1715675886790977614,0.137,,,,3.654931894
1715675886798672400,0.122,,,,3.66262668
1715675886806367186,0.103,,,,3.670321466
1715675886814061972,0.096,,,,3.678016252
1715675886821756758,0.103,,,,3.685711038
1715675886829451544,0.103,,,,3.693405824
1715675886837146330,0.074,,,,3.70110061
1715675886844841116,0.019,,,,3.708795396
1715675886852535902,0.079,,,,3.716490182
1715675886860230688,0.425,,,,3.724184968
1715675886867925474,0.918,,,,3.731879754
1715675886875620260,1.279,,,,3.73957454
1715675886883315046,1.226,,,,3.747269326
1715675886891009832,0.68,,,,3.754964112
1715675886898704618,0.156,,,,3.762658898
1715675886906399404,0.057,,,,3.770353684
1715675886914094190,0.052,,,,3.77804847
1715675886921788976,-0.05,,,,3.785743256
1715675886929483762,-0.067,,,,3.793438042
1715675886937178548,-0.033,,,,3.801132828
1715675886944873334,-0.05,,,,3.808827614
1715675886952568120,-0.06,,,,3.8165224
1715675886960262906,-0.038,,,,3.824217186
1715675886967957692,-0.033,,,,3.831911972
1715675886975652478,-0.038,,,,3.839606758
1715675886983347264,-0.026,,,,3.847301544
1715675886991042050,-0.014,,,,3.85499633
1715675886998736836,-0.007,,,,3.862691116
1715675887006431622,0.004,,,,3.870385902
1715675887014126408,0.016,,,,3.878080688
1715675887021821194,0.026,,,,3.885775474
1715675887029515980,0.038,,,,3.89347026
1715675887037210766,0.048,,,,3.901165046
1715675887044905552,0.057,,,,3.908859832
1715675887052600338,0.069,,,,3.916554618
1715675887060295124,0.076,,,,3.924249404
1715675887067989926,0.084,85.0,,,3.931944206
1715675887075684712,0.091,,,,3.939638992
1715675887083379498,0.096,,,,3.947333778
1715675887091074284,0.101,,,,3.955028564
1715675887098769070,0.101,,,,3.96272335
1715675887106463856,0.098,,,,3.970418136
1715675887114158642,0.088,,,,3.978112922
1715675887121853428,0.086,,,,3.985807708
1715675887129548214,0.079,,,,3.993502494
1715675887137243000,0.062,,,,4.00119728
1715675887144937786,0.055,,,,4.008892066
1715675887152632572,0.048,,,,4.016586852
1715675887160327358,0.038,,,,4.024281638
1715675887168022144,0.033,,,,4.031976424
1715675887175716930,0.033,,,,4.03967121
1715675887183411716,0.033,,,,4.047365996
1715675887191106502,0.033,,,,4.055060782
1715675887198801288,0.036,,,,4.062755568
1715675887206496074,0.038,,,,4.070450354
1715675887214190860,0.04,,,,4.07814514
1715675887221885646,0.048,,,,4.085839926
1715675887229580432,0.057,,,,4.093534712
1715675887237275218,0.067,,,,4.101229498
1715675887244970004,0.072,,,,4.108924284
1715675887252664790,0.072,,,,4.11661907
1715675887260359576,0.076,,,,4.124313856
1715675887268054362,0.081,,,,4.132008642
1715675887275749148,0.081,,,,4.139703428
1715675887283443934,0.086,,,,4.147398214
1715675887291138720,0.091,,,,4.155093
1715675887298833506,0.091,,,,4.162787786
1715675887306528292,0.086,,,,4.170482572
1715675887314223078,0.084,,,,4.178177358
1715675887321917864,0.086,,,,4.185872144
1715675887329612650,0.091,,,,4.19356693
1715675887337307436,0.091,,,,4.201261716
1715675887345002222,0.084,,,,4.208956502
1715675887352697008,0.081,,,,4.216651288
1715675887360391794,0.081,,,,4.224346074
1715675887368086580,0.074,,,,4.23204086
1715675887375781366,0.064,,,,4.239735646
1715675887383476152,0.062,,,,4.247430432
1715675887391170938,0.069,,,,4.255125218
1715675887398865724,0.074,,,,4.262820004
1715675887406560510,0.074,,,,4.27051479
1715675887414255296,0.074,,,,4.278209576
1715675887421950082,0.069,,,,4.285904362
1715675887429644868,0.052,,,,4.293599148
1715675887437339654,0.043,,,,4.301293934
1715675887445034440,0.045,,,,4.30898872
1715675887452729226,0.048,,,,4.316683506
1715675887460424012,0.057,,685.0,,4.324378292
1715675887468118798,0.091,,,,4.332073078
1715675887475813584,0.125,,,,4.339767864
1715675887483508370,0.129,,,,4.34746265
1715675887491203156,0.115,,,,4.355157436
1715675887498897942,0.101,,,,4.362852222
1715675887506592728,0.093,,,,4.370547008
1715675887514287514,0.096,,,,4.378241794
1715675887521982300,0.096,,,,4.38593658
1715675887529677086,0.086,,,,4.393631366
1715675887537371872,0.038,,,,4.401326152
1715675887545066658,0.0,,,,4.409020938
1715675887552761444,0.192,,,,4.416715724
1715675887560456230,0.663,,,,4.42441051
1715675887568151016,1.156,,,,4.432105296
1715675887575845802,1.368,,,,4.439800082
1715675887583540588,1.024,,,,4.447494868
1715675887591235374,0.348,,,,4.455189654
1715675887598930160,0.038,,,,4.46288444
1715675887606624946,0.086,,,,4.470579226
1715675887614319732,0.012,,,,4.478274012
1715675887622014518,-0.088,,,,4.485968798
1715675887629709320,-0.05,,,,4.4936636
1715675887637403757,-0.031,,,,4.501358037
1715675887645098194,-0.057,,,,4.509052474
1715675887652792631,-0.048,,,,4.516746911
1715675887660487068,-0.028,,,,4.524441348
1715675887668181505,-0.038,,,,4.532135785
1715675887675875942,-0.043,,,,4.539830222
1715675887683570379,-0.026,,,,4.547524659
1715675887691264816,-0.009,,,,4.555219096
1715675887698959253,-0.007,,,,4.562913533
1715675887706653690,-0.007,,,,4.57060797
1715675887714348127,0.007,,,,4.578302407
1715675887722042564,0.026,,,,4.585996844
1715675887729737001,0.038,,,,4.593691281
1715675887737431438,0.043,,,,4.601385718
1715675887745125875,0.052,,,,4.609080155
1715675887752820312,0.064,,,,4.616774592
1715675887760514749,0.069,,,,4.624469029
1715675887768209186,0.074,,,,4.632163466
1715675887775903623,0.086,,,,4.639857903
1715675887783598060,0.093,,,,4.64755234
1715675887791292497,0.086,,,,4.655246777
1715675887798986934,0.086,,,,4.662941214
1715675887806681371,0.091,,,,4.670635651
1715675887814375808,0.086,,,,4.678330088
1715675887822070245,0.079,,,,4.686024525
1715675887829764682,0.074,,,,4.693718962
1715675887837459119,0.06,,,,4.701413399
1715675887845153556,0.045,,,,4.709107836
1715675887852847993,0.036,,,,4.716802273
1715675887860542430,0.026,,,,4.72449671
1715675887868236867,0.021,,,,4.732191147
1715675887875931304,0.014,,,,4.739885584
1715675887883625741,0.007,,,,4.747580021
1715675887891320178,0.009,,,,4.755274458
1715675887899014615,0.014,,,,4.762968895
1715675887906709052,0.019,,,,4.770663332
1715675887914403489,0.024,,,,4.778357769
1715675887922097926,0.036,,,,4.786052206
1715675887929792363,0.048,,,,4.793746643
1715675887937486800,0.05,,,,4.80144108
1715675887945181237,0.052,,,,4.809135517
1715675887952875674,0.052,,,,4.816829954
1715675887960570111,0.06,,,,4.824524391
1715675887968264548,0.069,,,,4.832218828
1715675887975958985,0.076,,,,4.839913265
1715675887983653422,0.079,,,,4.847607702
1715675887991347859,0.076,,,,4.855302139
1715675887999042296,0.074,,,,4.862996576
1715675888006736733,0.076,,,,4.870691013
1715675888014431170,0.079,,,,4.87838545
1715675888022125607,0.074,,,,4.886079887
1715675888029820044,0.069,,,,4.893774324
1715675888037514481,0.074,,,,4.901468761
1715675888045208918,0.076,,,,4.909163198
1715675888052903355,0.072,,,,4.916857635
1715675888060597792,0.074,,,,4.924552072
1715675888068292229,0.076,,,,4.932246509
1715675888075986666,0.074,,,,4.939940946
1715675888083681103,0.072,,,,4.947635383
1715675888091375540,0.069,,,,4.95532982
1715675888099069977,0.062,,,,4.963024257
1715675888106764414,0.052,,,,4.970718694
1715675888114458851,0.04,,,,4.978413131
1715675888122153288,0.031,,,,4.986107568
1715675888129847725,0.028,,,,4.993802005
1715675888137542162,0.052,,,,5.001496442
1715675888145236599,0.091,,,,5.009190879
1715675888152931036,0.12,,,,5.016885316
1715675888160625473,0.129,,695.0,,5.024579753
1715675888168319910,0.122,,,,5.03227419
1715675888176014347,0.101,,,,5.039968627
1715675888183708784,0.084,,,,5.047663064
1715675888191403284,0.088,85.0,,,5.055357564
1715675888199098000,0.098,,,,5.06305228
1715675888206792716,0.093,,,,5.070746996
1715675888214487432,0.04,,,,5.078441712
1715675888222182148,0.012,,,,5.086136428
1715675888229876864,0.242,,,,5.093831144
1715675888237571580,0.738,,,,5.10152586
1715675888245266296,1.216,,,,5.109220576
1715675888252961012,1.37,,,,5.116915292
1715675888260655728,0.952,,,,5.124610008
1715675888268350444,0.257,,,,5.132304724
1715675888276045160,0.002,,,,5.13999944
1715675888283739876,0.103,,,,5.147694156
1715675888291434592,0.028,,,,5.155388872
1715675888299129308,-0.081,,,,5.163083588
1715675888306824024,-0.036,,,,5.170778304
1715675888314518740,-0.019,,,,5.17847302
1715675888322213456,-0.05,,,,5.186167736
1715675888329908172,-0.036,,,,5.193862452
1715675888337602888,-0.021,,,,5.201557168
1715675888345297604,-0.031,,,,5.209251884
1715675888352992320,-0.026,,,,5.2169466
1715675888360687036,-0.007,,,,5.224641316
1715675888368381752,0.004,,,,5.232336032
1715675888376076468,0.009,,,,5.240030748
1715675888383771184,0.014,,,,5.247725464
1715675888391465900,0.016,,,,5.25542018
1715675888399160616,0.028,,,,5.263114896
1715675888406855332,0.043,,,,5.270809612
1715675888414550048,0.055,,,,5.278504328
1715675888422244764,0.064,,,,5.286199044
1715675888429939480,0.076,,,,5.29389376
1715675888437634196,0.086,,,,5.301588476
1715675888445328912,0.091,,,,5.309283192
1715675888453023628,0.091,,,,5.316977908
1715675888460718344,0.091,,,,5.324672624
1715675888468413060,0.091,,,,5.33236734
1715675888476107776,0.091,,,,5.340062056
1715675888483802492,0.088,,,,5.347756772
1715675888491497208,0.086,,,,5.355451488
1715675888499191924,0.079,,,,5.363146204
1715675888506886640,0.069,,,,5.37084092
1715675888514581356,0.057,,,,5.378535636
1715675888522276072,0.05,,,,5.386230352
1715675888529970788,0.045,,,,5.393925068
1715675888537665504,0.038,,,,5.401619784
1715675888545360220,0.031,,,,5.4093145
1715675888553054936,0.028,,,,5.417009216
1715675888560749652,0.031,,,,5.424703932
1715675888568444368,0.036,,,,5.432398648
1715675888576139084,0.038,,,,5.440093364
1715675888583833800,0.04,,,,5.44778808
1715675888591528516,0.04,,,,5.455482796
1715675888599223232,0.045,,,,5.463177512
1715675888606917948,0.052,,,,5.470872228
1715675888614612664,0.06,,,,5.478566944
1715675888622307380,0.072,,,,5.48626166
1715675888630002096,0.079,,,,5.493956376
1715675888637696812,0.081,,,,5.501651092
1715675888645391528,0.086,,,,5.509345808
1715675888653086244,0.093,,,,5.517040524
1715675888660780960,0.096,,,,5.52473524
1715675888668475676,0.093,,,,5.532429956
1715675888676170392,0.093,,,,5.540124672
1715675888683865108,0.096,,,,5.547819388
1715675888691559824,0.091,,,,5.555514104
1715675888699254540,0.088,,,,5.56320882
1715675888706949256,0.091,,,,5.570903536
1715675888714643972,0.088,,,,5.578598252
1715675888722338688,0.086,,,,5.586292968
1715675888730033404,0.086,,,,5.593987684
1715675888737728120,0.086,,,,5.6016824
1715675888745422836,0.088,,,,5.609377116
1715675888753117590,0.093,85.0,,,5.61707187
1715675888760812376,0.091,,,,5.624766656
1715675888768507162,0.088,,,,5.632461442
1715675888776201948,0.084,,,,5.640156228
1715675888783896734,0.074,,,,5.647851014
1715675888791591520,0.064,,,,5.6555458
1715675888799286306,0.055,,,,5.663240586
1715675888806981092,0.043,,,,5.670935372
1715675888814675878,0.033,,,,5.678630158
1715675888822370664,0.04,,,,5.686324944
1715675888830065450,0.074,,,,5.69401973
1715675888837760236,0.115,,,,5.701714516
1715675888845455022,0.132,,,,5.709409302
1715675888853149808,0.129,,,,5.717104088
1715675888860844594,0.115,,705.0,,5.724798874
1715675888868539380,0.096,,,,5.73249366
1715675888876234166,0.086,,,,5.740188446
1715675888883928952,0.084,,,,5.747883232
1715675888891623738,0.079,,,,5.755578018
1715675888899318524,0.055,,,,5.763272804
1715675888907013310,-0.004,,,,5.77096759
1715675888914708096,0.06,,,,5.778662376
1715675888922402882,0.452,,,,5.786357162
1715675888930097668,1.022,,,,5.794051948
1715675888937792454,1.435,,,,5.801746734
1715675888945487240,1.351,,,,5.80944152
1715675888953182026,0.704,,,,5.817136306
1715675888960876812,0.113,,,,5.824831092
1715675888968571598,0.04,,,,5.832525878
1715675888976266384,0.074,,,,5.840220664
1715675888983961170,-0.038,,,,5.84791545
1715675888991655956,-0.069,,,,5.855610236
1715675888999350742,-0.031,,,,5.863305022
1715675889007045528,-0.05,,,,5.870999808
1715675889014740314,-0.062,,,,5.878694594
1715675889022435100,-0.04,,,,5.88638938
1715675889030129886,-0.033,,,,5.894084166
1715675889037824672,-0.031,,,,5.901778952
1715675889045519458,-0.016,,,,5.909473738
1715675889053214244,-0.007,,,,5.917168524
1715675889060909030,-0.002,,,,5.92486331
1715675889068603816,0.009,,,,5.932558096
1715675889076298602,0.024,,,,5.940252882
1715675889083993388,0.031,,,,5.947947668
1715675889091688174,0.038,,,,5.955642454
1715675889099382960,0.05,,,,5.96333724
1715675889107077746,0.064,,,,5.971032026
1715675889114772532,0.072,,,,5.978726812
1715675889122467318,0.079,,,,5.986421598
1715675889130162104,0.093,,,,5.994116384
1715675889137856890,0.098,,,,6.00181117
1715675889145551676,0.098,,,,6.009505956
1715675889153246462,0.105,,,,6.017200742
1715675889160941248,0.108,,,,6.024895528
1715675889168636034,0.103,,,,6.032590314
1715675889176330820,0.103,,,,6.0402851
1715675889184025606,0.098,,,,6.047979886
1715675889191720392,0.084,,,,6.055674672
1715675889199415178,0.069,,,,6.063369458
1715675889207109964,0.06,,,,6.071064244
1715675889214804750,0.05,,,,6.07875903
1715675889222499536,0.04,,,,6.086453816
1715675889230194322,0.033,,,,6.094148602
1715675889237889108,0.033,,,,6.101843388
1715675889245583894,0.038,,,,6.109538174
1715675889253278680,0.036,,,,6.11723296
1715675889260973466,0.031,,,,6.124927746
1715675889268668252,0.033,,,,6.132622532
1715675889276363038,0.043,,,,6.140317318
1715675889284057824,0.05,,,,6.148012104
1715675889291752610,0.06,,,,6.15570689
1715675889299447396,0.069,,,,6.163401676
1715675889307142182,0.079,,,,6.171096462
1715675889314836986,0.084,,,,6.178791266
1715675889322531632,0.079,,,,6.186485912
1715675889330226278,0.076,,,,6.194180558
1715675889337920924,0.076,,,,6.201875204
1715675889345615570,0.076,,,,6.20956985
1715675889353310216,0.079,,,,6.217264496
1715675889361004862,0.088,,,,6.224959142
1715675889368699508,0.091,,,,6.232653788
1715675889376394154,0.084,,,,6.240348434
1715675889384088800,0.081,,,,6.24804308
1715675889391783446,0.084,,,,6.255737726
1715675889399478092,0.081,,,,6.263432372
1715675889407172738,0.072,,,,6.271127018
1715675889414867384,0.064,,,,6.278821664
1715675889422562030,0.064,,,,6.28651631
1715675889430256676,0.067,,,,6.294210956
1715675889437951322,0.072,,,,6.301905602
1715675889445645968,0.076,,,,6.309600248
1715675889453340614,0.074,,,,6.317294894
1715675889461035260,0.086,,,,6.32498954
1715675889468729906,0.105,,,,6.332684186
1715675889476424552,0.098,,,,6.340378832
1715675889484119198,0.076,,,,6.348073478
1715675889491813844,0.057,,,,6.355768124
1715675889499508490,0.048,,,,6.36346277
1715675889507203136,0.048,,,,6.371157416
1715675889514897782,0.04,,,,6.378852062
1715675889522592428,0.026,,,,6.386546708
1715675889530287074,0.031,,,,6.394241354
1715675889537981720,0.062,,,,6.401936
1715675889545676366,0.108,,,,6.409630646
1715675889553371012,0.137,,,,6.417325292
1715675889561065658,0.137,,,,6.425019938
1715675889568760304,0.125,,,,6.432714584
1715675889576454950,0.103,,,,6.44040923
1715675889584149596,0.081,,722.0,,6.448103876
1715675889591844242,0.086,,,,6.455798522
1715675889599538888,0.103,,,,6.463493168
1715675889607233534,0.091,,,,6.471187814
1715675889614928180,0.031,,,,6.47888246
1715675889622622826,-0.016,,,,6.486577106
1715675889630317472,0.144,,,,6.494271752
1715675889638012118,0.606,,,,6.501966398
1715675889645706764,1.144,,,,6.509661044
1715675889653401410,1.435,,,,6.51735569
1715675889661096056,1.156,,,,6.525050336
1715675889668790702,0.449,,,,6.532744982
1715675889676485348,0.031,,,,6.540439628
1715675889684179994,0.067,,,,6.548134274
1715675889691874640,0.052,,,,6.55582892
1715675889699569286,-0.057,,,,6.563523566
1715675889707263932,-0.05,,,,6.571218212
1715675889714958578,-0.028,,,,6.578912858
1715675889722653224,-0.06,,,,6.586607504
1715675889730347870,-0.06,,,,6.59430215
1715675889738042516,-0.043,,,,6.601996796
1715675889745737162,-0.038,,,,6.609691442
1715675889753431808,-0.026,,,,6.617386088
1715675889761126454,-0.016,,,,6.625080734
1715675889768821100,-0.012,,,,6.63277538
1715675889776515746,0.002,,,,6.640470026
1715675889784210392,0.019,,,,6.648164672
1715675889791905038,0.024,,,,6.655859318
1715675889799599684,0.026,,,,6.663553964
1715675889807294330,0.031,,,,6.67124861
1715675889814988976,0.043,,,,6.678943256
1715675889822683622,0.062,,,,6.686637902
1715675889830378268,0.074,,,,6.694332548
1715675889838072914,0.081,,,,6.702027194
1715675889845767560,0.091,,,,6.70972184
1715675889853462206,0.093,,,,6.717416486
1715675889861156852,0.093,,,,6.725111132
1715675889868851498,0.103,,,,6.732805778
1715675889876546208,0.101,85.0,,,6.740500488
1715675889884240715,0.088,,,,6.748194995
1715675889891935222,0.081,,,,6.755889502
1715675889899629729,0.072,,,,6.763584009
1715675889907324236,0.055,,,,6.771278516
1715675889915018743,0.04,,,,6.778973023
1715675889922713250,0.031,,,,6.78666753
1715675889930407757,0.019,,,,6.794362037
1715675889938102264,0.012,,,,6.802056544
1715675889945796771,0.0,,,,6.809751051
1715675889953491278,-0.012,,,,6.817445558
1715675889961185785,-0.007,,,,6.825140065
1715675889968880292,0.004,,,,6.832834572
1715675889976574799,0.004,,,,6.840529079
1715675889984269306,0.0,,,,6.848223586
1715675889991963813,0.002,,,,6.855918093
1715675889999658320,0.007,,,,6.8636126
1715675890007352827,0.016,,,,6.871307107
1715675890015047334,0.028,,,,6.879001614
1715675890022741841,0.036,,,,6.886696121
1715675890030436348,0.033,,,,6.894390628
1715675890038130855,0.036,,,,6.902085135
1715675890045825362,0.05,,,,6.909779642
1715675890053519869,0.064,,,,6.917474149
1715675890061214376,0.062,,,,6.925168656
1715675890068908883,0.055,,,,6.932863163
1715675890076603390,0.057,,,,6.94055767
1715675890084297897,0.064,,,,6.948252177
1715675890091992404,0.064,,,,6.955946684
1715675890099686911,0.055,,,,6.963641191
1715675890107381418,0.05,,,,6.971335698
1715675890115075925,0.062,,,,6.979030205
1715675890122770432,0.069,,,,6.986724712
1715675890130464939,0.06,,,,6.994419219
1715675890138159446,0.052,,,,7.002113726
1715675890145853953,0.062,,,,7.009808233
1715675890153548460,0.067,,,,7.01750274
1715675890161242967,0.062,,,,7.025197247
1715675890168937474,0.069,,,,7.032891754
1715675890176631981,0.074,,,,7.040586261
1715675890184326488,0.062,,,,7.048280768
1715675890192020995,0.057,,,,7.055975275
1715675890199715502,0.067,,,,7.063669782
1715675890207410009,0.069,,,,7.071364289
1715675890215104516,0.064,,,,7.079058796
1715675890222799023,0.079,,,,7.086753303
1715675890230493530,0.081,,,,7.09444781
1715675890238188037,0.064,,,,7.102142317
1715675890245882544,0.057,,,,7.109836824
1715675890253577051,0.06,,,,7.117531331
1715675890261271558,0.055,,,,7.125225838
1715675890268966065,0.045,,,,7.132920345
1715675890276660572,0.04,,,,7.140614852
1715675890284355079,0.067,,,,7.148309359
1715675890292049586,0.11,,707.0,,7.156003866
1715675890299744093,0.129,,,,7.163698373
1715675890307438600,0.127,,,,7.17139288
1715675890315133107,0.129,,,,7.179087387
1715675890322827614,0.125,,,,7.186781894
1715675890330522121,0.105,,,,7.194476401
1715675890338216628,0.096,,,,7.202170908
1715675890345911135,0.103,,,,7.209865415
1715675890353605642,0.103,,,,7.217559922
1715675890361300149,0.069,,,,7.225254429
1715675890368994656,0.004,,,,7.232948936
1715675890376689163,0.086,,,,7.240643443
1715675890384383670,0.476,,,,7.24833795
1715675890392078177,1.01,,,,7.256032457
1715675890399772684,1.356,,,,7.263726964
1715675890407467191,1.204,,,,7.271421471
1715675890415161698,0.562,,,,7.279115978
1715675890422856205,0.062,,,,7.286810485
1715675890430550712,0.045,,,,7.294504992
1715675890438245256,0.055,,,,7.302199536
1715675890445940042,-0.057,,,,7.309894322
1715675890453634828,-0.057,,,,7.317589108
1715675890461329614,-0.016,,,,7.325283894
1715675890469024400,-0.043,,,,7.33297868
1715675890476719186,-0.052,,,,7.340673466
1715675890484413972,-0.031,,,,7.348368252
1715675890492108758,-0.031,,,,7.356063038
1715675890499803544,-0.031,,,,7.363757824
1715675890507498330,-0.014,,,,7.37145261
1715675890515193116,-0.009,,,,7.379147396
1715675890522887902,-0.009,,,,7.386842182
1715675890530582688,0.002,,,,7.394536968
1715675890538277474,0.019,,,,7.402231754
1715675890545972260,0.026,,,,7.40992654
1715675890553667046,0.036,,,,7.417621326
1715675890561361832,0.048,,,,7.425316112
1715675890569056618,0.06,,,,7.433010898
1715675890576751404,0.069,,,,7.440705684
1715675890584446190,0.079,,,,7.44840047
1715675890592140976,0.093,,,,7.456095256
1715675890599835762,0.103,,,,7.463790042
1715675890607530548,0.108,,,,7.471484828
1715675890615225334,0.11,,,,7.479179614
1715675890622920120,0.115,,,,7.4868744
1715675890630614906,0.12,,,,7.494569186
1715675890638309692,0.115,,,,7.502263972
1715675890646004478,0.11,,,,7.509958758
1715675890653699264,0.103,,,,7.517653544
1715675890661394050,0.091,,,,7.52534833
1715675890669088836,0.074,,,,7.533043116
1715675890676783622,0.067,,,,7.540737902
1715675890684478408,0.062,,,,7.548432688
1715675890692173194,0.055,,,,7.556127474
1715675890699867980,0.052,,,,7.56382226
1715675890707562766,0.052,,,,7.571517046
1715675890715257552,0.052,,,,7.579211832
1715675890722952338,0.055,,,,7.586906618
1715675890730647124,0.064,,,,7.594601404
1715675890738341910,0.067,,,,7.60229619
1715675890746036696,0.069,,,,7.609990976
1715675890753731482,0.081,,,,7.617685762
1715675890761426268,0.084,,,,7.625380548
1715675890769121054,0.088,,,,7.633075334
1715675890776815840,0.096,,,,7.64077012
1715675890784510626,0.101,,,,7.648464906
1715675890792205412,0.105,,,,7.656159692
1715675890799900198,0.113,,,,7.663854478
1715675890807594984,0.108,,,,7.671549264
1715675890815289770,0.093,,,,7.67924405
1715675890822984556,0.088,,,,7.686938836
1715675890830679342,0.098,,,,7.694633622
1715675890838374128,0.098,,,,7.702328408
1715675890846068914,0.091,,,,7.710023194
1715675890853763700,0.086,,,,7.71771798
1715675890861458486,0.091,,,,7.725412766
1715675890869153272,0.093,,,,7.733107552
1715675890876848058,0.088,,,,7.740802338
1715675890884542844,0.086,,,,7.748497124
1715675890892237630,0.084,,,,7.75619191
1715675890899932416,0.074,,,,7.763886696
1715675890907627202,0.069,,,,7.771581482
1715675890915321988,0.069,,,,7.779276268
1715675890923016774,0.072,,,,7.786971054
1715675890930711560,0.079,,,,7.79466584
1715675890938406346,0.081,,,,7.802360626
1715675890946101132,0.076,,,,7.810055412
1715675890953795918,0.081,,,,7.817750198
1715675890961490704,0.081,,,,7.825444984
1715675890969185490,0.079,,,,7.83313977
1715675890976880276,0.084,,,,7.840834556
1715675890984575062,0.086,,696.0,,7.848529342
1715675890992269848,0.084,,,,7.856224128
1715675890999964650,0.079,85.0,,,7.86391893
1715675891007659436,0.086,,,,7.871613716
1715675891015354222,0.081,,,,7.879308502
1715675891023049008,0.067,,,,7.887003288
1715675891030743794,0.062,,,,7.894698074
1715675891038438580,0.055,,,,7.90239286
1715675891046133366,0.062,,,,7.910087646
1715675891053828152,0.088,,,,7.917782432
1715675891061522938,0.113,,,,7.925477218
1715675891069217724,0.12,,,,7.933172004
1715675891076912510,0.12,,,,7.94086679
1715675891084607296,0.11,,,,7.948561576
1715675891092302082,0.091,,,,7.956256362
1715675891099996868,0.086,,,,7.963951148
1715675891107691654,0.088,,,,7.971645934
1715675891115386440,0.086,,,,7.97934072
1715675891123081226,0.072,,,,7.987035506
1715675891130776012,0.002,,,,7.994730292
1715675891138470798,-0.002,,,,8.002425078
1715675891146165584,0.298,,,,8.010119864
1715675891153860370,0.844,,,,8.01781465
1715675891161555156,1.31,,,,8.025509436
1715675891169249942,1.363,,,,8.033204222
1715675891176944728,0.8170000000000001,,,,8.040899008
1715675891184639514,0.151,,,,8.048593794
1715675891192334300,0.019,,,,8.05628858
1715675891200029086,0.115,,,,8.063983366
1715675891207723872,-0.002,,,,8.071678152
1715675891215418658,-0.081,,,,8.079372938
1715675891223113444,-0.016,,,,8.087067724
1715675891230808230,-0.014,,,,8.09476251
1715675891238503016,-0.043,,,,8.102457296
1715675891246197802,-0.024,,,,8.110152082
1715675891253892588,-0.009,,,,8.117846868
1715675891261587374,-0.012,,,,8.125541654
1715675891269282160,0.0,,,,8.13323644
1715675891276976946,0.007,,,,8.140931226
1715675891284671732,0.009,,,,8.148626012
1715675891292366518,0.019,,,,8.156320798
1715675891300061304,0.033,,,,8.164015584
1715675891307756090,0.043,,,,8.17171037
1715675891315450876,0.057,,,,8.179405156
1715675891323145662,0.069,,,,8.187099942
1715675891330840448,0.072,,,,8.194794728
1715675891338535234,0.084,,,,8.202489514
1715675891346230020,0.103,,,,8.2101843
1715675891353924806,0.115,,,,8.217879086
1715675891361619592,0.12,,,,8.225573872
1715675891369314378,0.122,,,,8.233268658
1715675891377009164,0.122,,,,8.240963444
1715675891384703950,0.125,,,,8.24865823
1715675891392398736,0.127,,,,8.256353016
1715675891400093522,0.122,,,,8.264047802
1715675891407788308,0.105,,,,8.271742588
1715675891415483094,0.084,,,,8.279437374
1715675891423177880,0.072,,,,8.28713216
1715675891430872666,0.062,,,,8.294826946
1715675891438567452,0.045,,,,8.302521732
1715675891446262238,0.031,,,,8.310216518
1715675891453957024,0.024,,,,8.317911304
1715675891461651810,0.024,,,,8.32560609
1715675891469346596,0.019,,,,8.333300876
1715675891477041382,0.014,,,,8.340995662
1715675891484736168,0.019,,,,8.348690448
1715675891492430954,0.026,,,,8.356385234
1715675891500125740,0.024,,,,8.36408002
1715675891507820526,0.024,,,,8.371774806
1715675891515515312,0.033,,,,8.379469592
1715675891523210098,0.036,,,,8.387164378
1715675891530904884,0.04,,,,8.394859164
1715675891538599670,0.05,,,,8.40255395
1715675891546294456,0.057,,,,8.410248736
1715675891553989242,0.052,,,,8.417943522
1715675891561684044,0.052,,,,8.425638324
1715675891569378412,0.062,,,,8.433332692
1715675891577072780,0.067,,,,8.44102706
1715675891584767148,0.064,,,,8.448721428
1715675891592461516,0.062,,,,8.456415796
1715675891600155884,0.057,,,,8.464110164
1715675891607850252,0.055,,,,8.471804532
1715675891615544620,0.052,,,,8.4794989
1715675891623238988,0.045,,,,8.487193268
1715675891630933356,0.04,,,,8.494887636
1715675891638627724,0.04,,,,8.502582004
1715675891646322092,0.043,,,,8.510276372
1715675891654016460,0.043,,,,8.51797074
1715675891661710828,0.043,,676.0,,8.525665108
1715675891669405196,0.043,,,,8.533359476
1715675891677099564,0.04,,,,8.541053844
1715675891684793932,0.04,,,,8.548748212
1715675891692488300,0.043,,,,8.55644258
1715675891700182668,0.05,,,,8.564136948
1715675891707877036,0.055,,,,8.571831316
1715675891715571404,0.052,,,,8.579525684
1715675891723265772,0.048,,,,8.587220052
1715675891730960140,0.048,,,,8.59491442
1715675891738654508,0.05,,,,8.602608788
1715675891746348876,0.048,,,,8.610303156
1715675891754043244,0.045,,,,8.617997524
1715675891761737612,0.043,,,,8.625691892
1715675891769431980,0.036,,,,8.63338626
1715675891777126348,0.016,,,,8.641080628
1715675891784820716,0.004,,,,8.648774996
1715675891792515084,0.0,,,,8.656469364
1715675891800209452,0.004,,,,8.664163732
1715675891807903820,0.024,,,,8.6718581
1715675891815598188,0.057,,,,8.679552468
1715675891823292556,0.081,,,,8.687246836
1715675891830986924,0.084,,,,8.694941204
1715675891838681292,0.069,,,,8.702635572
1715675891846375660,0.048,,,,8.71032994
1715675891854070028,0.043,,,,8.718024308
1715675891861764396,0.05,,,,8.725718676
1715675891869458764,0.05,,,,8.733413044
1715675891877153132,0.036,,,,8.741107412
1715675891884847500,-0.012,,,,8.74880178
1715675891892541868,0.0,,,,8.756496148
1715675891900236236,0.293,,,,8.764190516
1715675891907930604,0.812,,,,8.771884884
1715675891915624972,1.219,,,,8.779579252
1715675891923319340,1.19,,,,8.78727362
1715675891931013708,0.634,,,,8.794967988
1715675891938708076,0.04,,,,8.802662356
1715675891946402444,-0.033,,,,8.810356724
1715675891954096812,0.081,,,,8.818051092
1715675891961791180,-0.014,,,,8.82574546
1715675891969485548,-0.076,,,,8.833439828
1715675891977179916,-0.019,,,,8.841134196
1715675891984874284,-0.021,,,,8.848828564
1715675891992568652,-0.045,,,,8.856522932
1715675892000263020,-0.021,,,,8.8642173
1715675892007957388,-0.007,,,,8.871911668
1715675892015651756,-0.012,,,,8.879606036
1715675892023346124,-0.002,,,,8.887300404
1715675892031040492,0.012,,,,8.894994772
1715675892038734860,0.014,,,,8.90268914
1715675892046429228,0.019,,,,8.910383508
1715675892054123596,0.028,,,,8.918077876
1715675892061817964,0.04,,,,8.925772244
1715675892069512332,0.057,,,,8.933466612
1715675892077206700,0.069,,,,8.94116098
1715675892084901068,0.079,,,,8.948855348
1715675892092595436,0.091,,,,8.956549716
1715675892100289804,0.103,,,,8.964244084
1715675892107984172,0.113,,,,8.971938452
1715675892115678540,0.117,,,,8.97963282
1715675892123372920,0.125,85.0,,,8.9873272
1715675892131067706,0.129,,,,8.995021986
1715675892138762492,0.125,,,,9.002716772
1715675892146457278,0.12,,,,9.010411558
1715675892154152064,0.12,,,,9.018106344
1715675892161846850,0.11,,,,9.02580113
1715675892169541636,0.091,,,,9.033495916
1715675892177236422,0.072,,,,9.041190702
1715675892184931208,0.06,,,,9.048885488
1715675892192625994,0.043,,,,9.056580274
1715675892200320780,0.026,,,,9.06427506
1715675892208015566,0.016,,,,9.071969846
1715675892215710352,0.016,,,,9.079664632
1715675892223405138,0.009,,,,9.087359418
1715675892231099924,0.0,,,,9.095054204
1715675892238794710,0.0,,,,9.10274899
1715675892246489496,0.012,,,,9.110443776
1715675892254184282,0.019,,,,9.118138562
1715675892261879068,0.024,,,,9.125833348
1715675892269573854,0.028,,,,9.133528134
1715675892277268640,0.038,,,,9.14122292
1715675892284963426,0.045,,,,9.148917706
1715675892292658212,0.048,,,,9.156612492
1715675892300352998,0.052,,,,9.164307278
1715675892308047784,0.064,,,,9.172002064
1715675892315742570,0.069,,,,9.17969685
1715675892323437356,0.067,,,,9.187391636
1715675892331132142,0.072,,,,9.195086422
1715675892338826928,0.076,,,,9.202781208
1715675892346521714,0.079,,,,9.210475994
1715675892354216500,0.074,,689.0,,9.21817078
1715675892361911286,0.076,,,,9.225865566
1715675892369606072,0.084,,,,9.233560352
1715675892377300858,0.081,,,,9.241255138
1715675892384995644,0.076,,,,9.248949924
1715675892392690430,0.081,,,,9.25664471
1715675892400385216,0.084,,,,9.264339496
1715675892408080002,0.079,,,,9.272034282
1715675892415774788,0.072,,,,9.279729068
1715675892423469574,0.072,,,,9.287423854
1715675892431164360,0.072,,,,9.29511864
1715675892438859146,0.069,,,,9.302813426
1715675892446553932,0.069,,,,9.310508212
1715675892454248718,0.074,,,,9.318202998
1715675892461943504,0.076,,,,9.325897784
1715675892469638290,0.069,,,,9.33359257
1715675892477333076,0.067,,,,9.341287356
1715675892485027862,0.072,,,,9.348982142
1715675892492722648,0.069,,,,9.356676928
1715675892500417434,0.064,,,,9.364371714
1715675892508112220,0.067,,,,9.3720665
1715675892515807006,0.067,,,,9.379761286
1715675892523501792,0.067,,,,9.387456072
1715675892531196578,0.069,,,,9.395150858
1715675892538891364,0.067,,,,9.402845644
1715675892546586150,0.064,,,,9.41054043
1715675892554280936,0.057,,,,9.418235216
1715675892561975722,0.04,,,,9.425930002
1715675892569670508,0.033,,,,9.433624788
1715675892577365294,0.038,,,,9.441319574
1715675892585060080,0.045,,,,9.44901436
1715675892592754866,0.069,,,,9.456709146
1715675892600449652,0.105,,,,9.464403932
1715675892608144438,0.129,,,,9.472098718
1715675892615839224,0.129,,,,9.479793504
1715675892623534010,0.115,,,,9.48748829
1715675892631228796,0.098,,,,9.495183076
1715675892638923582,0.091,,,,9.502877862
1715675892646618368,0.093,,,,9.510572648
1715675892654313154,0.091,,,,9.518267434
1715675892662007940,0.076,,,,9.52596222
1715675892669702726,0.016,,,,9.533657006
1715675892677397512,0.007,,,,9.541351792
1715675892685092316,0.281,85.0,,,9.549046596
1715675892692786684,0.839,,,,9.556740964
1715675892700481052,1.337,,,,9.564435332
1715675892708175420,1.411,,,,9.5721297
1715675892715869788,0.909,,,,9.579824068
1715675892723564156,0.221,,,,9.587518436
1715675892731258524,-0.002,,,,9.595212804
1715675892738952892,0.096,,,,9.602907172
1715675892746647260,0.031,,,,9.61060154
1715675892754341628,-0.062,,,,9.618295908
1715675892762035996,-0.016,,,,9.625990276
1715675892769730364,0.002,,,,9.633684644
1715675892777424732,-0.028,,,,9.641379012
1715675892785119100,-0.021,,,,9.64907338
1715675892792813468,-0.004,,,,9.656767748
1715675892800507836,-0.012,,,,9.664462116
1715675892808202204,-0.007,,,,9.672156484
1715675892815896572,0.014,,,,9.679850852
1715675892823590940,0.019,,,,9.68754522
1715675892831285308,0.021,,,,9.695239588
1715675892838979676,0.031,,,,9.702933956
1715675892846674044,0.045,,,,9.710628324
1715675892854368412,0.057,,,,9.718322692
1715675892862062780,0.069,,,,9.72601706
1715675892869757148,0.086,,,,9.733711428
1715675892877451516,0.103,,,,9.741405796
1715675892885145884,0.11,,,,9.749100164
1715675892892840252,0.117,,,,9.756794532
1715675892900534620,0.134,,,,9.7644889
1715675892908228988,0.137,,,,9.772183268
1715675892915923356,0.129,,,,9.779877636
1715675892923617724,0.127,,,,9.787572004
1715675892931312092,0.129,,,,9.795266372
1715675892939006460,0.127,,,,9.80296074
1715675892946700828,0.117,,,,9.810655108
1715675892954395196,0.108,,,,9.818349476
1715675892962089564,0.093,,,,9.826043844
1715675892969783932,0.081,,,,9.833738212
1715675892977478300,0.064,,,,9.84143258
1715675892985172668,0.05,,,,9.849126948
1715675892992867036,0.045,,,,9.856821316
1715675893000561404,0.043,,,,9.864515684
1715675893008255772,0.036,,,,9.872210052
1715675893015950140,0.033,,,,9.87990442
1715675893023644508,0.031,,,,9.887598788
1715675893031338876,0.031,,,,9.895293156
1715675893039033244,0.033,,,,9.902987524
1715675893046727612,0.038,,,,9.910681892
1715675893054421980,0.043,,,,9.91837626
1715675893062116348,0.048,,713.0,,9.926070628
1715675893069810716,0.05,,,,9.933764996
1715675893077505084,0.052,,,,9.941459364
1715675893085199452,0.06,,,,9.949153732
1715675893092893820,0.064,,,,9.9568481
1715675893100588188,0.067,,,,9.964542468
1715675893108282556,0.067,,,,9.972236836
1715675893115976924,0.069,,,,9.979931204
1715675893123671292,0.074,,,,9.987625572
1715675893131365660,0.074,,,,9.99531994
1715675893139060028,0.069,,,,10.003014308
1715675893146754396,0.064,,,,10.010708676
1715675893154448764,0.064,,,,10.018403044
1715675893162143132,0.06,,,,10.026097412
1715675893169837500,0.062,,,,10.03379178
1715675893177531868,0.064,,,,10.041486148
1715675893185226236,0.06,,,,10.049180516
1715675893192920604,0.052,,,,10.056874884
1715675893200614972,0.05,,,,10.064569252
1715675893208309340,0.05,,,,10.07226362
1715675893216003708,0.048,,,,10.079957988
1715675893223698076,0.045,,,,10.087652356
1715675893231392444,0.052,,,,10.095346724
1715675893239086812,0.055,,,,10.103041092
1715675893246781192,0.052,,,,10.110735472
1715675893254476396,0.05,,,,10.118430676
1715675893262171600,0.055,,,,10.12612588
1715675893269866804,0.055,,,,10.133821084
1715675893277562008,0.05,,,,10.141516288
1715675893285257212,0.052,,,,10.149211492
1715675893292952416,0.057,,,,10.156906696
1715675893300647620,0.055,,,,10.1646019
1715675893308342824,0.048,,,,10.172297104
1715675893316038028,0.043,,,,10.179992308
1715675893323733232,0.048,,,,10.187687512
1715675893331428436,0.052,,,,10.195382716
1715675893339123640,0.052,,,,10.20307792
1715675893346818844,0.048,,,,10.210773124
1715675893354514048,0.05,,,,10.218468328
1715675893362209252,0.055,,,,10.226163532
1715675893369904456,0.05,,,,10.233858736
1715675893377599660,0.036,,,,10.24155394
1715675893385294864,0.028,,,,10.249249144
1715675893392990068,0.026,,,,10.256944348
1715675893400685272,0.026,,,,10.264639552
1715675893408380476,0.038,,,,10.272334756
1715675893416075680,0.069,,,,10.28002996
1715675893423770884,0.105,,,,10.287725164
1715675893431466088,0.117,,,,10.295420368
1715675893439161292,0.108,,,,10.303115572
1715675893446856496,0.093,,,,10.310810776
1715675893454551700,0.081,,,,10.31850598
1715675893462246904,0.079,,,,10.326201184
1715675893469942108,0.086,,,,10.333896388
1715675893477637312,0.088,,,,10.341591592
1715675893485332516,0.055,,,,10.349286796
1715675893493027720,-0.012,,,,10.356982
1715675893500722924,0.074,,,,10.364677204
1715675893508418128,0.488,,,,10.372372408
1715675893516113332,1.058,,,,10.380067612
1715675893523808536,1.414,,,,10.387762816
1715675893531503740,1.243,,,,10.39545802
1715675893539198944,0.591,,,,10.403153224
1715675893546894148,0.055,,,,10.410848428
1715675893554589352,0.028,,,,10.418543632
1715675893562284556,0.091,,,,10.426238836
1715675893569979760,-0.019,,,,10.43393404
1715675893577674964,-0.05,,,,10.441629244
1715675893585370168,0.0,,,,10.449324448
1715675893593065372,-0.009,,,,10.457019652
1715675893600760576,-0.024,,,,10.464714856
1715675893608455780,-0.002,,,,10.47241006
1715675893616150984,0.002,,,,10.480105264
1715675893623846188,0.004,,,,10.487800468
1715675893631541392,0.021,,,,10.495495672
1715675893639236596,0.031,,,,10.503190876
1715675893646931800,0.036,,,,10.51088608
1715675893654627004,0.045,,,,10.518581284
1715675893662322208,0.057,,,,10.526276488
1715675893670017412,0.067,,,,10.533971692
1715675893677712616,0.079,,,,10.541666896
1715675893685407820,0.096,,,,10.5493621
1715675893693103024,0.108,,,,10.557057304
1715675893700798228,0.117,,,,10.564752508
1715675893708493432,0.132,,,,10.572447712
1715675893716188636,0.144,,,,10.580142916
1715675893723883840,0.151,,,,10.58783812
1715675893731579044,0.156,,,,10.595533324
1715675893739274248,0.161,,,,10.603228528
1715675893746969452,0.163,,,,10.610923732
1715675893754664656,0.161,,,,10.618618936
1715675893762359860,0.151,,,,10.62631414
1715675893770055064,0.139,,,,10.634009344
1715675893777750268,0.125,,,,10.641704548
1715675893785445472,0.108,,,,10.649399752
1715675893793140676,0.091,,,,10.657094956
1715675893800835880,0.076,,,,10.66479016
1715675893808531105,0.064,84.0,,,10.672485385
1715675893816225473,0.055,,748.0,,10.680179753
1715675893823919841,0.048,,,,10.687874121
1715675893831614209,0.048,,,,10.695568489
1715675893839308577,0.048,,,,10.703262857
1715675893847002945,0.043,,,,10.710957225
1715675893854697313,0.045,,,,10.718651593
1715675893862391681,0.052,,,,10.726345961
1715675893870086049,0.057,,,,10.734040329
1715675893877780417,0.057,,,,10.741734697
1715675893885474785,0.055,,,,10.749429065
1715675893893169153,0.057,,,,10.757123433
1715675893900863521,0.057,,,,10.764817801
1715675893908557889,0.057,,,,10.772512169
1715675893916252257,0.052,,,,10.780206537
1715675893923946625,0.05,,,,10.787900905
1715675893931640993,0.05,,,,10.795595273
1715675893939335361,0.043,,,,10.803289641
1715675893947029729,0.036,,,,10.810984009
1715675893954724097,0.038,,,,10.818678377
1715675893962418465,0.04,,,,10.826372745
1715675893970112833,0.04,,,,10.834067113
1715675893977807201,0.043,,,,10.841761481
1715675893985501569,0.045,,,,10.849455849
1715675893993195937,0.043,,,,10.857150217
1715675894000890305,0.04,,,,10.864844585
1715675894008584673,0.04,,,,10.872538953
1715675894016279041,0.036,,,,10.880233321
1715675894023973409,0.033,,,,10.887927689
1715675894031667777,0.036,,,,10.895622057
1715675894039362145,0.04,,,,10.903316425
1715675894047056513,0.043,,,,10.911010793
1715675894054750881,0.043,,,,10.918705161
1715675894062445249,0.045,,,,10.926399529
1715675894070139617,0.048,,,,10.934093897
1715675894077833985,0.05,,,,10.941788265
1715675894085528353,0.052,,,,10.949482633
1715675894093222721,0.055,,,,10.957177001
1715675894100917089,0.057,,,,10.964871369
1715675894108611457,0.062,,,,10.972565737
1715675894116305825,0.064,,,,10.980260105
1715675894124000193,0.064,,,,10.987954473
1715675894131694561,0.067,,,,10.995648841
1715675894139388929,0.074,,,,11.003343209
1715675894147083297,0.074,,,,11.011037577
1715675894154777665,0.072,,,,11.018731945
1715675894162472033,0.074,,,,11.026426313
1715675894170166401,0.069,,,,11.034120681
1715675894177860769,0.055,,,,11.041815049
1715675894185555137,0.043,,,,11.049509417
1715675894193249505,0.043,,,,11.057203785
1715675894200943873,0.052,,,,11.064898153
1715675894208638241,0.076,,,,11.072592521
1715675894216332609,0.115,,,,11.080286889
1715675894224026977,0.139,,,,11.087981257
1715675894231721345,0.141,,,,11.095675625
1715675894239415713,0.125,,,,11.103369993
1715675894247110081,0.108,,,,11.111064361
1715675894254804449,0.098,,,,11.118758729
1715675894262498817,0.096,,,,11.126453097
1715675894270193185,0.093,,,,11.134147465
1715675894277887553,0.088,,,,11.141841833
1715675894285581921,0.043,,,,11.149536201
1715675894293276289,0.007,,,,11.157230569
1715675894300970657,0.206,,,,11.164924937
1715675894308665025,0.7020000000000001,,,,11.172619305
1715675894316359393,1.207,,,,11.180313673
1715675894324053761,1.373,,,,11.188008041
1715675894331748129,0.993,,,,11.195702409
1715675894339442497,0.329,,,,11.203396777
1715675894347136865,0.019,,,,11.211091145
1715675894354831233,0.088,,,,11.218785513
1715675894362525601,0.067,,,,11.226479881
1715675894370219980,-0.028,,,,11.23417426
1715675894377915114,-0.004,,,,11.241869394
1715675894385610248,0.021,,,,11.249564528
1715675894393305382,-0.002,,,,11.257259662
1715675894401000516,0.002,,,,11.264954796
1715675894408695650,0.021,,,,11.27264993
1715675894416390784,0.016,,,,11.280345064
1715675894424085918,0.014,,,,11.288040198
1715675894431781052,0.028,,,,11.295735332
1715675894439476186,0.043,,,,11.303430466
1715675894447171320,0.043,,,,11.3111256
1715675894454866454,0.043,,,,11.318820734
1715675894462561588,0.06,,,,11.326515868
1715675894470256722,0.076,,,,11.334211002
1715675894477951856,0.084,,,,11.341906136
1715675894485646990,0.093,,,,11.34960127
1715675894493342124,0.108,,,,11.357296404
1715675894501037258,0.113,,,,11.364991538
1715675894508732392,0.12,,,,11.372686672
1715675894516427526,0.129,,,,11.380381806
1715675894524122660,0.144,,,,11.38807694
1715675894531817794,0.151,,,,11.395772074
1715675894539512928,0.146,,,,11.403467208
1715675894547208062,0.144,,,,11.411162342
1715675894554903196,0.144,,,,11.418857476
1715675894562598330,0.139,,,,11.42655261
1715675894570293464,0.127,,,,11.434247744
1715675894577988598,0.115,,765.0,,11.441942878
1715675894585683732,0.098,,,,11.449638012
1715675894593378866,0.084,,,,11.457333146
1715675894601074000,0.072,,,,11.46502828
1715675894608769134,0.064,,,,11.472723414
1715675894616464268,0.057,,,,11.480418548
1715675894624159402,0.05,,,,11.488113682
1715675894631854536,0.05,,,,11.495808816
1715675894639549670,0.05,,,,11.50350395
1715675894647244804,0.055,,,,11.511199084
1715675894654939938,0.057,,,,11.518894218
1715675894662635072,0.057,,,,11.526589352
1715675894670330206,0.064,,,,11.534284486
1715675894678025340,0.072,,,,11.54197962
1715675894685720474,0.074,,,,11.549674754
1715675894693415608,0.074,,,,11.557369888
1715675894701110742,0.074,,,,11.565065022
1715675894708805876,0.074,,,,11.572760156
1715675894716501010,0.074,,,,11.58045529
1715675894724196144,0.069,,,,11.588150424
1715675894731891278,0.074,,,,11.595845558
1715675894739586412,0.079,,,,11.603540692
1715675894747281546,0.074,,,,11.611235826
1715675894754976680,0.069,,,,11.61893096
1715675894762671814,0.072,,,,11.626626094
1715675894770366948,0.067,,,,11.634321228
1715675894778062082,0.064,,,,11.642016362
1715675894785757216,0.069,,,,11.649711496
1715675894793452350,0.072,,,,11.65740663
1715675894801147484,0.067,,,,11.665101764
1715675894808842618,0.069,,,,11.672796898
1715675894816537752,0.072,,,,11.680492032
1715675894824232886,0.072,,,,11.688187166
1715675894831928020,0.074,,,,11.6958823
1715675894839623154,0.074,,,,11.703577434
1715675894847318288,0.069,,,,11.711272568
1715675894855013422,0.074,,,,11.718967702
1715675894862708556,0.076,,,,11.726662836
1715675894870403690,0.074,,,,11.73435797
1715675894878098824,0.074,,,,11.742053104
1715675894885793958,0.079,,,,11.749748238
1715675894893489092,0.079,,,,11.757443372
1715675894901184226,0.081,,,,11.765138506
1715675894908879360,0.086,,,,11.77283364
1715675894916574494,0.081,,,,11.780528774
1715675894924269628,0.072,,,,11.788223908
1715675894931964804,0.069,84.0,,,11.795919084
1715675894939658823,0.074,,,,11.803613103
1715675894947352842,0.079,,,,11.811307122
1715675894955046861,0.072,,,,11.819001141
1715675894962740880,0.057,,,,11.82669516
1715675894970434899,0.043,,,,11.834389179
1715675894978128918,0.04,,,,11.842083198
1715675894985822937,0.038,,,,11.849777217
1715675894993516956,0.043,,,,11.857471236
1715675895001210975,0.062,,,,11.865165255
1715675895008904994,0.096,,,,11.872859274
1715675895016599013,0.122,,,,11.880553293
1715675895024293032,0.127,,,,11.888247312
1715675895031987051,0.115,,,,11.895941331
1715675895039681070,0.098,,,,11.90363535
1715675895047375089,0.093,,,,11.911329369
1715675895055069108,0.101,,,,11.919023388
1715675895062763127,0.105,,,,11.926717407
1715675895070457146,0.096,,,,11.934411426
1715675895078151165,0.036,,,,11.942105445
1715675895085845184,0.019,,,,11.949799464
1715675895093539203,0.274,,,,11.957493483
1715675895101233222,0.786,,,,11.965187502
1715675895108927241,1.245,,,,11.972881521
1715675895116621260,1.341,,,,11.98057554
1715675895124315279,0.884,,,,11.988269559
1715675895132009298,0.223,,,,11.995963578
1715675895139703317,0.007,,,,12.003657597
1715675895147397336,0.105,,,,12.011351616
1715675895155091355,0.043,,,,12.019045635
1715675895162785374,-0.036,,,,12.026739654
1715675895170479393,0.009,,,,12.034433673
1715675895178173412,0.019,,,,12.042127692
1715675895185867431,-0.007,,,,12.049821711
1715675895193561450,0.007,,,,12.05751573
1715675895201255469,0.019,,,,12.065209749
1715675895208949488,0.016,,,,12.072903768
1715675895216643507,0.031,,,,12.080597787
1715675895224337526,0.045,,,,12.088291806
1715675895232031545,0.048,,,,12.095985825
1715675895239725564,0.05,,,,12.103679844
1715675895247419583,0.052,,,,12.111373863
1715675895255113602,0.057,,,,12.119067882
1715675895262807621,0.076,,,,12.126761901
1715675895270501640,0.096,,,,12.13445592
1715675895278195659,0.105,,,,12.142149939
1715675895285889678,0.108,,,,12.149843958
1715675895293583697,0.115,,,,12.157537977
1715675895301277716,0.129,,,,12.165231996
1715675895308971735,0.144,,,,12.172926015
1715675895316665754,0.146,,,,12.180620034
1715675895324359773,0.144,,,,12.188314053
1715675895332053792,0.153,,753.0,,12.196008072
1715675895339747811,0.161,,,,12.203702091
1715675895347441830,0.151,,,,12.21139611
1715675895355135849,0.144,,,,12.219090129
1715675895362829868,0.132,,,,12.226784148
1715675895370523887,0.11,,,,12.234478167
1715675895378217906,0.091,,,,12.242172186
1715675895385911925,0.072,,,,12.249866205
1715675895393605944,0.057,,,,12.257560224
1715675895401299963,0.055,,,,12.265254243
1715675895408993982,0.045,,,,12.272948262
1715675895416688001,0.031,,,,12.280642281
1715675895424382020,0.026,,,,12.2883363
1715675895432076039,0.026,,,,12.296030319
1715675895439770058,0.019,,,,12.303724338
1715675895447464077,0.014,,,,12.311418357
1715675895455158096,0.019,,,,12.319112376
1715675895462852115,0.024,,,,12.326806395
1715675895470546134,0.024,,,,12.334500414
1715675895478240153,0.021,,,,12.342194433
1715675895485934172,0.024,,,,12.349888452
1715675895493628250,0.028,,,,12.35758253
1715675895501323036,0.026,,,,12.365277316
1715675895509017822,0.026,,,,12.372972102
1715675895516712608,0.031,,,,12.380666888
1715675895524407394,0.031,,,,12.388361674
1715675895532102180,0.026,,,,12.39605646
1715675895539796966,0.024,,,,12.403751246
1715675895547491752,0.031,,,,12.411446032
1715675895555186538,0.026,,,,12.419140818
1715675895562881324,0.007,,,,12.426835604
1715675895570576110,0.004,,,,12.43453039
1715675895578270896,0.019,,,,12.442225176
1715675895585965682,0.026,,,,12.449919962
1715675895593660468,0.026,,,,12.457614748
1715675895601355254,0.024,,,,12.465309534
1715675895609050040,0.026,,,,12.47300432
1715675895616744826,0.021,,,,12.480699106
1715675895624439612,0.024,,,,12.488393892
1715675895632134398,0.033,,,,12.496088678
1715675895639829184,0.04,,,,12.503783464
1715675895647523970,0.04,,,,12.51147825
1715675895655218756,0.043,,,,12.519173036
1715675895662913542,0.048,,,,12.526867822
1715675895670608328,0.05,,,,12.534562608
1715675895678303114,0.05,,,,12.542257394
1715675895685997900,0.05,,,,12.54995218
1715675895693692686,0.055,,,,12.557646966
1715675895701387472,0.055,,,,12.565341752
1715675895709082258,0.048,,,,12.573036538
1715675895716777044,0.033,,,,12.580731324
1715675895724471830,0.026,,,,12.58842611
1715675895732166616,0.026,,,,12.596120896
1715675895739861402,0.019,,,,12.603815682
1715675895747556188,0.033,,,,12.611510468
1715675895755250974,0.079,,,,12.619205254
1715675895762945760,0.12,,,,12.62690004
1715675895770640546,0.129,,,,12.634594826
1715675895778335332,0.117,,,,12.642289612
1715675895786030118,0.098,,,,12.649984398
1715675895793724904,0.084,,,,12.657679184
1715675895801419690,0.088,,,,12.66537397
1715675895809114476,0.098,,,,12.673068756
1715675895816809262,0.093,,,,12.680763542
1715675895824504048,0.052,,,,12.688458328
1715675895832198834,0.026,,,,12.696153114
1715675895839893620,0.238,,,,12.7038479
1715675895847588406,0.75,,,,12.711542686
1715675895855283192,1.26,,,,12.719237472
1715675895862977978,1.397,,,,12.726932258
1715675895870672764,0.94,,,,12.734627044
1715675895878367550,0.226,,,,12.74232183
1715675895886062336,-0.026,,,,12.750016616
1715675895893757122,0.098,,,,12.757711402
1715675895901451908,0.05,,,,12.765406188
1715675895909146694,-0.05,,,,12.773100974
1715675895916841480,0.002,,,,12.78079576
1715675895924536266,0.019,,,,12.788490546
1715675895932231052,-0.026,,,,12.796185332
1715675895939925838,-0.019,,,,12.803880118
1715675895947620624,0.004,,,,12.811574904
1715675895955315410,0.007,,,,12.81926969
1715675895963010196,0.012,,,,12.826964476
1715675895970704982,0.026,,,,12.834659262
1715675895978399768,0.031,,,,12.842354048
1715675895986094554,0.036,,,,12.850048834
1715675895993789340,0.05,,,,12.85774362
1715675896001484126,0.064,,,,12.865438406
1715675896009178912,0.072,,,,12.873133192
1715675896016873698,0.079,,,,12.880827978
1715675896024568484,0.093,,,,12.888522764
1715675896032263270,0.105,,,,12.89621755
1715675896039958056,0.115,,,,12.903912336
1715675896047652842,0.127,,,,12.911607122
1715675896055347646,0.141,82.0,,,12.919301926
1715675896063042432,0.141,,,,12.926996712
1715675896070737218,0.137,,,,12.934691498
1715675896078432004,0.139,,,,12.942386284
1715675896086126790,0.144,,,,12.95008107
1715675896093821576,0.139,,,,12.957775856
1715675896101516362,0.122,,,,12.965470642
1715675896109211148,0.105,,,,12.973165428
1715675896116905934,0.096,,786.0,,12.980860214
1715675896124600720,0.081,,,,12.988555
1715675896132295506,0.06,,,,12.996249786
1715675896139990292,0.048,,,,13.003944572
1715675896147685078,0.045,,,,13.011639358
1715675896155379864,0.04,,,,13.019334144
1715675896163074650,0.028,,,,13.02702893
1715675896170769436,0.026,,,,13.034723716
1715675896178464222,0.031,,,,13.042418502
1715675896186159008,0.033,,,,13.050113288
1715675896193853794,0.036,,,,13.057808074
1715675896201548580,0.038,,,,13.06550286
1715675896209243366,0.04,,,,13.073197646
1715675896216938152,0.045,,,,13.080892432
1715675896224632938,0.052,,,,13.088587218
1715675896232327724,0.055,,,,13.096282004
1715675896240022510,0.057,,,,13.10397679
1715675896247717296,0.055,,,,13.111671576
1715675896255412082,0.052,,,,13.119366362
1715675896263106868,0.05,,,,13.127061148
1715675896270801654,0.055,,,,13.134755934
1715675896278496440,0.06,,,,13.14245072
1715675896286191226,0.06,,,,13.150145506
1715675896293886012,0.057,,,,13.157840292
1715675896301580798,0.052,,,,13.165535078
1715675896309275584,0.048,,,,13.173229864
1715675896316970370,0.05,,,,13.18092465
1715675896324665156,0.052,,,,13.188619436
1715675896332359942,0.055,,,,13.196314222
1715675896340054728,0.052,,,,13.204009008
1715675896347749514,0.048,,,,13.211703794
1715675896355444300,0.05,,,,13.21939858
1715675896363139086,0.057,,,,13.227093366
1715675896370833872,0.055,,,,13.234788152
1715675896378528658,0.055,,,,13.242482938
1715675896386223444,0.062,,,,13.250177724
1715675896393918230,0.062,,,,13.25787251
1715675896401613016,0.06,,,,13.265567296
1715675896409307802,0.064,,,,13.273262082
1715675896417002588,0.072,,,,13.280956868
1715675896424697374,0.072,,,,13.288651654
1715675896432392160,0.062,,,,13.29634644
1715675896440086946,0.052,,,,13.304041226
1715675896447781732,0.043,,,,13.311736012
1715675896455476518,0.033,,,,13.319430798
1715675896463171304,0.024,,,,13.327125584
1715675896470866090,0.019,,,,13.33482037
1715675896478560876,0.031,,,,13.342515156
1715675896486255662,0.069,,,,13.350209942
1715675896493950448,0.108,,,,13.357904728
1715675896501645234,0.122,,,,13.365599514
1715675896509340020,0.117,,,,13.3732943
1715675896517034806,0.103,,,,13.380989086
1715675896524729592,0.084,,,,13.388683872
1715675896532424378,0.084,,,,13.396378658
1715675896540119164,0.096,,,,13.404073444
1715675896547813950,0.093,,,,13.41176823
1715675896555508736,0.05,,,,13.419463016
1715675896563203522,-0.007,,,,13.427157802
1715675896570898308,0.125,,,,13.434852588
1715675896578593094,0.601,,,,13.442547374
1715675896586287880,1.209,,,,13.45024216
1715675896593982666,1.567,,,,13.457936946
1715675896601677452,1.322,,,,13.465631732
1715675896609372238,0.538,,,,13.473326518
1715675896617067040,0.0,,,,13.48102132
1715675896624761617,0.043,,,,13.488715897
1715675896632456194,0.081,,,,13.496410474
1715675896640150771,-0.05,,,,13.504105051
1715675896647845348,-0.048,,,,13.511799628
1715675896655539925,0.002,,,,13.519494205
1715675896663234502,-0.028,,,,13.527188782
1715675896670929079,-0.045,,,,13.534883359
1715675896678623656,-0.024,,,,13.542577936
1715675896686318233,-0.014,,,,13.550272513
1715675896694012810,-0.012,,,,13.55796709
1715675896701707387,0.002,,,,13.565661667
1715675896709401964,0.012,,,,13.573356244
1715675896717096541,0.014,,,,13.581050821
1715675896724791118,0.021,,,,13.588745398
1715675896732485695,0.033,,,,13.596439975
1715675896740180272,0.043,,,,13.604134552
1715675896747874849,0.052,,,,13.611829129
1715675896755569426,0.067,,,,13.619523706
1715675896763264003,0.079,,,,13.627218283
1715675896770958580,0.091,,,,13.63491286
1715675896778653157,0.105,,,,13.642607437
1715675896786347734,0.113,,,,13.650302014
1715675896794042311,0.117,,,,13.657996591
1715675896801736888,0.122,,,,13.665691168
1715675896809431465,0.122,,,,13.673385745
1715675896817126042,0.12,,,,13.681080322
1715675896824820619,0.12,,,,13.688774899
1715675896832515196,0.115,,,,13.696469476
1715675896840209773,0.105,,,,13.704164053
1715675896847904350,0.093,,,,13.71185863
1715675896855598927,0.079,,,,13.719553207
1715675896863293504,0.069,,,,13.727247784
1715675896870988081,0.064,,,,13.734942361
1715675896878682658,0.052,,,,13.742636938
1715675896886377235,0.04,,,,13.750331515
1715675896894071812,0.04,,,,13.758026092
1715675896901766389,0.04,,,,13.765720669
1715675896909460966,0.038,,,,13.773415246
1715675896917155543,0.038,,,,13.781109823
1715675896924850120,0.043,,,,13.7888044
1715675896932544697,0.048,,,,13.796498977
1715675896940239274,0.04,,820.0,,13.804193554
1715675896947933851,0.04,,,,13.811888131
1715675896955628428,0.05,,,,13.819582708
1715675896963323005,0.055,,,,13.827277285
1715675896971017582,0.052,,,,13.834971862
1715675896978712159,0.055,,,,13.842666439
1715675896986406736,0.062,,,,13.850361016
1715675896994101313,0.064,,,,13.858055593
1715675897001795890,0.067,,,,13.86575017
1715675897009490467,0.069,,,,13.873444747
1715675897017185044,0.069,,,,13.881139324
1715675897024879621,0.062,,,,13.888833901
1715675897032574198,0.057,,,,13.896528478
1715675897040268775,0.06,,,,13.904223055
1715675897047963352,0.062,,,,13.911917632
1715675897055657929,0.057,,,,13.919612209
1715675897063352506,0.05,,,,13.927306786
1715675897071047083,0.048,,,,13.935001363
1715675897078741660,0.045,,,,13.94269594
1715675897086436237,0.043,,,,13.950390517
1715675897094130814,0.043,,,,13.958085094
1715675897101825391,0.048,,,,13.965779671
1715675897109519968,0.045,,,,13.973474248
1715675897117214545,0.043,,,,13.981168825
1715675897124909122,0.045,,,,13.988863402
1715675897132603699,0.05,,,,13.996557979
1715675897140298276,0.052,,,,14.004252556
1715675897147992853,0.055,,,,14.011947133
1715675897155687430,0.055,,,,14.01964171
1715675897163382007,0.05,,,,14.027336287
1715675897171076584,0.038,,,,14.035030864
1715675897178771176,0.026,81.0,,,14.042725456
1715675897186465753,0.024,,,,14.050420033
1715675897194160330,0.024,,,,14.05811461
1715675897201854907,0.036,,,,14.065809187
1715675897209549484,0.067,,,,14.073503764
1715675897217244061,0.103,,,,14.081198341
1715675897224938638,0.122,,,,14.088892918
1715675897232633215,0.115,,,,14.096587495
1715675897240327792,0.091,,,,14.104282072
1715675897248022369,0.072,,,,14.111976649
1715675897255716946,0.076,,,,14.119671226
1715675897263411523,0.081,,,,14.127365803
1715675897271106100,0.074,,,,14.13506038
1715675897278800677,0.048,,,,14.142754957
1715675897286495254,-0.009,,,,14.150449534
1715675897294189831,0.081,,,,14.158144111
1715675897301884408,0.512,,,,14.165838688
1715675897309578985,1.115,,,,14.173533265
1715675897317273562,1.517,,,,14.181227842
1715675897324968139,1.358,,,,14.188922419
1715675897332662716,0.627,,,,14.196616996
1715675897340357293,0.026,,,,14.204311573
1715675897348051870,0.014,,,,14.21200615
1715675897355746447,0.079,,,,14.219700727
1715675897363441024,-0.04,,,,14.227395304
1715675897371135601,-0.06,,,,14.235089881
1715675897378830178,-0.002,,,,14.242784458
1715675897386524755,-0.021,,,,14.250479035
1715675897394219332,-0.033,,,,14.258173612
1715675897401913909,-0.007,,,,14.265868189
1715675897409608486,-0.002,,,,14.273562766
1715675897417303063,-0.004,,,,14.281257343
1715675897424997640,0.012,,,,14.28895192
1715675897432692217,0.024,,,,14.296646497
1715675897440386794,0.019,,,,14.304341074
1715675897448081371,0.026,,,,14.312035651
1715675897455775948,0.038,,,,14.319730228
1715675897463470525,0.048,,,,14.327424805
1715675897471165102,0.055,,,,14.335119382
1715675897478859679,0.062,,,,14.342813959
1715675897486554256,0.074,,,,14.350508536
1715675897494248833,0.091,,,,14.358203113
1715675897501943410,0.108,,,,14.36589769
1715675897509637987,0.113,,,,14.373592267
1715675897517332564,0.117,,,,14.381286844
1715675897525027141,0.129,,,,14.388981421
1715675897532721718,0.129,,,,14.396675998
1715675897540416295,0.12,,,,14.404370575
1715675897548110872,0.115,,,,14.412065152
1715675897555805449,0.12,,,,14.419759729
1715675897563500026,0.115,,,,14.427454306
1715675897571194603,0.103,,,,14.435148883
1715675897578889180,0.088,,,,14.44284346
1715675897586583757,0.074,,,,14.450538037
1715675897594278334,0.067,,,,14.458232614
1715675897601972911,0.062,,,,14.465927191
1715675897609667488,0.057,,,,14.473621768
1715675897617362065,0.055,,,,14.481316345
1715675897625056642,0.057,,,,14.489010922
1715675897632751219,0.057,,,,14.496705499
1715675897640445796,0.055,,,,14.504400076
1715675897648140373,0.057,,,,14.512094653
1715675897655834950,0.067,,,,14.51978923
1715675897663529527,0.072,,,,14.527483807
1715675897671224104,0.076,,,,14.535178384
1715675897678918681,0.079,,,,14.542872961
1715675897686613258,0.079,,,,14.550567538
1715675897694307835,0.086,,,,14.558262115
1715675897702002412,0.093,,,,14.565956692
1715675897709696989,0.096,,,,14.573651269
1715675897717391566,0.096,,,,14.581345846
1715675897725086143,0.098,,,,14.589040423
1715675897732780720,0.098,,797.0,,14.596735
1715675897740475310,0.103,81.0,,,14.60442959
1715675897748170096,0.105,,,,14.612124376
1715675897755864882,0.105,,,,14.619819162
1715675897763559668,0.108,,,,14.627513948
1715675897771254454,0.108,,,,14.635208734
1715675897778949240,0.096,,,,14.64290352
1715675897786644026,0.088,,,,14.650598306
1715675897794338812,0.096,,,,14.658293092
1715675897802033598,0.101,,,,14.665987878
1715675897809728384,0.093,,,,14.673682664
1715675897817423170,0.088,,,,14.68137745
1715675897825117956,0.091,,,,14.689072236
1715675897832812742,0.093,,,,14.696767022
1715675897840507528,0.093,,,,14.704461808
1715675897848202314,0.091,,,,14.712156594
1715675897855897100,0.093,,,,14.71985138
1715675897863591886,0.091,,,,14.727546166
1715675897871286672,0.081,,,,14.735240952
1715675897878981458,0.076,,,,14.742935738
1715675897886676244,0.074,,,,14.750630524
1715675897894371030,0.06,,,,14.75832531
1715675897902065816,0.043,,,,14.766020096
1715675897909760602,0.036,,,,14.773714882
1715675897917455388,0.043,,,,14.781409668
1715675897925150174,0.064,,,,14.789104454
1715675897932844960,0.098,,,,14.79679924
1715675897940539746,0.122,,,,14.804494026
1715675897948234532,0.12,,,,14.812188812
1715675897955929318,0.105,,,,14.819883598
1715675897963624104,0.088,,,,14.827578384
1715675897971318890,0.081,,,,14.83527317
1715675897979013676,0.088,,,,14.842967956
1715675897986708462,0.088,,,,14.850662742
1715675897994403248,0.076,,,,14.858357528
1715675898002098034,0.033,,,,14.866052314
1715675898009792820,-0.004,,,,14.8737471
1715675898017487606,0.185,,,,14.881441886
1715675898025182392,0.6940000000000001,,,,14.889136672
1715675898032877178,1.257,,,,14.896831458
1715675898040571964,1.5,,,,14.904526244
1715675898048266750,1.123,,,,14.91222103
1715675898055961536,0.355,,,,14.919915816
1715675898063656322,-0.024,,,,14.927610602
1715675898071351108,0.064,,,,14.935305388
1715675898079045894,0.055,,,,14.943000174
1715675898086740680,-0.057,,,,14.95069496
1715675898094435466,-0.028,,,,14.958389746
1715675898102130252,0.004,,,,14.966084532
1715675898109825038,-0.021,,,,14.973779318
1715675898117519824,-0.012,,,,14.981474104
1715675898125214610,0.012,,,,14.98916889
1715675898132909396,0.012,,,,14.996863676
1715675898140604182,0.014,,,,15.004558462
1715675898148298968,0.031,,,,15.012253248
1715675898155993754,0.043,,,,15.019948034
1715675898163688540,0.05,,,,15.02764282
1715675898171383326,0.06,,,,15.035337606
1715675898179078112,0.072,,,,15.043032392
1715675898186772898,0.081,,,,15.050727178
1715675898194467684,0.088,,,,15.058421964
1715675898202162470,0.093,,,,15.06611675
1715675898209857256,0.105,,,,15.073811536
1715675898217552042,0.12,,,,15.081506322
1715675898225246828,0.129,,,,15.089201108
1715675898232941614,0.132,,,,15.096895894
1715675898240636400,0.134,,,,15.10459068
1715675898248331186,0.139,,,,15.112285466
1715675898256025972,0.141,,,,15.119980252
1715675898263720758,0.139,,,,15.127675038
1715675898271415544,0.139,,,,15.135369824
1715675898279110330,0.137,,,,15.14306461
1715675898286805116,0.125,,,,15.150759396
1715675898294499902,0.11,,,,15.158454182
1715675898302194704,0.101,,,,15.166148984
1715675898309889490,0.096,,,,15.17384377
1715675898317584276,0.088,,,,15.181538556
1715675898325279062,0.076,,,,15.189233342
1715675898332973848,0.067,,,,15.196928128
1715675898340668634,0.062,,,,15.204622914
1715675898348363420,0.055,,,,15.2123177
1715675898356058206,0.048,,,,15.220012486
1715675898363752992,0.05,,,,15.227707272
1715675898371447778,0.057,,,,15.235402058
1715675898379142564,0.06,,,,15.243096844
1715675898386837350,0.067,,,,15.25079163
1715675898394532136,0.079,,,,15.258486416
1715675898402226922,0.084,,,,15.266181202
1715675898409921708,0.081,,,,15.273875988
1715675898417616494,0.084,,,,15.281570774
1715675898425311280,0.088,,,,15.28926556
1715675898433006066,0.093,,,,15.296960346
1715675898440700852,0.088,,,,15.304655132
1715675898448395638,0.079,,,,15.312349918
1715675898456090424,0.072,,,,15.320044704
1715675898463785210,0.076,,,,15.32773949
1715675898471479996,0.074,,,,15.335434276
1715675898479174782,0.072,,,,15.343129062
1715675898486869568,0.076,,,,15.350823848
1715675898494564354,0.074,,,,15.358518634
1715675898502259140,0.072,,,,15.36621342
1715675898509953926,0.079,,,,15.373908206
1715675898517648712,0.081,,,,15.381602992
1715675898525343498,0.074,,791.0,,15.389297778
1715675898533038284,0.074,,,,15.396992564
1715675898540733070,0.076,,,,15.40468735
1715675898548427856,0.079,,,,15.412382136
1715675898556122642,0.079,,,,15.420076922
1715675898563817428,0.079,,,,15.427771708
1715675898571512214,0.081,,,,15.435466494
1715675898579207000,0.086,,,,15.44316128
1715675898586901786,0.084,,,,15.450856066
1715675898594596572,0.084,,,,15.458550852
1715675898602291358,0.088,,,,15.466245638
1715675898609986144,0.081,,,,15.473940424
1715675898617680930,0.067,,,,15.48163521
1715675898625375716,0.055,,,,15.489329996
1715675898633070502,0.052,,,,15.497024782
1715675898640765288,0.048,,,,15.504719568
1715675898648460074,0.045,,,,15.512414354
1715675898656154860,0.064,,,,15.52010914
1715675898663849646,0.101,,,,15.527803926
1715675898671544432,0.125,,,,15.535498712
1715675898679239218,0.125,,,,15.543193498
1715675898686934004,0.103,,,,15.550888284
1715675898694628790,0.079,,,,15.55858307
1715675898702323576,0.072,,,,15.566277856
1715675898710018362,0.076,,,,15.573972642
1715675898717713148,0.076,,,,15.581667428
1715675898725407934,0.062,,,,15.589362214
1715675898733102720,0.009,,,,15.597057
1715675898740797506,0.021,,,,15.604751786
1715675898748492292,0.315,,,,15.612446572
1715675898756187078,0.856,,,,15.620141358
1715675898763881864,1.334,,,,15.627836144
1715675898771576650,1.387,,,,15.63553093
1715675898779271436,0.839,,,,15.643225716
1715675898786966222,0.158,,,,15.650920502
1715675898794661008,-0.014,,,,15.658615288
1715675898802355794,0.067,,,,15.666310074
1715675898810050580,-0.004,,,,15.67400486
1715675898817745366,-0.06,,,,15.681699646
1715675898825440152,-0.016,,,,15.689394432
1715675898833134938,-0.016,,,,15.697089218
1715675898840829724,-0.036,,,,15.704784004
1715675898848524510,-0.016,,,,15.71247879
1715675898856219296,-0.004,,,,15.720173576
1715675898863914098,-0.007,80.0,,,15.727868378
1715675898871608814,0.007,,,,15.735563094
1715675898879303530,0.019,,,,15.74325781
1715675898886998246,0.016,,,,15.750952526
1715675898894692962,0.021,,,,15.758647242
1715675898902387678,0.036,,,,15.766341958
1715675898910082394,0.048,,,,15.774036674
1715675898917777110,0.057,,,,15.78173139
1715675898925471826,0.067,,,,15.789426106
1715675898933166542,0.069,,,,15.797120822
1715675898940861258,0.076,,,,15.804815538
1715675898948555974,0.086,,,,15.812510254
1715675898956250690,0.086,,,,15.82020497
1715675898963945406,0.093,,,,15.827899686
1715675898971640122,0.101,,,,15.835594402
1715675898979334838,0.098,,,,15.843289118
1715675898987029554,0.098,,,,15.850983834
1715675898994724270,0.103,,,,15.85867855
1715675899002418986,0.103,,,,15.866373266
1715675899010113702,0.098,,,,15.874067982
1715675899017808418,0.093,,,,15.881762698
1715675899025503134,0.084,,,,15.889457414
1715675899033197850,0.076,,,,15.89715213
1715675899040892566,0.067,,,,15.904846846
1715675899048587282,0.06,,,,15.912541562
1715675899056281998,0.055,,,,15.920236278
1715675899063976714,0.052,,,,15.927930994
1715675899071671430,0.048,,,,15.93562571
1715675899079366146,0.045,,,,15.943320426
1715675899087060862,0.05,,,,15.951015142
1715675899094755578,0.055,,,,15.958709858
1715675899102450294,0.06,,,,15.966404574
1715675899110145010,0.062,,,,15.97409929
1715675899117839726,0.069,,,,15.981794006
1715675899125534442,0.076,,,,15.989488722
1715675899133229158,0.079,,,,15.997183438
1715675899140923874,0.081,,,,16.004878154
1715675899148618590,0.086,,,,16.01257287
1715675899156313306,0.088,,,,16.020267586
1715675899164008022,0.086,,,,16.027962302
1715675899171702738,0.088,,,,16.035657018
1715675899179397454,0.088,,,,16.043351734
1715675899187092170,0.084,,,,16.05104645
1715675899194786886,0.079,,,,16.058741166
1715675899202481602,0.081,,,,16.066435882
1715675899210176318,0.081,,,,16.074130598
1715675899217871034,0.079,,,,16.081825314
1715675899225565750,0.074,,,,16.08952003
1715675899233260466,0.074,,,,16.097214746
1715675899240955182,0.076,,,,16.104909462
1715675899248649898,0.072,,,,16.112604178
1715675899256344614,0.072,,,,16.120298894
1715675899264039330,0.076,,,,16.12799361
1715675899271734046,0.076,,747.0,,16.135688326
1715675899279428762,0.079,,,,16.143383042
1715675899287123478,0.079,,,,16.151077758
1715675899294818194,0.079,,,,16.158772474
1715675899302512910,0.079,,,,16.16646719
1715675899310207626,0.079,,,,16.174161906
1715675899317902342,0.084,,,,16.181856622
1715675899325597058,0.086,,,,16.189551338
1715675899333291774,0.086,,,,16.197246054
1715675899340986490,0.084,,,,16.20494077
1715675899348681206,0.079,,,,16.212635486
1715675899356375922,0.064,,,,16.220330202
1715675899364070638,0.05,,,,16.228024918
1715675899371765354,0.043,,,,16.235719634
1715675899379460070,0.043,,,,16.24341435
1715675899387154786,0.048,,,,16.251109066
1715675899394849502,0.074,,,,16.258803782
1715675899402544218,0.108,,,,16.266498498
1715675899410238934,0.122,,,,16.274193214
1715675899417933650,0.113,,,,16.28188793
1715675899425628408,0.096,,,,16.289582688
1715675899433322845,0.076,,,,16.297277125
1715675899441017282,0.069,,,,16.304971562
1715675899448711719,0.074,,,,16.312665999
1715675899456406156,0.072,,,,16.320360436
1715675899464100593,0.038,,,,16.328054873
1715675899471795030,-0.019,,,,16.33574931
1715675899479489467,0.057,,,,16.343443747
1715675899487183904,0.44,,,,16.351138184
1715675899494878341,0.988,,,,16.358832621
1715675899502572778,1.377,,,,16.366527058
1715675899510267215,1.252,,,,16.374221495
1715675899517961652,0.584,,,,16.381915932
1715675899525656089,0.024,,,,16.389610369
1715675899533350526,-0.009,,,,16.397304806
1715675899541044963,0.038,,,,16.404999243
1715675899548739400,-0.06,,,,16.41269368
1715675899556433837,-0.079,,,,16.420388117
1715675899564128274,-0.038,,,,16.428082554
1715675899571822711,-0.05,,,,16.435776991
1715675899579517148,-0.06,,,,16.443471428
1715675899587211585,-0.038,,,,16.451165865
1715675899594906022,-0.028,,,,16.458860302
1715675899602600459,-0.024,,,,16.466554739
1715675899610294896,-0.012,,,,16.474249176
1715675899617989333,-0.002,,,,16.481943613
1715675899625683770,0.002,,,,16.48963805
1715675899633378207,0.014,,,,16.497332487
1715675899641072644,0.026,,,,16.505026924
1715675899648767081,0.033,,,,16.512721361
1715675899656461518,0.045,,,,16.520415798
1715675899664155955,0.057,,,,16.528110235
1715675899671850392,0.064,,,,16.535804672
1715675899679544829,0.072,,,,16.543499109
1715675899687239266,0.081,,,,16.551193546
1715675899694933703,0.088,,,,16.558887983
1715675899702628140,0.091,,,,16.56658242
1715675899710322577,0.098,,,,16.574276857
1715675899718017014,0.103,,,,16.581971294
1715675899725711451,0.101,,,,16.589665731
1715675899733405888,0.098,,,,16.597360168
1715675899741100325,0.098,,,,16.605054605
1715675899748794762,0.098,,,,16.612749042
1715675899756489199,0.093,,,,16.620443479
1715675899764183636,0.079,,,,16.628137916
1715675899771878073,0.069,,,,16.635832353
1715675899779572510,0.064,,,,16.64352679
1715675899787266947,0.055,,,,16.651221227
1715675899794961384,0.04,,,,16.658915664
1715675899802655821,0.036,,,,16.666610101
1715675899810350258,0.038,,,,16.674304538
1715675899818044695,0.036,,,,16.681998975
1715675899825739132,0.033,,,,16.689693412
1715675899833433569,0.043,,,,16.697387849
1715675899841128006,0.048,,,,16.705082286
1715675899848822443,0.048,,,,16.712776723
1715675899856516880,0.05,,,,16.72047116
1715675899864211317,0.06,,,,16.728165597
1715675899871905754,0.064,,,,16.735860034
1715675899879600191,0.067,,,,16.743554471
1715675899887294628,0.069,,,,16.751248908
1715675899894989065,0.072,,,,16.758943345
1715675899902683502,0.074,,,,16.766637782
1715675899910377939,0.076,,,,16.774332219
1715675899918072376,0.074,,,,16.782026656
1715675899925766813,0.067,,,,16.789721093
1715675899933461250,0.067,,,,16.79741553
1715675899941155687,0.067,,,,16.805109967
1715675899948850124,0.064,,,,16.812804404
1715675899956544561,0.064,,,,16.820498841
1715675899964238998,0.057,,,,16.828193278
1715675899971933435,0.045,,,,16.835887715
1715675899979627872,0.048,,,,16.843582152
1715675899987322370,0.052,81.0,,,16.85127665
1715675899995017156,0.048,,,,16.858971436
1715675900002711942,0.045,,734.0,,16.866666222
1715675900010406728,0.05,,,,16.874361008
1715675900018101514,0.055,,,,16.882055794
1715675900025796300,0.055,,,,16.88975058
1715675900033491086,0.057,,,,16.897445366
1715675900041185872,0.057,,,,16.905140152
1715675900048880658,0.062,,,,16.912834938
1715675900056575444,0.062,,,,16.920529724
1715675900064270230,0.057,,,,16.92822451
1715675900071965016,0.057,,,,16.935919296
1715675900079659802,0.055,,,,16.943614082
1715675900087354588,0.036,,,,16.951308868
1715675900095049374,0.019,,,,16.959003654
1715675900102744160,0.019,,,,16.96669844
1715675900110438946,0.021,,,,16.974393226
1715675900118133732,0.033,,,,16.982088012
1715675900125828518,0.06,,,,16.989782798
1715675900133523304,0.088,,,,16.997477584
1715675900141218090,0.101,,,,17.00517237
1715675900148912876,0.088,,,,17.012867156
1715675900156607662,0.069,,,,17.020561942
1715675900164302448,0.055,,,,17.028256728
1715675900171997234,0.05,,,,17.035951514
1715675900179692020,0.05,,,,17.0436463
1715675900187386806,0.048,,,,17.051341086
1715675900195081592,0.024,,,,17.059035872
1715675900202776378,-0.026,,,,17.066730658
1715675900210471164,0.084,,,,17.074425444
1715675900218165950,0.5,,,,17.08212023
1715675900225860736,1.029,,,,17.089815016
1715675900233555522,1.351,,,,17.097509802
1715675900241250308,1.147,,,,17.105204588
1715675900248945094,0.471,,,,17.112899374
1715675900256639880,0.004,,,,17.12059416
1715675900264334666,0.014,,,,17.128288946
1715675900272029452,0.026,,,,17.135983732
1715675900279724238,-0.069,,,,17.143678518
1715675900287419024,-0.062,,,,17.151373304
1715675900295113810,-0.031,,,,17.15906809
1715675900302808596,-0.055,,,,17.166762876
1715675900310503382,-0.055,,,,17.174457662
1715675900318198168,-0.028,,,,17.182152448
1715675900325892954,-0.026,,,,17.189847234
1715675900333587740,-0.026,,,,17.19754202
1715675900341282526,-0.014,,,,17.205236806
1715675900348977312,0.0,,,,17.212931592
1715675900356672098,0.007,,,,17.220626378
1715675900364366884,0.014,,,,17.228321164
1715675900372061670,0.028,,,,17.23601595
1715675900379756456,0.045,,,,17.243710736
1715675900387451242,0.052,,,,17.251405522
1715675900395146028,0.06,,,,17.259100308
1715675900402840814,0.072,,,,17.266795094
1715675900410535600,0.081,,,,17.27448988
1715675900418230386,0.084,,,,17.282184666
1715675900425925172,0.088,,,,17.289879452
1715675900433619958,0.101,,,,17.297574238
1715675900441314744,0.105,,,,17.305269024
1715675900449009530,0.105,,,,17.31296381
1715675900456704316,0.105,,,,17.320658596
1715675900464399102,0.108,,,,17.328353382
1715675900472093888,0.101,,,,17.336048168
1715675900479788674,0.084,,,,17.343742954
1715675900487483460,0.072,,,,17.35143774
1715675900495178246,0.062,,,,17.359132526
1715675900502873032,0.052,,,,17.366827312
1715675900510567818,0.043,,,,17.374522098
1715675900518262604,0.036,,,,17.382216884
1715675900525957390,0.028,,,,17.38991167
1715675900533652176,0.026,,,,17.397606456
1715675900541346962,0.024,,,,17.405301242
1715675900549041764,0.021,,,,17.412996044
1715675900556736550,0.024,,,,17.42069083
1715675900564431336,0.028,,,,17.428385616
1715675900572126122,0.033,,,,17.436080402
1715675900579820908,0.04,,,,17.443775188
1715675900587515694,0.048,,,,17.451469974
1715675900595210480,0.048,,,,17.45916476
1715675900602905266,0.045,,,,17.466859546
1715675900610600052,0.05,,,,17.474554332
1715675900618294838,0.06,,,,17.482249118
1715675900625989624,0.062,,,,17.489943904
1715675900633684410,0.06,,,,17.49763869
1715675900641379196,0.064,,,,17.505333476
1715675900649073982,0.067,,,,17.513028262
1715675900656768768,0.064,,,,17.520723048
1715675900664463554,0.064,,,,17.528417834
1715675900672158340,0.069,,,,17.53611262
1715675900679853126,0.069,,,,17.543807406
1715675900687547912,0.069,,,,17.551502192
1715675900695242698,0.069,,,,17.559196978
1715675900702937484,0.072,,,,17.566891764
1715675900710632270,0.074,,,,17.57458655
1715675900718327056,0.074,,,,17.582281336
1715675900726021842,0.072,,,,17.589976122
1715675900733716628,0.069,,725.0,,17.597670908
1715675900741411414,0.074,,,,17.605365694
1715675900749106200,0.079,,,,17.61306048
1715675900756800986,0.079,,,,17.620755266
1715675900764495772,0.076,,,,17.628450052
1715675900772190558,0.079,,,,17.636144838
1715675900779885344,0.084,,,,17.643839624
1715675900787580130,0.081,,,,17.65153441
1715675900795274916,0.084,,,,17.659229196
1715675900802969702,0.091,,,,17.666923982
1715675900810664488,0.088,,,,17.674618768
1715675900818359274,0.076,,,,17.682313554
1715675900826054060,0.06,,,,17.69000834
1715675900833748846,0.05,,,,17.697703126
1715675900841443632,0.048,,,,17.705397912
1715675900849138418,0.048,,,,17.713092698
1715675900856833204,0.062,,,,17.720787484
1715675900864527990,0.093,,,,17.72848227
1715675900872222776,0.113,,,,17.736177056
1715675900879917562,0.12,,,,17.743871842
1715675900887612348,0.127,,,,17.751566628
1715675900895307134,0.12,,,,17.759261414
1715675900903001920,0.098,,,,17.7669562
1715675900910696706,0.081,,,,17.774650986
1715675900918391492,0.084,,,,17.782345772
1715675900926086278,0.084,,,,17.790040558
1715675900933781064,0.05,,,,17.797735344
1715675900941475850,0.004,,,,17.80543013
1715675900949170636,0.137,,,,17.813124916
1715675900956865422,0.55,,,,17.820819702
1715675900964560208,1.053,,,,17.828514488
1715675900972254994,1.341,,,,17.836209274
1715675900979949780,1.106,,,,17.84390406
1715675900987644566,0.447,,,,17.851598846
1715675900995339352,0.043,,,,17.859293632
1715675901003034138,0.052,,,,17.866988418
1715675901010728924,0.033,,,,17.874683204
1715675901018423710,-0.045,,,,17.88237799
1715675901026118496,-0.028,,,,17.890072776
1715675901033813282,-0.012,,,,17.897767562
1715675901041508068,-0.028,,,,17.905462348
1715675901049202854,-0.021,,,,17.913157134
1715675901056897640,-0.002,,,,17.92085192
1715675901064592426,0.002,,,,17.928546706
1715675901072287212,0.002,,,,17.936241492
1715675901079981998,0.012,,,,17.943936278
1715675901087676784,0.028,,,,17.951631064
1715675901095371570,0.038,,,,17.95932585
1715675901103066356,0.045,,,,17.967020636
1715675901110761158,0.052,81.0,,,17.974715438
1715675901118455944,0.062,,,,17.982410224
1715675901126150730,0.074,,,,17.99010501
1715675901133845516,0.084,,,,17.997799796
1715675901141540302,0.091,,,,18.005494582
1715675901149235088,0.103,,,,18.013189368
1715675901156929874,0.108,,,,18.020884154
1715675901164624660,0.113,,,,18.02857894
1715675901172319446,0.117,,,,18.036273726
1715675901180014232,0.117,,,,18.043968512
1715675901187709018,0.117,,,,18.051663298
1715675901195403804,0.12,,,,18.059358084
1715675901203098590,0.122,,,,18.06705287
1715675901210793376,0.12,,,,18.074747656
1715675901218488162,0.117,,,,18.082442442
1715675901226182948,0.11,,,,18.090137228
1715675901233877734,0.093,,,,18.097832014
1715675901241572520,0.076,,,,18.1055268
1715675901249267306,0.074,,,,18.113221586
1715675901256962092,0.072,,,,18.120916372
1715675901264656878,0.062,,,,18.128611158
1715675901272351664,0.06,,,,18.136305944
1715675901280046450,0.06,,,,18.14400073
1715675901287741236,0.052,,,,18.151695516
1715675901295436022,0.045,,,,18.159390302
1715675901303130808,0.048,,,,18.167085088
1715675901310825594,0.052,,,,18.174779874
1715675901318520380,0.057,,,,18.18247466
1715675901326215166,0.064,,,,18.190169446
1715675901333909952,0.072,,,,18.197864232
1715675901341604738,0.076,,,,18.205559018
1715675901349299524,0.079,,,,18.213253804
1715675901356994310,0.086,,,,18.22094859
1715675901364689096,0.098,,,,18.228643376
1715675901372383882,0.093,,,,18.236338162
1715675901380078668,0.079,,,,18.244032948
1715675901387773454,0.079,,,,18.251727734
1715675901395468240,0.086,,,,18.25942252
1715675901403163026,0.084,,,,18.267117306
1715675901410857812,0.079,,,,18.274812092
1715675901418552598,0.081,,,,18.282506878
1715675901426247384,0.086,,,,18.290201664
1715675901433942170,0.086,,,,18.29789645
1715675901441636956,0.079,,,,18.305591236
1715675901449331742,0.076,,721.0,,18.313286022
1715675901457026528,0.076,,,,18.320980808
1715675901464721314,0.072,,,,18.328675594
1715675901472416100,0.067,,,,18.33637038
1715675901480110886,0.064,,,,18.344065166
1715675901487805672,0.062,,,,18.351759952
1715675901495500458,0.06,,,,18.359454738
1715675901503195244,0.064,,,,18.367149524
1715675901510890030,0.069,,,,18.37484431
1715675901518584816,0.067,,,,18.382539096
1715675901526279602,0.057,,,,18.390233882
1715675901533974388,0.043,,,,18.397928668
1715675901541669174,0.033,,,,18.405623454
1715675901549363960,0.036,,,,18.41331824
1715675901557058746,0.028,,,,18.421013026
1715675901564753532,0.031,,,,18.428707812
1715675901572448318,0.062,,,,18.436402598
1715675901580143104,0.101,,,,18.444097384
1715675901587837890,0.11,,,,18.45179217
1715675901595532676,0.108,,,,18.459486956
1715675901603227462,0.096,,,,18.467181742
1715675901610922248,0.072,,,,18.474876528
1715675901618617034,0.062,,,,18.482571314
1715675901626311820,0.074,,,,18.4902661
1715675901634006606,0.076,,,,18.497960886
1715675901641701392,0.055,,,,18.505655672
1715675901649396178,-0.004,,,,18.513350458
1715675901657090964,0.009,,,,18.521045244
1715675901664785750,0.303,,,,18.52874003
1715675901672480552,0.808,,,,18.536434832
1715675901680175338,1.233,,,,18.544129618
1715675901687870124,1.276,,,,18.551824404
1715675901695564910,0.771,,,,18.55951919
1715675901703259696,0.173,,,,18.567213976
1715675901710954482,0.012,,,,18.574908762
1715675901718649268,0.05,,,,18.582603548
1715675901726344054,-0.014,,,,18.590298334
1715675901734038840,-0.048,,,,18.59799312
1715675901741733626,-0.021,,,,18.605687906
1715675901749428412,-0.028,,,,18.613382692
1715675901757123198,-0.038,,,,18.621077478
1715675901764817984,-0.019,,,,18.628772264
1715675901772512770,-0.014,,,,18.63646705
1715675901780207556,-0.014,,,,18.644161836
1715675901787902342,0.0,,,,18.651856622
1715675901795597128,0.014,,,,18.659551408
1715675901803291914,0.024,,,,18.667246194
1715675901810986700,0.036,,,,18.67494098
1715675901818681486,0.043,,,,18.682635766
1715675901826376272,0.055,,,,18.690330552
1715675901834071058,0.067,,,,18.698025338
1715675901841765844,0.079,,,,18.705720124
1715675901849460630,0.086,,,,18.71341491
1715675901857155416,0.098,,,,18.721109696
1715675901864850202,0.11,,,,18.728804482
1715675901872544988,0.117,,,,18.736499268
1715675901880239774,0.132,,,,18.744194054
1715675901887934560,0.134,,,,18.75188884
1715675901895629346,0.122,,,,18.759583626
1715675901903324132,0.122,,,,18.767278412
1715675901911018918,0.132,,,,18.774973198
1715675901918713704,0.129,,,,18.782667984
1715675901926408490,0.117,,,,18.79036277
1715675901934103276,0.108,,,,18.798057556
1715675901941798062,0.096,,,,18.805752342
1715675901949492848,0.081,,,,18.813447128
1715675901957187634,0.072,,,,18.821141914
1715675901964882420,0.062,,,,18.8288367
1715675901972577206,0.052,,,,18.836531486
1715675901980271992,0.048,,,,18.844226272
1715675901987966778,0.036,,,,18.851921058
1715675901995661564,0.024,,,,18.859615844
1715675902003356350,0.026,,,,18.86731063
1715675902011051136,0.036,,,,18.875005416
1715675902018745922,0.036,,,,18.882700202
1715675902026440708,0.04,,,,18.890394988
1715675902034135494,0.05,,,,18.898089774
1715675902041830280,0.057,,,,18.90578456
1715675902049525066,0.067,,,,18.913479346
1715675902057219852,0.067,,,,18.921174132
1715675902064914638,0.062,,,,18.928868918
1715675902072609424,0.067,,,,18.936563704
1715675902080304210,0.079,,,,18.94425849
1715675902087998996,0.086,,,,18.951953276
1715675902095693782,0.088,,,,18.959648062
1715675902103388568,0.088,,,,18.967342848
1715675902111083354,0.086,,,,18.975037634
1715675902118778140,0.088,,,,18.98273242
1715675902126472926,0.088,,,,18.990427206
1715675902134167712,0.084,,,,18.998121992
1715675902141862498,0.076,,,,19.005816778
1715675902149557284,0.076,,,,19.013511564
1715675902157252070,0.079,,,,19.02120635
1715675902164946856,0.076,,,,19.028901136
1715675902172641642,0.076,,,,19.036595922
1715675902180336428,0.081,,729.0,,19.044290708
1715675902188031214,0.084,,,,19.051985494
1715675902195726000,0.084,,,,19.05968028
1715675902203420786,0.081,,,,19.067375066
1715675902211115572,0.081,,,,19.075069852
1715675902218810358,0.086,,,,19.082764638
1715675902226505144,0.086,,,,19.090459424
1715675902234199946,0.079,81.0,,,19.098154226
1715675902241894314,0.074,,,,19.105848594
1715675902249588682,0.064,,,,19.113542962
1715675902257283050,0.052,,,,19.12123733
1715675902264977418,0.05,,,,19.128931698
1715675902272671786,0.069,,,,19.136626066
1715675902280366154,0.098,,,,19.144320434
1715675902288060522,0.12,,,,19.152014802
1715675902295754890,0.134,,,,19.15970917
1715675902303449258,0.125,,,,19.167403538
1715675902311143626,0.091,,,,19.175097906
1715675902318837994,0.069,,,,19.182792274
1715675902326532362,0.074,,,,19.190486642
1715675902334226730,0.081,,,,19.19818101
1715675902341921098,0.072,,,,19.205875378
1715675902349615466,0.033,,,,19.213569746
1715675902357309834,-0.009,,,,19.221264114
1715675902365004202,0.125,,,,19.228958482
1715675902372698570,0.538,,,,19.23665285
1715675902380392938,1.043,,,,19.244347218
1715675902388087306,1.327,,,,19.252041586
1715675902395781674,1.072,,,,19.259735954
1715675902403476042,0.423,,,,19.267430322
1715675902411170410,0.038,,,,19.27512469
1715675902418864778,0.057,,,,19.282819058
1715675902426559146,0.038,,,,19.290513426
1715675902434253514,-0.052,,,,19.298207794
1715675902441947882,-0.04,,,,19.305902162
1715675902449642250,-0.019,,,,19.31359653
1715675902457336618,-0.038,,,,19.321290898
1715675902465030986,-0.036,,,,19.328985266
1715675902472725354,-0.016,,,,19.336679634
1715675902480419722,-0.016,,,,19.344374002
1715675902488114090,-0.012,,,,19.35206837
1715675902495808458,-0.007,,,,19.359762738
1715675902503502826,-0.009,,,,19.367457106
1715675902511197194,0.007,,,,19.375151474
1715675902518891562,0.028,,,,19.382845842
1715675902526585930,0.033,,,,19.39054021
1715675902534280298,0.04,,,,19.398234578
1715675902541974666,0.057,,,,19.405928946
1715675902549669034,0.064,,,,19.413623314
1715675902557363402,0.076,,,,19.421317682
1715675902565057770,0.096,,,,19.42901205
1715675902572752138,0.103,,,,19.436706418
1715675902580446506,0.105,,,,19.444400786
1715675902588140874,0.113,,,,19.452095154
1715675902595835242,0.122,,,,19.459789522
1715675902603529610,0.125,,,,19.46748389
1715675902611223978,0.122,,,,19.475178258
1715675902618918346,0.122,,,,19.482872626
1715675902626612714,0.122,,,,19.490566994
1715675902634307082,0.108,,,,19.498261362
1715675902642001450,0.093,,,,19.50595573
1715675902649695818,0.081,,,,19.513650098
1715675902657390186,0.067,,,,19.521344466
1715675902665084554,0.055,,,,19.529038834
1715675902672778922,0.048,,,,19.536733202
1715675902680473290,0.043,,,,19.54442757
1715675902688167658,0.043,,,,19.552121938
1715675902695862026,0.04,,,,19.559816306
1715675902703556394,0.036,,,,19.567510674
1715675902711250762,0.038,,,,19.575205042
1715675902718945130,0.043,,,,19.58289941
1715675902726639498,0.048,,,,19.590593778
1715675902734333866,0.055,,,,19.598288146
1715675902742028234,0.064,,,,19.605982514
1715675902749722602,0.072,,,,19.613676882
1715675902757416970,0.074,,,,19.62137125
1715675902765111338,0.076,,,,19.629065618
1715675902772805706,0.086,,,,19.636759986
1715675902780500074,0.088,,,,19.644454354
1715675902788194442,0.088,,,,19.652148722
1715675902795888824,0.088,81.0,,,19.659843104
1715675902803583888,0.091,,,,19.667538168
1715675902811278952,0.093,,,,19.675233232
1715675902818974016,0.093,,,,19.682928296
1715675902826669080,0.091,,,,19.69062336
1715675902834364144,0.091,,,,19.698318424
1715675902842059208,0.091,,,,19.706013488
1715675902849754272,0.091,,,,19.713708552
1715675902857449336,0.093,,,,19.721403616
1715675902865144400,0.093,,,,19.72909868
1715675902872839464,0.086,,,,19.736793744
1715675902880534528,0.076,,,,19.744488808
1715675902888229592,0.069,,,,19.752183872
1715675902895924656,0.074,,,,19.759878936
1715675902903619720,0.079,,,,19.767574
1715675902911314784,0.074,,,,19.775269064
1715675902919009848,0.076,,736.0,,19.782964128
1715675902926704912,0.081,,,,19.790659192
1715675902934399976,0.081,,,,19.798354256
1715675902942095040,0.074,,,,19.80604932
1715675902949790104,0.064,,,,19.813744384
1715675902957485168,0.057,,,,19.821439448
1715675902965180232,0.05,,,,19.829134512
1715675902972875296,0.052,,,,19.836829576
1715675902980570360,0.074,,,,19.84452464
1715675902988265424,0.108,,,,19.852219704
1715675902995960488,0.137,,,,19.859914768
1715675903003655552,0.134,,,,19.867609832
1715675903011350616,0.12,,,,19.875304896
1715675903019045680,0.105,,,,19.88299996
1715675903026740744,0.079,,,,19.890695024
1715675903034435808,0.067,,,,19.898390088
1715675903042130872,0.076,,,,19.906085152
1715675903049825936,0.074,,,,19.913780216
1715675903057521000,0.043,,,,19.92147528
1715675903065216064,0.0,,,,19.929170344
1715675903072911128,0.103,,,,19.936865408
1715675903080606192,0.48,,,,19.944560472
1715675903088301256,0.969,,,,19.952255536
1715675903095996320,1.279,,,,19.9599506
1715675903103691384,1.101,,,,19.967645664
1715675903111386448,0.49,,,,19.975340728
1715675903119081512,0.074,,,,19.983035792
1715675903126776576,0.06,,,,19.990730856
1715675903134471640,0.04,,,,19.99842592
1715675903142166704,-0.04,,,,20.006120984
1715675903149861768,-0.033,,,,20.013816048
1715675903157556832,-0.014,,,,20.021511112
1715675903165251896,-0.033,,,,20.029206176
1715675903172946960,-0.031,,,,20.03690124
1715675903180642024,-0.016,,,,20.044596304
1715675903188337088,-0.014,,,,20.052291368
1715675903196032152,-0.007,,,,20.059986432
1715675903203727216,0.007,,,,20.067681496
1715675903211422280,0.014,,,,20.07537656
1715675903219117344,0.019,,,,20.083071624
1715675903226812408,0.031,,,,20.090766688
1715675903234507472,0.045,,,,20.098461752
1715675903242202536,0.052,,,,20.106156816
1715675903249897600,0.06,,,,20.11385188
1715675903257592664,0.076,,,,20.121546944
1715675903265287728,0.093,,,,20.129242008
1715675903272982792,0.101,,,,20.136937072
1715675903280677856,0.108,,,,20.144632136
1715675903288372920,0.117,,,,20.1523272
1715675903296067984,0.122,,,,20.160022264
1715675903303763048,0.12,,,,20.167717328
1715675903311458112,0.129,,,,20.175412392
1715675903319153176,0.139,,,,20.183107456
1715675903326848240,0.129,,,,20.19080252
1715675903334543304,0.125,,,,20.198497584
1715675903342238368,0.122,,,,20.206192648
1715675903349933432,0.11,,,,20.213887712
1715675903357628564,0.098,,,,20.221582844
1715675903365323489,0.084,,,,20.229277769
1715675903373018414,0.064,,,,20.236972694
1715675903380713339,0.055,,,,20.244667619
1715675903388408264,0.045,,,,20.252362544
1715675903396103189,0.04,,,,20.260057469
1715675903403798114,0.04,,,,20.267752394
1715675903411493039,0.04,,,,20.275447319
1715675903419187964,0.033,,,,20.283142244
1715675903426882889,0.026,,,,20.290837169
1715675903434577814,0.036,,,,20.298532094
1715675903442272739,0.05,,,,20.306227019
1715675903449967664,0.048,,,,20.313921944
1715675903457662589,0.045,,,,20.321616869
1715675903465357514,0.057,,,,20.329311794
1715675903473052439,0.064,,,,20.337006719
1715675903480747364,0.069,,,,20.344701644
1715675903488442289,0.074,,,,20.352396569
1715675903496137214,0.079,,,,20.360091494
1715675903503832139,0.074,,,,20.367786419
1715675903511527064,0.067,,,,20.375481344
1715675903519221989,0.069,,,,20.383176269
1715675903526916914,0.076,,,,20.390871194
1715675903534611839,0.074,,,,20.398566119
1715675903542306764,0.074,,,,20.406261044
1715675903550001689,0.074,,,,20.413955969
1715675903557696614,0.076,,,,20.421650894
1715675903565391539,0.081,,,,20.429345819
1715675903573086464,0.079,,,,20.437040744
1715675903580781389,0.074,,,,20.444735669
1715675903588476314,0.074,,,,20.452430594
1715675903596171239,0.074,,,,20.460125519
1715675903603866164,0.079,,,,20.467820444
1715675903611561089,0.081,,,,20.475515369
1715675903619256014,0.074,,,,20.483210294
1715675903626950939,0.074,,,,20.490905219
1715675903634645864,0.076,,,,20.498600144
1715675903642340789,0.081,,,,20.506295069
1715675903650035714,0.081,,730.0,,20.513989994
1715675903657730639,0.081,,,,20.521684919
1715675903665425564,0.081,,,,20.529379844
1715675903673120489,0.079,,,,20.537074769
1715675903680815414,0.076,,,,20.544769694
1715675903688510339,0.064,,,,20.552464619
1715675903696205264,0.057,,,,20.560159544
1715675903703900189,0.057,,,,20.567854469
1715675903711595114,0.057,,,,20.575549394
1715675903719290039,0.084,,,,20.583244319
1715675903726984964,0.125,,,,20.590939244
1715675903734679889,0.141,,,,20.598634169
1715675903742374814,0.139,,,,20.606329094
1715675903750069739,0.134,,,,20.614024019
1715675903757764664,0.108,,,,20.621718944
1715675903765459589,0.084,,,,20.629413869
1715675903773154514,0.091,,,,20.637108794
1715675903780849439,0.098,,,,20.644803719
1715675903788544364,0.084,,,,20.652498644
1715675903796239289,0.057,,,,20.660193569
1715675903803934214,0.012,,,,20.667888494
1715675903811629139,0.091,,,,20.675583419
1715675903819324064,0.435,,,,20.683278344
1715675903827018989,0.901,,,,20.690973269
1715675903834713914,1.224,,,,20.698668194
1715675903842408839,1.094,,,,20.706363119
1715675903850103764,0.533,,,,20.714058044
1715675903857798689,0.12,,,,20.721752969
1715675903865493614,0.076,,,,20.729447894
1715675903873188539,0.05,,,,20.737142819
1715675903880883464,-0.028,,,,20.744837744
1715675903888578389,-0.026,,,,20.752532669
1715675903896273314,-0.009,,,,20.760227594
1715675903903968239,-0.024,,,,20.767922519
1715675903911663164,-0.021,,,,20.775617444
1715675903919358130,-0.007,81.0,,,20.78331241
1715675903927052916,-0.004,,,,20.791007196
1715675903934747702,0.002,,,,20.798701982
1715675903942442488,0.016,,,,20.806396768
1715675903950137274,0.024,,,,20.814091554
1715675903957832060,0.031,,,,20.82178634
1715675903965526846,0.036,,,,20.829481126
1715675903973221632,0.043,,,,20.837175912
1715675903980916418,0.06,,,,20.844870698
1715675903988611204,0.067,,,,20.852565484
1715675903996305990,0.064,,,,20.86026027
1715675904004000776,0.081,,,,20.867955056
1715675904011695562,0.096,,,,20.875649842
1715675904019390348,0.091,,,,20.883344628
1715675904027085134,0.096,,,,20.891039414
1715675904034779920,0.113,,,,20.8987342
1715675904042474706,0.117,,,,20.906428986
1715675904050169492,0.12,,,,20.914123772
1715675904057864278,0.122,,,,20.921818558
1715675904065559064,0.125,,,,20.929513344
1715675904073253850,0.12,,,,20.93720813
1715675904080948636,0.113,,,,20.944902916
1715675904088643422,0.103,,,,20.952597702
1715675904096338208,0.093,,,,20.960292488
1715675904104032994,0.076,,,,20.967987274
1715675904111727780,0.057,,,,20.97568206
1715675904119422566,0.048,,,,20.983376846
1715675904127117352,0.043,,,,20.991071632
1715675904134812138,0.036,,,,20.998766418
1715675904142506924,0.031,,,,21.006461204
1715675904150201710,0.028,,,,21.01415599
1715675904157896496,0.036,,,,21.021850776
1715675904165591282,0.04,,,,21.029545562
1715675904173286068,0.038,,,,21.037240348
1715675904180980854,0.04,,,,21.044935134
1715675904188675640,0.048,,,,21.05262992
1715675904196370426,0.052,,,,21.060324706
1715675904204065212,0.052,,,,21.068019492
1715675904211759998,0.057,,,,21.075714278
1715675904219454784,0.069,,,,21.083409064
1715675904227149570,0.074,,,,21.09110385
1715675904234844356,0.074,,,,21.098798636
1715675904242539142,0.074,,,,21.106493422
1715675904250233928,0.076,,,,21.114188208
1715675904257928714,0.079,,,,21.121882994
1715675904265623500,0.079,,,,21.12957778
1715675904273318286,0.081,,,,21.137272566
1715675904281013072,0.086,,,,21.144967352
1715675904288707858,0.079,,,,21.152662138
1715675904296402644,0.069,,,,21.160356924
1715675904304097430,0.072,,,,21.16805171
1715675904311792216,0.076,,,,21.175746496
1715675904319487002,0.072,,,,21.183441282
1715675904327181788,0.067,,,,21.191136068
1715675904334876574,0.069,,,,21.198830854
1715675904342571360,0.072,,,,21.20652564
1715675904350266146,0.069,,,,21.214220426
1715675904357960932,0.062,,,,21.221915212
1715675904365655718,0.062,,,,21.229609998
1715675904373350504,0.062,,,,21.237304784
1715675904381045290,0.06,,,,21.24499957
1715675904388740076,0.064,,738.0,,21.252694356
1715675904396434862,0.067,,,,21.260389142
1715675904404129648,0.064,,,,21.268083928
1715675904411824434,0.067,,,,21.275778714
1715675904419519220,0.067,,,,21.2834735
1715675904427214006,0.064,,,,21.291168286
1715675904434908792,0.067,,,,21.298863072
1715675904442603578,0.069,,,,21.306557858
1715675904450298364,0.064,,,,21.314252644
1715675904457993150,0.064,,,,21.32194743
1715675904465687936,0.064,,,,21.329642216
1715675904473382722,0.052,,,,21.337337002
1715675904481077524,0.036,,,,21.345031804
1715675904488772379,0.033,,,,21.352726659
1715675904496467234,0.031,,,,21.360421514
1715675904504162089,0.031,,,,21.368116369
1715675904511856944,0.052,,,,21.375811224
1715675904519551799,0.074,,,,21.383506079
1715675904527246654,0.074,,,,21.391200934
1715675904534941509,0.069,,,,21.398895789
1715675904542636364,0.064,,,,21.406590644
1715675904550331219,0.045,,,,21.414285499
1715675904558026074,0.026,,,,21.421980354
1715675904565720929,0.026,,,,21.429675209
1715675904573415784,0.033,,,,21.437370064
1715675904581110639,0.026,,,,21.445064919
1715675904588805494,-0.024,,,,21.452759774
1715675904596500349,-0.057,,,,21.460454629
1715675904604195204,0.125,,,,21.468149484
1715675904611890059,0.581,,,,21.475844339
1715675904619584914,1.091,,,,21.483539194
1715675904627279769,1.305,,,,21.491234049
1715675904634974624,0.949,,,,21.498928904
1715675904642669479,0.307,,,,21.506623759
1715675904650364334,0.016,,,,21.514318614
1715675904658059189,0.048,,,,21.522013469
1715675904665754044,-0.004,,,,21.529708324
1715675904673448899,-0.088,,,,21.537403179
1715675904681143754,-0.064,,,,21.545098034
1715675904688838609,-0.055,,,,21.552792889
1715675904696533464,-0.079,,,,21.560487744
1715675904704228319,-0.067,,,,21.568182599
1715675904711923174,-0.043,,,,21.575877454
1715675904719618029,-0.038,,,,21.583572309
1715675904727312884,-0.028,,,,21.591267164
1715675904735007739,-0.009,,,,21.598962019
1715675904742702594,0.0,,,,21.606656874
1715675904750397449,0.004,,,,21.614351729
1715675904758092304,0.016,,,,21.622046584
1715675904765787159,0.028,,,,21.629741439
1715675904773482014,0.038,,,,21.637436294
1715675904781176869,0.052,,,,21.645131149
1715675904788871724,0.064,,,,21.652826004
1715675904796566579,0.072,,,,21.660520859
1715675904804261434,0.088,,,,21.668215714
1715675904811956289,0.11,,,,21.675910569
1715675904819651144,0.125,,,,21.683605424
1715675904827345999,0.127,,,,21.691300279
1715675904835040854,0.129,,,,21.698995134
1715675904842735709,0.127,,,,21.706689989
1715675904850430564,0.122,,,,21.714384844
1715675904858125419,0.115,,,,21.722079699
1715675904865820274,0.108,,,,21.729774554
1715675904873515129,0.105,,,,21.737469409
1715675904881209984,0.103,,,,21.745164264
1715675904888904839,0.088,,,,21.752859119
1715675904896599694,0.072,,,,21.760553974
1715675904904294549,0.06,,,,21.768248829
1715675904911989404,0.052,,,,21.775943684
1715675904919684259,0.048,,,,21.783638539
1715675904927379114,0.04,,,,21.791333394
1715675904935073969,0.031,,,,21.799028249
1715675904942768824,0.033,,,,21.806723104
1715675904950463679,0.038,,,,21.814417959
1715675904958158534,0.04,,,,21.822112814
1715675904965853389,0.048,,,,21.829807669
1715675904973548244,0.048,,,,21.837502524
1715675904981243099,0.043,,,,21.845197379
1715675904988937954,0.052,,,,21.852892234
1715675904996632809,0.067,,,,21.860587089
1715675905004327664,0.072,,,,21.868281944
1715675905012022519,0.069,,,,21.875976799
1715675905019717374,0.067,,,,21.883671654
1715675905027412229,0.062,,,,21.891366509
1715675905035107084,0.062,,,,21.899061364
1715675905042802006,0.067,82.0,,,21.906756286
1715675905050496304,0.067,,,,21.914450584
1715675905058190602,0.064,,,,21.922144882
1715675905065884900,0.064,,,,21.92983918
1715675905073579198,0.057,,,,21.937533478
1715675905081273496,0.055,,,,21.945227776
1715675905088967794,0.055,,,,21.952922074
1715675905096662092,0.05,,712.0,,21.960616372
1715675905104356390,0.048,,,,21.96831067
1715675905112050688,0.052,,,,21.976004968
1715675905119744986,0.055,,,,21.983699266
1715675905127439284,0.05,,,,21.991393564
1715675905135133582,0.048,,,,21.999087862
1715675905142827880,0.055,,,,22.00678216
1715675905150522178,0.06,,,,22.014476458
1715675905158216476,0.055,,,,22.022170756
1715675905165910774,0.052,,,,22.029865054
1715675905173605072,0.055,,,,22.037559352
1715675905181299370,0.055,,,,22.04525365
1715675905188993668,0.052,,,,22.052947948
1715675905196687966,0.057,,,,22.060642246
1715675905204382264,0.064,,,,22.068336544
1715675905212076562,0.06,,,,22.076030842
1715675905219770860,0.05,,,,22.08372514
1715675905227465158,0.05,,,,22.091419438
1715675905235159456,0.05,,,,22.099113736
1715675905242853754,0.043,,,,22.106808034
1715675905250548052,0.036,,,,22.114502332
1715675905258242350,0.021,,,,22.12219663
1715675905265936648,0.014,,,,22.129890928
1715675905273630946,0.012,,,,22.137585226
1715675905281325244,0.021,,,,22.145279524
1715675905289019542,0.05,,,,22.152973822
1715675905296713840,0.091,,,,22.16066812
1715675905304408138,0.113,,,,22.168362418
1715675905312102436,0.115,,,,22.176056716
1715675905319796734,0.096,,,,22.183751014
1715675905327491032,0.067,,,,22.191445312
1715675905335185330,0.057,,,,22.19913961
1715675905342879628,0.069,,,,22.206833908
1715675905350573926,0.072,,,,22.214528206
1715675905358268224,0.057,,,,22.222222504
1715675905365962522,0.002,,,,22.229916802
1715675905373656820,-0.033,,,,22.2376111
1715675905381351118,0.197,,,,22.245305398
1715675905389045416,0.738,,,,22.252999696
