time,ecg,hr,rr,marker,norm_time
1715668089436078940,0.048,,,,0.0
1715668089443773726,0.045,,,,0.007694786
1715668089451468512,0.057,,,,0.015389572
1715668089459163298,0.052,,,,0.023084358
1715668089466858084,0.028,,,,0.030779144
1715668089474552870,0.028,,,,0.03847393
1715668089482247656,0.067,,,,0.046168716
1715668089489942442,0.096,,,,0.053863502
1715668089497637228,0.084,,,,0.061558288
1715668089505332014,0.067,,,,0.069253074
1715668089513026800,0.055,,,,0.07694786
1715668089520721586,0.036,,,,0.084642646
1715668089528416372,0.024,,,,0.092337432
1715668089536111158,0.033,,,,0.100032218
1715668089543805944,0.045,,,,0.107727004
1715668089551500730,0.045,,,,0.11542179
1715668089559195516,0.045,,,,0.123116576
1715668089566890302,0.052,,,,0.130811362
1715668089574585088,0.064,,,,0.138506148
1715668089582279874,0.06,,,,0.146200934
1715668089589974660,0.055,,,,0.15389572
1715668089597669446,0.072,,,,0.161590506
1715668089605364232,0.086,,,,0.169285292
1715668089613059018,0.105,,,,0.176980078
1715668089620753804,0.329,,,,0.184674864
1715668089628448590,1.046,,,,0.19236965
1715668089636143376,1.943,,,,0.200064436
1715668089643838162,1.724,,,,0.207759222
1715668089651532948,0.024,,,,0.215454008
1715668089659227734,-0.863,,,,0.223148794
1715668089666922520,-0.019,,,,0.23084358
1715668089674617306,0.271,,,,0.238538366
1715668089682312092,-0.223,,,,0.246233152
1715668089690006878,-0.115,,,,0.253927938
1715668089697701664,0.098,,,,0.261622724
1715668089705396450,-0.04,,,,0.26931751
1715668089713091236,-0.048,,,,0.277012296
1715668089720786022,0.064,,,,0.284707082
1715668089728480808,0.045,,,,0.292401868
1715668089736175594,0.019,,,,0.300096654
1715668089743870380,0.067,,,,0.30779144
1715668089751565166,0.079,,,,0.315486226
1715668089759259952,0.067,,,,0.323181012
1715668089766954738,0.079,,,,0.330875798
1715668089774649524,0.105,,,,0.338570584
1715668089782344310,0.127,,,,0.34626537
1715668089790039096,0.137,,,,0.353960156
1715668089797733882,0.151,,,,0.361654942
1715668089805428668,0.177,,,,0.369349728
1715668089813123454,0.209,,,,0.377044514
1715668089820818240,0.235,,,,0.3847393
1715668089828513026,0.269,,,,0.392434086
1715668089836207812,0.312,,,,0.400128872
1715668089843902598,0.355,,,,0.407823658
1715668089851597384,0.391,,,,0.415518444
1715668089859292170,0.423,,,,0.42321323
1715668089866986956,0.442,,,,0.430908016
1715668089874681742,0.437,,,,0.438602802
1715668089882376528,0.399,,,,0.446297588
1715668089890071314,0.334,,,,0.453992374
1715668089897766100,0.269,,,,0.46168716
1715668089905460886,0.189,,,,0.469381946
1715668089913155672,0.091,,,,0.477076732
1715668089920850458,0.009,,,,0.484771518
1715668089928545244,-0.038,,,,0.492466304
1715668089936240030,-0.079,,,,0.50016109
1715668089943934816,-0.113,,,,0.507855876
1715668089951629602,-0.115,,,,0.515550662
1715668089959324388,-0.103,,,,0.523245448
1715668089967019174,-0.096,,,,0.530940234
1715668089974713960,-0.091,,,,0.53863502
1715668089982408746,-0.086,,,,0.546329806
1715668089990103532,-0.079,,,,0.554024592
1715668089997798334,-0.062,75.0,836.0,,0.561719394
1715668090005493120,-0.048,,841.0,,0.56941418
1715668090013187906,-0.038,,,,0.577108966
1715668090020882692,-0.028,,,,0.584803752
1715668090028577478,-0.026,,,,0.592498538
1715668090036272264,-0.026,,,,0.600193324
1715668090043967050,-0.014,,,,0.60788811
1715668090051661836,-0.002,,,,0.615582896
1715668090059356622,0.004,,,,0.623277682
1715668090067051408,0.014,,,,0.630972468
1715668090074746194,0.021,,,,0.638667254
1715668090082440980,0.028,,,,0.64636204
1715668090090135766,0.036,,,,0.654056826
1715668090097830552,0.04,,,,0.661751612
1715668090105525338,0.038,,,,0.669446398
1715668090113220124,0.04,,,,0.677141184
1715668090120914910,0.043,,,,0.68483597
1715668090128609696,0.043,,,,0.692530756
1715668090136304482,0.043,,,,0.700225542
1715668090143999268,0.048,,,,0.707920328
1715668090151694054,0.05,,,,0.715615114
1715668090159388840,0.045,,,,0.7233099
1715668090167083626,0.043,,,,0.731004686
1715668090174778412,0.05,,,,0.738699472
1715668090182473198,0.055,,,,0.746394258
1715668090190167984,0.055,,,,0.754089044
1715668090197862770,0.062,,,,0.76178383
1715668090205557556,0.062,,,,0.769478616
1715668090213252342,0.06,,,,0.777173402
1715668090220947128,0.06,,,,0.784868188
1715668090228641914,0.057,,,,0.792562974
1715668090236336700,0.052,,,,0.80025776
1715668090244031486,0.06,,,,0.807952546
1715668090251726272,0.06,,,,0.815647332
1715668090259421058,0.055,,,,0.823342118
1715668090267115844,0.06,,,,0.831036904
1715668090274810630,0.069,,,,0.83873169
1715668090282505416,0.074,,,,0.846426476
1715668090290200202,0.081,,,,0.854121262
1715668090297894988,0.074,,,,0.861816048
1715668090305589774,0.045,,,,0.869510834
1715668090313284560,0.045,,,,0.87720562
1715668090320979346,0.088,,,,0.884900406
1715668090328674132,0.122,,,,0.892595192
1715668090336368918,0.115,,,,0.900289978
1715668090344063704,0.088,,,,0.907984764
1715668090351758490,0.064,,,,0.91567955
1715668090359453276,0.05,,,,0.923374336
1715668090367148062,0.05,,,,0.931069122
1715668090374842848,0.052,,,,0.938763908
1715668090382537634,0.055,,,,0.946458694
1715668090390232420,0.057,,,,0.95415348
1715668090397927206,0.057,,,,0.961848266
1715668090405621992,0.06,,,,0.969543052
1715668090413316778,0.067,,,,0.977237838
1715668090421011564,0.064,,,,0.984932624
1715668090428706350,0.055,,,,0.99262741
1715668090436401136,0.06,,,,1.000322196
1715668090444095922,0.069,,,,1.008016982
1715668090451790708,0.11,,,,1.015711768
1715668090459485494,0.372,,,,1.023406554
1715668090467180280,1.12,,,,1.03110134
1715668090474875066,1.928,,,,1.038796126
1715668090482569852,1.438,,,,1.046490912
1715668090490264638,-0.3,,,,1.054185698
1715668090497959424,-0.8320000000000001,,,,1.061880484
1715668090505654210,0.086,,,,1.06957527
1715668090513348996,0.168,,,,1.077270056
1715668090521043782,-0.276,,,,1.084964842
1715668090528738568,-0.086,,,,1.092659628
1715668090536433354,0.057,,,,1.100354414
1715668090544128140,-0.086,,,,1.1080492
1715668090551822926,-0.052,,,,1.115743986
1715668090559517728,0.036,75.0,831.0,,1.123438788
1715668090567212514,0.004,,,,1.131133574
1715668090574907300,0.007,,,,1.13882836
1715668090582602086,0.052,,,,1.146523146
1715668090590296872,0.05,,,,1.154217932
1715668090597991658,0.04,,,,1.161912718
1715668090605686444,0.055,,,,1.169607504
1715668090613381230,0.072,,,,1.17730229
1715668090621076016,0.086,,,,1.184997076
1715668090628770802,0.103,,,,1.192691862
1715668090636465588,0.125,,,,1.200386648
1715668090644160374,0.149,,,,1.208081434
1715668090651855160,0.18,,,,1.21577622
1715668090659549946,0.218,,,,1.223471006
1715668090667244732,0.257,,,,1.231165792
1715668090674939518,0.295,,,,1.238860578
1715668090682634304,0.341,,,,1.246555364
1715668090690329090,0.382,,,,1.25425015
1715668090698023876,0.401,,,,1.261944936
1715668090705718662,0.413,,,,1.269639722
1715668090713413448,0.413,,,,1.277334508
1715668090721108234,0.375,,,,1.285029294
1715668090728803020,0.305,,,,1.29272408
1715668090736497806,0.221,,,,1.300418866
1715668090744192592,0.127,,,,1.308113652
1715668090751887378,0.038,,,,1.315808438
1715668090759582164,-0.033,,,,1.323503224
1715668090767276950,-0.091,,,,1.33119801
1715668090774971736,-0.129,,,,1.338892796
1715668090782666522,-0.149,,,,1.346587582
1715668090790361308,-0.156,,,,1.354282368
1715668090798056094,-0.144,,,,1.361977154
1715668090805750880,-0.137,,,,1.36967194
1715668090813445666,-0.141,,,,1.377366726
1715668090821140452,-0.127,,,,1.385061512
1715668090828835238,-0.11,,,,1.392756298
1715668090836530024,-0.11,,,,1.400451084
1715668090844224810,-0.103,,,,1.40814587
1715668090851919596,-0.088,,,,1.415840656
1715668090859614382,-0.079,,,,1.423535442
1715668090867309168,-0.069,,,,1.431230228
1715668090875003954,-0.057,,,,1.438925014
1715668090882698740,-0.048,,,,1.4466198
1715668090890393526,-0.036,,,,1.454314586
1715668090898088312,-0.028,,,,1.462009372
1715668090905783098,-0.026,,,,1.469704158
1715668090913477884,-0.024,,,,1.477398944
1715668090921172670,-0.014,,,,1.48509373
1715668090928867456,-0.009,,,,1.492788516
1715668090936562242,-0.014,,,,1.500483302
1715668090944257028,-0.019,,,,1.508178088
1715668090951951814,-0.028,,,,1.515872874
1715668090959646600,-0.024,,,,1.52356766
1715668090967341386,-0.019,,,,1.531262446
1715668090975036172,-0.021,,,,1.538957232
1715668090982730958,-0.019,,,,1.546652018
1715668090990425744,-0.007,,,,1.554346804
1715668090998120530,-0.004,,,,1.56204159
1715668091005815316,-0.009,,,,1.569736376
1715668091013510102,-0.007,,,,1.577431162
1715668091021204888,-0.007,,,,1.585125948
1715668091028899674,-0.002,,,,1.592820734
1715668091036594460,0.002,,,,1.60051552
1715668091044289246,0.002,,,,1.608210306
1715668091051984032,-0.002,,,,1.615905092
1715668091059678818,0.002,,,,1.623599878
1715668091067373604,0.009,,,,1.631294664
1715668091075068390,0.009,,,,1.63898945
1715668091082763176,0.012,,,,1.646684236
1715668091090457962,0.016,,,,1.654379022
1715668091098152748,0.019,,,,1.662073808
1715668091105847534,0.026,,,,1.669768594
1715668091113542320,0.031,,,,1.67746338
1715668091121237124,0.033,,,,1.685158184
1715668091128932188,0.019,,,,1.692853248
1715668091136627252,0.004,,,,1.700548312
1715668091144322316,0.016,,,,1.708243376
1715668091152017380,0.052,,,,1.71593844
1715668091159712444,0.088,,,,1.723633504
1715668091167407508,0.084,,,,1.731328568
1715668091175102572,0.048,,,,1.739023632
1715668091182797636,0.033,,,,1.746718696
1715668091190492700,0.028,,,,1.75441376
1715668091198187764,0.019,,,,1.762108824
1715668091205882828,0.021,,,,1.769803888
1715668091213577892,0.026,,,,1.777498952
1715668091221272956,0.031,,,,1.785194016
1715668091228968020,0.036,,,,1.79288908
1715668091236663084,0.038,,,,1.800584144
1715668091244358148,0.04,,,,1.808279208
1715668091252053212,0.043,,,,1.815974272
1715668091259748276,0.045,,,,1.823669336
1715668091267443340,0.06,,,,1.8313644
1715668091275138404,0.081,,,,1.839059464
1715668091282833468,0.158,,,,1.846754528
1715668091290528532,0.555,,,,1.854449592
1715668091298223596,1.401,,,,1.862144656
1715668091305918660,1.919,,,,1.86983972
1715668091313613724,0.858,,,,1.877534784
1715668091321308788,-0.743,,,,1.885229848
1715668091329003852,-0.545,,,,1.892924912
1715668091336698916,0.293,,,,1.900619976
1715668091344393980,0.0,,,,1.90831504
1715668091352089044,-0.252,,,,1.916010104
1715668091359784108,0.036,,,,1.923705168
1715668091367479172,0.043,,,,1.931400232
1715668091375174236,-0.076,,,,1.939095296
1715668091382869300,0.004,,,,1.94679036
1715668091390564364,0.05,,,,1.954485424
1715668091398259428,0.019,,,,1.962180488
1715668091405954492,0.04,,,,1.969875552
1715668091413649556,0.06,,,,1.977570616
1715668091421344620,0.045,,,,1.98526568
1715668091429039684,0.057,,,,1.992960744
1715668091436734748,0.084,,,,2.000655808
1715668091444429812,0.093,,,,2.008350872
1715668091452124876,0.098,,,,2.016045936
1715668091459819940,0.108,,,,2.023741
1715668091467515004,0.137,,,,2.031436064
1715668091475210068,0.17,,,,2.039131128
1715668091482905132,0.197,,,,2.046826192
1715668091490600196,0.233,,,,2.054521256
1715668091498295260,0.281,,,,2.06221632
1715668091505990324,0.322,,,,2.069911384
1715668091513685388,0.358,,,,2.077606448
1715668091521380452,0.394,,,,2.085301512
1715668091529075516,0.413,,,,2.092996576
1715668091536770580,0.416,,,,2.10069164
1715668091544465644,0.406,,,,2.108386704
1715668091552160708,0.365,,,,2.116081768
1715668091559855772,0.298,,,,2.123776832
1715668091567550836,0.206,,,,2.131471896
1715668091575245900,0.11,,,,2.13916696
1715668091582940964,0.026,,,,2.146862024
1715668091590636028,-0.038,,,,2.154557088
1715668091598331092,-0.091,,,,2.162252152
1715668091606026156,-0.12,,,,2.169947216
1715668091613721220,-0.125,,,,2.17764228
1715668091621416284,-0.132,,,,2.185337344
1715668091629111348,-0.137,,,,2.193032408
1715668091636806412,-0.127,,,,2.200727472
1715668091644501476,-0.117,,,,2.208422536
1715668091652196540,-0.11,,,,2.2161176
1715668091659891604,-0.098,,,,2.223812664
1715668091667586668,-0.084,,,,2.231507728
1715668091675281732,-0.074,,,,2.239202792
1715668091682976864,-0.06,75.0,840.0,,2.246897924
1715668091690671789,-0.045,,,,2.254592849
1715668091698366714,-0.04,,,,2.262287774
1715668091706061639,-0.036,,,,2.269982699
1715668091713756564,-0.024,,,,2.277677624
1715668091721451489,-0.012,,,,2.285372549
1715668091729146414,-0.004,,,,2.293067474
1715668091736841339,0.002,,,,2.300762399
1715668091744536264,0.007,,,,2.308457324
1715668091752231189,0.007,,,,2.316152249
1715668091759926114,0.012,,,,2.323847174
1715668091767621039,0.014,,,,2.331542099
1715668091775315964,0.009,,,,2.339237024
1715668091783010889,0.007,,,,2.346931949
1715668091790705814,0.012,,,,2.354626874
1715668091798400739,0.016,,,,2.362321799
1715668091806095664,0.012,,,,2.370016724
1715668091813790589,0.009,,,,2.377711649
1715668091821485514,0.016,,,,2.385406574
1715668091829180439,0.012,,,,2.393101499
1715668091836875364,0.0,,,,2.400796424
1715668091844570289,0.002,,,,2.408491349
1715668091852265214,0.014,,,,2.416186274
1715668091859960139,0.021,,,,2.423881199
1715668091867655064,0.019,,,,2.431576124
1715668091875349989,0.016,,,,2.439271049
1715668091883044914,0.024,,,,2.446965974
1715668091890739839,0.026,,,,2.454660899
1715668091898434764,0.028,,,,2.462355824
1715668091906129689,0.04,,,,2.470050749
1715668091913824614,0.05,,,,2.477745674
1715668091921519539,0.04,,,,2.485440599
1715668091929214464,0.038,,,,2.493135524
1715668091936909389,0.05,,,,2.500830449
1715668091944604314,0.04,,,,2.508525374
1715668091952299239,0.007,,,,2.516220299
1715668091959994164,0.0,,,,2.523915224
1715668091967689089,0.043,,,,2.531610149
1715668091975384014,0.086,,,,2.539305074
1715668091983078939,0.084,,,,2.546999999
1715668091990773864,0.057,,,,2.554694924
1715668091998468789,0.045,,,,2.562389849
1715668092006163714,0.038,,,,2.570084774
1715668092013858639,0.026,,,,2.577779699
1715668092021553564,0.026,,,,2.585474624
1715668092029248489,0.038,,,,2.593169549
1715668092036943414,0.04,,,,2.600864474
1715668092044638339,0.038,,,,2.608559399
1715668092052333264,0.045,,,,2.616254324
1715668092060028189,0.055,,,,2.623949249
1715668092067723114,0.055,,,,2.631644174
1715668092075418039,0.06,,,,2.639339099
1715668092083112964,0.076,,,,2.647034024
1715668092090807889,0.086,,,,2.654728949
1715668092098502814,0.139,,,,2.662423874
1715668092106197739,0.495,,,,2.670118799
1715668092113892664,1.337,,,,2.677813724
1715668092121587589,2.015,,,,2.685508649
1715668092129282514,1.166,,,,2.693203574
1715668092136977439,-0.55,,,,2.700898499
1715668092144672364,-0.634,,,,2.708593424
1715668092152367289,0.257,,,,2.716288349
1715668092160062214,0.074,,,,2.723983274
1715668092167757139,-0.266,,,,2.731678199
1715668092175452064,0.0,,,,2.739373124
1715668092183146989,0.064,,,,2.747068049
1715668092190841914,-0.072,,,,2.754762974
1715668092198536839,-0.004,,,,2.762457899
1715668092206231764,0.064,,,,2.770152824
1715668092213926689,0.026,,,,2.777847749
1715668092221621614,0.036,,,,2.785542674
1715668092229316539,0.074,,,,2.793237599
1715668092237011464,0.084,,,,2.800932524
1715668092244706430,0.091,,,,2.80862749
1715668092252401216,0.105,,,,2.816322276
1715668092260096002,0.117,,,,2.824017062
1715668092267790788,0.127,,,,2.831711848
1715668092275485574,0.144,,,,2.839406634
1715668092283180360,0.163,,,,2.84710142
1715668092290875146,0.187,,,,2.854796206
1715668092298569932,0.216,,,,2.862490992
1715668092306264718,0.254,,,,2.870185778
1715668092313959504,0.293,,,,2.877880564
1715668092321654290,0.334,,,,2.88557535
1715668092329349076,0.375,,,,2.893270136
1715668092337043862,0.401,,,,2.900964922
1715668092344738648,0.406,,,,2.908659708
1715668092352433434,0.406,,,,2.916354494
1715668092360128220,0.396,,,,2.92404928
1715668092367823006,0.363,,,,2.931744066
1715668092375517792,0.3,,,,2.939438852
1715668092383212578,0.216,,,,2.947133638
1715668092390907364,0.129,,,,2.954828424
1715668092398602150,0.052,,,,2.96252321
1715668092406296936,-0.009,,,,2.970217996
1715668092413991722,-0.048,,,,2.977912782
1715668092421686508,-0.067,,,,2.985607568
1715668092429381294,-0.086,,,,2.993302354
1715668092437076080,-0.098,,,,3.00099714
1715668092444770866,-0.096,,,,3.008691926
1715668092452465652,-0.093,,,,3.016386712
1715668092460160438,-0.093,,,,3.024081498
1715668092467855224,-0.093,,,,3.031776284
1715668092475550010,-0.081,,,,3.03947107
1715668092483244796,-0.067,,,,3.047165856
1715668092490939582,-0.057,,,,3.054860642
1715668092498634368,-0.048,,,,3.062555428
1715668092506329154,-0.036,,,,3.070250214
1715668092514023940,-0.026,,,,3.077945
1715668092521718726,-0.021,,,,3.085639786
1715668092529413512,-0.014,,,,3.093334572
1715668092537108298,0.0,,,,3.101029358
1715668092544803084,0.009,,,,3.108724144
1715668092552497870,0.009,,,,3.11641893
1715668092560192656,0.014,,,,3.124113716
1715668092567887442,0.021,,,,3.131808502
1715668092575582228,0.021,,,,3.139503288
1715668092583277014,0.021,,,,3.147198074
1715668092590971800,0.024,,,,3.15489286
1715668092598666586,0.033,,,,3.162587646
1715668092606361372,0.036,,,,3.170282432
1715668092614056158,0.026,,,,3.177977218
1715668092621750944,0.028,,,,3.185672004
1715668092629445730,0.036,,,,3.19336679
1715668092637140516,0.036,,,,3.201061576
1715668092644835302,0.036,,,,3.208756362
1715668092652530088,0.036,,,,3.216451148
1715668092660224874,0.038,,,,3.224145934
1715668092667919660,0.038,,,,3.23184072
1715668092675614446,0.038,,,,3.239535506
1715668092683309232,0.038,,,,3.247230292
1715668092691004018,0.036,,,,3.254925078
1715668092698698804,0.04,,,,3.262619864
1715668092706393590,0.05,,,,3.27031465
1715668092714088376,0.052,,,,3.278009436
1715668092721783162,0.05,,,,3.285704222
1715668092729477948,0.055,,,,3.293399008
1715668092737172734,0.062,,,,3.301093794
1715668092744867520,0.06,,,,3.30878858
1715668092752562306,0.043,,,,3.316483366
1715668092760257092,0.038,,,,3.324178152
1715668092767951878,0.064,,,,3.331872938
1715668092775646664,0.105,,,,3.339567724
1715668092783341450,0.122,,,,3.34726251
1715668092791036236,0.103,,,,3.354957296
1715668092798731022,0.074,,,,3.362652082
1715668092806425824,0.062,74.0,838.0,,3.370346884
1715668092814120610,0.057,,,,3.37804167
1715668092821815396,0.052,,,,3.385736456
1715668092829510182,0.052,,,,3.393431242
1715668092837204968,0.062,,,,3.401126028
1715668092844899754,0.064,,,,3.408820814
1715668092852594540,0.055,,,,3.4165156
1715668092860289326,0.055,,,,3.424210386
1715668092867984112,0.067,,,,3.431905172
1715668092875678898,0.072,,,,3.439599958
1715668092883373684,0.074,,,,3.447294744
1715668092891068470,0.093,,,,3.45498953
1715668092898763256,0.129,,,,3.462684316
1715668092906458042,0.334,,,,3.470379102
1715668092914152828,0.993,,,,3.478073888
1715668092921847614,1.834,,,,3.485768674
1715668092929542400,1.603,,,,3.49346346
1715668092937237186,-0.055,,,,3.501158246
1715668092944931972,-0.875,,,,3.508853032
1715668092952626758,-0.007,,,,3.516547818
1715668092960321544,0.266,,,,3.524242604
1715668092968016330,-0.238,,,,3.53193739
1715668092975711116,-0.139,,,,3.539632176
1715668092983405902,0.072,,,,3.547326962
1715668092991100688,-0.048,,,,3.555021748
1715668092998795474,-0.055,,,,3.562716534
1715668093006490260,0.043,,,,3.57041132
1715668093014185046,0.026,,,,3.578106106
1715668093021879832,0.014,,,,3.585800892
1715668093029574618,0.057,,,,3.593495678
1715668093037269404,0.067,,,,3.601190464
1715668093044964190,0.062,,,,3.60888525
1715668093052658976,0.086,,,,3.616580036
1715668093060353762,0.108,,,,3.624274822
1715668093068048548,0.113,,,,3.631969608
1715668093075743334,0.127,,,,3.639664394
1715668093083438120,0.156,,,,3.64735918
1715668093091132906,0.177,,,,3.655053966
1715668093098827692,0.204,,,,3.662748752
1715668093106522478,0.242,,,,3.670443538
1715668093114217264,0.271,,,,3.678138324
1715668093121912050,0.303,,,,3.68583311
1715668093129606836,0.346,,,,3.693527896
1715668093137301622,0.387,,,,3.701222682
1715668093144996408,0.408,,,,3.708917468
1715668093152691194,0.416,,,,3.716612254
1715668093160385980,0.404,,,,3.72430704
1715668093168080766,0.372,,,,3.732001826
1715668093175775552,0.317,,,,3.739696612
1715668093183470338,0.23,,,,3.747391398
1715668093191165124,0.132,,,,3.755086184
1715668093198859910,0.048,,,,3.76278097
1715668093206554696,-0.016,,,,3.770475756
1715668093214249482,-0.067,,,,3.778170542
1715668093221944268,-0.096,,,,3.785865328
1715668093229639054,-0.115,,,,3.793560114
1715668093237333840,-0.117,,,,3.8012549
1715668093245028626,-0.108,,,,3.808949686
1715668093252723412,-0.101,,,,3.816644472
1715668093260418198,-0.101,,,,3.824339258
1715668093268112984,-0.108,,,,3.832034044
1715668093275807770,-0.108,,,,3.83972883
1715668093283502556,-0.091,,,,3.847423616
1715668093291197342,-0.076,,,,3.855118402
1715668093298892128,-0.074,,,,3.862813188
1715668093306586914,-0.067,,,,3.870507974
1715668093314281700,-0.048,,,,3.87820276
1715668093321976486,-0.028,,,,3.885897546
1715668093329671272,-0.028,,,,3.893592332
1715668093337366058,-0.028,,,,3.901287118
1715668093345060844,-0.016,,,,3.908981904
1715668093352755630,-0.014,,,,3.91667669
1715668093360450416,-0.012,,,,3.924371476
1715668093368145218,-0.002,,,,3.932066278
1715668093375840004,0.0,,,,3.939761064
1715668093383534790,0.0,,,,3.94745585
1715668093391229576,0.0,,,,3.955150636
1715668093398924362,-0.004,,,,3.962845422
1715668093406619148,-0.009,,,,3.970540208
1715668093414313934,-0.004,,,,3.978234994
1715668093422008720,0.0,,,,3.98592978
1715668093429703506,-0.002,,,,3.993624566
1715668093437398292,-0.002,,,,4.001319352
1715668093445093078,0.0,,,,4.009014138
1715668093452787864,-0.002,,,,4.016708924
1715668093460482650,-0.002,,,,4.02440371
1715668093468177436,-0.004,,,,4.032098496
1715668093475872222,-0.012,,,,4.039793282
1715668093483567008,-0.004,,,,4.047488068
1715668093491261794,0.004,,,,4.055182854
1715668093498956580,-0.007,,,,4.06287764
1715668093506651366,-0.019,,,,4.070572426
1715668093514346152,-0.019,,,,4.078267212
1715668093522040938,0.012,,,,4.085961998
1715668093529735724,0.057,,,,4.093656784
1715668093537430510,0.062,,,,4.10135157
1715668093545125296,0.033,,,,4.109046356
1715668093552820082,0.009,,,,4.116741142
1715668093560514868,0.002,,,,4.124435928
1715668093568209654,0.0,,,,4.132130714
1715668093575904440,-0.002,,,,4.1398255
1715668093583599226,0.0,,,,4.147520286
1715668093591294012,0.012,,,,4.155215072
1715668093598988798,0.016,,,,4.162909858
1715668093606683584,0.009,,,,4.170604644
1715668093614378370,0.016,,,,4.17829943
1715668093622073156,0.028,,,,4.185994216
1715668093629767942,0.033,,,,4.193689002
1715668093637462728,0.052,,,,4.201383788
1715668093645157514,0.084,,,,4.209078574
1715668093652852300,0.161,,,,4.21677336
1715668093660547086,0.541,,,,4.224468146
1715668093668241872,1.339,,,,4.232162932
1715668093675936658,1.827,,,,4.239857718
1715668093683631444,0.767,,,,4.247552504
1715668093691326230,-0.8170000000000001,,,,4.25524729
1715668093699021016,-0.584,,,,4.262942076
1715668093706715802,0.288,,,,4.270636862
1715668093714410588,-0.012,,,,4.278331648
1715668093722105374,-0.276,,,,4.286026434
1715668093729800160,0.016,,,,4.29372122
1715668093737494946,0.033,,,,4.301416006
1715668093745189732,-0.079,,,,4.309110792
1715668093752884518,0.012,,,,4.316805578
1715668093760579304,0.052,,,,4.324500364
1715668093768274090,0.007,,,,4.33219515
1715668093775968876,0.031,,,,4.339889936
1715668093783663662,0.064,,,,4.347584722
1715668093791358448,0.057,,,,4.355279508
1715668093799053234,0.069,,,,4.362974294
1715668093806748020,0.096,,,,4.37066908
1715668093814442806,0.108,,,,4.378363866
1715668093822137592,0.127,,,,4.386058652
1715668093829832378,0.149,,,,4.393753438
1715668093837527164,0.17,,,,4.401448224
1715668093845221950,0.199,,,,4.40914301
1715668093852916736,0.233,,,,4.416837796
1715668093860611522,0.274,,,,4.424532582
1715668093868306308,0.319,,,,4.432227368
1715668093876001094,0.36,,,,4.439922154
1715668093883695880,0.396,,,,4.44761694
1715668093891390666,0.43,,,,4.455311726
1715668093899085452,0.447,,,,4.463006512
1715668093906780238,0.435,,,,4.470701298
1715668093914475024,0.406,,,,4.478396084
1715668093922169810,0.358,,,,4.48609087
1715668093929864614,0.276,74.0,828.0,,4.493785674
1715668093937559748,0.168,,816.0,,4.501480808
1715668093945254882,0.069,,,,4.509175942
1715668093952950016,-0.014,,,,4.516871076
1715668093960645150,-0.079,,,,4.52456621
1715668093968340284,-0.125,,,,4.532261344
1715668093976035418,-0.149,,,,4.539956478
1715668093983730552,-0.151,,,,4.547651612
1715668093991425686,-0.161,,,,4.555346746
1715668093999120820,-0.168,,,,4.56304188
1715668094006815954,-0.149,,,,4.570737014
1715668094014511088,-0.134,,,,4.578432148
1715668094022206222,-0.132,,,,4.586127282
1715668094029901356,-0.127,,,,4.593822416
1715668094037596490,-0.105,,,,4.60151755
1715668094045291624,-0.086,,,,4.609212684
1715668094052986758,-0.074,,,,4.616907818
1715668094060681892,-0.06,,,,4.624602952
1715668094068377026,-0.043,,,,4.632298086
1715668094076072160,-0.028,,,,4.63999322
1715668094083767294,-0.019,,,,4.647688354
1715668094091462428,-0.012,,,,4.655383488
1715668094099157562,-0.004,,,,4.663078622
1715668094106852696,-0.007,,,,4.670773756
1715668094114547830,-0.012,,,,4.67846889
1715668094122242964,-0.009,,,,4.686164024
1715668094129938098,-0.012,,,,4.693859158
1715668094137633232,-0.016,,,,4.701554292
1715668094145328366,-0.014,,,,4.709249426
1715668094153023500,-0.014,,,,4.71694456
1715668094160718634,-0.019,,,,4.724639694
1715668094168413768,-0.026,,,,4.732334828
1715668094176108902,-0.031,,,,4.740029962
1715668094183804036,-0.024,,,,4.747725096
1715668094191499170,-0.021,,,,4.75542023
1715668094199194304,-0.019,,,,4.763115364
1715668094206889438,-0.016,,,,4.770810498
1715668094214584572,-0.012,,,,4.778505632
1715668094222279706,-0.004,,,,4.786200766
1715668094229974840,-0.014,,,,4.7938959
1715668094237669974,-0.033,,,,4.801591034
1715668094245365108,-0.026,,,,4.809286168
1715668094253060242,0.009,,,,4.816981302
1715668094260755376,0.05,,,,4.824676436
1715668094268450510,0.055,,,,4.83237157
1715668094276145644,0.028,,,,4.840066704
1715668094283840778,0.009,,,,4.847761838
1715668094291535912,-0.007,,,,4.855456972
1715668094299231046,-0.016,,,,4.863152106
1715668094306926180,-0.009,,,,4.87084724
1715668094314621314,0.0,,,,4.878542374
1715668094322316448,0.002,,,,4.886237508
1715668094330011582,0.002,,,,4.893932642
1715668094337706716,0.014,,,,4.901627776
1715668094345401850,0.021,,,,4.90932291
1715668094353096984,0.016,,,,4.917018044
1715668094360792118,0.024,,,,4.924713178
1715668094368487252,0.048,,,,4.932408312
1715668094376182386,0.076,,,,4.940103446
1715668094383877520,0.141,,,,4.94779858
1715668094391572654,0.492,,,,4.955493714
1715668094399267788,1.298,,,,4.963188848
1715668094406962922,1.858,,,,4.970883982
1715668094414658056,0.894,,,,4.978579116
1715668094422353190,-0.719,,,,4.98627425
1715668094430048324,-0.622,,,,4.993969384
1715668094437743458,0.24,,,,5.001664518
1715668094445438592,0.004,,,,5.009359652
1715668094453133726,-0.283,,,,5.017054786
1715668094460828860,-0.007,,,,5.02474992
1715668094468523994,0.019,,,,5.032445054
1715668094476219128,-0.115,,,,5.040140188
1715668094483914262,-0.033,,,,5.047835322
1715668094491609440,0.024,74.0,803.0,,5.0555305
1715668094499304295,-0.016,,,,5.063225355
1715668094506999150,-0.004,,,,5.07092021
1715668094514694005,0.033,,,,5.078615065
1715668094522388860,0.04,,,,5.08630992
1715668094530083715,0.045,,,,5.094004775
1715668094537778570,0.067,,,,5.10169963
1715668094545473425,0.081,,,,5.109394485
1715668094553168280,0.096,,,,5.11708934
1715668094560863135,0.115,,,,5.124784195
1715668094568557990,0.139,,,,5.13247905
1715668094576252845,0.168,,,,5.140173905
1715668094583947700,0.204,,,,5.14786876
1715668094591642555,0.23,,,,5.155563615
1715668094599337410,0.257,,,,5.16325847
1715668094607032265,0.305,,,,5.170953325
1715668094614727120,0.355,,,,5.17864818
1715668094622421975,0.384,,,,5.186343035
1715668094630116830,0.391,,,,5.19403789
1715668094637811685,0.394,,,,5.201732745
1715668094645506540,0.375,,,,5.2094276
1715668094653201395,0.322,,,,5.217122455
1715668094660896250,0.25,,,,5.22481731
1715668094668591105,0.161,,,,5.232512165
1715668094676285960,0.067,,,,5.24020702
1715668094683980815,-0.012,,,,5.247901875
1715668094691675670,-0.072,,,,5.25559673
1715668094699370525,-0.103,,,,5.263291585
1715668094707065380,-0.117,,,,5.27098644
1715668094714760235,-0.129,,,,5.278681295
1715668094722455090,-0.129,,,,5.28637615
1715668094730149945,-0.122,,,,5.294071005
1715668094737844800,-0.12,,,,5.30176586
1715668094745539655,-0.11,,,,5.309460715
1715668094753234510,-0.096,,,,5.31715557
1715668094760929365,-0.081,,,,5.324850425
1715668094768624220,-0.069,,,,5.33254528
1715668094776319075,-0.067,,,,5.340240135
1715668094784013930,-0.057,,,,5.34793499
1715668094791708785,-0.043,,,,5.355629845
1715668094799403640,-0.031,,,,5.3633247
1715668094807098495,-0.026,,,,5.371019555
1715668094814793350,-0.014,,,,5.37871441
1715668094822488205,-0.004,,,,5.386409265
1715668094830183060,-0.004,,,,5.39410412
1715668094837877915,0.0,,,,5.401798975
1715668094845572770,0.009,,,,5.40949383
1715668094853267625,0.012,,,,5.417188685
1715668094860962480,0.009,,,,5.42488354
1715668094868657335,0.007,,,,5.432578395
1715668094876352190,0.007,,,,5.44027325
1715668094884047045,0.012,,,,5.447968105
1715668094891741900,0.009,,,,5.45566296
1715668094899436755,0.009,,,,5.463357815
1715668094907131610,0.014,,,,5.47105267
1715668094914826465,0.012,,,,5.478747525
1715668094922521320,-0.004,,,,5.48644238
1715668094930216175,-0.014,,,,5.494137235
1715668094937911030,0.004,,,,5.50183209
1715668094945605885,0.04,,,,5.509526945
1715668094953300740,0.055,,,,5.5172218
1715668094960995595,0.038,,,,5.524916655
1715668094968690450,0.009,,,,5.53261151
1715668094976385305,-0.016,,,,5.540306365
1715668094984080160,-0.033,,,,5.54800122
1715668094991775015,-0.033,,,,5.555696075
1715668094999469870,-0.019,,,,5.56339093
1715668095007164725,-0.012,,,,5.571085785
1715668095014859580,-0.012,,,,5.57878064
1715668095022554435,-0.002,,,,5.586475495
1715668095030249290,0.007,,,,5.59417035
1715668095037944145,0.007,,,,5.601865205
1715668095045639000,0.012,,,,5.60956006
1715668095053333920,0.036,,,,5.61725498
1715668095061028706,0.084,,,,5.624949766
1715668095068723492,0.146,,,,5.632644552
1715668095076418278,0.372,,,,5.640339338
1715668095084113064,1.026,,,,5.648034124
1715668095091807850,1.738,,,,5.65572891
1715668095099502636,1.231,,,,5.663423696
1715668095107197422,-0.399,,,,5.671118482
1715668095114892208,-0.81,,,,5.678813268
1715668095122586994,0.108,,,,5.686508054
1715668095130281780,0.151,,,,5.69420284
1715668095137976566,-0.278,,,,5.701897626
1715668095145671352,-0.081,,,,5.709592412
1715668095153366138,0.05,,,,5.717287198
1715668095161060924,-0.084,,,,5.724981984
1715668095168755710,-0.05,,,,5.73267677
1715668095176450496,0.036,,,,5.740371556
1715668095184145282,0.009,,,,5.748066342
1715668095191840068,0.004,,,,5.755761128
1715668095199534854,0.043,,,,5.763455914
1715668095207229640,0.052,,,,5.7711507
1715668095214924426,0.06,,,,5.778845486
1715668095222619212,0.081,,,,5.786540272
1715668095230313998,0.093,,,,5.794235058
1715668095238008784,0.108,,,,5.801929844
1715668095245703570,0.129,,,,5.80962463
1715668095253398356,0.149,,,,5.817319416
1715668095261093142,0.173,,,,5.825014202
1715668095268787928,0.206,,,,5.832708988
1715668095276482714,0.24,,,,5.840403774
1715668095284177500,0.278,,,,5.84809856
1715668095291872286,0.315,,,,5.855793346
1715668095299567072,0.353,,,,5.863488132
1715668095307261858,0.384,,,,5.871182918
1715668095314956644,0.394,,,,5.878877704
1715668095322651430,0.391,,,,5.88657249
1715668095330346216,0.37,,,,5.894267276
1715668095338041002,0.327,,,,5.901962062
1715668095345735788,0.257,,,,5.909656848
1715668095353430574,0.173,,,,5.917351634
1715668095361125360,0.088,,,,5.92504642
1715668095368820146,0.016,,,,5.932741206
1715668095376514932,-0.038,,,,5.940435992
1715668095384209718,-0.074,,,,5.948130778
1715668095391904504,-0.096,,,,5.955825564
1715668095399599290,-0.105,,,,5.96352035
1715668095407294076,-0.108,,,,5.971215136
1715668095414988862,-0.101,,,,5.978909922
1715668095422683648,-0.091,,,,5.986604708
1715668095430378434,-0.088,,,,5.994299494
1715668095438073220,-0.079,,,,6.00199428
1715668095445768006,-0.06,,,,6.009689066
1715668095453462792,-0.05,,,,6.017383852
1715668095461157578,-0.04,,,,6.025078638
1715668095468852364,-0.036,,,,6.032773424
1715668095476547150,-0.038,,,,6.04046821
1715668095484241936,-0.031,,,,6.048162996
1715668095491936722,-0.016,,,,6.055857782
1715668095499631508,-0.009,,,,6.063552568
1715668095507326294,-0.002,,,,6.071247354
1715668095515021080,0.007,,,,6.07894214
1715668095522715866,0.012,,,,6.086636926
1715668095530410652,0.009,,,,6.094331712
1715668095538105438,0.019,,,,6.102026498
1715668095545800224,0.026,,,,6.109721284
1715668095553495010,0.021,,,,6.11741607
1715668095561189796,0.021,,,,6.125110856
1715668095568884582,0.024,,,,6.132805642
1715668095576579368,0.031,,,,6.140500428
1715668095584274154,0.026,,,,6.148195214
1715668095591968940,0.004,,,,6.15589
1715668095599663726,0.0,,,,6.163584786
1715668095607358512,0.024,,,,6.171279572
1715668095615053314,0.057,74.0,750.0,,6.178974374
1715668095622748100,0.081,,731.0,,6.18666916
1715668095630442886,0.072,,,,6.194363946
1715668095638137672,0.04,,,,6.202058732
1715668095645832458,0.016,,,,6.209753518
1715668095653527244,0.004,,,,6.217448304
1715668095661222030,0.007,,,,6.22514309
1715668095668916816,0.009,,,,6.232837876
1715668095676611602,0.007,,,,6.240532662
1715668095684306388,0.012,,,,6.248227448
1715668095692001174,0.021,,,,6.255922234
1715668095699695960,0.026,,,,6.26361702
1715668095707390746,0.028,,,,6.271311806
1715668095715085532,0.033,,,,6.279006592
1715668095722780318,0.052,,,,6.286701378
1715668095730475104,0.072,,,,6.294396164
1715668095738169890,0.115,,,,6.30209095
1715668095745864676,0.363,,,,6.309785736
1715668095753559462,1.043,,,,6.317480522
1715668095761254248,1.793,,,,6.325175308
1715668095768949034,1.308,,,,6.332870094
1715668095776643820,-0.401,,,,6.34056488
1715668095784338606,-0.87,,,,6.348259666
1715668095792033392,0.113,,,,6.355954452
1715668095799728178,0.197,,,,6.363649238
1715668095807422964,-0.269,,,,6.371344024
1715668095815117750,-0.072,,,,6.37903881
1715668095822812536,0.088,,,,6.386733596
1715668095830507322,-0.06,,,,6.394428382
1715668095838202108,-0.036,,,,6.402123168
1715668095845896894,0.055,,,,6.409817954
1715668095853591680,0.021,,,,6.41751274
1715668095861286466,0.021,,,,6.425207526
1715668095868981252,0.067,,,,6.432902312
1715668095876676038,0.072,,,,6.440597098
1715668095884370824,0.072,,,,6.448291884
1715668095892065610,0.088,,,,6.45598667
1715668095899760396,0.11,,,,6.463681456
1715668095907455182,0.125,,,,6.471376242
1715668095915149968,0.139,,,,6.479071028
1715668095922844754,0.165,,,,6.486765814
1715668095930539540,0.192,,,,6.4944606
1715668095938234326,0.216,,,,6.502155386
1715668095945929112,0.247,,,,6.509850172
1715668095953623898,0.283,,,,6.517544958
1715668095961318684,0.324,,,,6.525239744
1715668095969013470,0.351,,,,6.53293453
1715668095976708256,0.358,,,,6.540629316
1715668095984403042,0.358,,,,6.548324102
1715668095992097828,0.351,,,,6.556018888
1715668095999792614,0.329,,,,6.563713674
1715668096007487400,0.283,,,,6.57140846
1715668096015182186,0.221,,,,6.579103246
1715668096022876972,0.146,,,,6.586798032
1715668096030571758,0.064,,,,6.594492818
1715668096038266544,0.002,,,,6.602187604
1715668096045961330,-0.036,,,,6.60988239
1715668096053656116,-0.064,,,,6.617577176
1715668096061350902,-0.079,,,,6.625271962
1715668096069045688,-0.084,,,,6.632966748
1715668096076740474,-0.086,,,,6.640661534
1715668096084435260,-0.081,,,,6.64835632
1715668096092130046,-0.074,,,,6.656051106
1715668096099824832,-0.062,,,,6.663745892
1715668096107519618,-0.048,,,,6.671440678
1715668096115214404,-0.038,,,,6.679135464
1715668096122909190,-0.026,,,,6.68683025
1715668096130603976,-0.021,,,,6.694525036
1715668096138298762,-0.012,,,,6.702219822
1715668096145993548,0.0,,,,6.709914608
1715668096153688334,0.009,,,,6.717609394
1715668096161383120,0.016,,,,6.72530418
1715668096169077906,0.021,,,,6.732998966
1715668096176772708,0.031,,,,6.740693768
1715668096184467563,0.036,,,,6.748388623
1715668096192162418,0.033,,,,6.756083478
1715668096199857273,0.036,,,,6.763778333
1715668096207552128,0.036,,,,6.771473188
1715668096215246983,0.024,,,,6.779168043
1715668096222941838,0.021,,,,6.786862898
1715668096230636693,0.024,,,,6.794557753
1715668096238331548,0.024,,,,6.802252608
1715668096246026403,0.026,,,,6.809947463
1715668096253721258,0.026,,,,6.817642318
1715668096261416113,0.019,,,,6.825337173
1715668096269110968,0.007,,,,6.833032028
1715668096276805823,0.024,,,,6.840726883
1715668096284500678,0.067,,,,6.848421738
1715668096292195533,0.093,,,,6.856116593
1715668096299890388,0.081,,,,6.863811448
1715668096307585243,0.048,,,,6.871506303
1715668096315280098,0.024,,,,6.879201158
1715668096322974953,0.019,,,,6.886896013
1715668096330669808,0.012,,,,6.894590868
1715668096338364663,0.016,,,,6.902285723
1715668096346059518,0.026,,,,6.909980578
1715668096353754373,0.024,,,,6.917675433
1715668096361449228,0.031,,,,6.925370288
1715668096369144083,0.043,,,,6.933065143
1715668096376838938,0.043,,,,6.940759998
1715668096384533793,0.038,,,,6.948454853
1715668096392228648,0.038,,,,6.956149708
1715668096399923503,0.064,,,,6.963844563
1715668096407618358,0.115,,,,6.971539418
1715668096415313213,0.264,,,,6.979234273
1715668096423008068,0.759,,,,6.986929128
1715668096430702923,1.529,,,,6.994623983
1715668096438397778,1.594,,,,7.002318838
1715668096446092633,0.141,,,,7.010013693
1715668096453787488,-0.971,,,,7.017708548
1715668096461482343,-0.199,,,,7.025403403
1715668096469177198,0.343,,,,7.033098258
1715668096476872053,-0.165,,,,7.040793113
1715668096484566908,-0.192,,,,7.048487968
1715668096492261763,0.076,,,,7.056182823
1715668096499956618,-0.016,,,,7.063877678
1715668096507651473,-0.072,,,,7.071572533
1715668096515346328,0.033,,,,7.079267388
1715668096523041183,0.04,,,,7.086962243
1715668096530736038,0.009,,,,7.094657098
1715668096538430893,0.048,,,,7.102351953
1715668096546125748,0.067,,,,7.110046808
1715668096553820603,0.06,,,,7.117741663
1715668096561515458,0.079,,,,7.125436518
1715668096569210313,0.096,,,,7.133131373
1715668096576905168,0.093,,,,7.140826228
1715668096584600023,0.11,,,,7.148521083
1715668096592294878,0.137,,,,7.156215938
1715668096599989733,0.161,,,,7.163910793
1715668096607684588,0.187,,,,7.171605648
1715668096615379443,0.221,,,,7.179300503
1715668096623074298,0.257,,,,7.186995358
1715668096630769153,0.278,,,,7.194690213
1715668096638464008,0.307,,,,7.202385068
1715668096646158863,0.339,,,,7.210079923
1715668096653853718,0.351,,,,7.217774778
1715668096661548573,0.343,,,,7.225469633
1715668096669243428,0.324,,,,7.233164488
1715668096676938283,0.288,,,,7.240859343
1715668096684633138,0.238,,,,7.248554198
1715668096692327993,0.156,,,,7.256249053
1715668096700022848,0.072,,,,7.263943908
1715668096707717703,0.002,,,,7.271638763
1715668096715412558,-0.052,,,,7.279333618
1715668096723107413,-0.093,,,,7.287028473
1715668096730802268,-0.113,,,,7.294723328
1715668096738497190,-0.115,75.0,687.0,,7.30241825
1715668096746192324,-0.12,,,,7.310113384
1715668096753887458,-0.122,,,,7.317808518
1715668096761582592,-0.11,,,,7.325503652
1715668096769277726,-0.098,,,,7.333198786
1715668096776972860,-0.091,,,,7.34089392
1715668096784667994,-0.076,,,,7.348589054
1715668096792363128,-0.062,,,,7.356284188
1715668096800058262,-0.048,,,,7.363979322
1715668096807753396,-0.036,,,,7.371674456
1715668096815448530,-0.033,,,,7.37936959
1715668096823143664,-0.024,,,,7.387064724
1715668096830838798,-0.014,,,,7.394759858
1715668096838533932,-0.014,,,,7.402454992
1715668096846229066,-0.016,,,,7.410150126
1715668096853924200,-0.012,,,,7.41784526
1715668096861619334,-0.004,,,,7.425540394
1715668096869314468,-0.009,,,,7.433235528
1715668096877009602,-0.009,,,,7.440930662
1715668096884704736,-0.002,,,,7.448625796
1715668096892399870,0.0,,,,7.45632093
1715668096900095004,0.0,,,,7.464016064
1715668096907790138,-0.002,,,,7.471711198
1715668096915485272,-0.004,,,,7.479406332
1715668096923180406,0.002,,,,7.487101466
1715668096930875540,-0.002,,,,7.4947966
1715668096938570674,-0.012,,,,7.502491734
1715668096946265808,-0.009,,,,7.510186868
1715668096953960942,0.019,,,,7.517882002
1715668096961656076,0.057,,,,7.525577136
1715668096969351210,0.064,,,,7.53327227
1715668096977046344,0.043,,,,7.540967404
1715668096984741478,0.012,,,,7.548662538
1715668096992436612,-0.021,,,,7.556357672
1715668097000131746,-0.028,,,,7.564052806
1715668097007826880,-0.014,,,,7.57174794
1715668097015522014,-0.009,,,,7.579443074
1715668097023217148,-0.004,,,,7.587138208
1715668097030912282,0.0,,,,7.594833342
1715668097038607416,0.009,,,,7.602528476
1715668097046302550,0.014,,,,7.61022361
1715668097053997684,0.012,,,,7.617918744
1715668097061692818,0.021,,,,7.625613878
1715668097069387952,0.06,,,,7.633309012
1715668097077083086,0.11,,,,7.641004146
1715668097084778220,0.194,,,,7.64869928
1715668097092473354,0.514,,,,7.656394414
1715668097100168488,1.248,,,,7.664089548
1715668097107863622,1.781,,,,7.671784682
1715668097115558756,0.844,,,,7.679479816
1715668097123253890,-0.771,,,,7.68717495
1715668097130949024,-0.666,,,,7.694870084
1715668097138644158,0.262,,,,7.702565218
1715668097146339292,0.031,,,,7.710260352
1715668097154034426,-0.29,,,,7.717955486
1715668097161729560,0.002,,,,7.72565062
1715668097169424694,0.045,,,,7.733345754
1715668097177119828,-0.096,,,,7.741040888
1715668097184814962,-0.019,,,,7.748736022
1715668097192510096,0.038,,,,7.756431156
1715668097200205230,0.002,,,,7.76412629
1715668097207900364,0.019,,,,7.771821424
1715668097215595498,0.055,,,,7.779516558
1715668097223290632,0.057,,,,7.787211692
1715668097230985766,0.06,,,,7.794906826
1715668097238680900,0.084,,,,7.80260196
1715668097246376034,0.105,,,,7.810297094
1715668097254071168,0.117,,,,7.817992228
1715668097261766302,0.139,,,,7.825687362
1715668097269461436,0.163,,,,7.833382496
1715668097277156570,0.189,,,,7.84107763
1715668097284851704,0.223,,,,7.848772764
1715668097292546838,0.257,,,,7.856467898
1715668097300242014,0.293,,,,7.864163074
1715668097307936800,0.322,,,,7.87185786
1715668097315631586,0.343,,,,7.879552646
1715668097323326372,0.353,,,,7.887247432
1715668097331021158,0.346,,,,7.894942218
1715668097338715944,0.331,,,,7.902637004
1715668097346410730,0.307,,,,7.91033179
1715668097354105516,0.252,,,,7.918026576
1715668097361800302,0.18,,,,7.925721362
1715668097369495088,0.086,,,,7.933416148
1715668097377189874,0.002,,,,7.941110934
1715668097384884660,-0.055,,,,7.94880572
1715668097392579446,-0.096,,,,7.956500506
1715668097400274232,-0.12,,,,7.964195292
1715668097407969018,-0.137,,,,7.971890078
1715668097415663804,-0.149,,,,7.979584864
1715668097423358590,-0.141,,,,7.98727965
1715668097431053376,-0.132,,,,7.994974436
1715668097438748162,-0.125,,,,8.002669222
1715668097446442948,-0.115,,,,8.010364008
1715668097454137734,-0.101,,,,8.018058794
1715668097461832520,-0.081,,,,8.02575358
1715668097469527306,-0.069,,,,8.033448366
1715668097477222092,-0.057,,,,8.041143152
1715668097484916878,-0.048,,,,8.048837938
1715668097492611664,-0.052,,,,8.056532724
1715668097500306450,-0.048,,,,8.06422751
1715668097508001236,-0.033,,,,8.071922296
1715668097515696022,-0.026,,,,8.079617082
1715668097523390808,-0.014,,,,8.087311868
1715668097531085594,-0.012,,,,8.095006654
1715668097538780380,-0.009,,,,8.10270144
1715668097546475166,-0.007,,,,8.110396226
1715668097554169952,-0.009,,,,8.118091012
1715668097561864738,-0.004,,,,8.125785798
1715668097569559524,-0.007,,,,8.133480584
1715668097577254310,-0.004,,,,8.14117537
1715668097584949096,0.0,,,,8.148870156
1715668097592643882,-0.007,,,,8.156564942
1715668097600338668,-0.007,,,,8.164259728
1715668097608033454,0.0,,,,8.171954514
1715668097615728240,-0.002,,,,8.1796493
1715668097623423026,-0.014,,,,8.187344086
1715668097631117812,-0.026,,,,8.195038872
1715668097638812598,-0.009,,,,8.202733658
1715668097646507384,0.031,,,,8.210428444
1715668097654202170,0.057,,,,8.21812323
1715668097661896956,0.057,,,,8.225818016
1715668097669591742,0.026,,,,8.233512802
1715668097677286528,0.0,,,,8.241207588
1715668097684981314,-0.009,,,,8.248902374
1715668097692676100,-0.016,,,,8.25659716
1715668097700370886,-0.004,,,,8.264291946
1715668097708065672,0.004,,,,8.271986732
1715668097715760458,0.007,,,,8.279681518
1715668097723455244,0.014,,,,8.287376304
1715668097731150030,0.016,,,,8.29507109
1715668097738844816,0.021,,,,8.302765876
1715668097746539602,0.026,,,,8.310460662
1715668097754234388,0.038,,,,8.318155448
1715668097761929174,0.084,,,,8.325850234
1715668097769623960,0.137,,,,8.33354502
1715668097777318746,0.278,,,,8.341239806
1715668097785013532,0.783,,,,8.348934592
1715668097792708318,1.579,,,,8.356629378
1715668097800403104,1.64,,,,8.364324164
1715668097808097890,0.149,,,,8.37201895
1715668097815792676,-0.973,,,,8.379713736
1715668097823487462,-0.185,,,,8.387408522
1715668097831182248,0.329,,,,8.395103308
1715668097838877034,-0.187,,,,8.402798094
1715668097846571820,-0.177,,,,8.41049288
1715668097854266606,0.091,,,,8.418187666
1715668097861961410,-0.021,76.0,670.0,,8.42588247
1715668097869656196,-0.079,,,,8.433577256
1715668097877350982,0.028,,,,8.441272042
1715668097885045768,0.031,,,,8.448966828
1715668097892740554,0.0,,,,8.456661614
1715668097900435340,0.04,,,,8.4643564
1715668097908130126,0.062,,,,8.472051186
1715668097915824912,0.052,,,,8.479745972
1715668097923519698,0.064,,,,8.487440758
1715668097931214484,0.079,,,,8.495135544
1715668097938909270,0.096,,,,8.50283033
1715668097946604056,0.117,,,,8.510525116
1715668097954298842,0.132,,,,8.518219902
1715668097961993628,0.158,,,,8.525914688
1715668097969688414,0.182,,,,8.533609474
1715668097977383200,0.214,,,,8.54130426
1715668097985077986,0.25,,,,8.548999046
1715668097992772772,0.276,,,,8.556693832
1715668098000467558,0.3,,,,8.564388618
1715668098008162344,0.317,,,,8.572083404
1715668098015857130,0.324,,,,8.57977819
1715668098023551916,0.324,,,,8.587472976
1715668098031246702,0.303,,,,8.595167762
1715668098038941488,0.264,,,,8.602862548
1715668098046636274,0.206,,,,8.610557334
1715668098054331060,0.129,,,,8.61825212
1715668098062025846,0.055,,,,8.625946906
1715668098069720632,-0.012,,,,8.633641692
1715668098077415418,-0.062,,,,8.641336478
1715668098085110204,-0.091,,,,8.649031264
1715668098092804990,-0.113,,,,8.65672605
1715668098100499776,-0.122,,,,8.664420836
1715668098108194562,-0.129,,,,8.672115622
1715668098115889348,-0.127,,,,8.679810408
1715668098123584134,-0.108,,,,8.687505194
1715668098131278920,-0.101,,,,8.69519998
1715668098138973706,-0.091,,,,8.702894766
1715668098146668492,-0.076,,,,8.710589552
1715668098154363278,-0.067,,,,8.718284338
1715668098162058064,-0.052,,,,8.725979124
1715668098169752850,-0.043,,,,8.73367391
1715668098177447636,-0.031,,,,8.741368696
1715668098185142422,-0.019,,,,8.749063482
1715668098192837208,-0.019,,,,8.756758268
1715668098200531994,-0.014,,,,8.764453054
1715668098208226780,-0.004,,,,8.77214784
1715668098215921566,0.0,,,,8.779842626
1715668098223616352,0.004,,,,8.787537412
1715668098231311138,0.004,,,,8.795232198
1715668098239005924,0.007,,,,8.802926984
1715668098246700710,0.009,,,,8.81062177
1715668098254395496,0.004,,,,8.818316556
1715668098262090282,0.012,,,,8.826011342
1715668098269785068,0.014,,,,8.833706128
1715668098277479854,0.014,,,,8.841400914
1715668098285174640,0.014,,,,8.8490957
1715668098292869426,0.012,,,,8.856790486
1715668098300564212,0.019,,,,8.864485272
1715668098308258998,0.021,,,,8.872180058
1715668098315953784,0.014,,,,8.879874844
1715668098323648570,0.026,,,,8.88756963
1715668098331343356,0.033,,,,8.895264416
1715668098339038142,0.021,,,,8.902959202
1715668098346732928,0.007,,,,8.910653988
1715668098354427714,0.016,,,,8.918348774
1715668098362122500,0.064,,,,8.92604356
1715668098369817286,0.093,,,,8.933738346
1715668098377512072,0.084,,,,8.941433132
1715668098385206858,0.055,,,,8.949127918
1715668098392901644,0.031,,,,8.956822704
1715668098400596430,0.021,,,,8.96451749
1715668098408291216,0.016,,,,8.972212276
1715668098415986002,0.019,,,,8.979907062
1715668098423680804,0.033,,,,8.987601864
1715668098431375590,0.031,,,,8.99529665
1715668098439070376,0.033,,,,9.002991436
1715668098446765162,0.048,,,,9.010686222
1715668098454459948,0.05,,,,9.018381008
1715668098462154734,0.05,,,,9.026075794
1715668098469849520,0.057,,,,9.03377058
1715668098477544306,0.084,,,,9.041465366
1715668098485239092,0.129,,,,9.049160152
1715668098492933878,0.274,,,,9.056854938
1715668098500628664,0.788,,,,9.064549724
1715668098508323450,1.591,,,,9.07224451
1715668098516018236,1.649,,,,9.079939296
1715668098523713022,0.161,,,,9.087634082
1715668098531407808,-0.973,,,,9.095328868
1715668098539102594,-0.189,,,,9.103023654
1715668098546797380,0.343,,,,9.11071844
1715668098554492166,-0.177,,,,9.118413226
1715668098562186952,-0.185,,,,9.126108012
1715668098569881738,0.086,,,,9.133802798
1715668098577576524,-0.016,,,,9.141497584
1715668098585271310,-0.067,,,,9.14919237
1715668098592966096,0.036,,,,9.156887156
1715668098600660882,0.033,,,,9.164581942
1715668098608355668,0.002,,,,9.172276728
1715668098616050454,0.04,,,,9.179971514
1715668098623745240,0.067,,,,9.1876663
1715668098631440026,0.062,,,,9.195361086
1715668098639134812,0.084,,,,9.203055872
1715668098646829598,0.103,,,,9.210750658
1715668098654524384,0.11,,,,9.218445444
1715668098662219170,0.129,,,,9.22614023
1715668098669913956,0.151,,,,9.233835016
1715668098677608742,0.17,,,,9.241529802
1715668098685303528,0.199,,,,9.249224588
1715668098692998314,0.228,,,,9.256919374
1715668098700693100,0.259,,,,9.26461416
1715668098708387886,0.286,,,,9.272308946
1715668098716082672,0.312,,,,9.280003732
1715668098723777458,0.329,,,,9.287698518
1715668098731472244,0.327,,,,9.295393304
1715668098739167030,0.319,,,,9.30308809
1715668098746861816,0.295,,,,9.310782876
1715668098754556602,0.257,,,,9.318477662
1715668098762251388,0.211,,,,9.326172448
1715668098769946174,0.144,,,,9.333867234
1715668098777640960,0.072,,,,9.34156202
1715668098785335746,0.016,,,,9.349256806
1715668098793030532,-0.036,,,,9.356951592
1715668098800725318,-0.067,,,,9.364646378
1715668098808420104,-0.081,,,,9.372341164
1715668098816114890,-0.088,,,,9.38003595
1715668098823809676,-0.091,,,,9.387730736
1715668098831504462,-0.088,,,,9.395425522
1715668098839199248,-0.081,,,,9.403120308
1715668098846894034,-0.079,,,,9.410815094
1715668098854588820,-0.076,,,,9.41850988
1715668098862283606,-0.055,,,,9.426204666
1715668098869978392,-0.043,,,,9.433899452
1715668098877673178,-0.033,,,,9.441594238
1715668098885367964,-0.021,,,,9.449289024
1715668098893062750,-0.019,,,,9.45698381
1715668098900757536,-0.004,,,,9.464678596
1715668098908452322,0.004,,,,9.472373382
1715668098916147108,0.004,,,,9.480068168
1715668098923841894,0.016,,,,9.487762954
1715668098931536680,0.019,,,,9.49545774
1715668098939231466,0.021,,,,9.503152526
1715668098946926252,0.024,,,,9.510847312
1715668098954621038,0.026,,,,9.518542098
1715668098962315824,0.033,,,,9.526236884
1715668098970010610,0.026,,,,9.53393167
1715668098977705396,0.024,,,,9.541626456
1715668098985400198,0.028,78.0,672.0,,9.549321258
1715668098993094984,0.026,,673.0,,9.557016044
1715668099000789770,0.021,,,,9.56471083
1715668099008484556,0.014,,,,9.572405616
1715668099016179342,0.019,,,,9.580100402
1715668099023874128,0.026,,,,9.587795188
1715668099031568914,0.021,,,,9.595489974
1715668099039263700,0.021,,,,9.60318476
1715668099046958486,0.033,,,,9.610879546
1715668099054653272,0.038,,,,9.618574332
1715668099062348058,0.031,,,,9.626269118
1715668099070042844,0.014,,,,9.633963904
1715668099077737630,0.024,,,,9.64165869
1715668099085432416,0.067,,,,9.649353476
1715668099093127202,0.091,,,,9.657048262
1715668099100821988,0.084,,,,9.664743048
1715668099108516774,0.057,,,,9.672437834
1715668099116211560,0.033,,,,9.68013262
1715668099123906346,0.026,,,,9.687827406
1715668099131601132,0.016,,,,9.695522192
1715668099139295918,0.021,,,,9.703216978
1715668099146990704,0.031,,,,9.710911764
1715668099154685490,0.033,,,,9.71860655
1715668099162380276,0.04,,,,9.726301336
1715668099170075062,0.043,,,,9.733996122
1715668099177769848,0.043,,,,9.741690908
1715668099185464634,0.036,,,,9.749385694
1715668099193159420,0.033,,,,9.75708048
1715668099200854206,0.072,,,,9.764775266
1715668099208548992,0.113,,,,9.772470052
1715668099216243778,0.271,,,,9.780164838
1715668099223938564,0.8200000000000001,,,,9.787859624
1715668099231633350,1.606,,,,9.79555441
1715668099239328136,1.565,,,,9.803249196
1715668099247022922,0.036,,,,9.810943982
1715668099254717708,-0.978,,,,9.818638768
1715668099262412494,-0.134,,,,9.826333554
1715668099270107280,0.334,,,,9.83402834
1715668099277802066,-0.182,,,,9.841723126
1715668099285496852,-0.153,,,,9.849417912
1715668099293191638,0.105,,,,9.857112698
1715668099300886424,-0.009,,,,9.864807484
1715668099308581210,-0.055,,,,9.87250227
1715668099316275996,0.052,,,,9.880197056
1715668099323970782,0.055,,,,9.887891842
1715668099331665568,0.026,,,,9.895586628
1715668099339360354,0.064,,,,9.903281414
1715668099347055140,0.076,,,,9.9109762
1715668099354749926,0.072,,,,9.918670986
1715668099362444712,0.098,,,,9.926365772
1715668099370139498,0.117,,,,9.934060558
1715668099377834284,0.127,,,,9.941755344
1715668099385529070,0.149,,,,9.94945013
1715668099393223856,0.163,,,,9.957144916
1715668099400918642,0.177,,,,9.964839702
1715668099408613428,0.197,,,,9.972534488
1715668099416308214,0.228,,,,9.980229274
1715668099424003000,0.262,,,,9.98792406
1715668099431697786,0.293,,,,9.995618846
1715668099439392572,0.327,,,,10.003313632
1715668099447087358,0.346,,,,10.011008418
1715668099454782144,0.346,,,,10.018703204
1715668099462476930,0.339,,,,10.02639799
1715668099470171716,0.315,,,,10.034092776
1715668099477866502,0.281,,,,10.041787562
1715668099485561288,0.233,,,,10.049482348
1715668099493256074,0.156,,,,10.057177134
1715668099500950860,0.081,,,,10.06487192
1715668099508645646,0.002,,,,10.072566706
1715668099516340432,-0.06,,,,10.080261492
1715668099524035218,-0.084,,,,10.087956278
1715668099531730004,-0.101,,,,10.095651064
1715668099539424790,-0.115,,,,10.10334585
1715668099547119592,-0.127,79.0,689.0,,10.111040652
1715668099554814378,-0.12,,,,10.118735438
1715668099562509164,-0.101,,,,10.126430224
1715668099570203950,-0.093,,,,10.13412501
1715668099577898736,-0.086,,,,10.141819796
1715668099585593522,-0.079,,,,10.149514582
1715668099593288308,-0.074,,,,10.157209368
1715668099600983094,-0.062,,,,10.164904154
1715668099608677880,-0.057,,,,10.17259894
1715668099616372666,-0.048,,,,10.180293726
1715668099624067452,-0.026,,,,10.187988512
1715668099631762238,-0.024,,,,10.195683298
1715668099639457024,-0.019,,,,10.203378084
1715668099647151810,-0.004,,,,10.21107287
1715668099654846596,-0.004,,,,10.218767656
1715668099662541382,-0.002,,,,10.226462442
1715668099670236168,-0.004,,,,10.234157228
1715668099677930954,0.002,,,,10.241852014
1715668099685625740,0.007,,,,10.2495468
1715668099693320526,0.0,,,,10.257241586
1715668099701015312,0.002,,,,10.264936372
1715668099708710098,0.004,,,,10.272631158
1715668099716404884,0.002,,,,10.280325944
1715668099724099670,0.004,,,,10.28802073
1715668099731794456,0.002,,,,10.295715516
1715668099739489242,0.012,,,,10.303410302
1715668099747184028,0.014,,,,10.311105088
1715668099754878814,0.012,,,,10.318799874
1715668099762573600,0.019,,,,10.32649466
1715668099770268386,0.012,,,,10.334189446
1715668099777963172,-0.004,,,,10.341884232
1715668099785657958,0.004,,,,10.349579018
1715668099793352744,0.04,,,,10.357273804
1715668099801047530,0.081,,,,10.36496859
1715668099808742316,0.088,,,,10.372663376
1715668099816437102,0.064,,,,10.380358162
1715668099824131888,0.033,,,,10.388052948
1715668099831826674,0.009,,,,10.395747734
1715668099839521460,0.004,,,,10.40344252
1715668099847216246,0.009,,,,10.411137306
1715668099854911032,0.012,,,,10.418832092
1715668099862605818,0.021,,,,10.426526878
1715668099870300604,0.026,,,,10.434221664
1715668099877995390,0.031,,,,10.44191645
1715668099885690176,0.038,,,,10.449611236
1715668099893384962,0.04,,,,10.457306022
1715668099901079748,0.05,,,,10.465000808
1715668099908774534,0.069,,,,10.472695594
1715668099916469320,0.098,,,,10.48039038
1715668099924164106,0.226,,,,10.488085166
1715668099931858892,0.716,,,,10.495779952
1715668099939553678,1.56,,,,10.503474738
1715668099947248464,1.774,,,,10.511169524
1715668099954943250,0.348,,,,10.51886431
1715668099962638036,-0.983,,,,10.526559096
1715668099970332822,-0.319,,,,10.534253882
1715668099978027608,0.358,,,,10.541948668
1715668099985722394,-0.12,,,,10.549643454
1715668099993417180,-0.214,,,,10.55733824
1715668100001111966,0.081,,,,10.565033026
1715668100008806752,-0.007,,,,10.572727812
1715668100016501538,-0.096,,,,10.580422598
1715668100024196324,0.026,,,,10.588117384
1715668100031891110,0.048,,,,10.59581217
1715668100039585896,0.014,,,,10.603506956
1715668100047280682,0.045,,,,10.611201742
1715668100054975468,0.067,,,,10.618896528
1715668100062670254,0.062,,,,10.626591314
1715668100070365040,0.072,,,,10.6342861
1715668100078059826,0.086,,,,10.641980886
1715668100085754612,0.088,,,,10.649675672
1715668100093449398,0.105,,,,10.657370458
1715668100101144184,0.144,,,,10.665065244
1715668100108838986,0.165,,,,10.672760046
1715668100116533772,0.187,,,,10.680454832
1715668100124228558,0.226,,,,10.688149618
1715668100131923344,0.257,,,,10.695844404
1715668100139618130,0.283,,,,10.70353919
1715668100147312916,0.307,,,,10.711233976
1715668100155007702,0.336,,,,10.718928762
1715668100162702488,0.365,,,,10.726623548
1715668100170397274,0.358,,,,10.734318334
1715668100178092060,0.334,,,,10.74201312
1715668100185786846,0.3,,,,10.749707906
1715668100193481632,0.247,,,,10.757402692
1715668100201176418,0.17,,,,10.765097478
1715668100208871204,0.079,,,,10.772792264
1715668100216565990,0.002,,,,10.78048705
1715668100224260776,-0.045,,,,10.788181836
1715668100231955562,-0.088,,,,10.795876622
1715668100239650348,-0.11,,,,10.803571408
1715668100247345134,-0.115,,,,10.811266194
1715668100255039920,-0.117,,,,10.81896098
1715668100262734706,-0.115,,,,10.826655766
1715668100270429492,-0.113,,,,10.834350552
1715668100278124278,-0.105,,,,10.842045338
1715668100285819064,-0.096,,,,10.849740124
1715668100293513850,-0.081,,,,10.85743491
1715668100301208636,-0.06,,,,10.865129696
1715668100308903422,-0.043,,,,10.872824482
1715668100316598208,-0.033,,,,10.880519268
1715668100324292994,-0.024,,,,10.888214054
1715668100331987780,-0.014,,,,10.89590884
1715668100339682566,0.007,,,,10.903603626
1715668100347377352,0.021,,,,10.911298412
1715668100355072138,0.021,,,,10.918993198
1715668100362766924,0.024,,,,10.926687984
1715668100370461710,0.026,,,,10.93438277
1715668100378156496,0.021,,,,10.942077556
1715668100385851282,0.024,,,,10.949772342
1715668100393546068,0.033,,,,10.957467128
1715668100401240854,0.038,,,,10.965161914
1715668100408935640,0.033,,,,10.9728567
1715668100416630426,0.031,,,,10.980551486
1715668100424325212,0.031,,,,10.988246272
1715668100432019998,0.028,,,,10.995941058
1715668100439714784,0.028,,,,11.003635844
1715668100447409570,0.028,,,,11.01133063
1715668100455104356,0.033,,,,11.019025416
1715668100462799142,0.033,,,,11.026720202
1715668100470493928,0.024,,,,11.034414988
1715668100478188714,0.016,,,,11.042109774
1715668100485883500,0.021,,,,11.04980456
1715668100493578286,0.052,,,,11.057499346
1715668100501273072,0.096,,,,11.065194132
1715668100508967858,0.101,,,,11.072888918
1715668100516662644,0.069,,,,11.080583704
1715668100524357430,0.045,,,,11.08827849
1715668100532052216,0.024,,,,11.095973276
1715668100539747002,0.012,,,,11.103668062
1715668100547441788,0.021,,,,11.111362848
1715668100555136574,0.04,,,,11.119057634
1715668100562831360,0.04,,,,11.12675242
1715668100570526146,0.036,,,,11.134447206
1715668100578220932,0.04,,,,11.142141992
1715668100585915718,0.045,,,,11.149836778
1715668100593610504,0.038,,,,11.157531564
1715668100601305290,0.036,,,,11.16522635
1715668100609000076,0.057,,,,11.172921136
1715668100616694862,0.074,,,,11.180615922
1715668100624389648,0.156,,,,11.188310708
1715668100632084434,0.634,,,,11.196005494
1715668100639779220,1.558,,,,11.20370028
1715668100647474006,1.976,,,,11.211395066
1715668100655168792,0.704,,,,11.219089852
1715668100662863578,-0.8270000000000001,,,,11.226784638
1715668100670558380,-0.408,81.0,716.0,,11.23447944
1715668100678253166,0.336,,723.0,,11.242174226
1715668100685947952,-0.079,,,,11.249869012
1715668100693642738,-0.24,,,,11.257563798
1715668100701337524,0.064,,,,11.265258584
1715668100709032310,0.028,,,,11.27295337
1715668100716727096,-0.069,,,,11.280648156
1715668100724421882,0.021,,,,11.288342942
1715668100732116668,0.043,,,,11.296037728
1715668100739811454,0.007,,,,11.303732514
1715668100747506240,0.031,,,,11.3114273
1715668100755201026,0.055,,,,11.319122086
1715668100762895812,0.052,,,,11.326816872
1715668100770590598,0.067,,,,11.334511658
1715668100778285384,0.084,,,,11.342206444
1715668100785980170,0.096,,,,11.34990123
1715668100793674956,0.117,,,,11.357596016
1715668100801369742,0.151,,,,11.365290802
1715668100809064528,0.161,,,,11.372985588
1715668100816759314,0.163,,,,11.380680374
1715668100824454100,0.216,,,,11.38837516
1715668100832148886,0.259,,,,11.396069946
1715668100839843672,0.266,,,,11.403764732
1715668100847538458,0.298,,,,11.411459518
1715668100855233244,0.336,,,,11.419154304
1715668100862928030,0.339,,,,11.42684909
1715668100870622816,0.324,,,,11.434543876
1715668100878317602,0.307,,,,11.442238662
1715668100886012388,0.278,,,,11.449933448
1715668100893707174,0.226,,,,11.457628234
1715668100901401960,0.151,,,,11.46532302
1715668100909096746,0.076,,,,11.473017806
1715668100916791532,0.016,,,,11.480712592
1715668100924486318,-0.026,,,,11.488407378
1715668100932181104,-0.045,,,,11.496102164
1715668100939875890,-0.057,,,,11.50379695
1715668100947570676,-0.064,,,,11.511491736
1715668100955265462,-0.072,,,,11.519186522
1715668100962960248,-0.074,,,,11.526881308
1715668100970655034,-0.064,,,,11.534576094
1715668100978349820,-0.052,,,,11.54227088
1715668100986044606,-0.05,,,,11.549965666
1715668100993739392,-0.043,,,,11.557660452
1715668101001434178,-0.021,,,,11.565355238
1715668101009128964,-0.009,,,,11.573050024
1715668101016823750,-0.012,,,,11.58074481
1715668101024518536,-0.014,,,,11.588439596
1715668101032213322,-0.007,,,,11.596134382
1715668101039908108,0.016,,,,11.603829168
1715668101047602894,0.028,,,,11.611523954
1715668101055297680,0.024,,,,11.61921874
1715668101062992466,0.024,,,,11.626913526
1715668101070687252,0.031,,,,11.634608312
1715668101078382038,0.028,,,,11.642303098
1715668101086076824,0.024,,,,11.649997884
1715668101093771610,0.036,,,,11.65769267
1715668101101466396,0.04,,,,11.665387456
1715668101109161182,0.026,,,,11.673082242
1715668101116855968,0.028,,,,11.680777028
1715668101124550754,0.045,,,,11.688471814
1715668101132245540,0.045,,,,11.6961666
1715668101139940326,0.031,,,,11.703861386
1715668101147635112,0.028,,,,11.711556172
1715668101155329898,0.045,,,,11.719250958
1715668101163024684,0.052,,,,11.726945744
1715668101170719470,0.048,,,,11.73464053
1715668101178414256,0.048,,,,11.742335316
1715668101186109042,0.038,,,,11.750030102
1715668101193803828,0.033,,,,11.757724888
1715668101201498614,0.072,,,,11.765419674
1715668101209193400,0.11,,,,11.77311446
1715668101216888186,0.113,,,,11.780809246
1715668101224582972,0.103,,,,11.788504032
1715668101232277776,0.084,,,,11.796198836
1715668101239972562,0.05,,,,11.803893622
1715668101247667348,0.033,,,,11.811588408
1715668101255362134,0.043,,,,11.819283194
1715668101263056920,0.055,,,,11.82697798
1715668101270751706,0.06,,,,11.834672766
1715668101278446492,0.067,,,,11.842367552
1715668101286141278,0.069,,,,11.850062338
1715668101293836064,0.062,,,,11.857757124
1715668101301530850,0.055,,,,11.86545191
1715668101309225636,0.055,,,,11.873146696
1715668101316920422,0.048,,,,11.880841482
1715668101324615208,0.043,,,,11.888536268
1715668101332309994,0.199,,,,11.896231054
1715668101340004780,0.791,,,,11.90392584
1715668101347699566,1.692,,,,11.911620626
1715668101355394352,1.882,,,,11.919315412
1715668101363089138,0.44,,,,11.927010198
1715668101370783924,-0.87,,,,11.934704984
1715668101378478710,-0.25,,,,11.94239977
1715668101386173496,0.343,,,,11.950094556
1715668101393868282,-0.12,,,,11.957789342
1715668101401563068,-0.177,,,,11.965484128
1715668101409257854,0.096,,,,11.973178914
1715668101416952640,0.012,,,,11.9808737
1715668101424647426,-0.055,,,,11.988568486
1715668101432342212,0.045,,,,11.996263272
1715668101440036998,0.055,,,,12.003958058
1715668101447731784,0.024,,,,12.011652844
1715668101455426570,0.06,,,,12.01934763
1715668101463121356,0.081,,,,12.027042416
1715668101470816142,0.079,,,,12.034737202
1715668101478510928,0.096,,,,12.042431988
1715668101486205714,0.11,,,,12.050126774
1715668101493900500,0.117,,,,12.05782156
1715668101501595286,0.132,,,,12.065516346
1715668101509290072,0.156,,,,12.073211132
1715668101516984858,0.175,,,,12.080905918
1715668101524679644,0.189,,,,12.088600704
1715668101532374430,0.204,,,,12.09629549
1715668101540069216,0.238,,,,12.103990276
1715668101547764002,0.278,,,,12.111685062
1715668101555458788,0.298,,,,12.119379848
1715668101563153574,0.305,,,,12.127074634
1715668101570848360,0.305,,,,12.13476942
1715668101578543146,0.3,,,,12.142464206
1715668101586237932,0.29,,,,12.150158992
1715668101593932718,0.254,,,,12.157853778
1715668101601627504,0.194,,,,12.165548564
1715668101609322290,0.129,,,,12.17324335
1715668101617017076,0.064,,,,12.180938136
1715668101624711862,0.019,,,,12.188632922
1715668101632406648,-0.012,,,,12.196327708
1715668101640101434,-0.05,,,,12.204022494
1715668101647796220,-0.072,,,,12.21171728
1715668101655491006,-0.069,,,,12.219412066
1715668101663185792,-0.062,,,,12.227106852
1715668101670880578,-0.062,,,,12.234801638
1715668101678575364,-0.062,,,,12.242496424
1715668101686270150,-0.052,,,,12.25019121
1715668101693964936,-0.038,,,,12.257885996
1715668101701659722,-0.033,,,,12.265580782
1715668101709354508,-0.028,,,,12.273275568
1715668101717049294,-0.016,,,,12.280970354
1715668101724744080,-0.009,,,,12.28866514
1715668101732438866,-0.002,,,,12.296359926
1715668101740133652,0.009,,,,12.304054712
1715668101747828438,0.024,,,,12.311749498
1715668101755523224,0.033,,,,12.319444284
1715668101763218010,0.026,,,,12.32713907
1715668101770912796,0.026,,,,12.334833856
1715668101778607582,0.033,,,,12.342528642
1715668101786302368,0.031,,,,12.350223428
1715668101793997170,0.016,81.0,709.0,,12.35791823
1715668101801692374,0.014,,,,12.365613434
1715668101809387578,0.019,,,,12.373308638
1715668101817082782,0.024,,,,12.381003842
1715668101824777986,0.024,,,,12.388699046
1715668101832473190,0.016,,,,12.39639425
1715668101840168394,0.009,,,,12.404089454
1715668101847863598,0.014,,,,12.411784658
1715668101855558802,0.009,,,,12.419479862
1715668101863254006,0.0,,,,12.427175066
1715668101870949210,0.012,,,,12.43487027
1715668101878644414,0.019,,,,12.442565474
1715668101886339618,0.014,,,,12.450260678
1715668101894034822,0.014,,,,12.457955882
1715668101901730026,-0.002,,,,12.465651086
1715668101909425230,-0.021,,,,12.47334629
1715668101917120434,0.004,,,,12.481041494
1715668101924815638,0.067,,,,12.488736698
1715668101932510842,0.096,,,,12.496431902
1715668101940206046,0.079,,,,12.504127106
1715668101947901250,0.048,,,,12.51182231
1715668101955596454,0.021,,,,12.519517514
1715668101963291658,0.007,,,,12.527212718
1715668101970986862,0.009,,,,12.534907922
1715668101978682066,0.009,,,,12.542603126
1715668101986377270,0.012,,,,12.55029833
1715668101994072474,0.026,,,,12.557993534
1715668102001767678,0.028,,,,12.565688738
1715668102009462882,0.024,,,,12.573383942
1715668102017158086,0.026,,,,12.581079146
1715668102024853290,0.028,,,,12.58877435
1715668102032548494,0.026,,,,12.596469554
1715668102040243698,0.012,,,,12.604164758
1715668102047938902,0.036,,,,12.611859962
1715668102055634106,0.317,,,,12.619555166
1715668102063329310,1.082,,,,12.62725037
1715668102071024514,1.916,,,,12.634945574
1715668102078719718,1.495,,,,12.642640778
1715668102086414922,-0.286,,,,12.650335982
1715668102094110126,-0.913,,,,12.658031186
1715668102101805330,0.06,,,,12.66572639
1715668102109500534,0.216,,,,12.673421594
1715668102117195738,-0.276,,,,12.681116798
1715668102124890942,-0.113,,,,12.688812002
1715668102132586146,0.072,,,,12.696507206
1715668102140281350,-0.064,,,,12.70420241
1715668102147976554,-0.06,,,,12.711897614
1715668102155671758,0.031,,,,12.719592818
1715668102163366962,0.007,,,,12.727288022
1715668102171062166,-0.002,,,,12.734983226
1715668102178757370,0.04,,,,12.74267843
1715668102186452574,0.048,,,,12.750373634
1715668102194147778,0.043,,,,12.758068838
1715668102201842982,0.074,,,,12.765764042
1715668102209538186,0.091,,,,12.773459246
1715668102217233390,0.093,,,,12.78115445
1715668102224928594,0.122,,,,12.788849654
1715668102232623798,0.158,,,,12.796544858
1715668102240319002,0.173,,,,12.804240062
1715668102248014206,0.202,,,,12.811935266
1715668102255709410,0.257,,,,12.81963047
1715668102263404614,0.295,,,,12.827325674
1715668102271099818,0.312,,,,12.835020878
1715668102278795022,0.336,,,,12.842716082
1715668102286490226,0.36,,,,12.850411286
1715668102294185430,0.37,,,,12.85810649
1715668102301880634,0.363,,,,12.865801694
1715668102309575838,0.334,,,,12.873496898
1715668102317271042,0.293,,,,12.881192102
1715668102324966246,0.235,,,,12.888887306
1715668102332661450,0.156,,,,12.89658251
1715668102340356654,0.067,,,,12.904277714
1715668102348051858,-0.009,,,,12.911972918
1715668102355747082,-0.06,,,,12.919668142
1715668102363441589,-0.088,,,,12.927362649
1715668102371136096,-0.108,,,,12.935057156
1715668102378830603,-0.105,,,,12.942751663
1715668102386525110,-0.101,,,,12.95044617
1715668102394219617,-0.105,,,,12.958140677
1715668102401914124,-0.101,,,,12.965835184
1715668102409608631,-0.088,,,,12.973529691
1715668102417303138,-0.088,,,,12.981224198
1715668102424997645,-0.096,,,,12.988918705
1715668102432692152,-0.079,,,,12.996613212
1715668102440386659,-0.05,,,,13.004307719
1715668102448081166,-0.043,,,,13.012002226
1715668102455775673,-0.033,,,,13.019696733
1715668102463470180,-0.021,,,,13.02739124
1715668102471164687,-0.014,,,,13.035085747
1715668102478859194,-0.002,,,,13.042780254
1715668102486553701,0.002,,,,13.050474761
1715668102494248208,0.0,,,,13.058169268
1715668102501942715,0.004,,,,13.065863775
1715668102509637222,0.014,,,,13.073558282
1715668102517331729,0.016,,,,13.081252789
1715668102525026236,0.004,,,,13.088947296
1715668102532720743,-0.012,,,,13.096641803
1715668102540415250,-0.016,,,,13.10433631
1715668102548109757,-0.004,,,,13.112030817
1715668102555804264,-0.002,,,,13.119725324
1715668102563498771,-0.004,,,,13.127419831
1715668102571193278,-0.002,,,,13.135114338
1715668102578887785,0.0,,,,13.142808845
1715668102586582292,-0.002,,,,13.150503352
1715668102594276799,-0.004,,,,13.158197859
1715668102601971306,-0.009,,,,13.165892366
1715668102609665813,-0.007,,,,13.173586873
1715668102617360320,0.026,,,,13.18128138
1715668102625054827,0.067,,,,13.188975887
1715668102632749334,0.074,,,,13.196670394
1715668102640443841,0.05,,,,13.204364901
1715668102648138348,0.019,,,,13.212059408
1715668102655832855,0.002,,,,13.219753915
1715668102663527362,0.0,,,,13.227448422
1715668102671221869,0.007,,,,13.235142929
1715668102678916376,0.016,,,,13.242837436
1715668102686610883,0.019,,,,13.250531943
1715668102694305390,0.024,,,,13.25822645
1715668102701999897,0.026,,,,13.265920957
1715668102709694404,0.021,,,,13.273615464
1715668102717388911,0.028,,,,13.281309971
1715668102725083418,0.04,,,,13.289004478
1715668102732777925,0.043,,,,13.296698985
1715668102740472432,0.052,,,,13.304393492
1715668102748166939,0.182,,,,13.312087999
1715668102755861446,0.731,,,,13.319782506
1715668102763555953,1.668,,,,13.327477013
1715668102771250460,1.971,,,,13.33517152
1715668102778944967,0.541,,,,13.342866027
1715668102786639474,-0.942,,,,13.350560534
1715668102794333981,-0.375,,,,13.358255041
1715668102802028488,0.334,,,,13.365949548
1715668102809722995,-0.137,,,,13.373644055
1715668102817417502,-0.254,,,,13.381338562
1715668102825112009,0.048,,,,13.389033069
1715668102832806516,-0.016,,,,13.396727576
1715668102840501023,-0.086,,,,13.404422083
1715668102848195530,0.026,,,,13.41211659
1715668102855890037,0.036,,,,13.419811097
1715668102863584544,-0.004,,,,13.427505604
1715668102871279051,0.026,,,,13.435200111
1715668102878973558,0.052,,,,13.442894618
1715668102886668065,0.043,,,,13.450589125
1715668102894362572,0.055,,,,13.458283632
1715668102902057079,0.076,,,,13.465978139
1715668102909751586,0.086,,,,13.473672646
1715668102917446132,0.108,81.0,701.0,,13.481367192
1715668102925141196,0.141,,,,13.489062256
1715668102932836260,0.165,,,,13.49675732
1715668102940531324,0.187,,,,13.504452384
1715668102948226388,0.221,,,,13.512147448
1715668102955921452,0.264,,,,13.519842512
1715668102963616516,0.3,,,,13.527537576
1715668102971311580,0.329,,,,13.53523264
1715668102979006644,0.363,,,,13.542927704
1715668102986701708,0.389,,,,13.550622768
1715668102994396772,0.382,,,,13.558317832
1715668103002091836,0.353,,,,13.566012896
1715668103009786900,0.317,,,,13.57370796
1715668103017481964,0.262,,,,13.581403024
1715668103025177028,0.177,,,,13.589098088
1715668103032872092,0.069,,,,13.596793152
1715668103040567156,-0.019,,,,13.604488216
1715668103048262220,-0.069,,,,13.61218328
1715668103055957284,-0.103,,,,13.619878344
1715668103063652348,-0.125,,,,13.627573408
1715668103071347412,-0.129,,,,13.635268472
1715668103079042476,-0.127,,,,13.642963536
1715668103086737540,-0.125,,,,13.6506586
1715668103094432604,-0.122,,,,13.658353664
1715668103102127668,-0.115,,,,13.666048728
1715668103109822732,-0.101,,,,13.673743792
1715668103117517796,-0.081,,,,13.681438856
1715668103125212860,-0.069,,,,13.68913392
1715668103132907924,-0.06,,,,13.696828984
1715668103140602988,-0.043,,,,13.704524048
1715668103148298052,-0.036,,,,13.712219112
1715668103155993116,-0.026,,,,13.719914176
1715668103163688180,-0.009,,,,13.72760924
1715668103171383244,0.002,,,,13.735304304
1715668103179078308,0.007,,,,13.742999368
1715668103186773372,0.014,,,,13.750694432
1715668103194468436,0.021,,,,13.758389496
1715668103202163500,0.024,,,,13.76608456
1715668103209858564,0.021,,,,13.773779624
1715668103217553628,0.028,,,,13.781474688
1715668103225248692,0.031,,,,13.789169752
1715668103232943756,0.026,,,,13.796864816
1715668103240638820,0.026,,,,13.80455988
1715668103248333884,0.031,,,,13.812254944
1715668103256028948,0.031,,,,13.819950008
1715668103263724012,0.031,,,,13.827645072
1715668103271419076,0.026,,,,13.835340136
1715668103279114140,0.026,,,,13.8430352
1715668103286809204,0.028,,,,13.850730264
1715668103294504268,0.019,,,,13.858425328
1715668103302199332,0.012,,,,13.866120392
1715668103309894396,0.036,,,,13.873815456
1715668103317589460,0.072,,,,13.88151052
1715668103325284524,0.081,,,,13.889205584
1715668103332979588,0.074,,,,13.896900648
1715668103340674652,0.06,,,,13.904595712
1715668103348369716,0.038,,,,13.912290776
1715668103356064780,0.024,,,,13.91998584
1715668103363759844,0.026,,,,13.927680904
1715668103371454908,0.033,,,,13.935375968
1715668103379149972,0.043,,,,13.943071032
1715668103386845036,0.045,,,,13.950766096
1715668103394540100,0.05,,,,13.95846116
1715668103402235164,0.057,,,,13.966156224
1715668103409930228,0.057,,,,13.973851288
1715668103417625292,0.052,,,,13.981546352
1715668103425320356,0.067,,,,13.989241416
1715668103433015420,0.088,,,,13.99693648
1715668103440710484,0.153,,,,14.004631544
1715668103448405548,0.507,,,,14.012326608
1715668103456100612,1.356,,,,14.020021672
1715668103463795676,2.084,,,,14.027716736
1715668103471490740,1.269,,,,14.0354118
1715668103479185870,-0.536,82.0,707.0,,14.04310693
1715668103486880656,-0.704,,721.0,,14.050801716
1715668103494575442,0.242,,,,14.058496502
1715668103502270228,0.096,,,,14.066191288
1715668103509965014,-0.283,,,,14.073886074
1715668103517659800,-0.021,,,,14.08158086
1715668103525354586,0.055,,,,14.089275646
1715668103533049372,-0.088,,,,14.096970432
1715668103540744158,-0.031,,,,14.104665218
1715668103548438944,0.038,,,,14.112360004
1715668103556133730,0.004,,,,14.12005479
1715668103563828516,0.012,,,,14.127749576
1715668103571523302,0.04,,,,14.135444362
1715668103579218088,0.04,,,,14.143139148
1715668103586912874,0.048,,,,14.150833934
1715668103594607660,0.064,,,,14.15852872
1715668103602302446,0.072,,,,14.166223506
1715668103609997232,0.091,,,,14.173918292
1715668103617692018,0.115,,,,14.181613078
1715668103625386804,0.137,,,,14.189307864
1715668103633081590,0.165,,,,14.19700265
1715668103640776376,0.197,,,,14.204697436
1715668103648471162,0.228,,,,14.212392222
1715668103656165948,0.266,,,,14.220087008
1715668103663860734,0.307,,,,14.227781794
1715668103671555520,0.341,,,,14.23547658
1715668103679250306,0.358,,,,14.243171366
1715668103686945092,0.355,,,,14.250866152
1715668103694639878,0.346,,,,14.258560938
1715668103702334664,0.327,,,,14.266255724
1715668103710029450,0.278,,,,14.27395051
1715668103717724236,0.202,,,,14.281645296
1715668103725419022,0.117,,,,14.289340082
1715668103733113808,0.048,,,,14.297034868
1715668103740808594,-0.009,,,,14.304729654
1715668103748503380,-0.048,,,,14.31242444
1715668103756198166,-0.069,,,,14.320119226
1715668103763892952,-0.081,,,,14.327814012
1715668103771587738,-0.093,,,,14.335508798
1715668103779282524,-0.096,,,,14.343203584
1715668103786977310,-0.091,,,,14.35089837
1715668103794672096,-0.072,,,,14.358593156
1715668103802366882,-0.06,,,,14.366287942
1715668103810061668,-0.057,,,,14.373982728
1715668103817756454,-0.05,,,,14.381677514
1715668103825451240,-0.04,,,,14.3893723
1715668103833146026,-0.038,,,,14.397067086
1715668103840840812,-0.028,,,,14.404761872
1715668103848535598,-0.009,,,,14.412456658
1715668103856230384,0.0,,,,14.420151444
1715668103863925170,0.004,,,,14.42784623
1715668103871619956,0.009,,,,14.435541016
1715668103879314742,0.019,,,,14.443235802
1715668103887009528,0.026,,,,14.450930588
1715668103894704314,0.028,,,,14.458625374
1715668103902399100,0.033,,,,14.46632016
1715668103910093886,0.038,,,,14.474014946
1715668103917788672,0.036,,,,14.481709732
1715668103925483458,0.031,,,,14.489404518
1715668103933178244,0.038,,,,14.497099304
1715668103940873030,0.045,,,,14.50479409
1715668103948567816,0.043,,,,14.512488876
1715668103956262602,0.04,,,,14.520183662
1715668103963957388,0.045,,,,14.527878448
1715668103971652174,0.048,,,,14.535573234
1715668103979346960,0.045,,,,14.54326802
1715668103987041746,0.043,,,,14.550962806
1715668103994736532,0.048,,,,14.558657592
1715668104002431318,0.052,,,,14.566352378
1715668104010126104,0.048,,,,14.574047164
1715668104017820890,0.031,,,,14.58174195
1715668104025515676,0.021,,,,14.589436736
1715668104033210462,0.043,,,,14.597131522
1715668104040905264,0.074,,,,14.604826324
1715668104048600050,0.088,,,,14.61252111
1715668104056294836,0.086,,,,14.620215896
1715668104063989622,0.069,,,,14.627910682
1715668104071684408,0.036,,,,14.635605468
1715668104079379194,0.016,,,,14.643300254
1715668104087073980,0.019,,,,14.65099504
1715668104094768766,0.028,,,,14.658689826
1715668104102463552,0.028,,,,14.666384612
1715668104110158338,0.024,,,,14.674079398
1715668104117853124,0.033,,,,14.681774184
1715668104125547910,0.048,,,,14.68946897
1715668104133242696,0.05,,,,14.697163756
1715668104140937482,0.05,,,,14.704858542
1715668104148632268,0.06,,,,14.712553328
1715668104156327054,0.069,,,,14.720248114
1715668104164021840,0.113,,,,14.7279429
1715668104171716626,0.391,,,,14.735637686
1715668104179411412,1.144,,,,14.743332472
1715668104187106198,1.974,,,,14.751027258
1715668104194800984,1.519,,,,14.758722044
1715668104202495770,-0.259,,,,14.76641683
1715668104210190556,-0.836,,,,14.774111616
1715668104217885342,0.113,,,,14.781806402
1715668104225580128,0.209,,,,14.789501188
1715668104233274914,-0.264,,,,14.797195974
1715668104240969700,-0.072,,,,14.80489076
1715668104248664486,0.088,,,,14.812585546
1715668104256359272,-0.055,,,,14.820280332
1715668104264054058,-0.036,,,,14.827975118
1715668104271748844,0.05,,,,14.835669904
1715668104279443630,0.024,,,,14.84336469
1715668104287138416,0.014,,,,14.851059476
1715668104294833202,0.052,,,,14.858754262
1715668104302527988,0.062,,,,14.866449048
1715668104310222774,0.062,,,,14.874143834
1715668104317917560,0.079,,,,14.88183862
1715668104325612346,0.096,,,,14.889533406
1715668104333307132,0.11,,,,14.897228192
1715668104341001918,0.125,,,,14.904922978
1715668104348696704,0.144,,,,14.912617764
1715668104356391490,0.17,,,,14.92031255
1715668104364086276,0.202,,,,14.928007336
1715668104371781062,0.233,,,,14.935702122
1715668104379475848,0.266,,,,14.943396908
1715668104387170634,0.3,,,,14.951091694
1715668104394865420,0.331,,,,14.95878648
1715668104402560206,0.348,,,,14.966481266
1715668104410254992,0.353,,,,14.974176052
1715668104417949778,0.351,,,,14.981870838
1715668104425644564,0.327,,,,14.989565624
1715668104433339350,0.283,,,,14.99726041
1715668104441034136,0.235,,,,15.004955196
1715668104448728922,0.161,,,,15.012649982
1715668104456423708,0.074,,,,15.020344768
1715668104464118494,0.016,,,,15.028039554
1715668104471813280,-0.024,,,,15.03573434
1715668104479508066,-0.052,,,,15.043429126
1715668104487202852,-0.067,,,,15.051123912
1715668104494897638,-0.072,,,,15.058818698
1715668104502592424,-0.076,,,,15.066513484
1715668104510287210,-0.072,,,,15.07420827
1715668104517981996,-0.064,,,,15.081903056
1715668104525676782,-0.064,,,,15.089597842
1715668104533371568,-0.055,,,,15.097292628
1715668104541066354,-0.052,,,,15.104987414
1715668104548761140,-0.06,,,,15.1126822
1715668104556455926,-0.045,,,,15.120376986
1715668104564150712,-0.026,,,,15.128071772
1715668104571845498,-0.026,,,,15.135766558
1715668104579540284,-0.021,,,,15.143461344
1715668104587235070,-0.012,,,,15.15115613
1715668104594929856,0.004,,,,15.158850916
1715668104602624660,0.021,82.0,695.0,,15.16654572
1715668104610319446,0.026,,,,15.174240506
1715668104618014232,0.024,,,,15.181935292
1715668104625709018,0.028,,,,15.189630078
1715668104633403804,0.033,,,,15.197324864
1715668104641098590,0.033,,,,15.20501965
1715668104648793376,0.028,,,,15.212714436
1715668104656488162,0.026,,,,15.220409222
1715668104664182948,0.031,,,,15.228104008
1715668104671877734,0.026,,,,15.235798794
1715668104679572520,0.014,,,,15.24349358
1715668104687267306,0.014,,,,15.251188366
1715668104694962092,0.026,,,,15.258883152
1715668104702656878,0.024,,,,15.266577938
1715668104710351664,0.014,,,,15.274272724
1715668104718046450,0.019,,,,15.28196751
1715668104725741236,0.028,,,,15.289662296
1715668104733436022,0.033,,,,15.297357082
1715668104741130808,0.033,,,,15.305051868
1715668104748825594,0.026,,,,15.312746654
1715668104756520380,0.028,,,,15.32044144
1715668104764215166,0.028,,,,15.328136226
1715668104771909952,0.016,,,,15.335831012
1715668104779604738,0.012,,,,15.343525798
1715668104787299524,0.045,,,,15.351220584
1715668104794994310,0.086,,,,15.35891537
1715668104802689096,0.084,,,,15.366610156
1715668104810383882,0.062,,,,15.374304942
1715668104818078668,0.043,,,,15.381999728
1715668104825773454,0.016,,,,15.389694514
1715668104833468240,0.004,,,,15.3973893
1715668104841163026,0.012,,,,15.405084086
1715668104848857812,0.016,,,,15.412778872
1715668104856552598,0.024,,,,15.420473658
1715668104864247384,0.028,,,,15.428168444
1715668104871942170,0.033,,,,15.43586323
1715668104879636956,0.036,,,,15.443558016
1715668104887331742,0.036,,,,15.451252802
1715668104895026528,0.043,,,,15.458947588
1715668104902721314,0.055,,,,15.466642374
1715668104910416100,0.072,,,,15.47433716
1715668104918110886,0.192,,,,15.482031946
1715668104925805672,0.68,,,,15.489726732
1715668104933500458,1.536,,,,15.497421518
1715668104941195244,1.837,,,,15.505116304
1715668104948890030,0.521,,,,15.51281109
1715668104956584816,-0.892,,,,15.520505876
1715668104964279602,-0.372,,,,15.528200662
1715668104971974388,0.327,,,,15.535895448
1715668104979669174,-0.113,,,,15.543590234
1715668104987363960,-0.247,,,,15.55128502
1715668104995058746,0.045,,,,15.558979806
1715668105002753532,-0.016,,,,15.566674592
1715668105010448318,-0.113,,,,15.574369378
1715668105018143104,0.002,,,,15.582064164
1715668105025837890,0.033,,,,15.58975895
1715668105033532676,-0.009,,,,15.597453736
1715668105041227462,0.004,,,,15.605148522
1715668105048922248,0.024,,,,15.612843308
1715668105056617034,0.026,,,,15.620538094
1715668105064311820,0.045,,,,15.62823288
1715668105072006606,0.064,,,,15.635927666
1715668105079701392,0.081,,,,15.643622452
1715668105087396178,0.098,,,,15.651317238
1715668105095090964,0.117,,,,15.659012024
1715668105102785750,0.141,,,,15.66670681
1715668105110480536,0.173,,,,15.674401596
1715668105118175322,0.206,,,,15.682096382
1715668105125870108,0.233,,,,15.689791168
1715668105133564894,0.271,,,,15.697485954
1715668105141259680,0.317,,,,15.70518074
1715668105148954466,0.339,,,,15.712875526
1715668105156649252,0.353,,,,15.720570312
1715668105164344054,0.372,,,,15.728265114
1715668105172038840,0.367,,,,15.7359599
1715668105179733626,0.334,,,,15.743654686
1715668105187428412,0.278,,,,15.751349472
1715668105195123198,0.202,,,,15.759044258
1715668105202817984,0.115,,,,15.766739044
1715668105210512770,0.036,,,,15.77443383
1715668105218207556,-0.026,,,,15.782128616
1715668105225902342,-0.072,,,,15.789823402
1715668105233597128,-0.101,,,,15.797518188
1715668105241291914,-0.11,,,,15.805212974
1715668105248986700,-0.12,,,,15.81290776
1715668105256681486,-0.127,,,,15.820602546
1715668105264376272,-0.122,,,,15.828297332
1715668105272071058,-0.11,,,,15.835992118
1715668105279765844,-0.108,,,,15.843686904
1715668105287460630,-0.103,,,,15.85138169
1715668105295155416,-0.079,,,,15.859076476
1715668105302850202,-0.062,,,,15.866771262
1715668105310544988,-0.057,,,,15.874466048
1715668105318239774,-0.045,,,,15.882160834
1715668105325934560,-0.026,,,,15.88985562
1715668105333629346,-0.016,,,,15.897550406
1715668105341324132,-0.009,,,,15.905245192
1715668105349018918,-0.004,,,,15.912939978
1715668105356713704,0.0,,,,15.920634764
1715668105364408490,0.007,,,,15.92832955
1715668105372103276,0.014,,,,15.936024336
1715668105379798062,0.014,,,,15.943719122
1715668105387492848,0.012,,,,15.951413908
1715668105395187634,0.014,,,,15.959108694
1715668105402882420,0.012,,,,15.96680348
1715668105410577206,0.007,,,,15.974498266
1715668105418271992,0.012,,,,15.982193052
1715668105425966778,0.014,,,,15.989887838
1715668105433661564,0.024,,,,15.997582624
1715668105441356350,0.026,,,,16.00527741
1715668105449051136,0.014,,,,16.012972196
1715668105456745922,0.016,,,,16.020666982
1715668105464440708,0.024,,,,16.028361768
1715668105472135494,0.024,,,,16.036056554
1715668105479830280,0.031,,,,16.04375134
1715668105487525066,0.036,,,,16.051446126
1715668105495219852,0.024,,,,16.059140912
1715668105502914638,0.007,,,,16.066835698
1715668105510609424,0.007,,,,16.074530484
1715668105518304210,0.031,,,,16.08222527
1715668105525998996,0.074,,,,16.089920056
1715668105533693782,0.093,,,,16.097614842
1715668105541388568,0.064,,,,16.105309628
1715668105549083354,0.021,,,,16.113004414
1715668105556778140,0.004,,,,16.1206992
1715668105564472926,0.0,,,,16.128393986
1715668105572167712,0.0,,,,16.136088772
1715668105579862498,0.009,,,,16.143783558
1715668105587557284,0.016,,,,16.151478344
1715668105595252070,0.024,,,,16.15917313
1715668105602946856,0.033,,,,16.166867916
1715668105610641642,0.038,,,,16.174562702
1715668105618336428,0.04,,,,16.182257488
1715668105626031214,0.043,,,,16.189952274
1715668105633726000,0.055,,,,16.19764706
1715668105641420786,0.072,,,,16.205341846
1715668105649115572,0.139,,,,16.213036632
1715668105656810358,0.529,,,,16.220731418
1715668105664505144,1.373,,,,16.228426204
1715668105672199930,1.957,,,,16.23612099
1715668105679894716,0.971,,,,16.243815776
1715668105687589502,-0.709,,,,16.251510562
1715668105695284288,-0.62,,,,16.259205348
1715668105702979074,0.271,,,,16.266900134
1715668105710673860,0.019,,,,16.27459492
1715668105718368646,-0.281,,,,16.282289706
1715668105726063448,-0.002,83.0,695.0,,16.289984508
1715668105733758234,0.031,,725.0,,16.297679294
1715668105741453020,-0.093,,,,16.30537408
1715668105749147806,-0.019,,,,16.313068866
1715668105756842592,0.031,,,,16.320763652
1715668105764537378,-0.004,,,,16.328458438
1715668105772232164,0.014,,,,16.336153224
1715668105779926950,0.043,,,,16.34384801
1715668105787621736,0.033,,,,16.351542796
1715668105795316522,0.048,,,,16.359237582
1715668105803011308,0.079,,,,16.366932368
1715668105810706094,0.086,,,,16.374627154
1715668105818400880,0.098,,,,16.38232194
1715668105826095666,0.127,,,,16.390016726
1715668105833790452,0.153,,,,16.397711512
1715668105841485238,0.173,,,,16.405406298
1715668105849180024,0.202,,,,16.413101084
1715668105856874810,0.245,,,,16.42079587
1715668105864569596,0.283,,,,16.428490656
1715668105872264382,0.317,,,,16.436185442
1715668105879959168,0.351,,,,16.443880228
1715668105887653954,0.372,,,,16.451575014
1715668105895348740,0.377,,,,16.4592698
1715668105903043526,0.36,,,,16.466964586
1715668105910738312,0.324,,,,16.474659372
1715668105918433098,0.281,,,,16.482354158
1715668105926127884,0.216,,,,16.490048944
1715668105933822670,0.134,,,,16.49774373
1715668105941517456,0.055,,,,16.505438516
1715668105949212242,-0.007,,,,16.513133302
1715668105956907028,-0.05,,,,16.520828088
1715668105964601814,-0.079,,,,16.528522874
1715668105972296600,-0.093,,,,16.53621766
1715668105979991386,-0.096,,,,16.543912446
1715668105987686172,-0.103,,,,16.551607232
1715668105995380958,-0.103,,,,16.559302018
1715668106003075744,-0.091,,,,16.566996804
1715668106010770530,-0.076,,,,16.57469159
1715668106018465316,-0.069,,,,16.582386376
1715668106026160102,-0.06,,,,16.590081162
1715668106033854888,-0.038,,,,16.597775948
1715668106041549674,-0.021,,,,16.605470734
1715668106049244460,-0.028,,,,16.61316552
1715668106056939246,-0.024,,,,16.620860306
1715668106064634032,-0.002,,,,16.628555092
1715668106072328818,0.009,,,,16.636249878
1715668106080023604,0.004,,,,16.643944664
1715668106087718390,0.002,,,,16.65163945
1715668106095413176,0.016,,,,16.659334236
1715668106103107962,0.024,,,,16.667029022
1715668106110802748,0.026,,,,16.674723808
1715668106118497534,0.031,,,,16.682418594
1715668106126192320,0.028,,,,16.69011338
1715668106133887106,0.024,,,,16.697808166
1715668106141581892,0.021,,,,16.705502952
1715668106149276678,0.021,,,,16.713197738
1715668106156971464,0.026,,,,16.720892524
1715668106164666250,0.028,,,,16.72858731
1715668106172361036,0.031,,,,16.736282096
1715668106180055822,0.031,,,,16.743976882
1715668106187750608,0.031,,,,16.751671668
1715668106195445394,0.038,,,,16.759366454
1715668106203140180,0.038,,,,16.76706124
1715668106210834966,0.036,,,,16.774756026
1715668106218529752,0.043,,,,16.782450812
1715668106226224538,0.045,,,,16.790145598
1715668106233919324,0.038,,,,16.797840384
1715668106241614110,0.021,,,,16.80553517
1715668106249308896,0.016,,,,16.813229956
1715668106257003682,0.036,,,,16.820924742
1715668106264698468,0.072,,,,16.828619528
1715668106272393254,0.096,,,,16.836314314
1715668106280088040,0.086,,,,16.8440091
1715668106287782842,0.057,,,,16.851703902
1715668106295477628,0.038,,,,16.859398688
1715668106303172414,0.031,,,,16.867093474
1715668106310867200,0.028,,,,16.87478826
1715668106318561986,0.028,,,,16.882483046
1715668106326256772,0.026,,,,16.890177832
1715668106333951558,0.031,,,,16.897872618
1715668106341646344,0.04,,,,16.905567404
1715668106349341130,0.045,,,,16.91326219
1715668106357035916,0.05,,,,16.920956976
1715668106364730702,0.052,,,,16.928651762
1715668106372425488,0.064,,,,16.936346548
1715668106380120274,0.076,,,,16.944041334
1715668106387815060,0.12,,,,16.95173612
1715668106395509846,0.423,,,,16.959430906
1715668106403204632,1.221,,,,16.967125692
1715668106410899418,1.995,,,,16.974820478
1715668106418594204,1.329,,,,16.982515264
1715668106426288990,-0.444,,,,16.99021005
1715668106433983776,-0.745,,,,16.997904836
1715668106441678562,0.192,,,,17.005599622
1715668106449373348,0.12,,,,17.013294408
1715668106457068134,-0.288,,,,17.020989194
1715668106464762920,-0.045,,,,17.02868398
1715668106472457706,0.062,,,,17.036378766
1715668106480152492,-0.086,,,,17.044073552
1715668106487847278,-0.038,,,,17.051768338
1715668106495542064,0.048,,,,17.059463124
1715668106503236850,0.012,,,,17.06715791
1715668106510931636,0.016,,,,17.074852696
1715668106518626422,0.062,,,,17.082547482
1715668106526321208,0.067,,,,17.090242268
1715668106534015994,0.067,,,,17.097937054
1715668106541710780,0.086,,,,17.10563184
1715668106549405566,0.091,,,,17.113326626
1715668106557100352,0.096,,,,17.121021412
1715668106564795138,0.12,,,,17.128716198
1715668106572489924,0.146,,,,17.136410984
1715668106580184710,0.175,,,,17.14410577
1715668106587879496,0.206,,,,17.151800556
1715668106595574282,0.238,,,,17.159495342
1715668106603269068,0.264,,,,17.167190128
1715668106610963854,0.305,,,,17.174884914
1715668106618658640,0.343,,,,17.1825797
1715668106626353426,0.355,,,,17.190274486
1715668106634048212,0.358,,,,17.197969272
1715668106641742998,0.355,,,,17.205664058
1715668106649437784,0.327,,,,17.213358844
1715668106657132570,0.283,,,,17.22105363
1715668106664827356,0.226,,,,17.228748416
1715668106672522142,0.158,,,,17.236443202
1715668106680216928,0.084,,,,17.244137988
1715668106687911714,0.019,,,,17.251832774
1715668106695606500,-0.021,,,,17.25952756
1715668106703301286,-0.045,,,,17.267222346
1715668106710996072,-0.057,,,,17.274917132
1715668106718690858,-0.064,,,,17.282611918
1715668106726385644,-0.072,,,,17.290306704
1715668106734080430,-0.067,,,,17.29800149
1715668106741775216,-0.057,,,,17.305696276
1715668106749470002,-0.048,,,,17.313391062
1715668106757164788,-0.033,,,,17.321085848
1715668106764859574,-0.024,,,,17.328780634
1715668106772554360,-0.019,,,,17.33647542
1715668106780249146,-0.007,,,,17.344170206
1715668106787943932,0.004,,,,17.351864992
1715668106795638718,0.016,,,,17.359559778
1715668106803333504,0.024,,,,17.367254564
1715668106811028290,0.031,,,,17.37494935
1715668106818723076,0.04,,,,17.382644136
1715668106826417862,0.04,,,,17.390338922
1715668106834112648,0.04,,,,17.398033708
1715668106841807434,0.048,,,,17.405728494
1715668106849502236,0.057,83.0,750.0,,17.413423296
1715668106857197022,0.06,,,,17.421118082
1715668106864891808,0.057,,,,17.428812868
1715668106872586594,0.055,,,,17.436507654
1715668106880281380,0.055,,,,17.44420244
1715668106887976166,0.05,,,,17.451897226
1715668106895670952,0.045,,,,17.459592012
1715668106903365738,0.045,,,,17.467286798
1715668106911060524,0.052,,,,17.474981584
1715668106918755310,0.052,,,,17.48267637
1715668106926450096,0.04,,,,17.490371156
1715668106934144882,0.04,,,,17.498065942
1715668106941839668,0.05,,,,17.505760728
1715668106949534454,0.05,,,,17.513455514
1715668106957229240,0.048,,,,17.5211503
1715668106964924026,0.048,,,,17.528845086
1715668106972618812,0.048,,,,17.536539872
1715668106980313598,0.043,,,,17.544234658
1715668106988008384,0.033,,,,17.551929444
1715668106995703170,0.026,,,,17.55962423
1715668107003397956,0.043,,,,17.567319016
1715668107011092742,0.084,,,,17.575013802
1715668107018787528,0.108,,,,17.582708588
1715668107026482314,0.098,,,,17.590403374
1715668107034177100,0.076,,,,17.59809816
1715668107041871886,0.057,,,,17.605792946
1715668107049566672,0.038,,,,17.613487732
1715668107057261458,0.024,,,,17.621182518
1715668107064956244,0.026,,,,17.628877304
1715668107072651030,0.036,,,,17.63657209
1715668107080345816,0.04,,,,17.644266876
1715668107088040602,0.043,,,,17.651961662
1715668107095735388,0.048,,,,17.659656448
1715668107103430174,0.043,,,,17.667351234
1715668107111124960,0.036,,,,17.67504602
1715668107118819746,0.045,,,,17.682740806
1715668107126514532,0.06,,,,17.690435592
1715668107134209318,0.098,,,,17.698130378
1715668107141904104,0.365,,,,17.705825164
1715668107149598890,1.103,,,,17.71351995
1715668107157293676,1.911,,,,17.721214736
1715668107164988462,1.459,,,,17.728909522
1715668107172683248,-0.262,,,,17.736604308
1715668107180378034,-0.812,,,,17.744299094
1715668107188072820,0.103,,,,17.75199388
1715668107195767606,0.194,,,,17.759688666
1715668107203462392,-0.269,,,,17.767383452
1715668107211157178,-0.088,,,,17.775078238
1715668107218851964,0.069,,,,17.782773024
1715668107226546750,-0.072,,,,17.79046781
1715668107234241536,-0.05,,,,17.798162596
1715668107241936322,0.045,,,,17.805857382
1715668107249631108,0.024,,,,17.813552168
1715668107257325894,0.016,,,,17.821246954
1715668107265020680,0.055,,,,17.82894174
1715668107272715466,0.06,,,,17.836636526
1715668107280410252,0.057,,,,17.844331312
1715668107288105038,0.081,,,,17.852026098
1715668107295799824,0.105,,,,17.859720884
1715668107303494610,0.113,,,,17.86741567
1715668107311189396,0.129,,,,17.875110456
1715668107318884182,0.156,,,,17.882805242
1715668107326578968,0.173,,,,17.890500028
1715668107334273754,0.192,,,,17.898194814
1715668107341968540,0.221,,,,17.9058896
1715668107349663326,0.259,,,,17.913584386
1715668107357358112,0.3,,,,17.921279172
1715668107365052898,0.331,,,,17.928973958
1715668107372747684,0.346,,,,17.936668744
1715668107380442470,0.348,,,,17.94436353
1715668107388137256,0.343,,,,17.952058316
1715668107395832042,0.327,,,,17.959753102
1715668107403526828,0.288,,,,17.967447888
1715668107411221630,0.23,,,,17.97514269
1715668107418916416,0.158,,,,17.982837476
1715668107426611202,0.081,,,,17.990532262
1715668107434305988,0.012,,,,17.998227048
1715668107442000774,-0.04,,,,18.005921834
1715668107449695560,-0.064,,,,18.01361662
1715668107457390346,-0.076,,,,18.021311406
1715668107465085132,-0.086,,,,18.029006192
1715668107472779918,-0.091,,,,18.036700978
1715668107480474704,-0.088,,,,18.044395764
1715668107488169490,-0.079,,,,18.05209055
1715668107495864276,-0.069,,,,18.059785336
1715668107503559062,-0.064,,,,18.067480122
1715668107511253848,-0.055,,,,18.075174908
1715668107518948634,-0.043,,,,18.082869694
1715668107526643420,-0.036,,,,18.09056448
1715668107534338206,-0.021,,,,18.098259266
1715668107542032992,-0.012,,,,18.105954052
1715668107549727778,-0.004,,,,18.113648838
1715668107557422564,0.002,,,,18.121343624
1715668107565117350,0.0,,,,18.12903841
1715668107572812136,0.004,,,,18.136733196
1715668107580506922,0.016,,,,18.144427982
1715668107588201708,0.024,,,,18.152122768
1715668107595896494,0.021,,,,18.159817554
1715668107603591280,0.021,,,,18.16751234
1715668107611286066,0.026,,,,18.175207126
1715668107618980852,0.028,,,,18.182901912
1715668107626675638,0.024,,,,18.190596698
1715668107634370424,0.019,,,,18.198291484
1715668107642065210,0.019,,,,18.20598627
1715668107649759996,0.016,,,,18.213681056
1715668107657454782,0.012,,,,18.221375842
1715668107665149568,0.016,,,,18.229070628
1715668107672844354,0.016,,,,18.236765414
1715668107680539140,0.014,,,,18.2444602
1715668107688233926,0.021,,,,18.252154986
1715668107695928712,0.028,,,,18.259849772
1715668107703623498,0.024,,,,18.267544558
1715668107711318284,0.016,,,,18.275239344
1715668107719013070,0.026,,,,18.28293413
1715668107726707856,0.031,,,,18.290628916
1715668107734402642,0.012,,,,18.298323702
1715668107742097428,-0.004,,,,18.306018488
1715668107749792214,0.026,,,,18.313713274
1715668107757487000,0.079,,,,18.32140806
1715668107765181786,0.096,,,,18.329102846
1715668107772876572,0.072,,,,18.336797632
1715668107780571358,0.048,,,,18.344492418
1715668107788266144,0.036,,,,18.352187204
1715668107795960930,0.021,,,,18.35988199
1715668107803655716,0.014,,,,18.367576776
1715668107811350502,0.019,,,,18.375271562
1715668107819045288,0.019,,,,18.382966348
1715668107826740074,0.016,,,,18.390661134
1715668107834434860,0.024,,,,18.39835592
1715668107842129646,0.024,,,,18.406050706
1715668107849824432,0.021,,,,18.413745492
1715668107857519218,0.031,,,,18.421440278
1715668107865214004,0.052,,,,18.429135064
1715668107872908790,0.076,,,,18.43682985
1715668107880603576,0.137,,,,18.444524636
1715668107888298362,0.483,,,,18.452219422
1715668107895993148,1.279,,,,18.459914208
1715668107903687934,1.83,,,,18.467608994
1715668107911382720,0.863,,,,18.47530378
1715668107919077506,-0.719,,,,18.482998566
1715668107926772292,-0.577,,,,18.490693352
1715668107934467078,0.269,,,,18.498388138
1715668107942161864,-0.002,,,,18.506082924
1715668107949856650,-0.278,,,,18.51377771
1715668107957551436,-0.002,,,,18.521472496
1715668107965246222,0.021,,,,18.529167282
1715668107972941026,-0.084,83.0,732.0,,18.536862086
1715668107980635812,-0.009,,,,18.544556872
1715668107988330598,0.028,,,,18.552251658
1715668107996025384,-0.007,,,,18.559946444
1715668108003720170,0.012,,,,18.56764123
1715668108011414956,0.052,,,,18.575336016
1715668108019109742,0.057,,,,18.583030802
1715668108026804528,0.06,,,,18.590725588
1715668108034499314,0.069,,,,18.598420374
1715668108042194100,0.074,,,,18.60611516
1715668108049888886,0.096,,,,18.613809946
1715668108057583672,0.127,,,,18.621504732
1715668108065278458,0.132,,,,18.629199518
1715668108072973244,0.139,,,,18.636894304
1715668108080668030,0.18,,,,18.64458909
1715668108088362816,0.23,,,,18.652283876
1715668108096057602,0.259,,,,18.659978662
1715668108103752388,0.288,,,,18.667673448
1715668108111447174,0.329,,,,18.675368234
1715668108119141960,0.353,,,,18.68306302
1715668108126836746,0.348,,,,18.690757806
1715668108134531532,0.339,,,,18.698452592
1715668108142226318,0.317,,,,18.706147378
1715668108149921104,0.269,,,,18.713842164
1715668108157615890,0.204,,,,18.72153695
1715668108165310676,0.122,,,,18.729231736
1715668108173005462,0.033,,,,18.736926522
1715668108180700248,-0.031,,,,18.744621308
1715668108188395034,-0.072,,,,18.752316094
1715668108196089820,-0.093,,,,18.76001088
1715668108203784606,-0.113,,,,18.767705666
1715668108211479392,-0.125,,,,18.775400452
1715668108219174178,-0.129,,,,18.783095238
1715668108226868964,-0.117,,,,18.790790024
1715668108234563750,-0.103,,,,18.79848481
1715668108242258536,-0.101,,,,18.806179596
1715668108249953322,-0.093,,,,18.813874382
1715668108257648108,-0.079,,,,18.821569168
1715668108265342894,-0.062,,,,18.829263954
1715668108273037680,-0.043,,,,18.83695874
1715668108280732466,-0.026,,,,18.844653526
1715668108288427252,-0.021,,,,18.852348312
1715668108296122038,-0.012,,,,18.860043098
1715668108303816824,-0.002,,,,18.867737884
1715668108311511610,0.002,,,,18.87543267
1715668108319206396,0.002,,,,18.883127456
1715668108326901182,0.004,,,,18.890822242
1715668108334595968,0.014,,,,18.898517028
1715668108342290754,0.019,,,,18.906211814
1715668108349985540,0.016,,,,18.9139066
1715668108357680326,0.014,,,,18.921601386
1715668108365375112,0.016,,,,18.929296172
1715668108373069898,0.014,,,,18.936990958
1715668108380764684,0.016,,,,18.944685744
1715668108388459470,0.021,,,,18.95238053
1715668108396154256,0.014,,,,18.960075316
1715668108403849042,0.007,,,,18.967770102
1715668108411543828,0.014,,,,18.975464888
1715668108419238614,0.014,,,,18.983159674
1715668108426933400,0.012,,,,18.99085446
1715668108434628186,0.016,,,,18.998549246
1715668108442322972,0.016,,,,19.006244032
1715668108450017758,0.009,,,,19.013938818
1715668108457712544,-0.002,,,,19.021633604
1715668108465407330,-0.004,,,,19.02932839
1715668108473102116,0.028,,,,19.037023176
1715668108480796902,0.069,,,,19.044717962
1715668108488491688,0.076,,,,19.052412748
1715668108496186474,0.045,,,,19.060107534
1715668108503881260,0.021,,,,19.06780232
1715668108511576046,0.019,,,,19.075497106
1715668108519270832,0.014,,,,19.083191892
1715668108526965618,0.014,,,,19.090886678
1715668108534660420,0.026,83.0,740.0,,19.09858148
1715668108542355206,0.028,,747.0,,19.106276266
1715668108550049992,0.026,,,,19.113971052
1715668108557744778,0.033,,,,19.121665838
1715668108565439564,0.026,,,,19.129360624
1715668108573134350,0.012,,,,19.13705541
1715668108580829136,0.024,,,,19.144750196
1715668108588523922,0.06,,,,19.152444982
1715668108596218708,0.079,,,,19.160139768
1715668108603913494,0.192,,,,19.167834554
1715668108611608280,0.735,,,,19.17552934
1715668108619303066,1.606,,,,19.183224126
1715668108626997852,1.652,,,,19.190918912
1715668108634692638,0.146,,,,19.198613698
1715668108642387424,-0.925,,,,19.206308484
1715668108650082210,-0.168,,,,19.21400327
1715668108657776996,0.283,,,,19.221698056
1715668108665471782,-0.209,,,,19.229392842
1715668108673166568,-0.18,,,,19.237087628
1715668108680861354,0.072,,,,19.244782414
1715668108688556140,-0.038,,,,19.2524772
1715668108696250926,-0.079,,,,19.260171986
1715668108703945712,0.024,,,,19.267866772
1715668108711640498,0.024,,,,19.275561558
1715668108719335284,0.004,,,,19.283256344
1715668108727030070,0.038,,,,19.29095113
1715668108734724856,0.057,,,,19.298645916
1715668108742419642,0.064,,,,19.306340702
1715668108750114428,0.081,,,,19.314035488
1715668108757809214,0.096,,,,19.321730274
1715668108765504000,0.108,,,,19.32942506
1715668108773198786,0.127,,,,19.337119846
1715668108780893572,0.153,,,,19.344814632
1715668108788588358,0.177,,,,19.352509418
1715668108796283144,0.204,,,,19.360204204
1715668108803977930,0.24,,,,19.36789899
1715668108811672716,0.271,,,,19.375593776
1715668108819367502,0.298,,,,19.383288562
1715668108827062288,0.331,,,,19.390983348
1715668108834757074,0.363,,,,19.398678134
1715668108842451860,0.37,,,,19.40637292
1715668108850146646,0.363,,,,19.414067706
1715668108857841432,0.346,,,,19.421762492
1715668108865536218,0.307,,,,19.429457278
1715668108873231004,0.254,,,,19.437152064
1715668108880925790,0.185,,,,19.44484685
1715668108888620576,0.108,,,,19.452541636
1715668108896315362,0.043,,,,19.460236422
1715668108904010148,-0.009,,,,19.467931208
1715668108911704934,-0.04,,,,19.475625994
1715668108919399720,-0.052,,,,19.48332078
1715668108927094506,-0.06,,,,19.491015566
1715668108934789292,-0.069,,,,19.498710352
1715668108942484078,-0.072,,,,19.506405138
1715668108950178864,-0.062,,,,19.514099924
1715668108957873650,-0.052,,,,19.52179471
1715668108965568436,-0.045,,,,19.529489496
1715668108973263222,-0.028,,,,19.537184282
1715668108980958008,-0.012,,,,19.544879068
1715668108988652794,-0.002,,,,19.552573854
1715668108996347580,0.004,,,,19.56026864
1715668109004042366,0.019,,,,19.567963426
1715668109011737152,0.031,,,,19.575658212
1715668109019431938,0.036,,,,19.583352998
1715668109027126724,0.038,,,,19.591047784
1715668109034821510,0.045,,,,19.59874257
1715668109042516296,0.048,,,,19.606437356
1715668109050211082,0.048,,,,19.614132142
1715668109057905868,0.043,,,,19.621826928
1715668109065600654,0.036,,,,19.629521714
1715668109073295440,0.031,,,,19.6372165
1715668109080990226,0.036,,,,19.644911286
1715668109088685012,0.033,,,,19.652606072
1715668109096379814,0.028,,,,19.660300874
1715668109104074600,0.036,,,,19.66799566
1715668109111769386,0.038,,,,19.675690446
1715668109119464172,0.036,,,,19.683385232
1715668109127158958,0.038,,,,19.691080018
1715668109134853744,0.038,,,,19.698774804
1715668109142548530,0.028,,,,19.70646959
1715668109150243316,0.021,,,,19.714164376
1715668109157938102,0.024,,,,19.721859162
1715668109165632888,0.016,,,,19.729553948
1715668109173327674,0.007,,,,19.737248734
1715668109181022460,0.031,,,,19.74494352
1715668109188717246,0.069,,,,19.752638306
1715668109196412032,0.081,,,,19.760333092
1715668109204106818,0.067,,,,19.768027878
1715668109211801604,0.043,,,,19.775722664
1715668109219496390,0.028,,,,19.78341745
1715668109227191176,0.021,,,,19.791112236
1715668109234885962,0.021,,,,19.798807022
1715668109242580748,0.028,,,,19.806501808
1715668109250275534,0.036,,,,19.814196594
1715668109257970320,0.038,,,,19.82189138
1715668109265665106,0.045,,,,19.829586166
1715668109273359892,0.048,,,,19.837280952
1715668109281054678,0.052,,,,19.844975738
1715668109288749464,0.062,,,,19.852670524
1715668109296444250,0.076,,,,19.86036531
1715668109304139036,0.091,,,,19.868060096
1715668109311833822,0.189,,,,19.875754882
1715668109319528608,0.627,,,,19.883449668
1715668109327223394,1.464,,,,19.891144454
1715668109334918180,1.842,,,,19.89883924
1715668109342612966,0.618,,,,19.906534026
1715668109350307752,-0.8170000000000001,,,,19.914228812
1715668109358002538,-0.377,,,,19.921923598
1715668109365697324,0.324,,,,19.929618384
1715668109373392110,-0.084,,,,19.93731317
1715668109381086896,-0.226,,,,19.945007956
1715668109388781682,0.064,,,,19.952702742
1715668109396476468,0.021,,,,19.960397528
1715668109404171254,-0.069,,,,19.968092314
1715668109411866040,0.026,,,,19.9757871
1715668109419560826,0.052,,,,19.983481886
1715668109427255612,0.016,,,,19.991176672
1715668109434950398,0.045,,,,19.998871458
1715668109442645184,0.069,,,,20.006566244
1715668109450339970,0.067,,,,20.01426103
1715668109458034756,0.079,,,,20.021955816
1715668109465729542,0.098,,,,20.029650602
1715668109473424328,0.108,,,,20.037345388
1715668109481119114,0.127,,,,20.045040174
1715668109488813900,0.156,,,,20.05273496
1715668109496508686,0.175,,,,20.060429746
1715668109504203472,0.189,,,,20.068124532
1715668109511898258,0.218,,,,20.075819318
1715668109519593044,0.254,,,,20.083514104
1715668109527287830,0.286,,,,20.09120889
1715668109534982616,0.31,,,,20.098903676
1715668109542677402,0.336,,,,20.106598462
1715668109550372188,0.348,,,,20.114293248
1715668109558066974,0.343,,,,20.121988034
1715668109565761760,0.324,,,,20.12968282
1715668109573456546,0.283,,,,20.137377606
1715668109581151332,0.226,,,,20.145072392
1715668109588846118,0.173,,,,20.152767178
1715668109596540904,0.103,,,,20.160461964
1715668109604235690,0.028,,,,20.16815675
1715668109611930476,-0.012,,,,20.175851536
1715668109619625262,-0.033,,,,20.183546322
1715668109627320048,-0.057,,,,20.191241108
1715668109635014834,-0.064,,,,20.198935894
1715668109642709620,-0.062,,,,20.20663068
1715668109650404406,-0.067,,,,20.214325466
1715668109658099208,-0.062,82.0,744.0,,20.222020268
1715668109665794063,-0.045,,,,20.229715123
1715668109673488918,-0.038,,,,20.237409978
1715668109681183773,-0.04,,,,20.245104833
1715668109688878628,-0.031,,,,20.252799688
1715668109696573483,-0.014,,,,20.260494543
1715668109704268338,-0.002,,,,20.268189398
1715668109711963193,0.0,,,,20.275884253
1715668109719658048,-0.002,,,,20.283579108
1715668109727352903,0.009,,,,20.291273963
1715668109735047758,0.026,,,,20.298968818
1715668109742742613,0.026,,,,20.306663673
1715668109750437468,0.021,,,,20.314358528
1715668109758132323,0.031,,,,20.322053383
1715668109765827178,0.038,,,,20.329748238
1715668109773522033,0.038,,,,20.337443093
1715668109781216888,0.036,,,,20.345137948
1715668109788911743,0.036,,,,20.352832803
1715668109796606598,0.033,,,,20.360527658
1715668109804301453,0.038,,,,20.368222513
1715668109811996308,0.043,,,,20.375917368
1715668109819691163,0.043,,,,20.383612223
1715668109827386018,0.038,,,,20.391307078
1715668109835080873,0.038,,,,20.399001933
1715668109842775728,0.048,,,,20.406696788
1715668109850470583,0.055,,,,20.414391643
1715668109858165438,0.048,,,,20.422086498
1715668109865860293,0.028,,,,20.429781353
1715668109873555148,0.024,,,,20.437476208
1715668109881250003,0.05,,,,20.445171063
1715668109888944858,0.088,,,,20.452865918
1715668109896639713,0.103,,,,20.460560773
1715668109904334568,0.086,,,,20.468255628
1715668109912029423,0.062,,,,20.475950483
1715668109919724278,0.04,,,,20.483645338
1715668109927419133,0.024,,,,20.491340193
1715668109935113988,0.024,,,,20.499035048
1715668109942808843,0.038,,,,20.506729903
1715668109950503698,0.045,,,,20.514424758
1715668109958198553,0.043,,,,20.522119613
1715668109965893408,0.043,,,,20.529814468
1715668109973588263,0.05,,,,20.537509323
1715668109981283118,0.05,,,,20.545204178
1715668109988977973,0.05,,,,20.552899033
1715668109996672828,0.076,,,,20.560593888
1715668110004367683,0.101,,,,20.568288743
1715668110012062538,0.17,,,,20.575983598
1715668110019757393,0.548,,,,20.583678453
1715668110027452248,1.351,,,,20.591373308
1715668110035147103,1.844,,,,20.599068163
1715668110042841958,0.803,,,,20.606763018
1715668110050536813,-0.728,,,,20.614457873
1715668110058231668,-0.488,,,,20.622152728
1715668110065926523,0.3,,,,20.629847583
1715668110073621378,-0.019,,,,20.637542438
1715668110081316233,-0.254,,,,20.645237293
1715668110089011088,0.016,,,,20.652932148
1715668110096705943,0.014,,,,20.660627003
1715668110104400798,-0.093,,,,20.668321858
1715668110112095653,-0.007,,,,20.676016713
1715668110119790508,0.033,,,,20.683711568
1715668110127485363,0.0,,,,20.691406423
1715668110135180218,0.024,,,,20.699101278
1715668110142875073,0.052,,,,20.706796133
1715668110150569928,0.05,,,,20.714490988
1715668110158264783,0.06,,,,20.722185843
1715668110165959638,0.084,,,,20.729880698
1715668110173654493,0.096,,,,20.737575553
1715668110181349348,0.11,,,,20.745270408
1715668110189044203,0.127,,,,20.752965263
1715668110196739058,0.146,,,,20.760660118
1715668110204433913,0.168,,,,20.768354973
1715668110212128768,0.197,,,,20.776049828
1715668110219823690,0.228,,,,20.78374475
1715668110227518824,0.259,,,,20.791439884
1715668110235213958,0.295,,,,20.799135018
1715668110242909092,0.317,,,,20.806830152
1715668110250604226,0.317,,,,20.814525286
1715668110258299360,0.303,,,,20.82222042
1715668110265994494,0.295,,,,20.829915554
1715668110273689628,0.271,,,,20.837610688
1715668110281384762,0.223,,,,20.845305822
1715668110289079896,0.161,,,,20.853000956
1715668110296775030,0.081,,,,20.86069609
1715668110304470164,0.009,,,,20.868391224
1715668110312165298,-0.026,,,,20.876086358
1715668110319860432,-0.052,,,,20.883781492
1715668110327555566,-0.084,,,,20.891476626
1715668110335250700,-0.098,,,,20.89917176
1715668110342945834,-0.098,,,,20.906866894
1715668110350640968,-0.093,,,,20.914562028
1715668110358336102,-0.088,,,,20.922257162
1715668110366031236,-0.076,,,,20.929952296
1715668110373726370,-0.064,,,,20.93764743
1715668110381421504,-0.062,,,,20.945342564
1715668110389116638,-0.05,,,,20.953037698
1715668110396811772,-0.021,,,,20.960732832
1715668110404506906,-0.012,,,,20.968427966
1715668110412202040,-0.019,,,,20.9761231
1715668110419897174,-0.014,,,,20.983818234
1715668110427592308,-0.012,,,,20.991513368
1715668110435287442,-0.014,,,,20.999208502
1715668110442982576,0.004,,,,21.006903636
1715668110450677710,0.014,,,,21.01459877
1715668110458372844,0.002,,,,21.022293904
1715668110466067978,0.004,,,,21.029989038
1715668110473763112,0.021,,,,21.037684172
1715668110481458246,0.014,,,,21.045379306
1715668110489153380,0.007,,,,21.05307444
1715668110496848514,0.014,,,,21.060769574
1715668110504543648,0.007,,,,21.068464708
1715668110512238782,0.002,,,,21.076159842
1715668110519933916,0.014,,,,21.083854976
1715668110527629050,0.016,,,,21.09155011
1715668110535324184,0.012,,,,21.099245244
1715668110543019318,0.012,,,,21.106940378
1715668110550714452,0.016,,,,21.114635512
1715668110558409586,0.024,,,,21.122330646
1715668110566104720,0.014,,,,21.13002578
1715668110573799854,-0.004,,,,21.137720914
1715668110581494988,0.002,,,,21.145416048
1715668110589190122,0.04,,,,21.153111182
1715668110596885256,0.064,,,,21.160806316
1715668110604580390,0.057,,,,21.16850145
1715668110612275524,0.033,,,,21.176196584
1715668110619970658,0.012,,,,21.183891718
1715668110627665792,0.0,,,,21.191586852
1715668110635360926,-0.002,,,,21.199281986
1715668110643056060,0.0,,,,21.20697712
1715668110650751194,0.0,,,,21.214672254
1715668110658446328,0.004,,,,21.222367388
1715668110666141462,0.009,,,,21.230062522
1715668110673836596,0.009,,,,21.237757656
1715668110681531730,0.007,,,,21.24545279
1715668110689226864,0.014,,,,21.253147924
1715668110696921998,0.043,,,,21.260843058
1715668110704617132,0.079,,,,21.268538192
1715668110712312266,0.137,,,,21.276233326
1715668110720007400,0.401,,,,21.28392846
1715668110727702534,1.106,,,,21.291623594
1715668110735397668,1.757,,,,21.299318728
1715668110743092802,1.017,,,,21.307013862
1715668110750787936,-0.61,,,,21.314708996
1715668110758483070,-0.6940000000000001,,,,21.32240413
1715668110766178204,0.221,,,,21.330099264
1715668110773873338,0.076,,,,21.337794398
1715668110781568514,-0.278,82.0,721.0,,21.345489574
1715668110789263300,-0.014,,710.0,,21.35318436
1715668110796958086,0.055,,,,21.360879146
1715668110804652872,-0.096,,,,21.368573932
1715668110812347658,-0.036,,,,21.376268718
1715668110820042444,0.038,,,,21.383963504
1715668110827737230,-0.007,,,,21.39165829
1715668110835432016,-0.007,,,,21.399353076
1715668110843126802,0.036,,,,21.407047862
1715668110850821588,0.04,,,,21.414742648
1715668110858516374,0.04,,,,21.422437434
1715668110866211160,0.064,,,,21.43013222
1715668110873905946,0.084,,,,21.437827006
1715668110881600732,0.096,,,,21.445521792
1715668110889295518,0.117,,,,21.453216578
1715668110896990304,0.141,,,,21.460911364
1715668110904685090,0.168,,,,21.46860615
1715668110912379876,0.192,,,,21.476300936
1715668110920074662,0.221,,,,21.483995722
1715668110927769448,0.264,,,,21.491690508
1715668110935464234,0.303,,,,21.499385294
1715668110943159020,0.324,,,,21.50708008
1715668110950853806,0.331,,,,21.514774866
1715668110958548592,0.336,,,,21.522469652
1715668110966243378,0.327,,,,21.530164438
1715668110973938164,0.298,,,,21.537859224
1715668110981632950,0.25,,,,21.54555401
1715668110989327736,0.187,,,,21.553248796
1715668110997022522,0.113,,,,21.560943582
1715668111004717308,0.038,,,,21.568638368
1715668111012412094,-0.021,,,,21.576333154
1715668111020106880,-0.06,,,,21.58402794
1715668111027801666,-0.086,,,,21.591722726
1715668111035496452,-0.108,,,,21.599417512
1715668111043191238,-0.11,,,,21.607112298
1715668111050886024,-0.105,,,,21.614807084
1715668111058580810,-0.098,,,,21.62250187
1715668111066275596,-0.088,,,,21.630196656
1715668111073970382,-0.076,,,,21.637891442
1715668111081665168,-0.069,,,,21.645586228
1715668111089359954,-0.06,,,,21.653281014
1715668111097054740,-0.05,,,,21.6609758
1715668111104749526,-0.038,,,,21.668670586
1715668111112444312,-0.019,,,,21.676365372
1715668111120139098,-0.009,,,,21.684060158
1715668111127833884,-0.004,,,,21.691754944
1715668111135528670,0.004,,,,21.69944973
1715668111143223456,0.014,,,,21.707144516
1715668111150918242,0.019,,,,21.714839302
1715668111158613028,0.014,,,,21.722534088
1715668111166307814,0.012,,,,21.730228874
1715668111174002600,0.014,,,,21.73792366
1715668111181697386,0.014,,,,21.745618446
1715668111189392172,0.014,,,,21.753313232
1715668111197086958,0.016,,,,21.761008018
1715668111204781744,0.016,,,,21.768702804
1715668111212476530,0.019,,,,21.77639759
1715668111220171316,0.024,,,,21.784092376
1715668111227866102,0.024,,,,21.791787162
1715668111235560888,0.021,,,,21.799481948
1715668111243255674,0.024,,,,21.807176734
1715668111250950460,0.021,,,,21.81487152
1715668111258645246,0.007,,,,21.822566306
1715668111266340032,0.009,,,,21.830261092
1715668111274034818,0.045,,,,21.837955878
1715668111281729604,0.081,,,,21.845650664
1715668111289424390,0.084,,,,21.85334545
1715668111297119176,0.057,,,,21.861040236
1715668111304813962,0.031,,,,21.868735022
1715668111312508748,0.014,,,,21.876429808
1715668111320203534,0.016,,,,21.884124594
1715668111327898320,0.026,,,,21.89181938
1715668111335593106,0.028,,,,21.899514166
1715668111343287910,0.033,,,,21.90720897
1715668111350982696,0.048,,,,21.914903756
1715668111358677482,0.048,,,,21.922598542
1715668111366372268,0.04,,,,21.930293328
1715668111374067054,0.043,,,,21.937988114
1715668111381761840,0.064,,,,21.9456829
1715668111389456626,0.108,,,,21.953377686
1715668111397151412,0.151,,,,21.961072472
1715668111404846198,0.303,,,,21.968767258
1715668111412540984,0.88,,,,21.976462044
1715668111420235770,1.671,,,,21.98415683
1715668111427930556,1.414,,,,21.991851616
1715668111435625342,-0.177,,,,21.999546402
1715668111443320128,-0.841,,,,22.007241188
1715668111451014914,0.038,,,,22.014935974
1715668111458709700,0.221,,,,22.02263076
1715668111466404486,-0.245,,,,22.030325546
1715668111474099272,-0.086,,,,22.038020332
1715668111481794058,0.098,,,,22.045715118
1715668111489488844,-0.045,,,,22.053409904
1715668111497183630,-0.04,,,,22.06110469
1715668111504878416,0.057,,,,22.068799476
1715668111512573202,0.033,,,,22.076494262
1715668111520267988,0.024,,,,22.084189048
1715668111527962774,0.062,,,,22.091883834
1715668111535657560,0.067,,,,22.09957862
1715668111543352346,0.064,,,,22.107273406
1715668111551047132,0.084,,,,22.114968192
1715668111558741918,0.096,,,,22.122662978
1715668111566436704,0.108,,,,22.130357764
1715668111574131490,0.132,,,,22.13805255
1715668111581826276,0.149,,,,22.145747336
1715668111589521062,0.163,,,,22.153442122
1715668111597215848,0.18,,,,22.161136908
1715668111604910634,0.206,,,,22.168831694
