HRV_ULF,HRV_VLF,HRV_LF,HRV_HF,HRV_VHF,HRV_TP,HRV_LFHF,HRV_LFn,HRV_HFn,HRV_LnHF,time
,,0.007927691434368297,0.007923683532684403,0.0034912378981714273,0.019342612865224127,1.0005058129425994,0.4098562841332262,0.4096490783274842,-4.837899088767144,0.0
,,0.007927691434368297,0.007923683532684403,0.0034912378981714273,0.019342612865224127,1.0005058129425994,0.4098562841332262,0.4096490783274842,-4.837899088767144,0.1
,,0.007927691434368297,0.007923683532684403,0.0034912378981714273,0.019342612865224127,1.0005058129425994,0.4098562841332262,0.4096490783274842,-4.837899088767144,0.2
,,0.007927691434368297,0.007923683532684403,0.0034912378981714273,0.019342612865224127,1.0005058129425994,0.4098562841332262,0.4096490783274842,-4.837899088767144,0.3
,,0.007927691434368297,0.007923683532684403,0.0034912378981714273,0.019342612865224127,1.0005058129425994,0.4098562841332262,0.4096490783274842,-4.837899088767144,0.4
,,0.007927691434368297,0.007923683532684403,0.0034912378981714273,0.019342612865224127,1.0005058129425994,0.4098562841332262,0.4096490783274842,-4.837899088767144,0.5
,,0.007700911736002748,0.007957484833098773,0.003430850440272668,0.01908924700937419,0.9958274126443545,0.4034162129192968,0.4168569262680229,-4.833642304798058,0.6
,,0.00781573532267993,0.00863169387937729,0.00394436806438463,0.02039179726644185,0.9845326704005711,0.38327839476621534,0.4232924526756747,-4.752314515119316,0.7
,,0.00781573532267993,0.00863169387937729,0.00394436806438463,0.02039179726644185,0.9757478708776285,0.38327839476621534,0.4232924526756747,-4.752314515119316,0.8
,,0.00781573532267993,0.00863169387937729,0.00394436806438463,0.02039179726644185,0.9687200312592745,0.38327839476621534,0.4232924526756747,-4.752314515119316,0.9
,,0.00781573532267993,0.00863169387937729,0.00394436806438463,0.02039179726644185,0.9629699806624394,0.38327839476621534,0.4232924526756747,-4.752314515119316,1.0
,,0.00781573532267993,0.00863169387937729,0.00394436806438463,0.02039179726644185,0.9581782718317434,0.38327839476621534,0.4232924526756747,-4.752314515119316,1.1
,,0.00781573532267993,0.00863169387937729,0.00394436806438463,0.02039179726644185,0.9541237489750007,0.38327839476621534,0.4232924526756747,-4.752314515119316,1.2
,,0.00781573532267993,0.00863169387937729,0.00394436806438463,0.02039179726644185,0.9506484436692213,0.38327839476621534,0.4232924526756747,-4.752314515119316,1.3
,,0.005750957171676448,0.007891237832522132,0.004305996758077052,0.017948191762275634,0.9358570524275017,0.3204198644547628,0.4396675685797113,-4.842002270178495,1.4
,,0.005750957171676448,0.007891237832522132,0.004305996758077052,0.017948191762275634,0.9229145850909972,0.3204198644547628,0.4396675685797113,-4.842002270178495,1.5
,,0.005750957171676448,0.007891237832522132,0.004305996758077052,0.017948191762275634,0.9114947609705522,0.3204198644547628,0.4396675685797113,-4.842002270178495,1.6
,,0.005750957171676448,0.007891237832522132,0.004305996758077052,0.017948191762275634,0.9013438061968232,0.3204198644547628,0.4396675685797113,-4.842002270178495,1.7
,,0.005750957171676448,0.007891237832522132,0.004305996758077052,0.017948191762275634,0.8922613729782234,0.3204198644547628,0.4396675685797113,-4.842002270178495,1.8
,,0.005750957171676448,0.007891237832522132,0.004305996758077052,0.017948191762275634,0.8840871830814837,0.3204198644547628,0.4396675685797113,-4.842002270178495,1.9
,,0.005750957171676448,0.007891237832522132,0.004305996758077052,0.017948191762275634,0.8766914874606241,0.3204198644547628,0.4396675685797113,-4.842002270178495,2.0
,,0.007666545777904219,0.009215300021208619,0.004304644490938143,0.021186490290050982,0.8746571764179415,0.3618601133527232,0.4349611424567124,-4.686890130472972,2.1
,,0.00673969741675076,0.009079387387924073,0.0050345253085787075,0.02085361011325354,0.8689028429637118,0.32319091898948166,0.4353868389509045,-4.701748556935323,2.2
,,0.00673969741675076,0.009079387387924073,0.0050345253085787075,0.02085361011325354,0.8636280372973347,0.32319091898948166,0.4353868389509045,-4.701748556935323,2.3
,,0.00673969741675076,0.009079387387924073,0.0050345253085787075,0.02085361011325354,0.8587752160842677,0.32319091898948166,0.4353868389509045,-4.701748556935323,2.4
,,0.00673969741675076,0.009079387387924073,0.0050345253085787075,0.02085361011325354,0.8542956888106672,0.32319091898948166,0.4353868389509045,-4.701748556935323,2.5
,,0.00673969741675076,0.009079387387924073,0.0050345253085787075,0.02085361011325354,0.8501479783721485,0.32319091898948166,0.4353868389509045,-4.701748556935323,2.6
,,0.00673969741675076,0.009079387387924073,0.0050345253085787075,0.02085361011325354,0.8462965329649524,0.32319091898948166,0.4353868389509045,-4.701748556935323,2.7
,,0.00673969741675076,0.009079387387924073,0.0050345253085787075,0.02085361011325354,0.8427107044823905,0.32319091898948166,0.4353868389509045,-4.701748556935323,2.8
,,0.007793318899627739,0.009640035901889197,0.004656184909674689,0.022089539711191625,0.8415680996558391,0.35280585297480277,0.4364072781926321,-4.641830446104253,2.9
,,0.008136656372799905,0.010207204167703265,0.003924188580979206,0.022268049121482378,0.8401352058089747,0.3653960132928901,0.4583789137529877,-4.584661517046683,3.0
,,0.008136656372799905,0.010207204167703265,0.003924188580979206,0.022268049121482378,0.8387918678275395,0.3653960132928901,0.4583789137529877,-4.584661517046683,3.1
,,0.008136656372799905,0.010207204167703265,0.003924188580979206,0.022268049121482378,0.8375299442692213,0.3653960132928901,0.4583789137529877,-4.584661517046683,3.2
,,0.008136656372799905,0.010207204167703265,0.003924188580979206,0.022268049121482378,0.8363422515084514,0.3653960132928901,0.4583789137529877,-4.584661517046683,3.3
,,0.008136656372799905,0.010207204167703265,0.003924188580979206,0.022268049121482378,0.8352224269054398,0.3653960132928901,0.4583789137529877,-4.584661517046683,3.4
,,0.008136656372799905,0.010207204167703265,0.003924188580979206,0.022268049121482378,0.8341648147803733,0.3653960132928901,0.4583789137529877,-4.584661517046683,3.5
,,0.008136656372799905,0.010207204167703265,0.003924188580979206,0.022268049121482378,0.8331643708782833,0.3653960132928901,0.4583789137529877,-4.584661517046683,3.6
,,0.007919369819647568,0.009740304098523845,0.004827266984129189,0.022486940902300603,0.8326350874013085,0.35217639669419637,0.4331538087302631,-4.63148294020072,3.7
,,0.007919369819647568,0.009740304098523845,0.004827266984129189,0.022486940902300603,0.8321329466667428,0.35217639669419637,0.4331538087302631,-4.63148294020072,3.8
,,0.008246552794373961,0.010106311090784305,0.0039630946186377395,0.022315958503796005,0.8317291355430182,0.36953612335186947,0.45287371766107176,-4.594595189805248,3.9
,,0.008246552794373961,0.010106311090784305,0.0039630946186377395,0.022315958503796005,0.83134502252289,0.36953612335186947,0.45287371766107176,-4.594595189805248,4.0
,,0.008246552794373961,0.010106311090784305,0.0039630946186377395,0.022315958503796005,0.8309792005989585,0.36953612335186947,0.45287371766107176,-4.594595189805248,4.1
,,0.008246552794373961,0.010106311090784305,0.0039630946186377395,0.022315958503796005,0.830630393648233,0.36953612335186947,0.45287371766107176,-4.594595189805248,4.2
,,0.008246552794373961,0.010106311090784305,0.0039630946186377395,0.022315958503796005,0.8302974415589041,0.36953612335186947,0.45287371766107176,-4.594595189805248,4.3
,,0.008246552794373961,0.010106311090784305,0.0039630946186377395,0.022315958503796005,0.829979287340212,0.36953612335186947,0.45287371766107176,-4.594595189805248,4.4
,,0.008046662132847698,0.009539710447048504,0.004814880907228731,0.022401253487124934,0.830273025301652,0.35920588718271934,0.42585610008526664,-4.652292145444978,4.5
,,0.008046662132847698,0.009539710447048504,0.004814880907228731,0.022401253487124934,0.830554263775371,0.35920588718271934,0.42585610008526664,-4.652292145444978,4.6
,,0.008314582581971021,0.009684323400393812,0.0038402647625176375,0.02183917074488247,0.8311377378748267,0.38071878639986184,0.44343823827024753,-4.6372468451320685,4.7
,,0.008314582581971021,0.009684323400393812,0.0038402647625176375,0.02183917074488247,0.8316973967049169,0.38071878639986184,0.44343823827024753,-4.6372468451320685,4.8
,,0.008314582581971021,0.009684323400393812,0.0038402647625176375,0.02183917074488247,0.8322346691818033,0.38071878639986184,0.44343823827024753,-4.6372468451320685,4.9
,,0.008314582581971021,0.009684323400393812,0.0038402647625176375,0.02183917074488247,0.8327508721497924,0.38071878639986184,0.44343823827024753,-4.6372468451320685,5.0
,,0.00817416278731096,0.009196374444151847,0.004699985135347754,0.02207052236681056,0.8338296291004469,0.37036562395112077,0.4166813223225413,-4.68894595475533,5.1
,,0.008314582581971021,0.009684323400393812,0.0038402647625176375,0.02183917074488247,0.8342962591277827,0.38071878639986184,0.44343823827024753,-4.6372468451320685,5.2
,,0.00810225282551009,0.009039782628638426,0.004613655899278488,0.021755691353427004,0.8354442627955089,0.37241991963789306,0.4155134618240693,-4.706120150371748,5.3
,,0.00810225282551009,0.009039782628638426,0.004613655899278488,0.021755691353427004,0.8365505208753179,0.37241991963789306,0.4155134618240693,-4.706120150371748,5.4
,,0.008282899937490705,0.00895030312905758,0.0035515044735657066,0.02078470754011399,0.8381376961550956,0.39850933295572744,0.4306196328133898,-4.716067878100476,5.5
,,0.008282899937490705,0.00895030312905758,0.0035515044735657066,0.02078470754011399,0.8396691810741793,0.39850933295572744,0.4306196328133898,-4.716067878100476,5.6
,,0.008282899937490705,0.00895030312905758,0.0035515044735657066,0.02078470754011399,0.841147856168467,0.39850933295572744,0.4306196328133898,-4.716067878100476,5.7
,,0.008282899937490705,0.00895030312905758,0.0035515044735657066,0.02078470754011399,0.8425764066832874,0.39850933295572744,0.4306196328133898,-4.716067878100476,5.8
,,0.008157963235607621,0.008435313801410712,0.004307300059709908,0.02090057709672824,0.844652138280835,0.3903223914752412,0.40359238706050704,-4.775328361374983,5.9
,,0.011483282579757881,0.009661827941796779,0.00688676439988729,0.028031874921441952,0.8502893279378415,0.40965089249075404,0.34467291142221523,-4.639572420729784,6.0
,,0.011483282579757881,0.009661827941796779,0.00688676439988729,0.028031874921441952,0.8557446727672027,0.40965089249075404,0.34467291142221523,-4.639572420729784,6.1
,,0.011483282579757881,0.009661827941796779,0.00688676439988729,0.028031874921441952,0.8610268320464255,0.40965089249075404,0.34467291142221523,-4.639572420729784,6.2
,,0.00817895053660281,0.008047285738337035,0.0031507329275415534,0.0193769692024814,0.8634539345491268,0.4220964822277479,0.4153015703460222,-4.822420419769917,6.3
,,0.00817895053660281,0.008047285738337035,0.0031507329275415534,0.0193769692024814,0.8658063569748219,0.4220964822277479,0.4153015703460222,-4.822420419769917,6.4
,,0.00817895053660281,0.008047285738337035,0.0031507329275415534,0.0193769692024814,0.8680874938724656,0.4220964822277479,0.4153015703460222,-4.822420419769917,6.5
,,0.00817895053660281,0.008047285738337035,0.0031507329275415534,0.0193769692024814,0.8703005371313737,0.4220964822277479,0.4153015703460222,-4.822420419769917,6.6
,,0.00817895053660281,0.008047285738337035,0.0031507329275415534,0.0193769692024814,0.8724484908826668,0.4220964822277479,0.4153015703460222,-4.822420419769917,6.7
,,0.00817895053660281,0.008047285738337035,0.0031507329275415534,0.0193769692024814,0.874534185104937,0.4220964822277479,0.4153015703460222,-4.822420419769917,6.8
,,0.008008856876019344,0.00741790997222581,0.0037189409462097126,0.019145707794454864,0.877464623595745,0.41831082778454054,0.38744506350265334,-4.903857936382856,6.9
,,0.008008856876019344,0.00741790997222581,0.0037189409462097126,0.019145707794454864,0.8803125145234313,0.41831082778454054,0.38744506350265334,-4.903857936382856,7.0
,,0.01184944334870456,0.008144481936778596,0.004279908442835039,0.024273833728318192,0.8882929586446011,0.4881570616874101,0.33552515964040447,-4.810414644011962,7.1
,,0.01184944334870456,0.008144481936778596,0.004279908442835039,0.024273833728318192,0.8960547604610812,0.4881570616874101,0.33552515964040447,-4.810414644011962,7.2
,,0.01184944334870456,0.008144481936778596,0.004279908442835039,0.024273833728318192,0.9036067838500891,0.4881570616874101,0.33552515964040447,-4.810414644011962,7.3
,,0.01184944334870456,0.008144481936778596,0.004279908442835039,0.024273833728318192,0.9109574199487231,0.4881570616874101,0.33552515964040447,-4.810414644011962,7.4
,,0.01184944334870456,0.008144481936778596,0.004279908442835039,0.024273833728318192,0.918114618255288,0.4881570616874101,0.33552515964040447,-4.810414644011962,7.5
,,0.01184944334870456,0.008144481936778596,0.004279908442835039,0.024273833728318192,0.9250859153071369,0.4881570616874101,0.33552515964040447,-4.810414644011962,7.6
,,0.01139214890091523,0.007349851485139304,0.004882797281109245,0.02362479766716378,0.9330974234512132,0.48221149071465846,0.3111074892021149,-4.913075172065034,7.7
,,0.01139214890091523,0.007349851485139304,0.004882797281109245,0.02362479766716378,0.9409061086043,0.48221149071465846,0.3111074892021149,-4.913075172065034,7.8
,,0.007783812786027494,0.006152154921313209,0.002215774932329239,0.016151742639669942,0.9449599983896737,0.4819178313868029,0.3808972851141793,-5.090952864827785,7.9
,,0.007783812786027494,0.006152154921313209,0.002215774932329239,0.016151742639669942,0.9489137921309642,0.4819178313868029,0.3808972851141793,-5.090952864827785,8.0
,,0.007783812786027494,0.006152154921313209,0.002215774932329239,0.016151742639669942,0.9527711518785648,0.4819178313868029,0.3808972851141793,-5.090952864827785,8.1
,,0.007783812786027494,0.006152154921313209,0.002215774932329239,0.016151742639669942,0.9565355631985121,0.4819178313868029,0.3808972851141793,-5.090952864827785,8.2
,,0.007783812786027494,0.006152154921313209,0.002215774932329239,0.016151742639669942,0.9602103456775084,0.4819178313868029,0.3808972851141793,-5.090952864827785,8.3
,,0.007783812786027494,0.006152154921313209,0.002215774932329239,0.016151742639669942,0.9637986626864108,0.4819178313868029,0.3808972851141793,-5.090952864827785,8.4
,,0.007684356799156189,0.00577065069987517,0.002643747270935298,0.016098754769966656,0.9680757414531851,0.47732616025010144,0.35845323332961876,-5.1549704318785485,8.5
,,0.007684356799156189,0.00577065069987517,0.002643747270935298,0.016098754769966656,0.9722544965701487,0.47732616025010144,0.35845323332961876,-5.1549704318785485,8.6
,,0.00757133191252962,0.005387620008299167,0.0017854080684704,0.014744359989299188,0.9771756991901775,0.5135069896573715,0.365402093560471,-5.223651548478011,8.7
,,0.00757133191252962,0.005387620008299167,0.0017854080684704,0.014744359989299188,0.9819863129872844,0.5135069896573715,0.365402093560471,-5.223651548478011,8.8
,,0.00757133191252962,0.005387620008299167,0.0017854080684704,0.014744359989299188,0.9866900242555668,0.5135069896573715,0.365402093560471,-5.223651548478011,8.9
,,0.00757133191252962,0.005387620008299167,0.0017854080684704,0.014744359989299188,0.9911879633021232,0.5135069896573715,0.365402093560471,-5.223651548478011,9.0
,,0.00757133191252962,0.005387620008299167,0.0017854080684704,0.014744359989299188,0.9956859023486799,0.5135069896573715,0.365402093560471,-5.223651548478011,9.1
,,0.00757133191252962,0.005387620008299167,0.0017854080684704,0.014744359989299188,1.0001838413952364,0.5135069896573715,0.365402093560471,-5.223651548478011,9.2
,,0.007475433231365052,0.005105235136186867,0.0021397883390941977,0.014720456706646116,1.0053367563018916,0.5078261755282348,0.34681227885286414,-5.277488768448397,9.3
,,0.007329879474332022,0.004775208645149256,0.0018868140340931611,0.013991902153574438,1.0112754275063172,0.523865832813839,0.34128373631667785,-5.344317610684841,9.4
,,0.007329879474332022,0.004775208645149256,0.0018868140340931611,0.013991902153574438,1.0172140987107425,0.523865832813839,0.34128373631667785,-5.344317610684841,9.5
,,0.007329879474332022,0.004775208645149256,0.0018868140340931611,0.013991902153574438,1.0235166454939206,0.523865832813839,0.34128373631667785,-5.344317610684841,9.6
,,0.007329879474332022,0.004775208645149256,0.0018868140340931611,0.013991902153574438,1.0305112760122184,0.523865832813839,0.34128373631667785,-5.344317610684841,9.7
,,0.007329879474332022,0.004775208645149256,0.0018868140340931611,0.013991902153574438,1.0375059065305159,0.523865832813839,0.34128373631667785,-5.344317610684841,9.8
,,0.007329879474332022,0.004775208645149256,0.0018868140340931611,0.013991902153574438,1.0445005370488138,0.523865832813839,0.34128373631667785,-5.344317610684841,9.9
,,0.007329879474332022,0.004775208645149256,0.0018868140340931611,0.013991902153574438,1.0514951675671116,0.523865832813839,0.34128373631667785,-5.344317610684841,10.0
,,0.007252617278251293,0.004595005221505825,0.0017057691007044673,0.013553391600461585,1.0589718373786583,0.5351145670434471,0.33902991641954283,-5.382785386830013,10.1
,,0.007076769272220831,0.004317734141841125,0.0014751772223167109,0.012869680636378666,1.067122184304189,0.5498791673366751,0.3354966035160349,-5.4450245185300075,10.2
,,0.007076769272220831,0.004317734141841125,0.0014751772223167109,0.012869680636378666,1.0752725312297196,0.5498791673366751,0.3354966035160349,-5.4450245185300075,10.3
,,0.007076769272220831,0.004317734141841125,0.0014751772223167109,0.012869680636378666,1.085386121484702,0.5498791673366751,0.3354966035160349,-5.4450245185300075,10.4
,,0.007076769272220831,0.004317734141841125,0.0014751772223167109,0.012869680636378666,1.0954997117396845,0.5498791673366751,0.3354966035160349,-5.4450245185300075,10.5
,,0.007076769272220831,0.004317734141841125,0.0014751772223167109,0.012869680636378666,1.105613301994667,0.5498791673366751,0.3354966035160349,-5.4450245185300075,10.6
,,0.007076769272220831,0.004317734141841125,0.0014751772223167109,0.012869680636378666,1.1157268922496493,0.5498791673366751,0.3354966035160349,-5.4450245185300075,10.7
,,0.007076769272220831,0.004317734141841125,0.0014751772223167109,0.012869680636378666,1.1258404825046318,0.5498791673366751,0.3354966035160349,-5.4450245185300075,10.8
,,0.008835105426651016,0.0038995573547874565,0.001426834238375467,0.014161497019813939,1.1429170516540006,0.6238821654440525,0.27536335666571293,-5.546892231060457,10.9
,,0.008835105426651016,0.0038995573547874565,0.001426834238375467,0.014161497019813939,1.1599936208033697,0.6238821654440525,0.27536335666571293,-5.546892231060457,11.0
,,0.008835105426651016,0.0038995573547874565,0.001426834238375467,0.014161497019813939,1.1759239780696478,0.6238821654440525,0.27536335666571293,-5.546892231060457,11.1
,,0.008835105426651016,0.0038995573547874565,0.001426834238375467,0.014161497019813939,1.1928502146420474,0.6238821654440525,0.27536335666571293,-5.546892231060457,11.2
,,0.008835105426651016,0.0038995573547874565,0.001426834238375467,0.014161497019813939,1.209776451214447,0.6238821654440525,0.27536335666571293,-5.546892231060457,11.3
,,0.008835105426651016,0.0038995573547874565,0.001426834238375467,0.014161497019813939,1.2267026877868468,0.6238821654440525,0.27536335666571293,-5.546892231060457,11.4
,,0.008835105426651016,0.0038995573547874565,0.001426834238375467,0.014161497019813939,1.2436289243592464,0.6238821654440525,0.27536335666571293,-5.546892231060457,11.5
,,0.006636495618534426,0.0036791404839083743,0.0008423535201710203,0.01115798962261382,1.2554234726759617,0.5947752097819025,0.3297314846441411,-5.605076118236986,11.6
,,0.00655000808589222,0.0038018762982287087,0.0008282655400171902,0.011180149924138119,1.2663182300031386,0.5858604875906583,0.34005593163114906,-5.572260571418718,11.7
,,0.00655000808589222,0.0038018762982287087,0.0008282655400171902,0.011180149924138119,1.2772129873303153,0.5858604875906583,0.34005593163114906,-5.572260571418718,11.8
,,0.00655000808589222,0.0038018762982287087,0.0008282655400171902,0.011180149924138119,1.2873730218495456,0.5858604875906583,0.34005593163114906,-5.572260571418718,11.9
,,0.00655000808589222,0.0038018762982287087,0.0008282655400171902,0.011180149924138119,1.2976584360274737,0.5858604875906583,0.34005593163114906,-5.572260571418718,12.0
,,0.00655000808589222,0.0038018762982287087,0.0008282655400171902,0.011180149924138119,1.3079438502054015,0.5858604875906583,0.34005593163114906,-5.572260571418718,12.1
,,0.00655000808589222,0.0038018762982287087,0.0008282655400171902,0.011180149924138119,1.3182292643833295,0.5858604875906583,0.34005593163114906,-5.572260571418718,12.2
,,0.00655000808589222,0.0038018762982287087,0.0008282655400171902,0.011180149924138119,1.3285146785612578,0.5858604875906583,0.34005593163114906,-5.572260571418718,12.3
,,0.006371078758542774,0.003724053371778871,0.00046611073215096686,0.010561242862472613,1.3386662683831265,0.603250852338715,0.3526150681575171,-5.592942587828214,12.4
,,0.006371078758542774,0.003724053371778871,0.00046611073215096686,0.010561242862472613,1.3488178582049957,0.603250852338715,0.3526150681575171,-5.592942587828214,12.5
,,0.007553906995625904,0.003540394666597621,0.000698436989838075,0.0117927386520616,1.3636677000740012,0.6405557876333785,0.3002181911305811,-5.643517070311309,12.6
,,0.007553906995625904,0.003540394666597621,0.000698436989838075,0.0117927386520616,1.3783408396280046,0.6405557876333785,0.3002181911305811,-5.643517070311309,12.7
,,0.007553906995625904,0.003540394666597621,0.000698436989838075,0.0117927386520616,1.393013979182008,0.6405557876333785,0.3002181911305811,-5.643517070311309,12.8
,,0.007553906995625904,0.003540394666597621,0.000698436989838075,0.0117927386520616,1.407654575369739,0.6405557876333785,0.3002181911305811,-5.643517070311309,12.9
,,0.007553906995625904,0.003540394666597621,0.000698436989838075,0.0117927386520616,1.4222951715574697,0.6405557876333785,0.3002181911305811,-5.643517070311309,13.0
,,0.006100032214305305,0.003714127054053631,0.0003385294238177544,0.010152688692176691,1.4314774606709153,0.6008292383677417,0.3658269416766032,-5.5956116071446615,13.1
,,0.006100032214305305,0.003714127054053631,0.0003385294238177544,0.010152688692176691,1.4406597497843607,0.6008292383677417,0.3658269416766032,-5.5956116071446615,13.2
,,0.006100032214305305,0.003714127054053631,0.0003385294238177544,0.010152688692176691,1.4498420388978064,0.6008292383677417,0.3658269416766032,-5.5956116071446615,13.3
,,0.006005736046021724,0.0037308793243648105,0.0004606260567809787,0.010197241427167512,1.458661560176576,0.5889569339822855,0.36587143209387923,-5.5911113293120795,13.4
,,0.006005736046021724,0.0037308793243648105,0.0004606260567809787,0.010197241427167512,1.4671754066570264,0.5889569339822855,0.36587143209387923,-5.5911113293120795,13.5
,,0.006005736046021724,0.0037308793243648105,0.0004606260567809787,0.010197241427167512,1.475689253137477,0.5889569339822855,0.36587143209387923,-5.5911113293120795,13.6
,,0.006005736046021724,0.0037308793243648105,0.0004606260567809787,0.010197241427167512,1.4840356575403417,0.5889569339822855,0.36587143209387923,-5.5911113293120795,13.7
,,0.005865596068891859,0.003803727825912197,0.0002587999363749098,0.009928123831178966,1.4916301477170397,0.5908060947498596,0.3831265494459998,-5.57177368630352,13.8
,,0.005865596068891859,0.003803727825912197,0.0002587999363749098,0.009928123831178966,1.4992246378937377,0.5908060947498596,0.3831265494459998,-5.57177368630352,13.9
,,0.005865596068891859,0.003803727825912197,0.0002587999363749098,0.009928123831178966,1.5068191280704362,0.5908060947498596,0.3831265494459998,-5.57177368630352,14.0
,,0.005865596068891859,0.003803727825912197,0.0002587999363749098,0.009928123831178966,1.514077115880083,0.5908060947498596,0.3831265494459998,-5.57177368630352,14.1
,,0.006623581752463868,0.0036957106760076605,0.00035656631380336323,0.01067585874227489,1.5244512703927038,0.6204261326759056,0.34617455749701603,-5.600582408567719,14.2
,,0.006623581752463868,0.0036957106760076605,0.00035656631380336323,0.01067585874227489,1.5344062311649265,0.6204261326759056,0.34617455749701603,-5.600582408567719,14.3
,,0.006623581752463868,0.0036957106760076605,0.00035656631380336323,0.01067585874227489,1.54436119193715,0.6204261326759056,0.34617455749701603,-5.600582408567719,14.4
,,0.006623581752463868,0.0036957106760076605,0.00035656631380336323,0.01067585874227489,1.553992331827619,0.6204261326759056,0.34617455749701603,-5.600582408567719,14.5
,,0.006479608857001518,0.0038287866234138182,0.00019883509049756535,0.010507230570912901,1.5625135283863854,0.6166809430202262,0.36439541300378653,-5.565207334492141,14.6
,,0.006479608857001518,0.0038287866234138182,0.00019883509049756535,0.010507230570912901,1.5710347249451517,0.6166809430202262,0.36439541300378653,-5.565207334492141,14.7
,,0.006479608857001518,0.0038287866234138182,0.00019883509049756535,0.010507230570912901,1.5795559215039179,0.6166809430202262,0.36439541300378653,-5.565207334492141,14.8
,,0.006479608857001518,0.0038287866234138182,0.00019883509049756535,0.010507230570912901,1.5876139184405367,0.6166809430202262,0.36439541300378653,-5.565207334492141,14.9
,,0.005560496533972161,0.003986022855238104,0.000313134401299227,0.00985965379050949,1.5899081178925514,0.5639646839653206,0.4042761480200137,-5.524961323329873,15.0
,,0.005560496533972161,0.003986022855238104,0.000313134401299227,0.00985965379050949,1.5922023173445663,0.5639646839653206,0.4042761480200137,-5.524961323329873,15.1
,,0.005560496533972161,0.003986022855238104,0.000313134401299227,0.00985965379050949,1.594496516796581,0.5639646839653206,0.4042761480200137,-5.524961323329873,15.2
,,0.006242659016035614,0.004118242644263458,0.00017360563750724896,0.01053450729780632,1.6000464466150959,0.5925914558277985,0.3909288330096872,-5.492328749270397,15.3
,,0.006242659016035614,0.004118242644263458,0.00017360563750724896,0.01053450729780632,1.6055963764336112,0.5925914558277985,0.3909288330096872,-5.492328749270397,15.4
,,0.006242659016035614,0.004118242644263458,0.00017360563750724896,0.01053450729780632,1.6111463062521267,0.5925914558277985,0.3909288330096872,-5.492328749270397,15.5
,,0.006242659016035614,0.004118242644263458,0.00017360563750724896,0.01053450729780632,1.6166962360706416,0.5925914558277985,0.3909288330096872,-5.492328749270397,15.6
,,0.006242659016035614,0.004118242644263458,0.00017360563750724896,0.01053450729780632,1.622246165889157,0.5925914558277985,0.3909288330096872,-5.492328749270397,15.7
,,0.0053861069195880965,0.004187533866453501,0.0002984167534102445,0.009872057539451843,1.625244640263476,0.5455911189803667,0.42418045576809094,-5.4756432943523725,15.8
,,0.0053861069195880965,0.004187533866453501,0.0002984167534102445,0.009872057539451843,1.6275397425573266,0.5455911189803667,0.42418045576809094,-5.4756432943523725,15.9
,,0.005362248961854492,0.0044267143686426945,0.00029860466412344596,0.010087567994620633,1.6290027813262467,0.5315700439108815,0.4388287019233293,-5.420097647611219,16.0
,,0.005362248961854492,0.0044267143686426945,0.00029860466412344596,0.010087567994620633,1.6262964910753206,0.5315700439108815,0.4388287019233293,-5.420097647611219,16.1
,,0.005362248961854492,0.0044267143686426945,0.00029860466412344596,0.010087567994620633,1.6235902008243948,0.5315700439108815,0.4388287019233293,-5.420097647611219,16.2
,,0.005362248961854492,0.0044267143686426945,0.00029860466412344596,0.010087567994620633,1.620883910573469,0.5315700439108815,0.4388287019233293,-5.420097647611219,16.3
,,0.005362248961854492,0.0044267143686426945,0.00029860466412344596,0.010087567994620633,1.6181776203225424,0.5315700439108815,0.4388287019233293,-5.420097647611219,16.4
,,0.005362248961854492,0.0044267143686426945,0.00029860466412344596,0.010087567994620633,1.6154713300716164,0.5315700439108815,0.4388287019233293,-5.420097647611219,16.5
,,0.005232947252048468,0.004395894068601121,0.0003102924191621646,0.009939133739811755,1.612532580731477,0.5264993297240388,0.4422814083880492,-5.4270843399555995,16.6
,,0.005252697188539044,0.004673891462249228,0.0003240754799270415,0.010250664130715313,1.6077976310147186,0.512425060616292,0.4559598678337609,-5.365763264733465,16.7
,,0.005252697188539044,0.004673891462249228,0.0003240754799270415,0.010250664130715313,1.60306268129796,0.512425060616292,0.4559598678337609,-5.365763264733465,16.8
,,0.005252697188539044,0.004673891462249228,0.0003240754799270415,0.010250664130715313,1.601491801126878,0.512425060616292,0.4559598678337609,-5.365763264733465,16.9
,,0.005252697188539044,0.004673891462249228,0.0003240754799270415,0.010250664130715313,1.5999209209557959,0.512425060616292,0.4559598678337609,-5.365763264733465,17.0
,,0.005252697188539044,0.004673891462249228,0.0003240754799270415,0.010250664130715313,1.5983500407847135,0.512425060616292,0.4559598678337609,-5.365763264733465,17.1
,,0.005252697188539044,0.004673891462249228,0.0003240754799270415,0.010250664130715313,1.5967791606136315,0.512425060616292,0.4559598678337609,-5.365763264733465,17.2
,,0.005252697188539044,0.004673891462249228,0.0003240754799270415,0.010250664130715313,1.5952082804425494,0.512425060616292,0.4559598678337609,-5.365763264733465,17.3
,,0.005203135832653826,0.004931804172902979,0.000365254832386182,0.010500194837942987,1.5928727184712073,0.49552755096048606,0.4696869200066321,-5.3120503998813415,17.4
,,0.005203135832653826,0.004931804172902979,0.000365254832386182,0.010500194837942987,1.5897992659977007,0.49552755096048606,0.4696869200066321,-5.3120503998813415,17.5
,,0.005203135832653826,0.004931804172902979,0.000365254832386182,0.010500194837942987,1.5867258135241946,0.49552755096048606,0.4696869200066321,-5.3120503998813415,17.6
,,0.005203135832653826,0.004931804172902979,0.000365254832386182,0.010500194837942987,1.5828335511562026,0.49552755096048606,0.4696869200066321,-5.3120503998813415,17.7
,,0.005203135832653826,0.004931804172902979,0.000365254832386182,0.010500194837942987,1.578941288788211,0.49552755096048606,0.4696869200066321,-5.3120503998813415,17.8
,,0.005203135832653826,0.004931804172902979,0.000365254832386182,0.010500194837942987,1.5750490264202193,0.49552755096048606,0.4696869200066321,-5.3120503998813415,17.9
,,0.005203135832653826,0.004931804172902979,0.000365254832386182,0.010500194837942987,1.5711567640522273,0.49552755096048606,0.4696869200066321,-5.3120503998813415,18.0
,,0.0053135128456035415,0.005187504470086487,0.00031242269670826896,0.010813440012398296,1.5669231020868928,0.4913804339332591,0.4797274932064804,-5.261502531722273,18.1
,,0.006103438217233802,0.00535422697339699,0.00030205064654004996,0.011759715837170842,1.5639743087697968,0.5190123895631623,0.455302411004951,-5.229868941544407,18.2
,,0.006103438217233802,0.00535422697339699,0.00030205064654004996,0.011759715837170842,1.5603705395926024,0.5190123895631623,0.455302411004951,-5.229868941544407,18.3
,,0.006103438217233802,0.00535422697339699,0.00030205064654004996,0.011759715837170842,1.5559810141176378,0.5190123895631623,0.455302411004951,-5.229868941544407,18.4
,,0.006103438217233802,0.00535422697339699,0.00030205064654004996,0.011759715837170842,1.5515914886426723,0.5190123895631623,0.455302411004951,-5.229868941544407,18.5
,,0.006103438217233802,0.00535422697339699,0.00030205064654004996,0.011759715837170842,1.5472019631677076,0.5190123895631623,0.455302411004951,-5.229868941544407,18.6
,,0.006103438217233802,0.00535422697339699,0.00030205064654004996,0.011759715837170842,1.5428124376927428,0.5190123895631623,0.455302411004951,-5.229868941544407,18.7
,,0.006593361438038773,0.005985666946418579,0.00028629344846768423,0.012865321832925035,1.5379962012594341,0.5124909834097573,0.4652559045277835,-5.118387509853519,18.8
,,0.005306489196867228,0.0054030814908823605,0.00046227866746923054,0.011171849355218819,1.531853273686098,0.47498753591663445,0.483633579283663,-5.220785841708988,18.9
,,0.00530435479279771,0.005395982963641608,0.00046658973771363687,0.011166927494152955,1.525720306651894,0.4750057520813214,0.48321106826089494,-5.222100497861477,19.0
,,0.00530435479279771,0.005395982963641608,0.00046658973771363687,0.011166927494152955,1.5191053003244421,0.4750057520813214,0.48321106826089494,-5.222100497861477,19.1
,,0.00530435479279771,0.005395982963641608,0.00046658973771363687,0.011166927494152955,1.511816616883006,0.4750057520813214,0.48321106826089494,-5.222100497861477,19.2
,,0.005572987155184678,0.005804053797779408,0.0004142147931963356,0.011791255746160422,1.5042742618941427,0.47263728945913214,0.49223373003926046,-5.149198674916419,19.3
,,0.005572987155184678,0.005804053797779408,0.0004142147931963356,0.011791255746160422,1.4967319069052798,0.47263728945913214,0.49223373003926046,-5.149198674916419,19.4
,,0.005572987155184678,0.005804053797779408,0.0004142147931963356,0.011791255746160422,1.4891895519164167,0.47263728945913214,0.49223373003926046,-5.149198674916419,19.5
,,0.005572987155184678,0.005804053797779408,0.0004142147931963356,0.011791255746160422,1.4816471969275538,0.47263728945913214,0.49223373003926046,-5.149198674916419,19.6
,,0.0073345742232119255,0.006576452822151219,0.00041384889433464386,0.014324875939697787,1.475828057650993,0.5120165964499559,0.45909317817728773,-5.024259763782804,19.7
,,0.005572987155184678,0.005804053797779408,0.0004142147931963356,0.011791255746160422,1.4682857026621305,0.47263728945913214,0.49223373003926046,-5.149198674916419,19.8
,,0.005445348805572622,0.005640552465575952,0.0005206645996540761,0.011606565870802651,1.4538381917003733,0.4691610650546413,0.485979447182156,-5.177773263380083,19.9
,,0.005445348805572622,0.005640552465575952,0.0005206645996540761,0.011606565870802651,1.439390680738616,0.4691610650546413,0.485979447182156,-5.177773263380083,20.0
,,0.005809259357842179,0.006086651443136395,0.0004628285631832243,0.012358739364161798,1.4248213180772842,0.4700527445936779,0.4924977591797614,-5.101657193614198,20.1
,,0.005809259357842179,0.006086651443136395,0.0004628285631832243,0.012358739364161798,1.4102519554159525,0.4700527445936779,0.4924977591797614,-5.101657193614198,20.2
,,0.005809259357842179,0.006086651443136395,0.0004628285631832243,0.012358739364161798,1.3956825927546204,0.4700527445936779,0.4924977591797614,-5.101657193614198,20.3
,,0.005809259357842179,0.006086651443136395,0.0004628285631832243,0.012358739364161798,1.3811132300932887,0.4700527445936779,0.4924977591797614,-5.101657193614198,20.4
,,0.005809259357842179,0.006086651443136395,0.0004628285631832243,0.012358739364161798,1.3665438674319568,0.4700527445936779,0.4924977591797614,-5.101657193614198,20.5
,,0.005809259357842179,0.006086651443136395,0.0004628285631832243,0.012358739364161798,1.3571061930263093,0.4700527445936779,0.4924977591797614,-5.101657193614198,20.6
,,0.005686644283790575,0.005913233605687964,0.0005704068787354484,0.012170284768213985,1.3486489187232158,0.46725646869355064,0.48587471191569687,-5.130562455789049,20.7
,,0.005686644283790575,0.005913233605687964,0.0005704068787354484,0.012170284768213985,1.340191644420122,0.46725646869355064,0.48587471191569687,-5.130562455789049,20.8
,,0.009402795734738987,0.008092363865295446,0.0005412122642730255,0.01803637186430746,1.333959407827743,0.5213241224720127,0.4486691628547307,-4.816834394635252,20.9
,,0.009402795734738987,0.008092363865295446,0.0005412122642730255,0.01803637186430746,1.327727171235364,0.5213241224720127,0.4486691628547307,-4.816834394635252,21.0
,,0.006125293525006752,0.00637305820211132,0.0005966454479289874,0.013094997175047059,1.3192636983960238,0.4677582929669276,0.48667885276488554,-5.055675830083598,21.1
,,0.009402795734738987,0.008092363865295446,0.0005412122642730255,0.01803637186430746,1.3130314618036447,0.5213241224720127,0.4486691628547307,-4.816834394635252,21.2
,,0.0059681903659199,0.006169159744259601,0.0006034565763779892,0.01274080668655749,1.3046379937455024,0.4684311215722934,0.4842047992744862,-5.088192634413352,21.3
,,0.009402795734738987,0.008092363865295446,0.0005412122642730255,0.01803637186430746,1.2985395815091823,0.5213241224720127,0.4486691628547307,-4.816834394635252,21.4
,,0.0059947709186826586,0.006186824719137979,0.000609811732195677,0.012791407370016314,1.2902969830616735,0.468656086486206,0.4836703687226942,-5.0853332933440605,21.5
,,0.006489620171872233,0.006648231061024568,0.0006280736204305041,0.013765924853327305,1.2774359634349655,0.47142638369870615,0.4829483766517621,-5.013404465561176,21.6
,,0.006489620171872233,0.006648231061024568,0.0006280736204305041,0.013765924853327305,1.2645749438082576,0.47142638369870615,0.4829483766517621,-5.013404465561176,21.7
,,0.006493727594768217,0.006652221045995287,0.0006284472820496838,0.013774395922813189,1.251714279333478,0.4714346553675932,0.4829410366357963,-5.012804488198255,21.8
,,0.006493727594768217,0.006652221045995287,0.0006284472820496838,0.013774395922813189,1.2388536148586982,0.4714346553675932,0.4829410366357963,-5.012804488198255,21.9
,,0.006489620171872233,0.006648231061024568,0.0006280736204305041,0.013765924853327305,1.2259925952319901,0.47142638369870615,0.4829483766517621,-5.013404465561176,22.0
,,0.006489620171872233,0.006648231061024568,0.0006280736204305041,0.013765924853327305,1.2185898826795676,0.47142638369870615,0.4829483766517621,-5.013404465561176,22.1
,,0.006493727594768217,0.006652221045995287,0.0006284472820496838,0.013774395922813189,1.2111875252790734,0.4714346553675932,0.4829410366357963,-5.012804488198255,22.2
,,0.01324893861211581,0.010373259286423561,0.0006631242084204648,0.02428532210695984,1.2071301241781838,0.5455533409754053,0.4271411036154521,-4.568524006563775,22.3
,,0.01324893861211581,0.010373259286423561,0.0006631242084204648,0.02428532210695984,1.2034354909119702,0.5455533409754053,0.4271411036154521,-4.568524006563775,22.4
,,0.01324893861211581,0.010373259286423561,0.0006631242084204648,0.02428532210695984,1.1997408576457567,0.5455533409754053,0.4271411036154521,-4.568524006563775,22.5
,,0.01324893861211581,0.010373259286423561,0.0006631242084204648,0.02428532210695984,1.196046224379543,0.5455533409754053,0.4271411036154521,-4.568524006563775,22.6
,,0.01324893861211581,0.010373259286423561,0.0006631242084204648,0.02428532210695984,1.1923515911133298,0.5455533409754053,0.4271411036154521,-4.568524006563775,22.7
,,0.01324893861211581,0.010373259286423561,0.0006631242084204648,0.02428532210695984,1.1894088720732823,0.5455533409754053,0.4271411036154521,-4.568524006563775,22.8
,,0.01324893861211581,0.010373259286423561,0.0006631242084204648,0.02428532210695984,1.1864661530332348,0.5455533409754053,0.4271411036154521,-4.568524006563775,22.9
,,0.007585466305606204,0.007519662818805171,0.0005600226872676451,0.01566515181167902,1.1805404388064402,0.4842255215139967,0.48002489278137417,-4.890233979950483,23.0
,,0.007450571969896936,0.007356737166363676,0.0006666855025932857,0.015473994638853896,1.1746592144956325,0.4814898895718354,0.47542585725676345,-4.912138764324165,23.1
,,0.007450571969896936,0.007356737166363676,0.0006666855025932857,0.015473994638853896,1.1659983258489022,0.4814898895718354,0.47542585725676345,-4.912138764324165,23.2
,,0.007450571969896936,0.007356737166363676,0.0006666855025932857,0.015473994638853896,1.1573374372021723,0.4814898895718354,0.47542585725676345,-4.912138764324165,23.3
,,0.007450571969896936,0.007356737166363676,0.0006666855025932857,0.015473994638853896,1.148676548555442,0.4814898895718354,0.47542585725676345,-4.912138764324165,23.4
,,0.007450571969896936,0.007356737166363676,0.0006666855025932857,0.015473994638853896,1.140015659908712,0.4814898895718354,0.47542585725676345,-4.912138764324165,23.5
,,0.007450571969896936,0.007356737166363676,0.0006666855025932857,0.015473994638853896,1.1324647145936848,0.4814898895718354,0.47542585725676345,-4.912138764324165,23.6
,,0.008197956103260061,0.007994644433536075,0.0005735201267277455,0.01676612066352388,1.1250546141108944,0.48895962684411615,0.47683328743596026,-4.828983407289193,23.7
,,0.008197956103260061,0.007994644433536075,0.0005735201267277455,0.01676612066352388,1.1176445136281044,0.48895962684411615,0.47683328743596026,-4.828983407289193,23.8
,,0.008020664862100403,0.007818650865298375,0.0006730314646617437,0.016512347192060524,1.1102389294354027,0.4857374162988109,0.4735032987350062,-4.851243262927962,23.9
,,0.008020664862100403,0.007818650865298375,0.0006730314646617437,0.016512347192060524,1.1061371382292824,0.4857374162988109,0.4735032987350062,-4.851243262927962,24.0
,,0.008020664862100403,0.007818650865298375,0.0006730314646617437,0.016512347192060524,1.1020353470231619,0.4857374162988109,0.4735032987350062,-4.851243262927962,24.1
,,0.008020664862100403,0.007818650865298375,0.0006730314646617437,0.016512347192060524,1.0979335558170413,0.4857374162988109,0.4735032987350062,-4.851243262927962,24.2
,,0.008020664862100403,0.007818650865298375,0.0006730314646617437,0.016512347192060524,1.0924889155237416,0.4857374162988109,0.4735032987350062,-4.851243262927962,24.3
,,0.006294736627657339,0.008537880211359976,0.0005799032268929209,0.015412520065910235,1.0838379880446392,0.408417092126302,0.553957443354397,-4.763242520803353,24.4
,,0.008557377240814594,0.008285943295433685,0.0006634393032961711,0.017506759839544448,1.0784702467998903,0.488804171602623,0.47329964947124664,-4.793194778768918,24.5
,,0.008644694030834907,0.0083729121511813,0.0006742911231229298,0.017691897305139134,1.0730991866207507,0.48862447490715427,0.47326253407254065,-4.782753527731603,24.6
,,0.008644694030834907,0.0083729121511813,0.0006742911231229298,0.017691897305139134,1.0677281264416107,0.48862447490715427,0.47326253407254065,-4.782753527731603,24.7
,,0.008644694030834907,0.0083729121511813,0.0006742911231229298,0.017691897305139134,1.064908521706667,0.48862447490715427,0.47326253407254065,-4.782753527731603,24.8
,,0.008644694030834907,0.0083729121511813,0.0006742911231229298,0.017691897305139134,1.0620889169717231,0.48862447490715427,0.47326253407254065,-4.782753527731603,24.9
,,0.009521277314080269,0.009183847679108141,0.000581767565026967,0.019286892558215377,1.0601489533316713,0.4936656999224387,0.47617041736441995,-4.690309025005431,25.0
,,0.009521277314080269,0.009183847679108141,0.000581767565026967,0.019286892558215377,1.0582089896916191,0.4936656999224387,0.47617041736441995,-4.690309025005431,25.1
,,0.009521277314080269,0.009183847679108141,0.000581767565026967,0.019286892558215377,1.0562690260515673,0.4936656999224387,0.47617041736441995,-4.690309025005431,25.2
,,0.009268054497413341,0.008971482190192606,0.0006641704062361446,0.01890370709384209,1.0542881244576208,0.49027708964197947,0.47458851037292465,-4.713704377967332,25.3
,,0.009521277314080269,0.009183847679108141,0.000581767565026967,0.019286892558215377,1.0523481608175687,0.4936656999224387,0.47617041736441995,-4.690309025005431,25.4
,,0.006997147868128753,0.009102293559404218,0.0006786064202406384,0.016778047847773613,1.047430218937279,0.41704183535614664,0.5425120754207445,-4.699228857720981,25.5
,,0.006997147868128753,0.009102293559404218,0.0006786064202406384,0.016778047847773613,1.042744736146203,0.41704183535614664,0.5425120754207445,-4.699228857720981,25.6
,,0.010320066792816648,0.01001036293714307,0.0006582503511763473,0.020988680081136066,1.041712516683308,0.4916967981274813,0.47694104147787997,-4.604134428855444,25.7
,,0.010320066792816648,0.01001036293714307,0.0006582503511763473,0.020988680081136066,1.0406802972204134,0.4916967981274813,0.47694104147787997,-4.604134428855444,25.8
,,0.010320066792816648,0.01001036293714307,0.0006582503511763473,0.020988680081136066,1.0396480777575183,0.4916967981274813,0.47694104147787997,-4.604134428855444,25.9
,,0.010320066792816648,0.01001036293714307,0.0006582503511763473,0.020988680081136066,1.0386158582946237,0.4916967981274813,0.47694104147787997,-4.604134428855444,26.0
,,0.010083294734823233,0.009821176664931121,0.0006686665835800162,0.02057313798333437,1.0375364248924037,0.49011943355415116,0.47737864164849025,-4.623214340481261,26.1
,,0.01021899736875437,0.00996711123036281,0.0006840731365143958,0.020870181735631578,1.036441243263639,0.48964582571446974,0.47757663812510076,-4.608464483195257,26.2
,,0.011205925048227126,0.01099518394183583,0.0006594808168231636,0.02286058980688612,1.0352782276856625,0.49018529893098606,0.48096676571852204,-4.510297925525916,26.3
,,0.011205925048227126,0.01099518394183583,0.0006594808168231636,0.02286058980688612,1.0348798939079458,0.49018529893098606,0.48096676571852204,-4.510297925525916,26.4
,,0.011205925048227126,0.01099518394183583,0.0006594808168231636,0.02286058980688612,1.034481560130229,0.49018529893098606,0.48096676571852204,-4.510297925525916,26.5
,,0.011205925048227126,0.01099518394183583,0.0006594808168231636,0.02286058980688612,1.0340832263525124,0.49018529893098606,0.48096676571852204,-4.510297925525916,26.6
,,0.011205925048227126,0.01099518394183583,0.0006594808168231636,0.02286058980688612,1.0336848925747955,0.49018529893098606,0.48096676571852204,-4.510297925525916,26.7
,,0.011205925048227126,0.01099518394183583,0.0006594808168231636,0.02286058980688612,1.033286558797079,0.49018529893098606,0.48096676571852204,-4.510297925525916,26.8
,,0.011905889789451531,0.011862263274240673,0.000645451420875068,0.024413604484567274,1.0327161259352091,0.4876743946997944,0.48588741911253785,-4.434393071052108,26.9
,,0.012212366788136015,0.012097777130425647,0.0005599407222854328,0.024870084640847095,1.0322100731097534,0.49104645056487645,0.48643892070057654,-4.414733551485151,27.0
,,0.012055825867598558,0.0120282014310067,0.0006611171568557743,0.024745144455461034,1.031965694095915,0.48719965604961113,0.48608329818629054,-4.420501267154819,27.1
,,0.012055825867598558,0.0120282014310067,0.0006611171568557743,0.024745144455461034,1.0304364464338378,0.48719965604961113,0.48608329818629054,-4.420501267154819,27.2
,,0.012055825867598558,0.0120282014310067,0.0006611171568557743,0.024745144455461034,1.0289071987717606,0.48719965604961113,0.48608329818629054,-4.420501267154819,27.3
,,0.012055825867598558,0.0120282014310067,0.0006611171568557743,0.024745144455461034,1.0273779511096837,0.48719965604961113,0.48608329818629054,-4.420501267154819,27.4
,,0.012055825867598558,0.0120282014310067,0.0006611171568557743,0.024745144455461034,1.0258487034476065,0.48719965604961113,0.48608329818629054,-4.420501267154819,27.5
,,0.013059402605832075,0.013202717919247863,0.000567442939550236,0.026829563464630175,1.0241733266227893,0.4867541964687009,0.4920958902910667,-4.327332567611597,27.6
,,0.013059402605832075,0.013202717919247863,0.000567442939550236,0.026829563464630175,1.022497949797972,0.4867541964687009,0.4920958902910667,-4.327332567611597,27.7
,,0.012957023932975214,0.013199968482928426,0.0006779155421239257,0.02683490795802757,1.0211653956153526,0.48284212314949143,0.49189542604634506,-4.327540837049599,27.8
,,0.012957023932975214,0.013199968482928426,0.0006779155421239257,0.02683490795802757,1.021159532572761,0.48284212314949143,0.49189542604634506,-4.327540837049599,27.9
,,0.012957023932975214,0.013199968482928426,0.0006779155421239257,0.02683490795802757,1.021143708991036,0.48284212314949143,0.49189542604634506,-4.327540837049599,28.0
,,0.012957023932975214,0.013199968482928426,0.0006779155421239257,0.02683490795802757,1.0211278854093115,0.48284212314949143,0.49189542604634506,-4.327540837049599,28.1
,,0.013987503067243265,0.014485883348336682,0.0005896626176056153,0.029063049033185562,1.020934288330436,0.4812813360109489,0.4984295808673074,-4.234580665958761,28.2
,,0.013987503067243265,0.014485883348336682,0.0005896626176056153,0.029063049033185562,1.0209943627989875,0.4812813360109489,0.4984295808673074,-4.234580665958761,28.3
,,0.013987503067243265,0.014485883348336682,0.0005896626176056153,0.029063049033185562,1.0210544372675388,0.4812813360109489,0.4984295808673074,-4.234580665958761,28.4
,,0.013987503067243265,0.014485883348336682,0.0005896626176056153,0.029063049033185562,1.0211145117360902,0.4812813360109489,0.4984295808673074,-4.234580665958761,28.5
,,0.010110823058116818,0.014491425168053337,0.0007106826015022172,0.025312930827672372,1.018198089475624,0.39943312479104776,0.5724910033812107,-4.234198172202926,28.6
,,0.010110823058116818,0.014491425168053337,0.0007106826015022172,0.025312930827672372,1.0135584515028553,0.39943312479104776,0.5724910033812107,-4.234198172202926,28.7
,,0.010110823058116818,0.014491425168053337,0.0007106826015022172,0.025312930827672372,1.0106420292423892,0.39943312479104776,0.5724910033812107,-4.234198172202926,28.8
,,0.014885671206171167,0.01584824252333742,0.0006753066081133867,0.031409220337621974,1.010351700374729,0.4739267974869502,0.5045729360035847,-4.144696666615054,28.9
,,0.014885671206171167,0.01584824252333742,0.0006753066081133867,0.031409220337621974,1.010061371507069,0.4739267974869502,0.5045729360035847,-4.144696666615054,29.0
,,0.014885671206171167,0.01584824252333742,0.0006753066081133867,0.031409220337621974,1.0098928943389835,0.4739267974869502,0.5045729360035847,-4.144696666615054,29.1
,,0.014885671206171167,0.01584824252333742,0.0006753066081133867,0.031409220337621974,1.0097244171708983,0.4739267974869502,0.5045729360035847,-4.144696666615054,29.2
,,0.04508720598379349,0.04166348648085823,0.0013582736985222788,0.088108966163174,1.011143854738758,0.5117209740072757,0.47286318629251933,-3.178130157720208,29.3
,,0.014853708615278967,0.01597387843020263,0.0007635966486467662,0.03159118369412836,1.0108710629775952,0.4701852503880608,0.5056435550141031,-4.136800488995264,29.4
,,0.015825561001898622,0.01741466163624748,0.0007364646263816522,0.03397668726452776,1.0103635419588721,0.46577704526305536,0.5125473681605411,-4.05044280479608,29.5
,,0.015825561001898622,0.01741466163624748,0.0007364646263816522,0.03397668726452776,1.0098560209401495,0.46577704526305536,0.5125473681605411,-4.05044280479608,29.6
,,0.015825561001898622,0.01741466163624748,0.0007364646263816522,0.03397668726452776,1.009267890808411,0.46577704526305536,0.5125473681605411,-4.05044280479608,29.7
,,0.015825561001898622,0.01741466163624748,0.0007364646263816522,0.03397668726452776,1.0086797606766729,0.46577704526305536,0.5125473681605411,-4.05044280479608,29.8
,,0.015825561001898622,0.01741466163624748,0.0007364646263816522,0.03397668726452776,1.00586659283422,0.46577704526305536,0.5125473681605411,-4.05044280479608,29.9
,,0.015825561001898622,0.01741466163624748,0.0007364646263816522,0.03397668726452776,1.0030534249917673,0.46577704526305536,0.5125473681605411,-4.05044280479608,30.0
,,0.01559270502724552,0.0173217661059082,0.0008177388450620702,0.03373220997821579,1.002376277784878,0.4622497321496358,0.5135081904534144,-4.0557914118830585,30.1
,,0.016774499907377647,0.01893397225238271,0.0006538862020845355,0.03636235836184489,0.9993097537598905,0.4613149603898951,0.520702537056842,-3.9667974967680766,30.2
,,0.0361795941169418,0.03743165543775168,0.0012367711527564145,0.07484802070744989,0.9993000559256684,0.48337409292829453,0.5001021414321244,-3.285238530478977,30.3
,,0.0361795941169418,0.03743165543775168,0.0012367711527564145,0.07484802070744989,0.9971291266256833,0.48337409292829453,0.5001021414321244,-3.285238530478977,30.4
,,0.0361795941169418,0.03743165543775168,0.0012367711527564145,0.07484802070744989,0.997102383536887,0.48337409292829453,0.5001021414321244,-3.285238530478977,30.5
,,0.0361795941169418,0.03743165543775168,0.0012367711527564145,0.07484802070744989,0.996995809580153,0.48337409292829453,0.5001021414321244,-3.285238530478977,30.6
,,0.0361795941169418,0.03743165543775168,0.0012367711527564145,0.07484802070744989,0.9968892356234189,0.48337409292829453,0.5001021414321244,-3.285238530478977,30.7
,,0.017569123869290874,0.020720715518096622,0.0007489436432971418,0.039038783030684636,0.9954639806505456,0.4500428165366086,0.5307725781771951,-3.876621329460425,30.8
,,0.017314224362852685,0.020677674439727206,0.0009244347210459522,0.03891633352362584,0.9939213661897807,0.44490893142184984,0.5313366539829332,-3.878700690224042,30.9
,,0.017569123869290874,0.020720715518096622,0.0007489436432971418,0.039038783030684636,0.9924964663688357,0.4500428165366086,0.5307725781771951,-3.876621329460425,31.0
,,0.011562859200956633,0.02109227341238846,0.0009678538480712807,0.03362298646141637,0.9877415903646762,0.3438974468917401,0.6273170718071884,-3.8588484945500046,31.1
,,0.011562859200956633,0.02109227341238846,0.0009678538480712807,0.03362298646141637,0.9829863592085887,0.3438974468917401,0.6273170718071884,-3.8588484945500046,31.2
,,0.011562859200956633,0.02109227341238846,0.0009678538480712807,0.03362298646141637,0.9748861717528965,0.3438974468917401,0.6273170718071884,-3.8588484945500046,31.3
,,0.011562859200956633,0.02109227341238846,0.0009678538480712807,0.03362298646141637,0.966785984297204,0.3438974468917401,0.6273170718071884,-3.8588484945500046,31.4
,,0.018263822635005984,0.022688839323781428,0.0008899009186187055,0.04184256287740612,0.9615387513259945,0.43648910054857004,0.5422430597823825,-3.785882135144375,31.5
,,0.018263822635005984,0.022688839323781428,0.0008899009186187055,0.04184256287740612,0.9562915183547849,0.43648910054857004,0.5422430597823825,-3.785882135144375,31.6
,,0.018263822635005984,0.022688839323781428,0.0008899009186187055,0.04184256287740612,0.9510442853835752,0.43648910054857004,0.5422430597823825,-3.785882135144375,31.7
,,0.018263822635005984,0.022688839323781428,0.0008899009186187055,0.04184256287740612,0.9457970524123657,0.43648910054857004,0.5422430597823825,-3.785882135144375,31.8
,,0.018330145596925425,0.023178773813473313,0.0011559231425658024,0.04266484255296454,0.940392559019239,0.42963115530475027,0.5432757377388412,-3.764518340939363,31.9
,,0.018330145596925425,0.023178773813473313,0.0011559231425658024,0.04266484255296454,0.9379710608128592,0.42963115530475027,0.5432757377388412,-3.764518340939363,32.0
,,0.018330145596925425,0.023178773813473313,0.0011559231425658024,0.04266484255296454,0.9355050726904929,0.42963115530475027,0.5432757377388412,-3.764518340939363,32.1
,,0.018997389449497932,0.025086491765699277,0.0010950254022696225,0.04517890661746683,0.9326664138589857,0.420492457029787,0.5552700063794919,-3.685425754378807,32.2
,,0.018997389449497932,0.025086491765699277,0.0010950254022696225,0.04517890661746683,0.9298277550274785,0.420492457029787,0.5552700063794919,-3.685425754378807,32.3
,,0.018997389449497932,0.025086491765699277,0.0010950254022696225,0.04517890661746683,0.9269890961959713,0.420492457029787,0.5552700063794919,-3.685425754378807,32.4
,,0.01865236880559691,0.02501950723677585,0.0013374526495437426,0.0450093286919165,0.924019741615658,0.4144111753647818,0.5558738146936472,-3.688099468910464,32.5
,,0.018980612279155495,0.02552930873308267,0.0013956897218850898,0.045905610734123255,0.9210278333551454,0.41347042280055185,0.5561261101816872,-3.6679281247470015,32.6
,,0.018980612279155495,0.02552930873308267,0.0013956897218850898,0.045905610734123255,0.9178950802623957,0.41347042280055185,0.5561261101816872,-3.6679281247470015,32.7
,,0.018980612279155495,0.02552930873308267,0.0013956897218850898,0.045905610734123255,0.914762327169646,0.41347042280055185,0.5561261101816872,-3.6679281247470015,32.8
,,0.01950643027266884,0.02770477708405727,0.0014537521938713285,0.04866495955059744,0.9111872647804464,0.40083112064210824,0.5692962110705617,-3.586150422749795,32.9
,,0.01950643027266884,0.02770477708405727,0.0014537521938713285,0.04866495955059744,0.9076122023912466,0.40083112064210824,0.5692962110705617,-3.586150422749795,33.0
,,0.01950643027266884,0.02770477708405727,0.0014537521938713285,0.04866495955059744,0.9040371400020469,0.40083112064210824,0.5692962110705617,-3.586150422749795,33.1
,,0.01950643027266884,0.02770477708405727,0.0014537521938713285,0.04866495955059744,0.9004620776128471,0.40083112064210824,0.5692962110705617,-3.586150422749795,33.2
,,0.01950643027266884,0.02770477708405727,0.0014537521938713285,0.04866495955059744,0.8968870152236476,0.40083112064210824,0.5692962110705617,-3.586150422749795,33.3
,,0.019153621785650457,0.027777543268782567,0.001682902306655444,0.04861406736108847,0.8963566219214798,0.39399340202053007,0.5713889986299766,-3.5835273808155743,33.4
,,0.019153621785650457,0.027777543268782567,0.001682902306655444,0.04861406736108847,0.8925430423849581,0.39399340202053007,0.5713889986299766,-3.5835273808155743,33.5
,,0.019238520492392643,0.029897011764202917,0.001742396028615354,0.05087792828521091,0.8882211916137073,0.37813097232547604,0.5876224282680417,-3.5099967445764886,33.6
,,0.019238520492392643,0.029897011764202917,0.001742396028615354,0.05087792828521091,0.8838993408424565,0.37813097232547604,0.5876224282680417,-3.5099967445764886,33.7
,,0.019238520492392643,0.029897011764202917,0.001742396028615354,0.05087792828521091,0.8795774900712057,0.37813097232547604,0.5876224282680417,-3.5099967445764886,33.8
,,0.019238520492392643,0.029897011764202917,0.001742396028615354,0.05087792828521091,0.8752556392999549,0.37813097232547604,0.5876224282680417,-3.5099967445764886,33.9
,,0.019238520492392643,0.029897011764202917,0.001742396028615354,0.05087792828521091,0.8708862109587424,0.37813097232547604,0.5876224282680417,-3.5099967445764886,34.0
,,0.019238520492392643,0.029897011764202917,0.001742396028615354,0.05087792828521091,0.86651678261753,0.37813097232547604,0.5876224282680417,-3.5099967445764886,34.1
,,0.018744705302550083,0.029827521822987542,0.0020087973543111257,0.05058102447984875,0.8619800595299545,0.37058769558963534,0.5896978586282033,-3.512323760574739,34.2
,,0.023390640705666408,0.043420457414989386,0.002657024573402801,0.0694681226940586,0.8564872117837052,0.33671041908934357,0.6250414683899758,-3.1368245799262784,34.3
,,0.023390640705666408,0.043420457414989386,0.002657024573402801,0.0694681226940586,0.8509534260835616,0.33671041908934357,0.6250414683899758,-3.1368245799262784,34.4
,,0.023390640705666408,0.043420457414989386,0.002657024573402801,0.0694681226940586,0.8483976186236553,0.33671041908934357,0.6250414683899758,-3.1368245799262784,34.5
,,0.023390640705666408,0.043420457414989386,0.002657024573402801,0.0694681226940586,0.8458418111637491,0.33671041908934357,0.6250414683899758,-3.1368245799262784,34.6
,,0.023390640705666408,0.043420457414989386,0.002657024573402801,0.0694681226940586,0.8403725067600869,0.33671041908934357,0.6250414683899758,-3.1368245799262784,34.7
,,0.023390640705666408,0.043420457414989386,0.002657024573402801,0.0694681226940586,0.8349032023564247,0.33671041908934357,0.6250414683899758,-3.1368245799262784,34.8
,,0.023390640705666408,0.043420457414989386,0.002657024573402801,0.0694681226940586,0.8294338979527628,0.33671041908934357,0.6250414683899758,-3.1368245799262784,34.9
,,0.016575200647768396,0.03295799412098714,0.002357337793932643,0.05189053256268818,0.8235670163019218,0.3194262966514006,0.6351446495788241,-3.412521433772547,35.0
,,0.016575200647768396,0.03295799412098714,0.002357337793932643,0.05189053256268818,0.8177473485904058,0.3194262966514006,0.6351446495788241,-3.412521433772547,35.1
,,0.016575200647768396,0.03295799412098714,0.002357337793932643,0.05189053256268818,0.8119434291054345,0.3194262966514006,0.6351446495788241,-3.412521433772547,35.2
,,0.016575200647768396,0.03295799412098714,0.002357337793932643,0.05189053256268818,0.8062073435696753,0.3194262966514006,0.6351446495788241,-3.412521433772547,35.3
,,0.016575200647768396,0.03295799412098714,0.002357337793932643,0.05189053256268818,0.8004712580339158,0.3194262966514006,0.6351446495788241,-3.412521433772547,35.4
,,0.016575200647768396,0.03295799412098714,0.002357337793932643,0.05189053256268818,0.7947351724981565,0.3194262966514006,0.6351446495788241,-3.412521433772547,35.5
,,0.016575200647768396,0.03295799412098714,0.002357337793932643,0.05189053256268818,0.7889990869623971,0.3194262966514006,0.6351446495788241,-3.412521433772547,35.6
,,0.014891480676900767,0.032387430746087596,0.0032463002271865314,0.050525211650174894,0.7827838125044891,0.29473366247342025,0.6410152414665934,-3.4299848713875853,35.7
,,0.017429575547498972,0.046595795744564975,0.0034652678588702837,0.06749063915093424,0.7756159491706053,0.25825174819458946,0.6904038297868152,-3.0662449619943257,35.8
,,0.017429575547498972,0.046595795744564975,0.0034652678588702837,0.06749063915093424,0.7686201849208746,0.25825174819458946,0.6904038297868152,-3.0662449619943257,35.9
,,0.017429575547498972,0.046595795744564975,0.0034652678588702837,0.06749063915093424,0.7615600406347296,0.25825174819458946,0.6904038297868152,-3.0662449619943257,36.0
,,0.017429575547498972,0.046595795744564975,0.0034652678588702837,0.06749063915093424,0.7545796221343105,0.25825174819458946,0.6904038297868152,-3.0662449619943257,36.1
,,0.017429575547498972,0.046595795744564975,0.0034652678588702837,0.06749063915093424,0.7475992036338913,0.25825174819458946,0.6904038297868152,-3.0662449619943257,36.2
,,0.017429575547498972,0.046595795744564975,0.0034652678588702837,0.06749063915093424,0.7406187851334721,0.25825174819458946,0.6904038297868152,-3.0662449619943257,36.3
,,0.013296347921165646,0.03125102245589443,0.0027320803079384074,0.04727945068499848,0.7342095915081169,0.2812289002626781,0.660985311866371,-3.465703184746346,36.4
,,0.012850993689837754,0.03247888577344319,0.0035572121388859758,0.04888709160216692,0.7274693204775379,0.2628708984043578,0.6643652692156382,-3.427165069281918,36.5
,,0.012266369855781471,0.03278859896851775,0.0027557424395366226,0.04781071126383584,0.7206355395034606,0.2565611247256175,0.6858002757494875,-3.417674416439527,36.6
,,0.012266369855781471,0.03278859896851775,0.0027557424395366226,0.04781071126383584,0.7138017585293833,0.2565611247256175,0.6858002757494875,-3.417674416439527,36.7
,,0.012266369855781471,0.03278859896851775,0.0027557424395366226,0.04781071126383584,0.707051865871452,0.2565611247256175,0.6858002757494875,-3.417674416439527,36.8
,,0.012266369855781471,0.03278859896851775,0.0027557424395366226,0.04781071126383584,0.7003019732135207,0.2565611247256175,0.6858002757494875,-3.417674416439527,36.9
,,0.012266369855781471,0.03278859896851775,0.0027557424395366226,0.04781071126383584,0.6935520805555893,0.2565611247256175,0.6858002757494875,-3.417674416439527,37.0
,,0.012266369855781471,0.03278859896851775,0.0027557424395366226,0.04781071126383584,0.686802187897658,0.2565611247256175,0.6858002757494875,-3.417674416439527,37.1
,,0.012639116800496609,0.04809859498078951,0.0055778415878138254,0.06631555336909994,0.6789930737381962,0.19059053507628373,0.7252988558065969,-3.0345023126756496,37.2
,,0.012639116800496609,0.04809859498078951,0.0055778415878138254,0.06631555336909994,0.6711839595787343,0.19059053507628373,0.7252988558065969,-3.0345023126756496,37.3
,,0.012248909969948697,0.04877389022271687,0.004123242956585885,0.06514604314925145,0.6632455281293695,0.1880223169024417,0.7486853823335747,-3.0205601457258315,37.4
,,0.012248909969948697,0.04877389022271687,0.004123242956585885,0.06514604314925145,0.6553070966800049,0.1880223169024417,0.7486853823335747,-3.0205601457258315,37.5
,,0.012248909969948697,0.04877389022271687,0.004123242956585885,0.06514604314925145,0.6503451619596575,0.1880223169024417,0.7486853823335747,-3.0205601457258315,37.6
,,0.012248909969948697,0.04877389022271687,0.004123242956585885,0.06514604314925145,0.6453832272393102,0.1880223169024417,0.7486853823335747,-3.0205601457258315,37.7
,,0.012248909969948697,0.04877389022271687,0.004123242956585885,0.06514604314925145,0.640421292518963,0.1880223169024417,0.7486853823335747,-3.0205601457258315,37.8
,,0.012248909969948697,0.04877389022271687,0.004123242956585885,0.06514604314925145,0.6327754414843172,0.1880223169024417,0.7486853823335747,-3.0205601457258315,37.9
,,0.009718639391725936,0.04363011558810523,0.005350813638250578,0.058699568618081746,0.6248141914842137,0.16556577195581326,0.7432783002542451,-3.1320076425696968,38.0
,,0.008690087773315558,0.029498437944962458,0.0027408685538143954,0.04092939427209241,0.6176512096154473,0.21231899293561912,0.7207152333812055,-3.523417968056539,38.1
,,0.008690087773315558,0.029498437944962458,0.0027408685538143954,0.04092939427209241,0.6104882277466809,0.21231899293561912,0.7207152333812055,-3.523417968056539,38.2
,,0.008690087773315558,0.029498437944962458,0.0027408685538143954,0.04092939427209241,0.6017373311419696,0.21231899293561912,0.7207152333812055,-3.523417968056539,38.3
,,0.008690087773315558,0.029498437944962458,0.0027408685538143954,0.04092939427209241,0.5946786638662804,0.21231899293561912,0.7207152333812055,-3.523417968056539,38.4
,,0.008690087773315558,0.029498437944962458,0.0027408685538143954,0.04092939427209241,0.5878547258481517,0.21231899293561912,0.7207152333812055,-3.523417968056539,38.5
,,0.008690087773315558,0.029498437944962458,0.0027408685538143954,0.04092939427209241,0.5810307878300229,0.21231899293561912,0.7207152333812055,-3.523417968056539,38.6
,,0.008690087773315558,0.029498437944962458,0.0027408685538143954,0.04092939427209241,0.5742068498118941,0.21231899293561912,0.7207152333812055,-3.523417968056539,38.7
,,0.007823881830546187,0.026984640241886057,0.0035436701256283433,0.03835219219806059,0.5673311728558158,0.2040009027421861,0.7036009858975057,-3.6124874547815353,38.8
,,0.007591306703444001,0.027095455058091262,0.0025943536437307312,0.03728111540526599,0.5603469477274704,0.20362337931476487,0.7267876715476169,-3.6083892751949147,38.9
,,0.007591306703444001,0.027095455058091262,0.0025943536437307312,0.03728111540526599,0.553362722599125,0.20362337931476487,0.7267876715476169,-3.6083892751949147,39.0
,,0.007591306703444001,0.027095455058091262,0.0025943536437307312,0.03728111540526599,0.5464737130821773,0.20362337931476487,0.7267876715476169,-3.6083892751949147,39.1
,,0.007591306703444001,0.027095455058091262,0.0025943536437307312,0.03728111540526599,0.5397428441363665,0.20362337931476487,0.7267876715476169,-3.6083892751949147,39.2
,,0.007591306703444001,0.027095455058091262,0.0025943536437307312,0.03728111540526599,0.5321163804655537,0.20362337931476487,0.7267876715476169,-3.6083892751949147,39.3
,,0.007591306703444001,0.027095455058091262,0.0025943536437307312,0.03728111540526599,0.5244899167947408,0.20362337931476487,0.7267876715476169,-3.6083892751949147,39.4
,,0.007198866186770561,0.026006068956822514,0.002137609963810929,0.035342545107404005,0.5168261847736615,0.20368839213173845,0.7358289811271806,-3.6494253467829445,39.5
,,0.007198866186770561,0.026006068956822514,0.002137609963810929,0.035342545107404005,0.5091624527525821,0.20368839213173845,0.7358289811271806,-3.6494253467829445,39.6
,,0.007246182490630904,0.0257034642281919,0.002511459233773865,0.03546110595259667,0.5015553848564173,0.20434169482241704,0.724835380558957,-3.661129501293695,39.7
,,0.007246182490630904,0.0257034642281919,0.002511459233773865,0.03546110595259667,0.49526664282446364,0.20434169482241704,0.724835380558957,-3.661129501293695,39.8
,,0.007246182490630904,0.0257034642281919,0.002511459233773865,0.03546110595259667,0.4890952602804015,0.20434169482241704,0.724835380558957,-3.661129501293695,39.9
,,0.007246182490630904,0.0257034642281919,0.002511459233773865,0.03546110595259667,0.48280651824844795,0.20434169482241704,0.724835380558957,-3.661129501293695,40.0
,,0.007246182490630904,0.0257034642281919,0.002511459233773865,0.03546110595259667,0.47984775239970845,0.20434169482241704,0.724835380558957,-3.661129501293695,40.1
,,0.007246182490630904,0.0257034642281919,0.002511459233773865,0.03546110595259667,0.47688898655096895,0.20434169482241704,0.724835380558957,-3.661129501293695,40.2
,,0.007248505352770907,0.025014776737591657,0.002086039868256668,0.03434932195861923,0.4740174908697634,0.21102324411245182,0.728246594437208,-3.688288559223047,40.3
,,0.007248505352770907,0.025014776737591657,0.002086039868256668,0.03434932195861923,0.47114599518855765,0.21102324411245182,0.728246594437208,-3.688288559223047,40.4
,,0.00734838788622893,0.024690619704230435,0.0024458280171069514,0.034484835607566315,0.46550876355898674,0.21309041370684745,0.715984845779954,-3.7013318765382337,40.5
,,0.00734838788622893,0.024690619704230435,0.0024458280171069514,0.034484835607566315,0.4598715319294158,0.21309041370684745,0.715984845779954,-3.7013318765382337,40.6
,,0.00734838788622893,0.024690619704230435,0.0024458280171069514,0.034484835607566315,0.454234300299845,0.21309041370684745,0.715984845779954,-3.7013318765382337,40.7
,,0.00734838788622893,0.024690619704230435,0.0024458280171069514,0.034484835607566315,0.4485970686702742,0.21309041370684745,0.715984845779954,-3.7013318765382337,40.8
,,0.00734838788622893,0.024690619704230435,0.0024458280171069514,0.034484835607566315,0.4431170974626204,0.21309041370684745,0.715984845779954,-3.7013318765382337,40.9
,,0.0075936103490502945,0.02413632619623354,0.0020248250320477,0.03375476157733153,0.4378259566705314,0.22496412340681105,0.7150495239297622,-3.724037262291548,41.0
,,0.0075936103490502945,0.02413632619623354,0.0020248250320477,0.03375476157733153,0.4325348158784425,0.22496412340681105,0.7150495239297622,-3.724037262291548,41.1
,,0.0075936103490502945,0.02413632619623354,0.0020248250320477,0.03375476157733153,0.42761634579549435,0.22496412340681105,0.7150495239297622,-3.724037262291548,41.2
,,0.007717107193985142,0.023798364843036008,0.00236305916293401,0.03387853119995516,0.4228051772009091,0.2277875374359605,0.7024615294734946,-3.7381384047390585,41.3
,,0.007717107193985142,0.023798364843036008,0.00236305916293401,0.03387853119995516,0.41799400860632374,0.2277875374359605,0.7024615294734946,-3.7381384047390585,41.4
,,0.007717107193985142,0.023798364843036008,0.00236305916293401,0.03387853119995516,0.4133135357605446,0.2277875374359605,0.7024615294734946,-3.7381384047390585,41.5
,,0.007717107193985142,0.023798364843036008,0.00236305916293401,0.03387853119995516,0.40865561659496463,0.2277875374359605,0.7024615294734946,-3.7381384047390585,41.6
,,0.007717107193985142,0.023798364843036008,0.00236305916293401,0.03387853119995516,0.40399769742938463,0.2277875374359605,0.7024615294734946,-3.7381384047390585,41.7
,,0.008172009024300021,0.023495821276472307,0.0019658027876781115,0.033633633088450444,0.3996012941645817,0.2429713436787842,0.6985811260615972,-3.750932691665978,41.8
,,0.008172009024300021,0.023495821276472307,0.0019658027876781115,0.033633633088450444,0.3956426839061399,0.2429713436787842,0.6985811260615972,-3.750932691665978,41.9
,,0.008172009024300021,0.023495821276472307,0.0019658027876781115,0.033633633088450444,0.3916840736476981,0.2429713436787842,0.6985811260615972,-3.750932691665978,42.0
,,0.008230273882534769,0.02289370786722339,0.002290117963464955,0.033414099713223115,0.3878553797569863,0.24631140605825644,0.6851511207457,-3.7768931718003658,42.1
,,0.008230273882534769,0.02289370786722339,0.002290117963464955,0.033414099713223115,0.3840266858662745,0.24631140605825644,0.6851511207457,-3.7768931718003658,42.2
,,0.008230273882534769,0.02289370786722339,0.002290117963464955,0.033414099713223115,0.3801979919755627,0.24631140605825644,0.6851511207457,-3.7768931718003658,42.3
,,0.008230273882534769,0.02289370786722339,0.002290117963464955,0.033414099713223115,0.3765309161836219,0.24631140605825644,0.6851511207457,-3.7768931718003658,42.4
,,0.008882060846811946,0.02280558491263926,0.001935905423277067,0.03362355118272827,0.373196832465923,0.26416189053149386,0.6782622331799986,-3.780749820708921,42.5
,,0.008882060846811946,0.02280558491263926,0.001935905423277067,0.03362355118272827,0.3703743389173445,0.26416189053149386,0.6782622331799986,-3.780749820708921,42.6
,,0.008921396481198869,0.02232633240135287,0.0022246090940640827,0.03347233797661582,0.36766431319821236,0.26653042543462196,0.6670084538746684,-3.8019884719689925,42.7
,,0.008882060846811946,0.02280558491263926,0.001935905423277067,0.03362355118272827,0.36484181964963386,0.26416189053149386,0.6782622331799986,-3.780749820708921,42.8
,,0.009092747420784286,0.02264852190644597,0.0023136781235435083,0.03405494745077377,0.3621526964401772,0.26700224494334635,0.6650581957051698,-3.7876606871760448,42.9
,,0.009092747420784286,0.02264852190644597,0.0023136781235435083,0.03405494745077377,0.35946357323072065,0.26700224494334635,0.6650581957051698,-3.7876606871760448,43.0
,,0.009092747420784286,0.02264852190644597,0.0023136781235435083,0.03405494745077377,0.35677445002126396,0.26700224494334635,0.6650581957051698,-3.7876606871760448,43.1
,,0.009809113498913542,0.022410369021289116,0.0019226237551500224,0.034142106275352684,0.354655201965295,0.28730252960388614,0.6563850759690021,-3.7982315244914413,43.2
,,0.009809113498913542,0.022410369021289116,0.0019226237551500224,0.034142106275352684,0.35353301652189423,0.28730252960388614,0.6563850759690021,-3.7982315244914413,43.3
,,0.009809113498913542,0.022410369021289116,0.0019226237551500224,0.034142106275352684,0.3524108310784936,0.28730252960388614,0.6563850759690021,-3.7982315244914413,43.4
,,0.009809113498913542,0.022410369021289116,0.0019226237551500224,0.034142106275352684,0.3512886456350928,0.28730252960388614,0.6563850759690021,-3.7982315244914413,43.5
,,0.00701504458925448,0.019152752398407306,0.0018530691127135685,0.028020866100375356,0.34937272669171393,0.25035074091305515,0.6835175019144303,-3.955308845307055,43.6
,,0.00701504458925448,0.019152752398407306,0.0018530691127135685,0.028020866100375356,0.347456807748335,0.25035074091305515,0.6835175019144303,-3.955308845307055,43.7
,,0.00701504458925448,0.019152752398407306,0.0018530691127135685,0.028020866100375356,0.345540888804956,0.25035074091305515,0.6835175019144303,-3.955308845307055,43.8
,,0.010819911807582702,0.02203914914762783,0.001906898870689763,0.03476595982590029,0.34501021783871166,0.3112214321642855,0.6339289712694451,-3.8149349003596797,43.9
,,0.010819911807582702,0.02203914914762783,0.001906898870689763,0.03476595982590029,0.34487712411964627,0.3112214321642855,0.6339289712694451,-3.8149349003596797,44.0
,,0.010819911807582702,0.02203914914762783,0.001906898870689763,0.03476595982590029,0.3447440304005809,0.3112214321642855,0.6339289712694451,-3.8149349003596797,44.1
,,0.010819911807582702,0.02203914914762783,0.001906898870689763,0.03476595982590029,0.34461093668151555,0.3112214321642855,0.6339289712694451,-3.8149349003596797,44.2
,,0.010971556026718003,0.021924658608761187,0.002298785123999577,0.03519499975947877,0.3445831795912228,0.31173621541972385,0.6229481107712298,-3.820143311711198,44.3
,,0.010971556026718003,0.021924658608761187,0.002298785123999577,0.03519499975947877,0.3445554225009302,0.31173621541972385,0.6229481107712298,-3.820143311711198,44.4
,,0.010971556026718003,0.021924658608761187,0.002298785123999577,0.03519499975947877,0.3445276654106375,0.31173621541972385,0.6229481107712298,-3.820143311711198,44.5
,,0.011868650098554905,0.02174590357787764,0.0019005215041816045,0.03551507518061414,0.34500398630583096,0.3341862586013444,0.6123006488734004,-3.828329880432889,44.6
,,0.011868650098554905,0.02174590357787764,0.0019005215041816045,0.03551507518061414,0.3459594961231729,0.3341862586013444,0.6123006488734004,-3.828329880432889,44.7
,,0.011868650098554905,0.02174590357787764,0.0019005215041816045,0.03551507518061414,0.3478675948164908,0.3341862586013444,0.6123006488734004,-3.828329880432889,44.8
,,0.011868650098554905,0.02174590357787764,0.0019005215041816045,0.03551507518061414,0.34977569350980864,0.3341862586013444,0.6123006488734004,-3.828329880432889,44.9
,,0.011868650098554905,0.02174590357787764,0.0019005215041816045,0.03551507518061414,0.3516837922031265,0.3341862586013444,0.6123006488734004,-3.828329880432889,45.0
,,0.012002972765474032,0.021729270340738824,0.0023277836271396206,0.03606002673335247,0.3536652179410319,0.3328608948138216,0.6025860851800503,-3.829095063706521,45.1
,,0.012002972765474032,0.021729270340738824,0.0023277836271396206,0.03606002673335247,0.3556466436789373,0.3328608948138216,0.6025860851800503,-3.829095063706521,45.2
,,0.012002972765474032,0.021729270340738824,0.0023277836271396206,0.03606002673335247,0.35762806941684255,0.3328608948138216,0.6025860851800503,-3.829095063706521,45.3
,,0.012878557946218852,0.021658240203923686,0.001941165288227721,0.03647796343837026,0.3595075919466038,0.35305035512679467,0.5937349062952874,-3.8323692870662036,45.4
,,0.012878557946218852,0.021658240203923686,0.001941165288227721,0.03647796343837026,0.36171819188158916,0.35305035512679467,0.5937349062952874,-3.8323692870662036,45.5
,,0.012878557946218852,0.021658240203923686,0.001941165288227721,0.03647796343837026,0.36416843092281287,0.35305035512679467,0.5937349062952874,-3.8323692870662036,45.6
,,0.012878557946218852,0.021658240203923686,0.001941165288227721,0.03647796343837026,0.3666186699640365,0.35305035512679467,0.5937349062952874,-3.8323692870662036,45.7
,,0.012878557946218852,0.021658240203923686,0.001941165288227721,0.03647796343837026,0.3690689090052603,0.35305035512679467,0.5937349062952874,-3.8323692870662036,45.8
,,0.01303728614267019,0.02181608742224312,0.0024149305695049376,0.03726830413441825,0.3715521858976645,0.34982236099736874,0.5853791292342545,-3.8251076261933434,45.9
,,0.01303728614267019,0.02181608742224312,0.0024149305695049376,0.03726830413441825,0.37403546279006883,0.34982236099736874,0.5853791292342545,-3.8251076261933434,46.0
,,0.01303728614267019,0.02181608742224312,0.0024149305695049376,0.03726830413441825,0.3765187396824731,0.34982236099736874,0.5853791292342545,-3.8251076261933434,46.1
,,0.014062854743093097,0.02230030596622917,0.002085398848485702,0.03844855955780797,0.3806058225693739,0.36575764878654016,0.580003678231439,-3.8031548801514816,46.2
,,0.014062854743093097,0.02230030596622917,0.002085398848485702,0.03844855955780797,0.3846929054562747,0.36575764878654016,0.580003678231439,-3.8031548801514816,46.3
,,0.014062854743093097,0.02230030596622917,0.002085398848485702,0.03844855955780797,0.3889093056330784,0.36575764878654016,0.580003678231439,-3.8031548801514816,46.4
,,0.013916733484935282,0.022064141818390393,0.0024962767269539094,0.038477152030279585,0.39312711928368954,0.3616882422582501,0.5734348997822661,-3.813801530359825,46.5
,,0.014062854743093097,0.02230030596622917,0.002085398848485702,0.03844855955780797,0.39734351946049323,0.36575764878654016,0.580003678231439,-3.8031548801514816,46.6
,,0.014348078847450355,0.022749118512168535,0.0026251114189331146,0.039722308778552005,0.4015609928126559,0.3612095894888561,0.5727038334803913,-3.783228881053718,46.7
,,0.014348078847450355,0.022749118512168535,0.0026251114189331146,0.039722308778552005,0.4057784661648185,0.3612095894888561,0.5727038334803913,-3.783228881053718,46.8
,,0.014348078847450355,0.022749118512168535,0.0026251114189331146,0.039722308778552005,0.40999593951698116,0.3612095894888561,0.5727038334803913,-3.783228881053718,46.9
,,0.015550953625711399,0.023818319023311062,0.002324344417453793,0.04169361706647625,0.4147753634977959,0.37298163891410474,0.5712701535425714,-3.737300287515309,47.0
,,0.015550953625711399,0.023818319023311062,0.002324344417453793,0.04169361706647625,0.4187565193472734,0.37298163891410474,0.5712701535425714,-3.737300287515309,47.1
,,0.015550953625711399,0.023818319023311062,0.002324344417453793,0.04169361706647625,0.42273767519675104,0.37298163891410474,0.5712701535425714,-3.737300287515309,47.2
,,0.015550953625711399,0.023818319023311062,0.002324344417453793,0.04169361706647625,0.42671883104622865,0.37298163891410474,0.5712701535425714,-3.737300287515309,47.3
,,0.0158275149305016,0.024285306722107484,0.0029159672736923515,0.04302878892630144,0.4306870232102224,0.36783547307386566,0.5643967057428159,-3.7178837731588765,47.4
,,0.0158275149305016,0.024285306722107484,0.0029159672736923515,0.04302878892630144,0.4346552153742162,0.36783547307386566,0.5643967057428159,-3.7178837731588765,47.5
,,0.0158275149305016,0.024285306722107484,0.0029159672736923515,0.04302878892630144,0.43862340753821005,0.36783547307386566,0.5643967057428159,-3.7178837731588765,47.6
,,0.0158275149305016,0.024285306722107484,0.0029159672736923515,0.04302878892630144,0.4425915997022038,0.36783547307386566,0.5643967057428159,-3.7178837731588765,47.7
,,0.017185088923286525,0.025956540654424043,0.0026313242038721253,0.04577295378158269,0.44672641391182755,0.3754419914714168,0.5670715675960587,-3.651331652789046,47.8
,,0.017185088923286525,0.025956540654424043,0.0026313242038721253,0.04577295378158269,0.4509697762937184,0.3754419914714168,0.5670715675960587,-3.651331652789046,47.9
,,0.016620963666501103,0.025107511162886786,0.003033591305134199,0.04476206613452209,0.45521225052801384,0.3713180624091529,0.5609104612694137,-3.684588228093203,48.0
,,0.017185088923286525,0.025956540654424043,0.0026313242038721253,0.04577295378158269,0.4594556129099046,0.3754419914714168,0.5670715675960587,-3.651331652789046,48.1
,,0.017120597141669462,0.025870464781772597,0.0031933254855050826,0.04618438740894714,0.4636957526596796,0.37070096849119943,0.5601560664364426,-3.6546533168933024,48.2
,,0.017120597141669462,0.025870464781772597,0.0031933254855050826,0.04618438740894714,0.4679358924094546,0.37070096849119943,0.5601560664364426,-3.6546533168933024,48.3
,,0.017120597141669462,0.025870464781772597,0.0031933254855050826,0.04618438740894714,0.47217603215922954,0.37070096849119943,0.5601560664364426,-3.6546533168933024,48.4
,,0.017120597141669462,0.025870464781772597,0.0031933254855050826,0.04618438740894714,0.47645344025927105,0.37070096849119943,0.5601560664364426,-3.6546533168933024,48.5
,,0.017569846520166556,0.026582832783707558,0.002753083287562931,0.04690576259143704,0.4807215764415082,0.37457756892697974,0.5667285065856797,-3.6274896556155762,48.6
,,0.017569846520166556,0.026582832783707558,0.002753083287562931,0.04690576259143704,0.48493304849883084,0.37457756892697974,0.5667285065856797,-3.6274896556155762,48.7
,,0.017569846520166556,0.026582832783707558,0.002753083287562931,0.04690576259143704,0.48914452055615354,0.37457756892697974,0.5667285065856797,-3.6274896556155762,48.8
,,0.017071681229664976,0.02575680791911836,0.003231797605479703,0.04606028675426304,0.4933766100134743,0.37063775396676035,0.5591977326700963,-3.659056301607522,48.9
,,0.017071681229664976,0.02575680791911836,0.003231797605479703,0.04606028675426304,0.49760869947079517,0.37063775396676035,0.5591977326700963,-3.659056301607522,49.0
,,0.017071681229664976,0.02575680791911836,0.003231797605479703,0.04606028675426304,0.501840788928116,0.37063775396676035,0.5591977326700963,-3.659056301607522,49.1
,,0.017071681229664976,0.02575680791911836,0.003231797605479703,0.04606028675426304,0.5060728783854368,0.37063775396676035,0.5591977326700963,-3.659056301607522,49.2
,,0.017294276373772302,0.026496561777156483,0.0027588763551609453,0.046549714506089725,0.5101054333431012,0.3715227162458715,0.5692099738590266,-3.630740298665721,49.3
,,0.017294276373772302,0.026496561777156483,0.0027588763551609453,0.046549714506089725,0.5141379883007656,0.3715227162458715,0.5692099738590266,-3.630740298665721,49.4
,,0.017294276373772302,0.026496561777156483,0.0027588763551609453,0.046549714506089725,0.5180833247223124,0.3715227162458715,0.5692099738590266,-3.630740298665721,49.5
,,0.016175682903239792,0.024679988732756824,0.0031153169768389846,0.0439709886128356,0.5220588618298903,0.36787171299846416,0.5612789139235426,-3.7017625364784084,49.6
,,0.016175682903239792,0.024679988732756824,0.0031153169768389846,0.0439709886128356,0.5260343989374678,0.36787171299846416,0.5612789139235426,-3.7017625364784084,49.7
,,0.016175682903239792,0.024679988732756824,0.0031153169768389846,0.0439709886128356,0.5300099360450456,0.36787171299846416,0.5612789139235426,-3.7017625364784084,49.8
,,0.016175682903239792,0.024679988732756824,0.0031153169768389846,0.0439709886128356,0.5339854731526233,0.36787171299846416,0.5612789139235426,-3.7017625364784084,49.9
,,0.016175682903239792,0.024679988732756824,0.0031153169768389846,0.0439709886128356,0.5377721798446363,0.36787171299846416,0.5612789139235426,-3.7017625364784084,50.0
,,0.015407511961574232,0.02258461692091705,0.00394070930949273,0.04193283819198401,0.5418566168502899,0.36743308170634564,0.5385902289159712,-3.7904862716790593,50.1
,,0.015407511961574232,0.02258461692091705,0.00394070930949273,0.04193283819198401,0.5459410538559435,0.36743308170634564,0.5385902289159712,-3.7904862716790593,50.2
,,0.007735712081941201,0.016138681038341797,0.0025787809693486956,0.026453174089631694,0.5476639085627405,0.29243039250148845,0.6100848610325119,-4.126536339532772,50.3
,,0.007735712081941201,0.016138681038341797,0.0025787809693486956,0.026453174089631694,0.5493867632695375,0.29243039250148845,0.6100848610325119,-4.126536339532772,50.4
,,0.007735712081941201,0.016138681038341797,0.0025787809693486956,0.026453174089631694,0.5511096179763345,0.29243039250148845,0.6100848610325119,-4.126536339532772,50.5
,,0.007735712081941201,0.016138681038341797,0.0025787809693486956,0.026453174089631694,0.5528324726831315,0.29243039250148845,0.6100848610325119,-4.126536339532772,50.6
,,0.007735712081941201,0.016138681038341797,0.0025787809693486956,0.026453174089631694,0.5545553273899285,0.29243039250148845,0.6100848610325119,-4.126536339532772,50.7
,,0.007735712081941201,0.016138681038341797,0.0025787809693486956,0.026453174089631694,0.5560166661959486,0.29243039250148845,0.6100848610325119,-4.126536339532772,50.8
,,0.007490973401678399,0.015446782024010001,0.0032957125559714244,0.026233467981659823,0.5575405189056514,0.2855502523309324,0.5888196724431958,-4.170354580567946,50.9
,,0.01213417837919529,0.01952940583032471,0.002417692905168822,0.03408127711468882,0.5605796487788108,0.3560364929507156,0.5730244721934924,-3.935833957990826,51.0
,,0.01213417837919529,0.01952940583032471,0.002417692905168822,0.03408127711468882,0.5634888622842406,0.3560364929507156,0.5730244721934924,-3.935833957990826,51.1
,,0.01213417837919529,0.01952940583032471,0.002417692905168822,0.03408127711468882,0.56639807578967,0.3560364929507156,0.5730244721934924,-3.935833957990826,51.2
,,0.01213417837919529,0.01952940583032471,0.002417692905168822,0.03408127711468882,0.5693072892950997,0.3560364929507156,0.5730244721934924,-3.935833957990826,51.3
,,0.01213417837919529,0.01952940583032471,0.002417692905168822,0.03408127711468882,0.5722165028005293,0.3560364929507156,0.5730244721934924,-3.935833957990826,51.4
,,0.01213417837919529,0.01952940583032471,0.002417692905168822,0.03408127711468882,0.5747927242317168,0.3560364929507156,0.5730244721934924,-3.935833957990826,51.5
,,0.01213417837919529,0.01952940583032471,0.002417692905168822,0.03408127711468882,0.5773689456629044,0.3560364929507156,0.5730244721934924,-3.935833957990826,51.6
,,0.010631304536574328,0.01729267130899439,0.002376002876637919,0.03029997872220664,0.579760011623114,0.35086838291350747,0.5707156254971465,-4.057472490989846,51.7
,,0.005394775734008744,0.01287292686464676,0.001976828951069861,0.020244531549725366,0.5800890173646812,0.2664806405007642,0.6358718073089418,-4.352628865619096,51.8
,,0.005394775734008744,0.01287292686464676,0.001976828951069861,0.020244531549725366,0.5802846527671265,0.2664806405007642,0.6358718073089418,-4.352628865619096,51.9
,,0.005394775734008744,0.01287292686464676,0.001976828951069861,0.020244531549725366,0.5804802881695719,0.2664806405007642,0.6358718073089418,-4.352628865619096,52.0
,,0.005394775734008744,0.01287292686464676,0.001976828951069861,0.020244531549725366,0.5806759235720174,0.2664806405007642,0.6358718073089418,-4.352628865619096,52.1
,,0.005394775734008744,0.01287292686464676,0.001976828951069861,0.020244531549725366,0.5804689785673383,0.2664806405007642,0.6358718073089418,-4.352628865619096,52.2
,,0.005394775734008744,0.01287292686464676,0.001976828951069861,0.020244531549725366,0.5802620335626592,0.2664806405007642,0.6358718073089418,-4.352628865619096,52.3
,,0.009201613235948264,0.015651987276539783,0.0021119977567816616,0.02696559826926971,0.5819307404233649,0.3412352711059455,0.5804427967903445,-4.15715738753107,52.4
,,0.009097660491453543,0.015763359997575967,0.0017385969876564625,0.02659961747668597,0.5834800230731414,0.3420222301853573,0.5926160408657093,-4.150067019460095,52.5
,,0.009097660491453543,0.015763359997575967,0.0017385969876564625,0.02659961747668597,0.585823039222896,0.3420222301853573,0.5926160408657093,-4.150067019460095,52.6
,,0.009097660491453543,0.015763359997575967,0.0017385969876564625,0.02659961747668597,0.5881660553726507,0.3420222301853573,0.5926160408657093,-4.150067019460095,52.7
,,0.009097660491453543,0.015763359997575967,0.0017385969876564625,0.02659961747668597,0.5905090715224053,0.3420222301853573,0.5926160408657093,-4.150067019460095,52.8
,,0.009097660491453543,0.015763359997575967,0.0017385969876564625,0.02659961747668597,0.5914668396950254,0.3420222301853573,0.5926160408657093,-4.150067019460095,52.9
,,0.009097660491453543,0.015763359997575967,0.0017385969876564625,0.02659961747668597,0.5924246078676455,0.3420222301853573,0.5926160408657093,-4.150067019460095,53.0
,,0.008050485762854559,0.014345474282778225,0.0018961269386786497,0.024292086984311432,0.5932051179485306,0.33140362818780483,0.590541038818236,-4.244320767510615,53.1
,,0.008050485762854559,0.014345474282778225,0.0018961269386786497,0.024292086984311432,0.5939856280294158,0.33140362818780483,0.590541038818236,-4.244320767510615,53.2
,,0.00790488488830772,0.014197262011830837,0.0015222275286888571,0.023624374428827415,0.5946119453033614,0.3346071622815909,0.6009582202738357,-4.254706149034581,53.3
,,0.00790488488830772,0.014197262011830837,0.0015222275286888571,0.023624374428827415,0.5952382625773069,0.3346071622815909,0.6009582202738357,-4.254706149034581,53.4
,,0.00790488488830772,0.014197262011830837,0.0015222275286888571,0.023624374428827415,0.5958645798512525,0.3346071622815909,0.6009582202738357,-4.254706149034581,53.5
,,0.00790488488830772,0.014197262011830837,0.0015222275286888571,0.023624374428827415,0.5959868191397119,0.3346071622815909,0.6009582202738357,-4.254706149034581,53.6
,,0.00790488488830772,0.014197262011830837,0.0015222275286888571,0.023624374428827415,0.5961090584281713,0.3346071622815909,0.6009582202738357,-4.254706149034581,53.7
,,0.0072649356911057734,0.01347569101086433,0.0017403004313381936,0.0224809271333083,0.59603490612375,0.3231599679152852,0.5994277251536665,-4.306867882547218,53.8
,,0.0072649356911057734,0.01347569101086433,0.0017403004313381936,0.0224809271333083,0.5959607538193286,0.3231599679152852,0.5994277251536665,-4.306867882547218,53.9
,,0.0072649356911057734,0.01347569101086433,0.0017403004313381936,0.0224809271333083,0.5958866015149074,0.3231599679152852,0.5994277251536665,-4.306867882547218,54.0
,,0.003726601294020106,0.009475068009474837,0.001237764958240833,0.014439434261735776,0.5941190318510263,0.2580849932532002,0.6561938534242706,-4.6590913502584215,54.1
,,0.003726601294020106,0.009475068009474837,0.001237764958240833,0.014439434261735776,0.5923514621871452,0.2580849932532002,0.6561938534242706,-4.6590913502584215,54.2
,,0.003726601294020106,0.009475068009474837,0.001237764958240833,0.014439434261735776,0.5905838925232643,0.2580849932532002,0.6561938534242706,-4.6590913502584215,54.3
,,0.003726601294020106,0.009475068009474837,0.001237764958240833,0.014439434261735776,0.5883470011924632,0.2580849932532002,0.6561938534242706,-4.6590913502584215,54.4
,,0.003726601294020106,0.009475068009474837,0.001237764958240833,0.014439434261735776,0.5861101098616621,0.2580849932532002,0.6561938534242706,-4.6590913502584215,54.5
,,0.00666594806154739,0.012645846453164689,0.0015914068606671873,0.020903201375379266,0.5853601015708139,0.31889603615448325,0.6049717565300565,-4.370426461348522,54.6
,,0.00666594806154739,0.012645846453164689,0.0015914068606671873,0.020903201375379266,0.5846100932799657,0.31889603615448325,0.6049717565300565,-4.370426461348522,54.7
,,0.005137964830163687,0.012168544416904563,0.0012419449102256481,0.018548454157293896,0.5826946163148643,0.2770023197940331,0.656040892341396,-4.408900983334329,54.8
,,0.005137964830163687,0.012168544416904563,0.0012419449102256481,0.018548454157293896,0.5807461014985824,0.2770023197940331,0.656040892341396,-4.408900983334329,54.9
,,0.005137964830163687,0.012168544416904563,0.0012419449102256481,0.018548454157293896,0.5787975866823005,0.2770023197940331,0.656040892341396,-4.408900983334329,55.0
,,0.005137964830163687,0.012168544416904563,0.0012419449102256481,0.018548454157293896,0.5768490718660185,0.2770023197940331,0.656040892341396,-4.408900983334329,55.1
,,0.0060320480329064535,0.01132642290978117,0.0013580124911427042,0.01871648343383033,0.575759645456541,0.3222853296257263,0.6051576381762233,-4.480616972257706,55.2
,,0.003424600363778802,0.008618209055553055,0.0012032103933181288,0.013246019812649987,0.5731680382123869,0.25853806745089564,0.6506263147306062,-4.753877982070057,55.3
,,0.003424600363778802,0.008618209055553055,0.0012032103933181288,0.013246019812649987,0.5705764309682329,0.25853806745089564,0.6506263147306062,-4.753877982070057,55.4
,,0.003424600363778802,0.008618209055553055,0.0012032103933181288,0.013246019812649987,0.5679834102502712,0.25853806745089564,0.6506263147306062,-4.753877982070057,55.5
,,0.006288232069583874,0.011365379028619737,0.0011303820209227903,0.018783993119126402,0.5671241540010197,0.33476545853187173,0.6050566009336524,-4.477183471717272,55.6
,,0.006288232069583874,0.011365379028619737,0.0011303820209227903,0.018783993119126402,0.5662638245764092,0.33476545853187173,0.6050566009336524,-4.477183471717272,55.7
,,0.006288232069583874,0.011365379028619737,0.0011303820209227903,0.018783993119126402,0.5654034951517987,0.33476545853187173,0.6050566009336524,-4.477183471717272,55.8
,,0.006288232069583874,0.011365379028619737,0.0011303820209227903,0.018783993119126402,0.5645431657271882,0.33476545853187173,0.6050566009336524,-4.477183471717272,55.9
,,0.006288232069583874,0.011365379028619737,0.0011303820209227903,0.018783993119126402,0.5634362846393834,0.33476545853187173,0.6050566009336524,-4.477183471717272,56.0
,,0.0032940678647846774,0.007956117042864093,0.0010402100595787215,0.012290394967227492,0.5607821814874976,0.26801969127667213,0.6473442931719597,-4.833814206828625,56.1
,,0.0032940678647846774,0.007956117042864093,0.0010402100595787215,0.012290394967227492,0.5581280783356117,0.26801969127667213,0.6473442931719597,-4.833814206828625,56.2
,,0.0032940678647846774,0.007956117042864093,0.0010402100595787215,0.012290394967227492,0.5554739751837258,0.26801969127667213,0.6473442931719597,-4.833814206828625,56.3
,,0.006172536564567463,0.010513556846513271,0.0010224307121153454,0.01770852412319608,0.5547558691841759,0.34856301528155964,0.5937003430309447,-4.555089726368617,56.4
,,0.006172536564567463,0.010513556846513271,0.0010224307121153454,0.01770852412319608,0.5540377631846259,0.34856301528155964,0.5937003430309447,-4.555089726368617,56.5
,,0.006172536564567463,0.010513556846513271,0.0010224307121153454,0.01770852412319608,0.553319657185076,0.34856301528155964,0.5937003430309447,-4.555089726368617,56.6
,,0.006172536564567463,0.010513556846513271,0.0010224307121153454,0.01770852412319608,0.5526015511855261,0.34856301528155964,0.5937003430309447,-4.555089726368617,56.7
,,0.005024371520150213,0.009783475042495852,0.0011294862361919003,0.015937332798837966,0.5509513880900576,0.3152579910056565,0.6138715408646791,-4.627060536728487,56.8
,,0.005024371520150213,0.009783475042495852,0.0011294862361919003,0.015937332798837966,0.5493012249945892,0.3152579910056565,0.6138715408646791,-4.627060536728487,56.9
,,0.005024371520150213,0.009783475042495852,0.0011294862361919003,0.015937332798837966,0.5476519500467163,0.3152579910056565,0.6138715408646791,-4.627060536728487,57.0
,,0.005024371520150213,0.009783475042495852,0.0011294862361919003,0.015937332798837966,0.5460017869512479,0.3152579910056565,0.6138715408646791,-4.627060536728487,57.1
,,0.006176981399357918,0.009551495805091384,0.00091413036293343,0.01664260756738273,0.5458342476120914,0.3711546627743581,0.5739182256397747,-4.651057507949128,57.2
,,0.006176981399357918,0.009551495805091384,0.00091413036293343,0.01664260756738273,0.5456667082729351,0.3711546627743581,0.5739182256397747,-4.651057507949128,57.3
,,0.006176981399357918,0.009551495805091384,0.00091413036293343,0.01664260756738273,0.5454991689337787,0.3711546627743581,0.5739182256397747,-4.651057507949128,57.4
,,0.006176981399357918,0.009551495805091384,0.00091413036293343,0.01664260756738273,0.5453316295946222,0.3711546627743581,0.5739182256397747,-4.651057507949128,57.5
,,0.005998231898619363,0.009021121342647114,0.0010111877028314493,0.016030540944097924,0.5453756593670185,0.37417526454887184,0.562745909455319,-4.708186635267726,57.6
,,0.005998231898619363,0.009021121342647114,0.0010111877028314493,0.016030540944097924,0.5454196891394147,0.37417526454887184,0.562745909455319,-4.708186635267726,57.7
,,0.005998231898619363,0.009021121342647114,0.0010111877028314493,0.016030540944097924,0.545463718911811,0.37417526454887184,0.562745909455319,-4.708186635267726,57.8
,,0.006355463127517242,0.008721337926686343,0.0008215107596086131,0.015898311813812196,0.5461961970029547,0.3997571064114945,0.5485700638422115,-4.741982620871285,57.9
,,0.006355463127517242,0.008721337926686343,0.0008215107596086131,0.015898311813812196,0.5469286750940984,0.3997571064114945,0.5485700638422115,-4.741982620871285,58.0
,,0.006355463127517242,0.008721337926686343,0.0008215107596086131,0.015898311813812196,0.5476611531852421,0.3997571064114945,0.5485700638422115,-4.741982620871285,58.1
,,0.006355463127517242,0.008721337926686343,0.0008215107596086131,0.015898311813812196,0.548393631276386,0.3997571064114945,0.5485700638422115,-4.741982620871285,58.2
,,0.006355463127517242,0.008721337926686343,0.0008215107596086131,0.015898311813812196,0.5492383736996523,0.3997571064114945,0.5485700638422115,-4.741982620871285,58.3
,,0.006247746290848285,0.008285373987425237,0.0009038373183560313,0.015436957596629554,0.5503647117965584,0.4047265305834871,0.5367232458573465,-4.793263488817607,58.4
,,0.006247746290848285,0.008285373987425237,0.0009038373183560313,0.015436957596629554,0.5514910498934646,0.4047265305834871,0.5367232458573465,-4.793263488817607,58.5
,,0.006247746290848285,0.008285373987425237,0.0009038373183560313,0.015436957596629554,0.5525871873043399,0.4047265305834871,0.5367232458573465,-4.793263488817607,58.6
,,0.006713261531936035,0.008069576367152172,0.0007510553307274263,0.015533893229815634,0.5545483592546814,0.4321686413455355,0.5194818998538943,-4.819654292854861,58.7
,,0.006713261531936035,0.008069576367152172,0.0007510553307274263,0.015533893229815634,0.5565095312050229,0.4321686413455355,0.5194818998538943,-4.819654292854861,58.8
,,0.006713261531936035,0.008069576367152172,0.0007510553307274263,0.015533893229815634,0.5584707031553644,0.4321686413455355,0.5194818998538943,-4.819654292854861,58.9
,,0.006713261531936035,0.008069576367152172,0.0007510553307274263,0.015533893229815634,0.5604318751057059,0.4321686413455355,0.5194818998538943,-4.819654292854861,59.0
,,0.0057243140289609164,0.007715563173382292,0.0008147557795025945,0.014254632981845802,0.5610952659027606,0.401575686743475,0.5412670521372638,-4.864515798633215,59.1
,,0.0057243140289609164,0.007715563173382292,0.0008147557795025945,0.014254632981845802,0.5617586566998153,0.401575686743475,0.5412670521372638,-4.864515798633215,59.2
,,0.0057243140289609164,0.007715563173382292,0.0008147557795025945,0.014254632981845802,0.5646763283073638,0.401575686743475,0.5412670521372638,-4.864515798633215,59.3
,,0.0057243140289609164,0.007715563173382292,0.0008147557795025945,0.014254632981845802,0.5675939999149123,0.401575686743475,0.5412670521372638,-4.864515798633215,59.4
,,0.007083390188944907,0.0074251411179880565,0.0006748976969468433,0.015183429003879806,0.572867848913475,0.4665211124005582,0.48902926447581224,-4.902883588684344,59.5
,,0.007083390188944907,0.0074251411179880565,0.0006748976969468433,0.015183429003879806,0.5781416979120377,0.4665211124005582,0.48902926447581224,-4.902883588684344,59.6
,,0.004122355582552977,0.006646844188001799,0.000611652185117682,0.011380851955672459,0.5797069202580806,0.3622185402823298,0.5840374880448972,-5.01361309514797,59.7
,,0.007083390188944907,0.0074251411179880565,0.0006748976969468433,0.015183429003879806,0.5849807692566433,0.4665211124005582,0.48902926447581224,-4.902883588684344,59.8
,,0.006897245190147002,0.007096399549141311,0.0007173171733979447,0.014710961912686258,0.5903916826313185,0.4688507271709432,0.4823885474831939,-4.94816772931122,59.9
,,0.006897245190147002,0.007096399549141311,0.0007173171733979447,0.014710961912686258,0.5942873188425368,0.4688507271709432,0.4823885474831939,-4.94816772931122,60.0
,,0.006897245190147002,0.007096399549141311,0.0007173171733979447,0.014710961912686258,0.5981829550537551,0.4688507271709432,0.4823885474831939,-4.94816772931122,60.1
,,0.007365865354896675,0.006795757201837054,0.0005973516298685638,0.014758974186602292,0.6033225459204217,0.4990770538499324,0.46044915560635763,-4.991456802438524,60.2
,,0.007365865354896675,0.006795757201837054,0.0005973516298685638,0.014758974186602292,0.6084621367870884,0.4990770538499324,0.46044915560635763,-4.991456802438524,60.3
,,0.007365865354896675,0.006795757201837054,0.0005973516298685638,0.014758974186602292,0.613601727653755,0.4990770538499324,0.46044915560635763,-4.991456802438524,60.4
,,0.007365865354896675,0.006795757201837054,0.0005973516298685638,0.014758974186602292,0.6187413185204217,0.4990770538499324,0.46044915560635763,-4.991456802438524,60.5
,,0.00716598376783394,0.0065599059566591785,0.0006275581582737308,0.014353447882766851,0.6239753477977985,0.49925173563611985,0.4570264935810429,-5.026779012004024,60.6
,,0.00716598376783394,0.0065599059566591785,0.0006275581582737308,0.014353447882766851,0.6292820647167073,0.49925173563611985,0.4570264935810429,-5.026779012004024,60.7
,,0.00716598376783394,0.0065599059566591785,0.0006275581582737308,0.014353447882766851,0.6367633096837045,0.49925173563611985,0.4570264935810429,-5.026779012004024,60.8
,,0.00716598376783394,0.0065599059566591785,0.0006275581582737308,0.014353447882766851,0.6442445546507019,0.49925173563611985,0.4570264935810429,-5.026779012004024,60.9
,,0.007605196903073138,0.006255512662177564,0.0005241391241795204,0.014384848689430223,0.6530965544910827,0.5286949530905616,0.4348681586601619,-5.074292178041725,61.0
,,0.007605196903073138,0.006255512662177564,0.0005241391241795204,0.014384848689430223,0.6619485543314637,0.5286949530905616,0.4348681586601619,-5.074292178041725,61.1
,,0.007605196903073138,0.006255512662177564,0.0005241391241795204,0.014384848689430223,0.6708005541718446,0.5286949530905616,0.4348681586601619,-5.074292178041725,61.2
,,0.007605196903073138,0.006255512662177564,0.0005241391241795204,0.014384848689430223,0.6796525540122255,0.5286949530905616,0.4348681586601619,-5.074292178041725,61.3
,,0.007394725659430985,0.006124451472533611,0.00054627892274229,0.014065456054706885,0.6865361364912399,0.5257366437795953,0.4354250191897699,-5.095466082066396,61.4
,,0.007394725659430985,0.006124451472533611,0.00054627892274229,0.014065456054706885,0.6935391431811837,0.5257366437795953,0.4354250191897699,-5.095466082066396,61.5
,,0.007394725659430985,0.006124451472533611,0.00054627892274229,0.014065456054706885,0.7005421498711274,0.5257366437795953,0.4354250191897699,-5.095466082066396,61.6
,,0.007394725659430985,0.006124451472533611,0.00054627892274229,0.014065456054706885,0.7075451565610712,0.5257366437795953,0.4354250191897699,-5.095466082066396,61.7
,,0.007812408643623633,0.005871308789271858,0.00046197101995212495,0.014145688452847617,0.7159170234109434,0.5522819670223224,0.4150599533450015,-5.1376777075973035,61.8
,,0.007812408643623633,0.005871308789271858,0.00046197101995212495,0.014145688452847617,0.7242888902608157,0.5522819670223224,0.4150599533450015,-5.1376777075973035,61.9
,,0.007812408643623633,0.005871308789271858,0.00046197101995212495,0.014145688452847617,0.7326607571106878,0.5522819670223224,0.4150599533450015,-5.1376777075973035,62.0
,,0.007812408643623633,0.005871308789271858,0.00046197101995212495,0.014145688452847617,0.741209882052295,0.5522819670223224,0.4150599533450015,-5.1376777075973035,62.1
,,0.007549484654878818,0.005808929252747642,0.00047742715977996307,0.013835841067406422,0.7494148600020237,0.545646962703511,0.41984648598139374,-5.148359018949737,62.2
,,0.007549484654878818,0.005808929252747642,0.00047742715977996307,0.013835841067406422,0.7576686941299191,0.545646962703511,0.41984648598139374,-5.148359018949737,62.3
,,0.007549484654878818,0.005808929252747642,0.00047742715977996307,0.013835841067406422,0.7659225282578147,0.545646962703511,0.41984648598139374,-5.148359018949737,62.4
,,0.007549484654878818,0.005808929252747642,0.00047742715977996307,0.013835841067406422,0.7741763623857103,0.545646962703511,0.41984648598139374,-5.148359018949737,62.5
,,0.007934191368884042,0.005574847578481109,0.0004043517964064744,0.013913390743771625,0.7838032830330862,0.5702557712206716,0.4006821687931612,-5.189490302192465,62.6
,,0.007934191368884042,0.005574847578481109,0.0004043517964064744,0.013913390743771625,0.7934302036804622,0.5702557712206716,0.4006821687931612,-5.189490302192465,62.7
,,0.007934191368884042,0.005574847578481109,0.0004043517964064744,0.013913390743771625,0.803253515920719,0.5702557712206716,0.4006821687931612,-5.189490302192465,62.8
,,0.007934191368884042,0.005574847578481109,0.0004043517964064744,0.013913390743771625,0.8130768281609758,0.5702557712206716,0.4006821687931612,-5.189490302192465,62.9
,,0.006387002983378107,0.00750494344577967,0.0005387606859925929,0.014430707115150371,0.8165426648997878,0.4425980606780234,0.5200676159451988,-4.892193349464122,63.0
,,0.006387002983378107,0.00750494344577967,0.0005387606859925929,0.014430707115150371,0.821628591953472,0.4425980606780234,0.5200676159451988,-4.892193349464122,63.1
,,0.006387002983378107,0.00750494344577967,0.0005387606859925929,0.014430707115150371,0.8267145190071563,0.4425980606780234,0.5200676159451988,-4.892193349464122,63.2
,,0.007989453119329873,0.00537928818399915,0.000354608439436628,0.013723349742765652,0.8388469517523623,0.5821795165966358,0.391980696027577,-5.225199221368744,63.3
,,0.007989453119329873,0.00537928818399915,0.000354608439436628,0.013723349742765652,0.8509793844975688,0.5821795165966358,0.391980696027577,-5.225199221368744,63.4
,,0.007989453119329873,0.00537928818399915,0.000354608439436628,0.013723349742765652,0.8631118172427749,0.5821795165966358,0.391980696027577,-5.225199221368744,63.5
,,0.007989453119329873,0.00537928818399915,0.000354608439436628,0.013723349742765652,0.8737573669480282,0.5821795165966358,0.391980696027577,-5.225199221368744,63.6
,,0.007718926418942487,0.005447107956737272,0.00036947308249011244,0.01353550745816987,0.8836456252548809,0.5702724070595103,0.4024310114394317,-5.212670461291548,63.7
,,0.007718926418942487,0.005447107956737272,0.00036947308249011244,0.01353550745816987,0.8946993522359867,0.5702724070595103,0.4024310114394317,-5.212670461291548,63.8
,,0.007718926418942487,0.005447107956737272,0.00036947308249011244,0.01353550745816987,0.9057530792170924,0.5702724070595103,0.4024310114394317,-5.212670461291548,63.9
,,0.007718926418942487,0.005447107956737272,0.00036947308249011244,0.01353550745816987,0.9168068061981979,0.5702724070595103,0.4024310114394317,-5.212670461291548,64.0
,,0.0075642795604573395,0.007923521425084309,0.0004641989865614416,0.01595199997210309,0.9227226731297411,0.47419004348581845,0.4967102205955986,-4.8379195475926,64.1
,,0.0075642795604573395,0.007923521425084309,0.0004641989865614416,0.01595199997210309,0.9274126406586648,0.47419004348581845,0.4967102205955986,-4.8379195475926,64.2
,,0.0075642795604573395,0.007923521425084309,0.0004641989865614416,0.01595199997210309,0.933604789022265,0.47419004348581845,0.4967102205955986,-4.8379195475926,64.3
,,0.0075642795604573395,0.007923521425084309,0.0004641989865614416,0.01595199997210309,0.939796937385865,0.47419004348581845,0.4967102205955986,-4.8379195475926,64.4
,,0.007788802428966348,0.005425372387720748,0.00033508383913087884,0.013549258655817974,0.9513331309402258,0.5748508185443696,0.4004183937688077,-5.2166687390135955,64.5
,,0.007256535340401919,0.0076127312983574865,0.0005264458070087449,0.01539571244576815,0.9557768077959505,0.47133481909091757,0.4944708681182216,-4.877933262387018,64.6
,,0.007256535340401919,0.0076127312983574865,0.0005264458070087449,0.01539571244576815,0.9602204846516753,0.47133481909091757,0.4944708681182216,-4.877933262387018,64.7
,,0.007256535340401919,0.0076127312983574865,0.0005264458070087449,0.01539571244576815,0.9646641615074,0.47133481909091757,0.4944708681182216,-4.877933262387018,64.8
,,0.008130874700145542,0.005339608580998888,0.00028880561892861815,0.013759288900073047,0.9754360254403007,0.5909371304866181,0.38807300433749453,-5.2326029281349795,64.9
,,0.008130874700145542,0.005339608580998888,0.00028880561892861815,0.013759288900073047,0.9862078893732017,0.5909371304866181,0.38807300433749453,-5.2326029281349795,65.0
,,0.008130874700145542,0.005339608580998888,0.00028880561892861815,0.013759288900073047,0.9985269753701836,0.5909371304866181,0.38807300433749453,-5.2326029281349795,65.1
,,0.007874075791507961,0.00553719780856243,0.0003151720130231147,0.013726445613093505,1.0097270088221697,0.5736427341391982,0.4033963317700074,-5.1962667169171475,65.2
,,0.007874075791507961,0.00553719780856243,0.0003151720130231147,0.013726445613093505,1.0209270422741559,0.5736427341391982,0.4033963317700074,-5.1962667169171475,65.3
,,0.007874075791507961,0.00553719780856243,0.0003151720130231147,0.013726445613093505,1.03020404225929,0.5736427341391982,0.4033963317700074,-5.1962667169171475,65.4
,,0.007874075791507961,0.00553719780856243,0.0003151720130231147,0.013726445613093505,1.0394810422444238,0.5736427341391982,0.4033963317700074,-5.1962667169171475,65.5
,,0.007874075791507961,0.00553719780856243,0.0003151720130231147,0.013726445613093505,1.048758042229558,0.5736427341391982,0.4033963317700074,-5.1962667169171475,65.6
,,0.00815711314276481,0.0055015852256867425,0.00027428626963768083,0.013932984638089231,1.0587089481918006,0.5854533938453746,0.3948604960524258,-5.202719005419803,65.7
,,0.00815711314276481,0.0055015852256867425,0.00027428626963768083,0.013932984638089231,1.0694770281422814,0.5854533938453746,0.3948604960524258,-5.202719005419803,65.8
,,0.007864059362318586,0.005739958569514337,0.0003094477612611634,0.013913465693094085,1.0789936740580888,0.5652121143491872,0.41254700274737094,-5.160303286531356,65.9
,,0.007864059362318586,0.005739958569514337,0.0003094477612611634,0.013913465693094085,1.0885103199738961,0.5652121143491872,0.41254700274737094,-5.160303286531356,66.0
,,0.007864059362318586,0.005739958569514337,0.0003094477612611634,0.013913465693094085,1.0980269658897037,0.5652121143491872,0.41254700274737094,-5.160303286531356,66.1
,,0.007864059362318586,0.005739958569514337,0.0003094477612611634,0.013913465693094085,1.106064210681315,0.5652121143491872,0.41254700274737094,-5.160303286531356,66.2
,,0.007864059362318586,0.005739958569514337,0.0003094477612611634,0.013913465693094085,1.1141014554729263,0.5652121143491872,0.41254700274737094,-5.160303286531356,66.3
,,0.007864059362318586,0.005739958569514337,0.0003094477612611634,0.013913465693094085,1.1221387002645375,0.5652121143491872,0.41254700274737094,-5.160303286531356,66.4
,,0.00810751926741672,0.005607161962821349,0.00036790683182365204,0.01408258806206172,1.131018911749102,0.575712307403087,0.3981627480766095,-5.183710576432687,66.5
,,0.00810751926741672,0.005607161962821349,0.00036790683182365204,0.01408258806206172,1.139696826039918,0.575712307403087,0.3981627480766095,-5.183710576432687,66.6
,,0.0073562903612158954,0.0075893457725629415,0.0006207787935036175,0.015566414927282455,1.1430788479861118,0.4725744749565235,0.4875461567750893,-4.881009887262947,66.7
,,0.0073562903612158954,0.0075893457725629415,0.0006207787935036175,0.015566414927282455,1.1464608699323053,0.4725744749565235,0.4875461567750893,-4.881009887262947,66.8
,,0.0073562903612158954,0.0075893457725629415,0.0006207787935036175,0.015566414927282455,1.1491338261597535,0.4725744749565235,0.4875461567750893,-4.881009887262947,66.9
,,0.0073562903612158954,0.0075893457725629415,0.0006207787935036175,0.015566414927282455,1.1518067823872011,0.4725744749565235,0.4875461567750893,-4.881009887262947,67.0
,,0.0073562903612158954,0.0075893457725629415,0.0006207787935036175,0.015566414927282455,1.154479738614649,0.4725744749565235,0.4875461567750893,-4.881009887262947,67.1
,,0.0073562903612158954,0.0075893457725629415,0.0006207787935036175,0.015566414927282455,1.157152694842097,0.4725744749565235,0.4875461567750893,-4.881009887262947,67.2
,,0.00802290326649855,0.0059667979961703765,0.00038700879366131163,0.014376710056330238,1.1639956432778211,0.5580486241333058,0.41503222731706435,-5.121544844514418,67.3
,,0.0077033411335177444,0.00645238076710538,0.00034497855599611115,0.014500700456619236,1.1688823817941882,0.5312392429981785,0.44497028170525493,-5.0433061051001005,67.4
,,0.0077033411335177444,0.00645238076710538,0.00034497855599611115,0.014500700456619236,1.1737691203105551,0.5312392429981785,0.44497028170525493,-5.0433061051001005,67.5
,,0.0077033411335177444,0.00645238076710538,0.00034497855599611115,0.014500700456619236,1.1786558588269223,0.5312392429981785,0.44497028170525493,-5.0433061051001005,67.6
,,0.0077033411335177444,0.00645238076710538,0.00034497855599611115,0.014500700456619236,1.1826775628038229,0.5312392429981785,0.44497028170525493,-5.0433061051001005,67.7
,,0.0077033411335177444,0.00645238076710538,0.00034497855599611115,0.014500700456619236,1.1866992667807235,0.5312392429981785,0.44497028170525493,-5.0433061051001005,67.8
,,0.0077033411335177444,0.00645238076710538,0.00034497855599611115,0.014500700456619236,1.190720970757624,0.5312392429981785,0.44497028170525493,-5.0433061051001005,67.9
,,0.0077033411335177444,0.00645238076710538,0.00034497855599611115,0.014500700456619236,1.194742674734525,0.5312392429981785,0.44497028170525493,-5.0433061051001005,68.0
,,0.007868489803015338,0.006410043268676552,0.00042230246018798407,0.014700835531879874,1.2001383122475038,0.5352409926600378,0.4360325816023102,-5.0498892578887915,68.1
,,0.007371619429535817,0.008395764521981625,0.0007979956402398525,0.016565379591757294,1.2016505190228985,0.44500154003134545,0.5068259664969731,-4.780027923869939,68.2
,,0.007371619429535817,0.008395764521981625,0.0007979956402398525,0.016565379591757294,1.203162725798293,0.44500154003134545,0.5068259664969731,-4.780027923869939,68.3
,,0.007371619429535817,0.008395764521981625,0.0007979956402398525,0.016565379591757294,1.2046749325736874,0.44500154003134545,0.5068259664969731,-4.780027923869939,68.4
,,0.007371619429535817,0.008395764521981625,0.0007979956402398525,0.016565379591757294,1.203830961958068,0.44500154003134545,0.5068259664969731,-4.780027923869939,68.5
,,0.007371619429535817,0.008395764521981625,0.0007979956402398525,0.016565379591757294,1.2029869913424482,0.44500154003134545,0.5068259664969731,-4.780027923869939,68.6
,,0.007371619429535817,0.008395764521981625,0.0007979956402398525,0.016565379591757294,1.2058516473793486,0.44500154003134545,0.5068259664969731,-4.780027923869939,68.7
,,0.007371619429535817,0.008395764521981625,0.0007979956402398525,0.016565379591757294,1.2050076767637292,0.44500154003134545,0.5068259664969731,-4.780027923869939,68.8
,,0.007697255124408461,0.00696751187864831,0.00047813486643837744,0.01514290186949515,1.206483224195048,0.5083077993072328,0.46011734994361425,-4.96649709374442,68.9
,,0.007379576583609347,0.0075336283643374895,0.00044774647418697935,0.015360951422133815,1.2065678418685575,0.4804114264026647,0.490440218011638,-4.8883784987312415,69.0
,,0.007379576583609347,0.0075336283643374895,0.00044774647418697935,0.015360951422133815,1.2066524595420667,0.4804114264026647,0.490440218011638,-4.8883784987312415,69.1
,,0.007379576583609347,0.0075336283643374895,0.00044774647418697935,0.015360951422133815,1.2054931225601278,0.4804114264026647,0.490440218011638,-4.8883784987312415,69.2
,,0.007379576583609347,0.0075336283643374895,0.00044774647418697935,0.015360951422133815,1.204333785578189,0.4804114264026647,0.490440218011638,-4.8883784987312415,69.3
,,0.007379576583609347,0.0075336283643374895,0.00044774647418697935,0.015360951422133815,1.2031744485962501,0.4804114264026647,0.490440218011638,-4.8883784987312415,69.4
,,0.007379576583609347,0.0075336283643374895,0.00044774647418697935,0.015360951422133815,1.2020151116143112,0.4804114264026647,0.490440218011638,-4.8883784987312415,69.5
,,0.007379576583609347,0.0075336283643374895,0.00044774647418697935,0.015360951422133815,1.2007613362216618,0.4804114264026647,0.490440218011638,-4.8883784987312415,69.6
,,0.007571872178009064,0.0076527450779035775,0.0005575171931987782,0.015782134449111418,1.1996173466265814,0.4797749127295886,0.48489924493923253,-4.872690861796226,69.7
,,0.007328299869903829,0.008240384696431834,0.0005289509143292492,0.01609763548066491,1.1973609469221071,0.4552407636951371,0.5119003164365022,-4.798708249690361,69.8
,,0.007328299869903829,0.008240384696431834,0.0005289509143292492,0.01609763548066491,1.1951045472176332,0.4552407636951371,0.5119003164365022,-4.798708249690361,69.9
,,0.007328299869903829,0.008240384696431834,0.0005289509143292492,0.01609763548066491,1.191477392639776,0.4552407636951371,0.5119003164365022,-4.798708249690361,70.0
,,0.007328299869903829,0.008240384696431834,0.0005289509143292492,0.01609763548066491,1.1878502380619183,0.4552407636951371,0.5119003164365022,-4.798708249690361,70.1
,,0.007328299869903829,0.008240384696431834,0.0005289509143292492,0.01609763548066491,1.1842230834840606,0.4552407636951371,0.5119003164365022,-4.798708249690361,70.2
,,0.007328299869903829,0.008240384696431834,0.0005289509143292492,0.01609763548066491,1.1805959289062031,0.4552407636951371,0.5119003164365022,-4.798708249690361,70.3
,,0.007328299869903829,0.008240384696431834,0.0005289509143292492,0.01609763548066491,1.177061539824327,0.4552407636951371,0.5119003164365022,-4.798708249690361,70.4
,,0.00759534511146588,0.008423408285304837,0.0006565521982780952,0.016675305595048814,1.1736647033646717,0.4554846127510292,0.5051426636406527,-4.776740748153028,70.5
,,0.00749524520313728,0.008991338552178487,0.0005457673657590082,0.017032351121074776,1.1695113366246583,0.44005934059585744,0.5278976747404627,-4.711493548125133,70.6
,,0.00749524520313728,0.008991338552178487,0.0005457673657590082,0.017032351121074776,1.1653579698846452,0.44005934059585744,0.5278976747404627,-4.711493548125133,70.7
,,0.00749524520313728,0.008991338552178487,0.0005457673657590082,0.017032351121074776,1.1598357429847037,0.44005934059585744,0.5278976747404627,-4.711493548125133,70.8
,,0.00749524520313728,0.008991338552178487,0.0005457673657590082,0.017032351121074776,1.154313516084762,0.44005934059585744,0.5278976747404627,-4.711493548125133,70.9
,,0.00749524520313728,0.008991338552178487,0.0005457673657590082,0.017032351121074776,1.1487912891848204,0.44005934059585744,0.5278976747404627,-4.711493548125133,71.0
,,0.00749524520313728,0.008991338552178487,0.0005457673657590082,0.017032351121074776,1.143269062284879,0.44005934059585744,0.5278976747404627,-4.711493548125133,71.1
,,0.00749524520313728,0.008991338552178487,0.0005457673657590082,0.017032351121074776,1.1380909823768157,0.44005934059585744,0.5278976747404627,-4.711493548125133,71.2
,,0.007531704556389405,0.009368254630121815,0.000696199096016417,0.01759615828252764,1.1325834913751012,0.4280311892777255,0.5324034075906307,-4.670428472214758,71.3
,,0.00843295533667263,0.009846207699265789,0.0009751578119768944,0.019254320847915313,1.1276594122432106,0.4379772936829229,0.5113765256660221,-4.620668903082333,71.4
,,0.00843295533667263,0.009846207699265789,0.0009751578119768944,0.019254320847915313,1.1227353331113201,0.4379772936829229,0.5113765256660221,-4.620668903082333,71.5
