time,ecg,hr,rr,marker,norm_time
1715323360827996966,0.179,,,,0.0
1715323360835691752,0.136,,,,0.007694786
1715323360843386538,0.086,,,,0.015389572
1715323360851081324,0.047,,,,0.023084358
1715323360858776110,0.023,,,,0.030779144
1715323360866470896,0.002,,,,0.03847393
1715323360874165682,-0.002,,,,0.046168716
1715323360881860468,-0.004,,,,0.053863502
1715323360889555254,-0.011,,,,0.061558288
1715323360897250040,-0.014,,,,0.069253074
1715323360904944826,-0.021,,,,0.07694786
1715323360912639612,-0.016,,,,0.084642646
1715323360920334398,0.0,,,,0.092337432
1715323360928029184,0.004,,,,0.100032218
1715323360935723970,0.011,,,,0.107727004
1715323360943418756,0.019,,,,0.11542179
1715323360951113542,0.023,,,,0.123116576
1715323360958808328,0.031,,,,0.130811362
1715323360966503114,0.035,,,,0.138506148
1715323360974197900,0.045,,,,0.146200934
1715323360981892686,0.045,,,,0.15389572
1715323360989587472,0.038,,,,0.161590506
1715323360997282258,0.043,,,,0.169285292
1715323361004977044,0.04,,,,0.176980078
1715323361012671830,0.043,,,,0.184674864
1715323361020366616,0.045,,,,0.19236965
1715323361028061402,0.035,,,,0.200064436
1715323361035756188,0.035,,,,0.207759222
1715323361043450974,0.035,,,,0.215454008
1715323361051145760,0.035,,,,0.223148794
1715323361058840546,0.035,,,,0.23084358
1715323361066535332,0.031,,,,0.238538366
1715323361074230118,0.038,,,,0.246233152
1715323361081924904,0.033,,,,0.253927938
1715323361089619690,0.026,,,,0.261622724
1715323361097314476,0.028,,,,0.26931751
1715323361105009262,0.021,,,,0.277012296
1715323361112704048,0.016,,,,0.284707082
1715323361120398834,0.021,,,,0.292401868
1715323361128093620,0.023,,,,0.300096654
1715323361135788406,0.023,,,,0.30779144
1715323361143483192,0.011,,,,0.315486226
1715323361151177978,0.007,,,,0.323181012
1715323361158872764,0.009,,,,0.330875798
1715323361166567550,0.011,,,,0.338570584
1715323361174262336,0.028,,,,0.34626537
1715323361181957122,0.04,,,,0.353960156
1715323361189651908,0.057,,,,0.361654942
1715323361197346694,0.071,,,,0.369349728
1715323361205041480,0.052,,,,0.377044514
1715323361212736266,0.028,,,,0.3847393
1715323361220431052,0.028,,,,0.392434086
1715323361228125838,0.031,,,,0.400128872
1715323361235820624,0.038,,,,0.407823658
1715323361243515410,0.045,,,,0.415518444
1715323361251210196,0.05,,,,0.42321323
1715323361258904982,0.05,,,,0.430908016
1715323361266599768,0.019,,,,0.438602802
1715323361274294554,0.0,,,,0.446297588
1715323361281989340,0.232,,,,0.453992374
1715323361289684126,0.771,,,,0.46168716
1715323361297378912,1.023,,,,0.469381946
1715323361305073698,0.5630000000000001,,,,0.477076732
1715323361312768484,-0.119,,,,0.484771518
1715323361320463270,-0.33,,,,0.492466304
1715323361328158056,-0.095,,,,0.50016109
1715323361335852842,0.047,,,,0.507855876
1715323361343547628,0.002,,,,0.515550662
1715323361351242414,0.019,,,,0.523245448
1715323361358937200,0.064,,,,0.530940234
1715323361366631986,0.059,,,,0.53863502
1715323361374326772,0.074,,,,0.546329806
1715323361382021558,0.1,,,,0.554024592
1715323361389716360,0.103,84.0,723.0,,0.561719394
1715323361397411564,0.112,,726.0,,0.569414598
1715323361405106768,0.127,,,,0.577109802
1715323361412801972,0.143,,,,0.584805006
1715323361420497176,0.158,,,,0.59250021
1715323361428192380,0.17,,,,0.600195414
1715323361435887584,0.191,,,,0.607890618
1715323361443582788,0.196,,,,0.615585822
1715323361451277992,0.206,,,,0.623281026
1715323361458973196,0.232,,,,0.63097623
1715323361466668400,0.246,,,,0.638671434
1715323361474363604,0.254,,,,0.646366638
1715323361482058808,0.261,,,,0.654061842
1715323361489754012,0.263,,,,0.661757046
1715323361497449216,0.263,,,,0.66945225
1715323361505144420,0.251,,,,0.677147454
1715323361512839624,0.244,,,,0.684842658
1715323361520534828,0.23,,,,0.692537862
1715323361528230032,0.201,,,,0.700233066
1715323361535925236,0.17,,,,0.70792827
1715323361543620440,0.129,,,,0.715623474
1715323361551315644,0.088,,,,0.723318678
1715323361559010848,0.057,,,,0.731013882
1715323361566706052,0.026,,,,0.738709086
1715323361574401256,0.014,,,,0.74640429
1715323361582096460,0.004,,,,0.754099494
1715323361589791664,-0.004,,,,0.761794698
1715323361597486868,-0.011,,,,0.769489902
1715323361605182072,-0.014,,,,0.777185106
1715323361612877276,-0.004,,,,0.78488031
1715323361620572480,0.004,,,,0.792575514
1715323361628267684,0.009,,,,0.800270718
1715323361635962888,0.021,,,,0.807965922
1715323361643658092,0.033,,,,0.815661126
1715323361651353296,0.04,,,,0.82335633
1715323361659048500,0.047,,,,0.831051534
1715323361666743704,0.055,,,,0.838746738
1715323361674438908,0.059,,,,0.846441942
1715323361682134112,0.057,,,,0.854137146
1715323361689829316,0.052,,,,0.86183235
1715323361697524520,0.062,,,,0.869527554
1715323361705219724,0.069,,,,0.877222758
1715323361712914928,0.069,,,,0.884917962
1715323361720610132,0.067,,,,0.892613166
1715323361728305336,0.067,,,,0.90030837
1715323361736000540,0.071,,,,0.908003574
1715323361743695744,0.067,,,,0.915698778
1715323361751390948,0.062,,,,0.923393982
1715323361759086152,0.069,,,,0.931089186
1715323361766781356,0.069,,,,0.93878439
1715323361774476560,0.069,,,,0.946479594
1715323361782171764,0.071,,,,0.954174798
1715323361789866968,0.076,,,,0.961870002
1715323361797562172,0.079,,,,0.969565206
1715323361805257376,0.067,,,,0.97726041
1715323361812952580,0.064,,,,0.984955614
1715323361820647784,0.067,,,,0.992650818
1715323361828342988,0.059,,,,1.000346022
1715323361836038192,0.045,,,,1.008041226
1715323361843733396,0.031,,,,1.01573643
1715323361851428600,0.031,,,,1.023431634
1715323361859123804,0.043,,,,1.031126838
1715323361866819008,0.055,,,,1.038822042
1715323361874514212,0.074,,,,1.046517246
1715323361882209416,0.098,,,,1.05421245
1715323361889904620,0.107,,,,1.061907654
1715323361897599824,0.091,,,,1.069602858
1715323361905295028,0.059,,,,1.077298062
1715323361912990232,0.052,,,,1.084993266
1715323361920685436,0.059,,,,1.09268847
1715323361928380640,0.064,,,,1.100383674
1715323361936075844,0.076,,,,1.108078878
1715323361943771048,0.081,,,,1.115774082
1715323361951466272,0.071,,,,1.123469306
1715323361959161476,0.045,,,,1.13116451
1715323361966856680,0.031,,,,1.138859714
1715323361974551884,0.278,,,,1.146554918
1715323361982247088,0.807,,,,1.154250122
1715323361989942292,1.018,,,,1.161945326
1715323361997637496,0.515,,,,1.16964053
1715323362005332700,-0.198,,,,1.177335734
1715323362013027904,-0.388,,,,1.185030938
1715323362020723108,-0.098,,,,1.192726142
1715323362028418312,0.064,,,,1.200421346
1715323362036113516,0.021,,,,1.20811655
1715323362043808720,0.043,,,,1.215811754
1715323362051503924,0.093,,,,1.223506958
1715323362059199128,0.086,,,,1.231202162
1715323362066894332,0.093,,,,1.238897366
1715323362074589536,0.127,,,,1.24659257
1715323362082284740,0.134,,,,1.254287774
1715323362089979944,0.129,,,,1.261982978
1715323362097675148,0.148,,,,1.269678182
1715323362105370352,0.165,,,,1.277373386
1715323362113065556,0.177,,,,1.28506859
1715323362120760760,0.194,,,,1.292763794
1715323362128455964,0.218,,,,1.300458998
1715323362136151168,0.237,,,,1.308154202
1715323362143846372,0.249,,,,1.315849406
1715323362151541576,0.268,,,,1.32354461
1715323362159236780,0.285,,,,1.331239814
1715323362166931984,0.292,,,,1.338935018
1715323362174627188,0.297,,,,1.346630222
1715323362182322392,0.299,,,,1.354325426
1715323362190017596,0.289,,,,1.36202063
1715323362197712800,0.278,,,,1.369715834
1715323362205408004,0.268,,,,1.377411038
1715323362213103208,0.256,,,,1.385106242
1715323362220798412,0.225,,,,1.392801446
1715323362228493616,0.189,,,,1.40049665
1715323362236188820,0.153,,,,1.408191854
1715323362243884024,0.105,,,,1.415887058
1715323362251579228,0.067,,,,1.423582262
1715323362259274432,0.043,,,,1.431277466
1715323362266969636,0.023,,,,1.43897267
1715323362274664840,0.009,,,,1.446667874
1715323362282360044,0.0,,,,1.454363078
1715323362290055248,0.0,,,,1.462058282
1715323362297750452,0.014,,,,1.469753486
1715323362305445656,0.021,,,,1.47744869
1715323362313140860,0.019,,,,1.485143894
1715323362320836064,0.021,,,,1.492839098
1715323362328531268,0.031,,,,1.500534302
1715323362336226472,0.038,,,,1.508229506
1715323362343921676,0.047,,,,1.51592471
1715323362351616880,0.062,,,,1.523619914
1715323362359312084,0.069,,,,1.531315118
1715323362367007288,0.064,,,,1.539010322
1715323362374702492,0.067,,,,1.546705526
1715323362382397696,0.074,,,,1.55440073
1715323362390092900,0.083,,,,1.562095934
1715323362397788104,0.088,,,,1.569791138
1715323362405483308,0.081,,,,1.577486342
1715323362413178512,0.079,,,,1.585181546
1715323362420873716,0.079,,,,1.59287675
1715323362428568920,0.069,,,,1.600571954
1715323362436264124,0.067,,,,1.608267158
1715323362443959328,0.069,,,,1.615962362
1715323362451654532,0.067,,,,1.623657566
1715323362459349736,0.064,,,,1.63135277
1715323362467044940,0.059,,,,1.639047974
1715323362474740144,0.062,,,,1.646743178
1715323362482435348,0.067,,,,1.654438382
1715323362490130552,0.064,,,,1.662133586
1715323362497825756,0.052,,,,1.66982879
1715323362505520960,0.047,,,,1.677523994
1715323362513216184,0.045,83.0,705.0,,1.685219218
1715323362520910970,0.04,,,,1.692914004
1715323362528605756,0.052,,,,1.70060879
1715323362536300542,0.074,,,,1.708303576
1715323362543995328,0.088,,,,1.715998362
1715323362551690114,0.079,,,,1.723693148
1715323362559384900,0.045,,,,1.731387934
1715323362567079686,0.033,,,,1.73908272
1715323362574774472,0.043,,,,1.746777506
1715323362582469258,0.038,,,,1.754472292
1715323362590164044,0.033,,,,1.762167078
1715323362597858830,0.047,,,,1.769861864
1715323362605553616,0.055,,,,1.77755665
1715323362613248402,0.047,,,,1.785251436
1715323362620943188,0.011,,,,1.792946222
1715323362628637974,0.064,,,,1.800641008
1715323362636332760,0.457,,,,1.808335794
1715323362644027546,0.963,,,,1.81603058
1715323362651722332,0.884,,,,1.823725366
1715323362659417118,0.15,,,,1.831420152
1715323362667111904,-0.443,,,,1.839114938
1715323362674806690,-0.366,,,,1.846809724
1715323362682501476,-0.043,,,,1.85450451
1715323362690196262,0.026,,,,1.862199296
1715323362697891048,0.004,,,,1.869894082
1715323362705585834,0.057,,,,1.877588868
1715323362713280620,0.083,,,,1.885283654
1715323362720975406,0.079,,,,1.89297844
1715323362728670192,0.1,,,,1.900673226
1715323362736364978,0.119,,,,1.908368012
1715323362744059764,0.119,,,,1.916062798
1715323362751754550,0.139,,,,1.923757584
1715323362759449336,0.158,,,,1.93145237
1715323362767144122,0.167,,,,1.939147156
1715323362774838908,0.186,,,,1.946841942
1715323362782533694,0.203,,,,1.954536728
1715323362790228480,0.218,,,,1.962231514
1715323362797923266,0.234,,,,1.9699263
1715323362805618052,0.256,,,,1.977621086
1715323362813312838,0.28,,,,1.985315872
1715323362821007624,0.289,,,,1.993010658
1715323362828702410,0.285,,,,2.000705444
1715323362836397196,0.289,,,,2.00840023
1715323362844091982,0.289,,,,2.016095016
1715323362851786768,0.285,,,,2.023789802
1715323362859481554,0.27,,,,2.031484588
1715323362867176340,0.251,,,,2.039179374
1715323362874871126,0.23,,,,2.04687416
1715323362882565912,0.189,,,,2.054568946
1715323362890260698,0.139,,,,2.062263732
1715323362897955484,0.093,,,,2.069958518
1715323362905650270,0.052,,,,2.077653304
1715323362913345056,0.019,,,,2.08534809
1715323362921039842,-0.004,,,,2.093042876
1715323362928734628,-0.014,,,,2.100737662
1715323362936429414,-0.014,,,,2.108432448
1715323362944124200,-0.019,,,,2.116127234
1715323362951818986,-0.021,,,,2.12382202
1715323362959513772,-0.019,,,,2.131516806
1715323362967208558,-0.009,,,,2.139211592
1715323362974903344,0.0,,,,2.146906378
1715323362982598130,0.009,,,,2.154601164
1715323362990292916,0.023,,,,2.16229595
1715323362997987702,0.031,,,,2.169990736
1715323363005682488,0.033,,,,2.177685522
1715323363013377274,0.047,,,,2.185380308
1715323363021072060,0.062,,,,2.193075094
1715323363028766846,0.064,,,,2.20076988
1715323363036461632,0.067,,,,2.208464666
1715323363044156418,0.071,,,,2.216159452
1715323363051851204,0.076,,,,2.223854238
1715323363059545990,0.076,,,,2.231549024
1715323363067240776,0.071,,,,2.23924381
1715323363074935578,0.069,,,,2.246938612
1715323363082630782,0.067,,,,2.254633816
1715323363090325986,0.067,,,,2.26232902
1715323363098021190,0.064,,,,2.270024224
1715323363105716394,0.059,,,,2.277719428
1715323363113411598,0.062,,,,2.285414632
1715323363121106802,0.052,,,,2.293109836
1715323363128802006,0.043,,,,2.30080504
1715323363136497210,0.05,,,,2.308500244
1715323363144192414,0.05,,,,2.316195448
1715323363151887618,0.043,,,,2.323890652
1715323363159582822,0.043,,,,2.331585856
1715323363167278026,0.047,,,,2.33928106
1715323363174973230,0.038,,,,2.346976264
1715323363182668434,0.023,,,,2.354671468
1715323363190363638,0.021,,,,2.362366672
1715323363198058842,0.023,,,,2.370061876
1715323363205754046,0.035,,,,2.37775708
1715323363213449250,0.059,,,,2.385452284
1715323363221144454,0.083,,,,2.393147488
1715323363228839658,0.083,,,,2.400842692
1715323363236534862,0.059,,,,2.408537896
1715323363244230066,0.035,,,,2.4162331
1715323363251925270,0.033,,,,2.423928304
1715323363259620474,0.038,,,,2.431623508
1715323363267315678,0.043,,,,2.439318712
1715323363275010882,0.047,,,,2.447013916
1715323363282706086,0.047,,,,2.45470912
1715323363290401290,0.045,,,,2.462404324
1715323363298096494,0.009,,,,2.470099528
1715323363305791698,0.004,,,,2.477794732
1715323363313486902,0.33,,,,2.485489936
1715323363321182106,0.905,,,,2.49318514
1715323363328877310,1.064,,,,2.500880344
1715323363336572514,0.505,,,,2.508575548
1715323363344267718,-0.177,,,,2.516270752
1715323363351962922,-0.285,,,,2.523965956
1715323363359658126,-0.023,,,,2.53166116
1715323363367353330,0.033,,,,2.539356364
1715323363375048534,-0.023,,,,2.547051568
1715323363382743738,0.026,,,,2.554746772
1715323363390438942,0.064,,,,2.562441976
1715323363398134146,0.05,,,,2.57013718
1715323363405829350,0.067,,,,2.577832384
1715323363413524554,0.1,,,,2.585527588
1715323363421219758,0.11,,,,2.593222792
1715323363428914962,0.119,,,,2.600917996
1715323363436610166,0.141,,,,2.6086132
1715323363444305370,0.153,,,,2.616308404
1715323363452000574,0.162,,,,2.624003608
1715323363459695778,0.184,,,,2.631698812
1715323363467390982,0.203,,,,2.639394016
1715323363475086186,0.222,,,,2.64708922
1715323363482781390,0.234,,,,2.654784424
1715323363490476594,0.254,,,,2.662479628
1715323363498171798,0.278,,,,2.670174832
1715323363505867002,0.287,,,,2.677870036
1715323363513562206,0.289,,,,2.68556524
1715323363521257410,0.292,,,,2.693260444
1715323363528952614,0.294,,,,2.700955648
1715323363536647818,0.287,,,,2.708650852
1715323363544343022,0.266,,,,2.716346056
1715323363552038226,0.249,,,,2.72404126
1715323363559733430,0.215,,,,2.731736464
1715323363567428634,0.16,,,,2.739431668
1715323363575123838,0.11,,,,2.747126872
1715323363582819042,0.071,,,,2.754822076
1715323363590514246,0.045,,,,2.76251728
1715323363598209450,0.023,,,,2.770212484
1715323363605904654,0.009,,,,2.777907688
1715323363613599858,0.002,,,,2.785602892
1715323363621295062,0.002,,,,2.793298096
1715323363628990266,0.004,,,,2.8009933
1715323363636685490,0.009,84.0,708.0,,2.808688524
1715323363644380276,0.014,,692.0,,2.81638331
1715323363652075062,0.019,,,,2.824078096
1715323363659769848,0.019,,,,2.831772882
1715323363667464634,0.019,,,,2.839467668
1715323363675159420,0.026,,,,2.847162454
1715323363682854206,0.035,,,,2.85485724
1715323363690548992,0.04,,,,2.862552026
1715323363698243778,0.035,,,,2.870246812
1715323363705938564,0.035,,,,2.877941598
1715323363713633350,0.045,,,,2.885636384
1715323363721328136,0.05,,,,2.89333117
1715323363729022922,0.05,,,,2.901025956
1715323363736717708,0.057,,,,2.908720742
1715323363744412494,0.059,,,,2.916415528
1715323363752107280,0.059,,,,2.924110314
1715323363759802066,0.057,,,,2.9318051
1715323363767496852,0.057,,,,2.939499886
1715323363775191638,0.064,,,,2.947194672
1715323363782886424,0.062,,,,2.954889458
1715323363790581210,0.059,,,,2.962584244
1715323363798275996,0.062,,,,2.97027903
1715323363805970782,0.057,,,,2.977973816
1715323363813665568,0.057,,,,2.985668602
1715323363821360354,0.064,,,,2.993363388
1715323363829055140,0.064,,,,3.001058174
1715323363836749926,0.05,,,,3.00875296
1715323363844444712,0.04,,,,3.016447746
1715323363852139498,0.05,,,,3.024142532
1715323363859834284,0.062,,,,3.031837318
1715323363867529070,0.071,,,,3.039532104
1715323363875223856,0.095,,,,3.04722689
1715323363882918642,0.115,,,,3.054921676
1715323363890613428,0.112,,,,3.062616462
1715323363898308214,0.088,,,,3.070311248
1715323363906003000,0.071,,,,3.078006034
1715323363913697786,0.076,,,,3.08570082
1715323363921392572,0.086,,,,3.093395606
1715323363929087358,0.088,,,,3.101090392
1715323363936782144,0.091,,,,3.108785178
1715323363944476930,0.095,,,,3.116479964
1715323363952171716,0.093,,,,3.12417475
1715323363959866502,0.045,,,,3.131869536
1715323363967561288,0.055,,,,3.139564322
1715323363975256074,0.419,,,,3.147259108
1715323363982950860,0.97,,,,3.154953894
1715323363990645646,1.032,,,,3.16264868
1715323363998340432,0.419,,,,3.170343466
1715323364006035218,-0.215,,,,3.178038252
1715323364013730004,-0.239,,,,3.185733038
1715323364021424790,0.026,,,,3.193427824
1715323364029119576,0.052,,,,3.20112261
1715323364036814362,0.004,,,,3.208817396
1715323364044509148,0.067,,,,3.216512182
1715323364052203934,0.091,,,,3.224206968
1715323364059898720,0.069,,,,3.231901754
1715323364067593506,0.091,,,,3.23959654
1715323364075288292,0.117,,,,3.247291326
1715323364082983078,0.115,,,,3.254986112
1715323364090677864,0.131,,,,3.262680898
1715323364098372650,0.162,,,,3.270375684
1715323364106067436,0.174,,,,3.27807047
1715323364113762222,0.184,,,,3.285765256
1715323364121457008,0.196,,,,3.293460042
1715323364129151794,0.215,,,,3.301154828
1715323364136846580,0.237,,,,3.308849614
1715323364144541366,0.249,,,,3.3165444
1715323364152236152,0.263,,,,3.324239186
1715323364159930938,0.28,,,,3.331933972
1715323364167625724,0.287,,,,3.339628758
1715323364175320510,0.292,,,,3.347323544
1715323364183015296,0.292,,,,3.35501833
1715323364190710082,0.282,,,,3.362713116
1715323364198404886,0.261,84.0,659.0,,3.37040792
1715323364206100090,0.237,,,,3.378103124
1715323364213795294,0.22,,,,3.385798328
1715323364221490498,0.186,,,,3.393493532
1715323364229185702,0.136,,,,3.401188736
1715323364236880906,0.088,,,,3.40888394
1715323364244576110,0.05,,,,3.416579144
1715323364252271314,0.021,,,,3.424274348
1715323364259966518,-0.004,,,,3.431969552
1715323364267661722,-0.026,,,,3.439664756
1715323364275356926,-0.026,,,,3.44735996
1715323364283052130,-0.014,,,,3.455055164
1715323364290747334,-0.009,,,,3.462750368
1715323364298442538,-0.009,,,,3.470445572
1715323364306137742,-0.007,,,,3.478140776
1715323364313832946,0.002,,,,3.48583598
1715323364321528150,0.009,,,,3.493531184
1715323364329223354,0.021,,,,3.501226388
1715323364336918558,0.031,,,,3.508921592
1715323364344613762,0.033,,,,3.516616796
1715323364352308966,0.035,,,,3.524312
1715323364360004170,0.043,,,,3.532007204
1715323364367699374,0.052,,,,3.539702408
1715323364375394578,0.057,,,,3.547397612
1715323364383089782,0.057,,,,3.555092816
1715323364390784986,0.055,,,,3.56278802
1715323364398480190,0.059,,,,3.570483224
1715323364406175394,0.062,,,,3.578178428
1715323364413870598,0.062,,,,3.585873632
1715323364421565802,0.057,,,,3.593568836
1715323364429261006,0.057,,,,3.60126404
1715323364436956210,0.057,,,,3.608959244
1715323364444651414,0.057,,,,3.616654448
1715323364452346618,0.062,,,,3.624349652
1715323364460041822,0.064,,,,3.632044856
1715323364467737026,0.059,,,,3.63974006
1715323364475432230,0.052,,,,3.647435264
1715323364483127434,0.043,,,,3.655130468
1715323364490822638,0.04,,,,3.662825672
1715323364498517842,0.05,,,,3.670520876
1715323364506213046,0.064,,,,3.67821608
1715323364513908250,0.081,,,,3.685911284
1715323364521603454,0.1,,,,3.693606488
1715323364529298658,0.11,,,,3.701301692
1715323364536993862,0.091,,,,3.708996896
1715323364544689066,0.067,,,,3.7166921
1715323364552384270,0.064,,,,3.724387304
1715323364560079474,0.064,,,,3.732082508
1715323364567774678,0.067,,,,3.739777712
1715323364575469882,0.071,,,,3.747472916
1715323364583165086,0.071,,,,3.75516812
1715323364590860290,0.071,,,,3.762863324
1715323364598555494,0.052,,,,3.770558528
1715323364606250698,0.007,,,,3.778253732
1715323364613945902,0.16,,,,3.785948936
1715323364621641106,0.685,,,,3.79364414
1715323364629336310,1.092,,,,3.801339344
1715323364637031514,0.795,,,,3.809034548
1715323364644726718,0.059,,,,3.816729752
1715323364652421922,-0.328,,,,3.824424956
1715323364660117126,-0.136,,,,3.83212016
1715323364667812330,0.052,,,,3.839815364
1715323364675507534,0.002,,,,3.847510568
1715323364683202738,0.004,,,,3.855205772
1715323364690897942,0.062,,,,3.862900976
1715323364698593146,0.047,,,,3.87059618
1715323364706288350,0.035,,,,3.878291384
1715323364713983554,0.064,,,,3.885986588
1715323364721678758,0.081,,,,3.893681792
1715323364729373962,0.091,,,,3.901376996
1715323364737069166,0.107,,,,3.9090722
1715323364744764370,0.119,,,,3.916767404
1715323364752459574,0.134,,,,3.924462608
1715323364760154798,0.153,,,,3.932157832
1715323364767849584,0.17,,,,3.939852618
1715323364775544370,0.182,,,,3.947547404
1715323364783239156,0.198,,,,3.95524219
1715323364790933942,0.222,,,,3.962936976
1715323364798628728,0.237,,,,3.970631762
1715323364806323514,0.242,,,,3.978326548
1715323364814018300,0.251,,,,3.986021334
1715323364821713086,0.261,,,,3.99371612
1715323364829407872,0.256,,,,4.001410906
1715323364837102658,0.239,,,,4.009105692
1715323364844797444,0.222,,,,4.016800478
1715323364852492230,0.213,,,,4.024495264
1715323364860187016,0.177,,,,4.03219005
1715323364867881802,0.119,,,,4.039884836
1715323364875576588,0.076,,,,4.047579622
1715323364883271374,0.035,,,,4.055274408
1715323364890966160,-0.011,,,,4.062969194
1715323364898660946,-0.043,,,,4.07066398
1715323364906355732,-0.052,,,,4.078358766
1715323364914050518,-0.055,,,,4.086053552
1715323364921745304,-0.064,,,,4.093748338
1715323364929440090,-0.057,,,,4.101443124
1715323364937134876,-0.05,,,,4.10913791
1715323364944829662,-0.047,,,,4.116832696
1715323364952524448,-0.038,,,,4.124527482
1715323364960219234,-0.023,,,,4.132222268
1715323364967914020,-0.016,,,,4.139917054
1715323364975608806,-0.011,,,,4.14761184
1715323364983303592,-0.004,,,,4.155306626
1715323364990998378,0.007,,,,4.163001412
1715323364998693164,0.014,,,,4.170696198
1715323365006387950,0.019,,,,4.178390984
1715323365014082736,0.023,,,,4.18608577
1715323365021777522,0.028,,,,4.193780556
1715323365029472308,0.035,,,,4.201475342
1715323365037167094,0.035,,,,4.209170128
1715323365044861880,0.035,,,,4.216864914
1715323365052556666,0.038,,,,4.2245597
1715323365060251452,0.038,,,,4.232254486
1715323365067946238,0.04,,,,4.239949272
1715323365075641024,0.04,,,,4.247644058
1715323365083335810,0.04,,,,4.255338844
1715323365091030596,0.043,,,,4.26303363
1715323365098725382,0.04,,,,4.270728416
1715323365106420168,0.033,,,,4.278423202
1715323365114114954,0.028,,,,4.286117988
1715323365121809740,0.028,,,,4.293812774
1715323365129504526,0.035,,,,4.30150756
1715323365137199312,0.057,,,,4.309202346
1715323365144894098,0.079,,,,4.316897132
1715323365152588884,0.095,,,,4.324591918
1715323365160283670,0.095,,,,4.332286704
1715323365167978456,0.079,,,,4.33998149
1715323365175673242,0.064,,,,4.347676276
1715323365183368028,0.062,,,,4.355371062
1715323365191062814,0.067,,,,4.363065848
1715323365198757600,0.062,,,,4.370760634
1715323365206452386,0.062,,,,4.37845542
1715323365214147172,0.067,,,,4.386150206
1715323365221841958,0.062,,,,4.393844992
1715323365229536744,0.04,,,,4.401539778
1715323365237231530,0.009,,,,4.409234564
1715323365244926316,0.196,,,,4.41692935
1715323365252621102,0.718,,,,4.424624136
1715323365260315888,1.04,,,,4.432318922
1715323365268010674,0.68,,,,4.440013708
1715323365275705460,-0.002,,,,4.447708494
1715323365283400246,-0.294,,,,4.45540328
1715323365291095032,-0.1,,,,4.463098066
1715323365298789818,0.052,,,,4.470792852
1715323365306484604,0.011,,,,4.478487638
1715323365314179390,0.023,,,,4.486182424
1715323365321874192,0.067,85.0,680.0,,4.493877226
1715323365329569396,0.069,,661.0,,4.50157243
1715323365337264600,0.076,,,,4.509267634
1715323365344959804,0.093,,,,4.516962838
1715323365352655008,0.103,,,,4.524658042
1715323365360350212,0.117,,,,4.532353246
1715323365368045416,0.131,,,,4.54004845
1715323365375740620,0.131,,,,4.547743654
1715323365383435824,0.136,,,,4.555438858
1715323365391131028,0.158,,,,4.563134062
1715323365398826232,0.17,,,,4.570829266
1715323365406521436,0.174,,,,4.57852447
1715323365414216640,0.196,,,,4.586219674
1715323365421911844,0.22,,,,4.593914878
1715323365429607048,0.234,,,,4.601610082
1715323365437302252,0.239,,,,4.609305286
1715323365444997456,0.242,,,,4.61700049
1715323365452692660,0.249,,,,4.624695694
1715323365460387864,0.244,,,,4.632390898
1715323365468083068,0.232,,,,4.640086102
1715323365475778272,0.227,,,,4.647781306
1715323365483473476,0.21,,,,4.65547651
1715323365491168680,0.182,,,,4.663171714
1715323365498863884,0.139,,,,4.670866918
1715323365506559088,0.091,,,,4.678562122
1715323365514254292,0.05,,,,4.686257326
1715323365521949496,0.021,,,,4.69395253
1715323365529644700,0.002,,,,4.701647734
1715323365537339904,-0.016,,,,4.709342938
1715323365545035108,-0.033,,,,4.717038142
1715323365552730312,-0.033,,,,4.724733346
1715323365560425516,-0.028,,,,4.73242855
1715323365568120720,-0.021,,,,4.740123754
1715323365575815924,-0.009,,,,4.747818958
1715323365583511128,-0.004,,,,4.755514162
1715323365591206332,-0.002,,,,4.763209366
1715323365598901536,0.009,,,,4.77090457
1715323365606596740,0.016,,,,4.778599774
1715323365614291944,0.019,,,,4.786294978
1715323365621987148,0.026,,,,4.793990182
1715323365629682352,0.035,,,,4.801685386
1715323365637377556,0.04,,,,4.80938059
1715323365645072760,0.043,,,,4.817075794
1715323365652767964,0.045,,,,4.824770998
1715323365660463168,0.045,,,,4.832466202
1715323365668158372,0.045,,,,4.840161406
1715323365675853576,0.05,,,,4.84785661
1715323365683548780,0.045,,,,4.855551814
1715323365691243984,0.045,,,,4.863247018
1715323365698939188,0.05,,,,4.870942222
1715323365706634392,0.05,,,,4.878637426
1715323365714329596,0.047,,,,4.88633263
1715323365722024800,0.043,,,,4.894027834
1715323365729720004,0.04,,,,4.901723038
1715323365737415208,0.038,,,,4.909418242
1715323365745110412,0.045,,,,4.917113446
1715323365752805616,0.047,,,,4.92480865
1715323365760500820,0.031,,,,4.932503854
1715323365768196024,0.023,,,,4.940199058
1715323365775891228,0.033,,,,4.947894262
1715323365783586432,0.043,,,,4.955589466
1715323365791281636,0.057,,,,4.96328467
1715323365798976840,0.086,,,,4.970979874
1715323365806672044,0.112,,,,4.978675078
1715323365814367248,0.105,,,,4.986370282
1715323365822062452,0.076,,,,4.994065486
1715323365829757656,0.067,,,,5.00176069
1715323365837452860,0.079,,,,5.009455894
1715323365845148064,0.081,,,,5.017151098
1715323365852843268,0.076,,,,5.024846302
1715323365860538472,0.079,,,,5.032541506
1715323365868233676,0.086,,,,5.04023671
1715323365875928880,0.079,,,,5.047931914
1715323365883624104,0.026,,,,5.055627138
1715323365891318959,0.079,,,,5.063321993
1715323365899013814,0.491,,,,5.071016848
1715323365906708669,0.992,,,,5.078711703
1715323365914403524,0.934,,,,5.086406558
1715323365922098379,0.275,,,,5.094101413
1715323365929793234,-0.275,,,,5.101796268
1715323365937488089,-0.23,,,,5.109491123
1715323365945182944,0.014,,,,5.117185978
1715323365952877799,0.031,,,,5.124880833
1715323365960572654,0.004,,,,5.132575688
1715323365968267509,0.05,,,,5.140270543
1715323365975962364,0.05,,,,5.147965398
1715323365983657219,0.04,,,,5.155660253
1715323365991352074,0.079,,,,5.163355108
1715323365999046929,0.1,,,,5.171049963
1715323366006741784,0.098,,,,5.178744818
1715323366014436639,0.117,,,,5.186439673
1715323366022131494,0.139,,,,5.194134528
1715323366029826349,0.146,,,,5.201829383
1715323366037521204,0.155,,,,5.209524238
1715323366045216059,0.174,,,,5.217219093
1715323366052910914,0.194,,,,5.224913948
1715323366060605769,0.201,,,,5.232608803
1715323366068300624,0.213,,,,5.240303658
1715323366075995479,0.227,,,,5.247998513
1715323366083690334,0.237,,,,5.255693368
1715323366091385189,0.242,,,,5.263388223
1715323366099080044,0.237,,,,5.271083078
1715323366106774899,0.23,,,,5.278777933
1715323366114469754,0.222,,,,5.286472788
1715323366122164609,0.215,,,,5.294167643
1715323366129859464,0.203,,,,5.301862498
1715323366137554319,0.184,,,,5.309557353
1715323366145249174,0.148,,,,5.317252208
1715323366152944029,0.105,,,,5.324947063
1715323366160638884,0.059,,,,5.332641918
1715323366168333739,0.023,,,,5.340336773
1715323366176028594,0.004,,,,5.348031628
1715323366183723449,-0.009,,,,5.355726483
1715323366191418304,-0.026,,,,5.363421338
1715323366199113159,-0.04,,,,5.371116193
1715323366206808014,-0.043,,,,5.378811048
1715323366214502869,-0.035,,,,5.386505903
1715323366222197724,-0.026,,,,5.394200758
1715323366229892579,-0.021,,,,5.401895613
1715323366237587434,-0.023,,,,5.409590468
1715323366245282289,-0.021,,,,5.417285323
1715323366252977144,-0.009,,,,5.424980178
1715323366260671999,0.004,,,,5.432675033
1715323366268366854,0.014,,,,5.440369888
1715323366276061709,0.016,,,,5.448064743
1715323366283756564,0.014,,,,5.455759598
1715323366291451419,0.023,,,,5.463454453
1715323366299146274,0.033,,,,5.471149308
1715323366306841129,0.031,,,,5.478844163
1715323366314535984,0.031,,,,5.486539018
1715323366322230839,0.033,,,,5.494233873
1715323366329925694,0.035,,,,5.501928728
1715323366337620549,0.033,,,,5.509623583
1715323366345315404,0.031,,,,5.517318438
1715323366353010259,0.031,,,,5.525013293
1715323366360705114,0.028,,,,5.532708148
1715323366368399969,0.026,,,,5.540403003
1715323366376094824,0.026,,,,5.548097858
1715323366383789679,0.023,,,,5.555792713
1715323366391484534,0.023,,,,5.563487568
1715323366399179389,0.009,,,,5.571182423
1715323366406874244,-0.004,,,,5.578877278
1715323366414569099,0.0,,,,5.586572133
1715323366422263954,0.0,,,,5.594266988
1715323366429958809,-0.004,,,,5.601961843
1715323366437653664,0.009,,,,5.609656698
1715323366445348586,0.047,86.0,643.0,,5.61735162
1715323366453043720,0.059,,,,5.625046754
1715323366460738854,0.026,,,,5.632741888
1715323366468433988,0.004,,,,5.640437022
1715323366476129122,0.009,,,,5.648132156
1715323366483824256,0.007,,,,5.65582729
1715323366491519390,0.007,,,,5.663522424
1715323366499214524,0.019,,,,5.671217558
1715323366506909658,0.023,,,,5.678912692
1715323366514604792,0.019,,,,5.686607826
1715323366522299926,-0.014,,,,5.69430296
1715323366529995060,-0.062,,,,5.701998094
1715323366537690194,0.139,,,,5.709693228
1715323366545385328,0.716,,,,5.717388362
1715323366553080462,1.066,,,,5.725083496
1715323366560775596,0.654,,,,5.73277863
1715323366568470730,-0.105,,,,5.740473764
1715323366576165864,-0.395,,,,5.748168898
1715323366583860998,-0.131,,,,5.755864032
1715323366591556132,0.023,,,,5.763559166
1715323366599251266,-0.055,,,,5.7712543
1715323366606946400,-0.028,,,,5.778949434
1715323366614641534,0.031,,,,5.786644568
1715323366622336668,0.009,,,,5.794339702
1715323366630031802,0.016,,,,5.802034836
1715323366637726936,0.052,,,,5.80972997
1715323366645422070,0.059,,,,5.817425104
1715323366653117204,0.062,,,,5.825120238
1715323366660812338,0.071,,,,5.832815372
1715323366668507472,0.086,,,,5.840510506
1715323366676202606,0.098,,,,5.84820564
1715323366683897740,0.115,,,,5.855900774
1715323366691592874,0.131,,,,5.863595908
1715323366699288008,0.141,,,,5.871291042
1715323366706983142,0.155,,,,5.878986176
1715323366714678276,0.17,,,,5.88668131
1715323366722373410,0.174,,,,5.894376444
1715323366730068544,0.172,,,,5.902071578
1715323366737763678,0.17,,,,5.909766712
1715323366745458812,0.155,,,,5.917461846
1715323366753153946,0.139,,,,5.92515698
1715323366760849080,0.122,,,,5.932852114
1715323366768544214,0.105,,,,5.940547248
1715323366776239348,0.088,,,,5.948242382
1715323366783934482,0.067,,,,5.955937516
1715323366791629616,0.035,,,,5.96363265
1715323366799324750,-0.007,,,,5.971327784
1715323366807019884,-0.045,,,,5.979022918
1715323366814715018,-0.064,,,,5.986718052
1715323366822410152,-0.081,,,,5.994413186
1715323366830105286,-0.093,,,,6.00210832
1715323366837800420,-0.095,,,,6.009803454
1715323366845495554,-0.095,,,,6.017498588
1715323366853190688,-0.095,,,,6.025193722
1715323366860885822,-0.088,,,,6.032888856
1715323366868580956,-0.071,,,,6.04058399
1715323366876276090,-0.064,,,,6.048279124
1715323366883971224,-0.064,,,,6.055974258
1715323366891666358,-0.052,,,,6.063669392
1715323366899361492,-0.043,,,,6.071364526
1715323366907056626,-0.035,,,,6.07905966
1715323366914751760,-0.021,,,,6.086754794
1715323366922446894,-0.021,,,,6.094449928
1715323366930142028,-0.023,,,,6.102145062
1715323366937837162,-0.007,,,,6.109840196
1715323366945532296,0.002,,,,6.11753533
1715323366953227430,-0.004,,,,6.125230464
1715323366960922564,-0.004,,,,6.132925598
1715323366968617698,0.004,,,,6.140620732
1715323366976312832,0.007,,,,6.148315866
1715323366984007966,0.002,,,,6.156011
1715323366991703100,0.004,,,,6.163706134
1715323366999398234,0.007,,,,6.171401268
1715323367007093410,0.011,,,,6.179096444
1715323367014788614,0.007,,,,6.186791648
1715323367022483818,-0.002,,,,6.194486852
1715323367030179022,0.004,,,,6.202182056
1715323367037874226,0.011,,,,6.20987726
1715323367045569430,0.007,,,,6.217572464
1715323367053264634,0.0,,,,6.225267668
1715323367060959838,-0.011,,,,6.232962872
1715323367068655042,-0.016,,,,6.240658076
1715323367076350246,-0.016,,,,6.24835328
1715323367084045450,-0.019,,,,6.256048484
1715323367091740654,-0.009,,,,6.263743688
1715323367099435858,0.019,,,,6.271438892
1715323367107131062,0.04,,,,6.279134096
1715323367114826266,0.045,,,,6.2868293
1715323367122521470,0.038,,,,6.294524504
1715323367130216674,0.023,,,,6.302219708
1715323367137911878,0.016,,,,6.309914912
1715323367145607082,0.023,,,,6.317610116
1715323367153302286,0.04,,,,6.32530532
1715323367160997490,0.043,,,,6.333000524
1715323367168692694,0.038,,,,6.340695728
1715323367176387898,0.043,,,,6.348390932
1715323367184083102,0.011,,,,6.356086136
1715323367191778306,-0.038,,,,6.36378134
1715323367199473510,0.167,,,,6.371476544
1715323367207168714,0.745,,,,6.379171748
1715323367214863918,1.088,,,,6.386866952
1715323367222559122,0.707,,,,6.394562156
1715323367230254326,0.002,,,,6.40225736
1715323367237949530,-0.282,,,,6.409952564
1715323367245644734,-0.086,,,,6.417647768
1715323367253339938,0.023,,,,6.425342972
1715323367261035142,-0.05,,,,6.433038176
1715323367268730346,-0.026,,,,6.44073338
1715323367276425550,0.031,,,,6.448428584
1715323367284120754,0.023,,,,6.456123788
1715323367291815958,0.028,,,,6.463818992
1715323367299511162,0.055,,,,6.471514196
1715323367307206366,0.064,,,,6.4792094
1715323367314901570,0.074,,,,6.486904604
1715323367322596774,0.083,,,,6.494599808
1715323367330291978,0.095,,,,6.502295012
1715323367337987182,0.11,,,,6.509990216
1715323367345682386,0.129,,,,6.51768542
1715323367353377590,0.143,,,,6.525380624
1715323367361072794,0.153,,,,6.533075828
1715323367368767998,0.174,,,,6.540771032
1715323367376463202,0.189,,,,6.548466236
1715323367384158406,0.194,,,,6.55616144
1715323367391853610,0.201,,,,6.563856644
1715323367399548814,0.203,,,,6.571551848
1715323367407244018,0.196,,,,6.579247052
1715323367414939222,0.182,,,,6.586942256
1715323367422634426,0.165,,,,6.59463746
1715323367430329630,0.155,,,,6.602332664
1715323367438024834,0.139,,,,6.610027868
1715323367445720038,0.112,,,,6.617723072
1715323367453415242,0.086,,,,6.625418276
1715323367461110446,0.052,,,,6.63311348
1715323367468805650,0.019,,,,6.640808684
1715323367476500854,-0.004,,,,6.648503888
1715323367484196058,-0.026,,,,6.656199092
1715323367491891262,-0.033,,,,6.663894296
1715323367499586466,-0.035,,,,6.6715895
1715323367507281670,-0.043,,,,6.679284704
1715323367514976874,-0.045,,,,6.686979908
1715323367522672078,-0.04,,,,6.694675112
1715323367530367282,-0.033,,,,6.702370316
1715323367538062486,-0.026,,,,6.71006552
1715323367545757690,-0.016,,,,6.717760724
1715323367553452894,-0.004,,,,6.725455928
1715323367561148098,0.0,,,,6.733151132
1715323367568843324,0.004,88.0,630.0,,6.740846358
1715323367576538110,0.011,,649.0,,6.748541144
1715323367584232896,0.019,,,,6.75623593
1715323367591927682,0.026,,,,6.763930716
1715323367599622468,0.023,,,,6.771625502
1715323367607317254,0.026,,,,6.779320288
1715323367615012040,0.035,,,,6.787015074
1715323367622706826,0.035,,,,6.79470986
1715323367630401612,0.035,,,,6.802404646
1715323367638096398,0.038,,,,6.810099432
1715323367645791184,0.04,,,,6.817794218
1715323367653485970,0.043,,,,6.825489004
1715323367661180756,0.04,,,,6.83318379
1715323367668875542,0.043,,,,6.840878576
1715323367676570328,0.043,,,,6.848573362
1715323367684265114,0.04,,,,6.856268148
1715323367691959900,0.038,,,,6.863962934
1715323367699654686,0.043,,,,6.87165772
1715323367707349472,0.05,,,,6.879352506
1715323367715044258,0.05,,,,6.887047292
1715323367722739044,0.052,,,,6.894742078
1715323367730433830,0.057,,,,6.902436864
1715323367738128616,0.05,,,,6.91013165
1715323367745823402,0.045,,,,6.917826436
1715323367753518188,0.05,,,,6.925521222
1715323367761212974,0.047,,,,6.933216008
1715323367768907760,0.047,,,,6.940910794
1715323367776602546,0.057,,,,6.94860558
1715323367784297332,0.057,,,,6.956300366
1715323367791992118,0.062,,,,6.963995152
1715323367799686904,0.057,,,,6.971689938
1715323367807381690,0.033,,,,6.979384724
1715323367815076476,0.028,,,,6.98707951
1715323367822771262,0.05,,,,6.994774296
1715323367830466048,0.064,,,,7.002469082
1715323367838160834,0.086,,,,7.010163868
1715323367845855620,0.115,,,,7.017858654
1715323367853550406,0.124,,,,7.02555344
1715323367861245192,0.105,,,,7.033248226
1715323367868939978,0.093,,,,7.040943012
1715323367876634764,0.088,,,,7.048637798
1715323367884329550,0.088,,,,7.056332584
1715323367892024336,0.1,,,,7.06402737
1715323367899719122,0.1,,,,7.071722156
1715323367907413908,0.1,,,,7.079416942
1715323367915108694,0.105,,,,7.087111728
1715323367922803480,0.083,,,,7.094806514
1715323367930498266,0.016,,,,7.1025013
1715323367938193052,0.1,,,,7.110196086
1715323367945887838,0.594,,,,7.117890872
1715323367953582624,1.119,,,,7.125585658
1715323367961277410,0.992,,,,7.133280444
1715323367968972196,0.306,,,,7.14097523
1715323367976666982,-0.189,,,,7.148670016
1715323367984361768,-0.112,,,,7.156364802
1715323367992056554,0.069,,,,7.164059588
1715323367999751340,0.023,,,,7.171754374
1715323368007446126,0.016,,,,7.17944916
1715323368015140912,0.081,,,,7.187143946
1715323368022835698,0.079,,,,7.194838732
1715323368030530484,0.076,,,,7.202533518
1715323368038225270,0.107,,,,7.210228304
1715323368045920056,0.117,,,,7.21792309
1715323368053614842,0.127,,,,7.225617876
1715323368061309628,0.141,,,,7.233312662
1715323368069004414,0.146,,,,7.241007448
1715323368076699200,0.153,,,,7.248702234
1715323368084393986,0.165,,,,7.25639702
1715323368092088772,0.179,,,,7.264091806
1715323368099783558,0.186,,,,7.271786592
1715323368107478344,0.198,,,,7.279481378
1715323368115173130,0.215,,,,7.287176164
1715323368122867916,0.225,,,,7.29487095
1715323368130562718,0.234,,,,7.302565752
1715323368138257922,0.234,,,,7.310260956
1715323368145953126,0.23,,,,7.31795616
1715323368153648330,0.227,,,,7.325651364
1715323368161343534,0.215,,,,7.333346568
1715323368169038738,0.201,,,,7.341041772
1715323368176733942,0.191,,,,7.348736976
1715323368184429146,0.17,,,,7.35643218
1715323368192124350,0.143,,,,7.364127384
1715323368199819554,0.115,,,,7.371822588
1715323368207514758,0.083,,,,7.379517792
1715323368215209962,0.057,,,,7.387212996
1715323368222905166,0.028,,,,7.3949082
1715323368230600370,0.011,,,,7.402603404
1715323368238295574,0.002,,,,7.410298608
1715323368245990778,-0.009,,,,7.417993812
1715323368253685982,-0.014,,,,7.425689016
1715323368261381186,-0.009,,,,7.43338422
1715323368269076390,-0.002,,,,7.441079424
1715323368276771594,0.0,,,,7.448774628
1715323368284466798,0.0,,,,7.456469832
1715323368292162002,0.014,,,,7.464165036
1715323368299857206,0.026,,,,7.47186024
1715323368307552410,0.031,,,,7.479555444
1715323368315247614,0.04,,,,7.487250648
1715323368322942818,0.04,,,,7.494945852
1715323368330638022,0.047,,,,7.502641056
1715323368338333226,0.055,,,,7.51033626
1715323368346028430,0.052,,,,7.518031464
1715323368353723634,0.055,,,,7.525726668
1715323368361418838,0.059,,,,7.533421872
1715323368369114042,0.062,,,,7.541117076
1715323368376809246,0.059,,,,7.54881228
1715323368384504450,0.057,,,,7.556507484
1715323368392199654,0.062,,,,7.564202688
1715323368399894858,0.062,,,,7.571897892
1715323368407590062,0.059,,,,7.579593096
1715323368415285266,0.062,,,,7.5872883
1715323368422980470,0.062,,,,7.594983504
1715323368430675674,0.064,,,,7.602678708
1715323368438370878,0.069,,,,7.610373912
1715323368446066082,0.069,,,,7.618069116
1715323368453761286,0.069,,,,7.62576432
1715323368461456490,0.062,,,,7.633459524
1715323368469151694,0.064,,,,7.641154728
1715323368476846898,0.071,,,,7.648849932
1715323368484542102,0.071,,,,7.656545136
1715323368492237306,0.069,,,,7.66424034
1715323368499932510,0.062,,,,7.671935544
1715323368507627714,0.062,,,,7.679630748
1715323368515322918,0.069,,,,7.687325952
1715323368523018122,0.071,,,,7.695021156
1715323368530713326,0.074,,,,7.70271636
1715323368538408530,0.079,,,,7.710411564
1715323368546103734,0.081,,,,7.718106768
1715323368553798938,0.079,,,,7.725801972
1715323368561494142,0.071,,,,7.733497176
1715323368569189346,0.064,,,,7.74119238
1715323368576884550,0.064,,,,7.748887584
1715323368584579754,0.064,,,,7.756582788
1715323368592274958,0.079,,,,7.764277992
1715323368599970162,0.095,,,,7.771973196
1715323368607665366,0.115,,,,7.7796684
1715323368615360570,0.129,,,,7.787363604
1715323368623055774,0.117,,,,7.795058808
1715323368630750978,0.1,,,,7.802754012
1715323368638446182,0.091,,,,7.810449216
1715323368646141386,0.081,,,,7.81814442
1715323368653836590,0.081,,,,7.825839624
1715323368661531794,0.086,,,,7.833534828
1715323368669226998,0.091,,,,7.841230032
1715323368676922202,0.093,,,,7.848925236
1715323368684617406,0.088,,,,7.85662044
1715323368692312630,0.059,88.0,643.0,,7.864315664
1715323368700007416,0.055,,,,7.87201045
1715323368707702202,0.34,,,,7.879705236
1715323368715396988,0.843,,,,7.887400022
1715323368723091774,0.944,,,,7.895094808
1715323368730786560,0.421,,,,7.902789594
1715323368738481346,-0.184,,,,7.91048438
1715323368746176132,-0.297,,,,7.918179166
1715323368753870918,-0.05,,,,7.925873952
1715323368761565704,0.04,,,,7.933568738
1715323368769260490,-0.007,,,,7.941263524
1715323368776955276,0.028,,,,7.94895831
1715323368784650062,0.062,,,,7.956653096
1715323368792344848,0.052,,,,7.964347882
1715323368800039634,0.062,,,,7.972042668
1715323368807734420,0.088,,,,7.979737454
1715323368815429206,0.105,,,,7.98743224
1715323368823123992,0.112,,,,7.995127026
1715323368830818778,0.124,,,,8.002821812
1715323368838513564,0.141,,,,8.010516598
1715323368846208350,0.153,,,,8.018211384
1715323368853903136,0.172,,,,8.02590617
1715323368861597922,0.184,,,,8.033600956
1715323368869292708,0.196,,,,8.041295742
1715323368876987494,0.213,,,,8.048990528
1715323368884682280,0.23,,,,8.056685314
1715323368892377066,0.242,,,,8.0643801
1715323368900071852,0.242,,,,8.072074886
1715323368907766638,0.237,,,,8.079769672
1715323368915461424,0.237,,,,8.087464458
1715323368923156210,0.225,,,,8.095159244
1715323368930850996,0.215,,,,8.10285403
1715323368938545782,0.203,,,,8.110548816
1715323368946240568,0.191,,,,8.118243602
1715323368953935354,0.182,,,,8.125938388
1715323368961630140,0.158,,,,8.133633174
1715323368969324926,0.124,,,,8.14132796
1715323368977019712,0.095,,,,8.149022746
1715323368984714498,0.071,,,,8.156717532
1715323368992409284,0.057,,,,8.164412318
1715323369000104070,0.04,,,,8.172107104
1715323369007798856,0.028,,,,8.17980189
1715323369015493642,0.023,,,,8.187496676
1715323369023188428,0.023,,,,8.195191462
1715323369030883214,0.033,,,,8.202886248
1715323369038578000,0.043,,,,8.210581034
1715323369046272786,0.047,,,,8.21827582
1715323369053967572,0.052,,,,8.225970606
1715323369061662358,0.05,,,,8.233665392
1715323369069357144,0.059,,,,8.241360178
1715323369077051930,0.071,,,,8.249054964
1715323369084746716,0.074,,,,8.25674975
1715323369092441502,0.074,,,,8.264444536
1715323369100136288,0.079,,,,8.272139322
1715323369107831074,0.083,,,,8.279834108
1715323369115525860,0.091,,,,8.287528894
1715323369123220646,0.093,,,,8.29522368
1715323369130915432,0.098,,,,8.302918466
1715323369138610218,0.098,,,,8.310613252
1715323369146305004,0.088,,,,8.318308038
1715323369153999790,0.093,,,,8.326002824
1715323369161694576,0.095,,,,8.33369761
1715323369169389362,0.086,,,,8.341392396
1715323369177084148,0.086,,,,8.349087182
1715323369184778934,0.091,,,,8.356781968
1715323369192473720,0.093,,,,8.364476754
1715323369200168506,0.086,,,,8.37217154
1715323369207863292,0.091,,,,8.379866326
1715323369215558078,0.103,,,,8.387561112
1715323369223252864,0.093,,,,8.395255898
1715323369230947650,0.083,,,,8.402950684
1715323369238642436,0.091,,,,8.41064547
1715323369246337222,0.095,,,,8.418340256
1715323369254032024,0.079,89.0,662.0,,8.426035058
1715323369261727228,0.067,,741.0,,8.433730262
1715323369269422432,0.079,,,,8.441425466
1715323369277117636,0.079,,,,8.44912067
1715323369284812840,0.062,,,,8.456815874
1715323369292508044,0.062,,,,8.464511078
1715323369300203248,0.067,,,,8.472206282
1715323369307898452,0.064,,,,8.479901486
1715323369315593656,0.074,,,,8.48759669
1715323369323288860,0.103,,,,8.495291894
1715323369330984064,0.134,,,,8.502987098
1715323369338679268,0.124,,,,8.510682302
1715323369346374472,0.086,,,,8.518377506
1715323369354069676,0.074,,,,8.52607271
1715323369361764880,0.074,,,,8.533767914
1715323369369460084,0.076,,,,8.541463118
1715323369377155288,0.079,,,,8.549158322
1715323369384850492,0.081,,,,8.556853526
1715323369392545696,0.093,,,,8.56454873
1715323369400240900,0.086,,,,8.572243934
1715323369407936104,0.052,,,,8.579939138
1715323369415631308,0.143,,,,8.587634342
1715323369423326512,0.5630000000000001,,,,8.595329546
1715323369431021716,0.968,,,,8.60302475
1715323369438716920,0.735,,,,8.610719954
1715323369446412124,0.009,,,,8.618415158
1715323369454107328,-0.421,,,,8.626110362
1715323369461802532,-0.244,,,,8.633805566
1715323369469497736,0.035,,,,8.64150077
1715323369477192940,0.071,,,,8.649195974
1715323369484888144,0.062,,,,8.656891178
1715323369492583348,0.115,,,,8.664586382
1715323369500278552,0.129,,,,8.672281586
1715323369507973756,0.127,,,,8.67997679
1715323369515668960,0.146,,,,8.687671994
1715323369523364164,0.16,,,,8.695367198
1715323369531059368,0.17,,,,8.703062402
1715323369538754572,0.179,,,,8.710757606
1715323369546449776,0.186,,,,8.71845281
1715323369554144980,0.203,,,,8.726148014
1715323369561840184,0.213,,,,8.733843218
1715323369569535388,0.227,,,,8.741538422
1715323369577230592,0.242,,,,8.749233626
1715323369584925796,0.256,,,,8.75692883
1715323369592621000,0.273,,,,8.764624034
1715323369600316204,0.278,,,,8.772319238
1715323369608011408,0.28,,,,8.780014442
1715323369615706612,0.28,,,,8.787709646
1715323369623401816,0.278,,,,8.79540485
1715323369631097020,0.268,,,,8.803100054
1715323369638792224,0.254,,,,8.810795258
1715323369646487428,0.237,,,,8.818490462
1715323369654182632,0.22,,,,8.826185666
1715323369661877836,0.196,,,,8.83388087
1715323369669573040,0.172,,,,8.841576074
1715323369677268244,0.143,,,,8.849271278
1715323369684963448,0.107,,,,8.856966482
1715323369692658652,0.081,,,,8.864661686
1715323369700353856,0.057,,,,8.87235689
1715323369708049060,0.04,,,,8.880052094
1715323369715744264,0.031,,,,8.887747298
1715323369723439468,0.021,,,,8.895442502
1715323369731134672,0.019,,,,8.903137706
1715323369738829876,0.021,,,,8.91083291
1715323369746525080,0.023,,,,8.918528114
1715323369754220284,0.026,,,,8.926223318
1715323369761915488,0.021,,,,8.933918522
1715323369769610692,0.023,,,,8.941613726
1715323369777305896,0.035,,,,8.94930893
1715323369785001100,0.043,,,,8.957004134
1715323369792696304,0.045,,,,8.964699338
1715323369800391508,0.052,,,,8.972394542
1715323369808086712,0.062,,,,8.980089746
1715323369815781936,0.067,,,,8.98778497
1715323369823477140,0.071,,,,8.995480174
1715323369831172344,0.076,,,,9.003175378
1715323369838867548,0.071,,,,9.010870582
1715323369846562752,0.059,,,,9.018565786
1715323369854257956,0.059,,,,9.02626099
1715323369861953160,0.064,,,,9.033956194
1715323369869648364,0.064,,,,9.041651398
1715323369877343568,0.059,,,,9.049346602
1715323369885038772,0.059,,,,9.057041806
1715323369892733976,0.064,,,,9.06473701
1715323369900429180,0.057,,,,9.072432214
1715323369908124384,0.057,,,,9.080127418
1715323369915819588,0.062,,,,9.087822622
1715323369923514792,0.059,,,,9.095517826
1715323369931209996,0.059,,,,9.10321303
1715323369938905200,0.059,,,,9.110908234
1715323369946600404,0.062,,,,9.118603438
1715323369954295608,0.064,,,,9.126298642
1715323369961990812,0.045,,,,9.133993846
1715323369969686016,0.038,,,,9.14168905
1715323369977381220,0.043,,,,9.149384254
1715323369985076424,0.045,,,,9.157079458
1715323369992771628,0.047,,,,9.164774662
1715323370000466832,0.062,,,,9.172469866
1715323370008162036,0.086,,,,9.18016507
1715323370015857240,0.091,,,,9.187860274
1715323370023552444,0.064,,,,9.195555478
1715323370031247648,0.04,,,,9.203250682
1715323370038942852,0.04,,,,9.210945886
1715323370046638056,0.057,,,,9.21864109
1715323370054333260,0.067,,,,9.226336294
1715323370062028464,0.062,,,,9.234031498
1715323370069723668,0.064,,,,9.241726702
1715323370077418872,0.062,,,,9.249421906
1715323370085114076,0.023,,,,9.25711711
1715323370092809280,0.031,,,,9.264812314
1715323370100504484,0.349,,,,9.272507518
1715323370108199688,0.877,,,,9.280202722
1715323370115894892,0.953,,,,9.287897926
1715323370123590096,0.364,,,,9.29559313
1715323370131285300,-0.242,,,,9.303288334
1715323370138980504,-0.294,,,,9.310983538
1715323370146675708,-0.026,,,,9.318678742
1715323370154370912,0.059,,,,9.326373946
1715323370162066116,0.016,,,,9.33406915
1715323370169761320,0.055,,,,9.341764354
1715323370177456524,0.091,,,,9.349459558
1715323370185151728,0.079,,,,9.357154762
1715323370192846932,0.091,,,,9.364849966
1715323370200542136,0.112,,,,9.37254517
1715323370208237340,0.119,,,,9.380240374
1715323370215932544,0.129,,,,9.387935578
1715323370223627748,0.146,,,,9.395630782
1715323370231322952,0.16,,,,9.403325986
1715323370239018156,0.174,,,,9.41102119
1715323370246713360,0.196,,,,9.418716394
1715323370254408564,0.213,,,,9.426411598
1715323370262103768,0.22,,,,9.434106802
1715323370269798972,0.232,,,,9.441802006
1715323370277494176,0.244,,,,9.44949721
1715323370285189380,0.256,,,,9.457192414
1715323370292884584,0.266,,,,9.464887618
1715323370300579788,0.263,,,,9.472582822
1715323370308274992,0.254,,,,9.480278026
1715323370315970196,0.246,,,,9.48797323
1715323370323665400,0.237,,,,9.495668434
1715323370331360604,0.23,,,,9.503363638
1715323370339055808,0.215,,,,9.511058842
1715323370346751012,0.184,,,,9.518754046
1715323370354446216,0.141,,,,9.52644925
1715323370362141420,0.1,,,,9.534144454
1715323370369836624,0.069,,,,9.541839658
1715323370377531848,0.035,89.0,764.0,,9.549534882
1715323370385226634,0.009,,,,9.557229668
1715323370392921420,0.002,,,,9.564924454
1715323370400616206,-0.007,,,,9.57261924
1715323370408310992,-0.016,,,,9.580314026
1715323370416005778,-0.021,,,,9.588008812
1715323370423700564,-0.023,,,,9.595703598
1715323370431395350,-0.014,,,,9.603398384
1715323370439090136,-0.002,,,,9.61109317
1715323370446784922,0.0,,,,9.618787956
1715323370454479708,0.009,,,,9.626482742
1715323370462174494,0.011,,,,9.634177528
1715323370469869280,0.014,,,,9.641872314
1715323370477564066,0.026,,,,9.6495671
1715323370485258852,0.035,,,,9.657261886
1715323370492953638,0.04,,,,9.664956672
1715323370500648424,0.043,,,,9.672651458
1715323370508343210,0.047,,,,9.680346244
1715323370516037996,0.047,,,,9.68804103
1715323370523732782,0.05,,,,9.695735816
1715323370531427568,0.052,,,,9.703430602
1715323370539122354,0.047,,,,9.711125388
1715323370546817140,0.045,,,,9.718820174
1715323370554511926,0.045,,,,9.72651496
1715323370562206712,0.035,,,,9.734209746
1715323370569901498,0.043,,,,9.741904532
1715323370577596284,0.05,,,,9.749599318
1715323370585291070,0.045,,,,9.757294104
1715323370592985856,0.045,,,,9.76498889
1715323370600680642,0.047,,,,9.772683676
1715323370608375428,0.043,,,,9.780378462
1715323370616070214,0.026,,,,9.788073248
1715323370623765000,0.016,,,,9.795768034
1715323370631459786,0.021,,,,9.80346282
1715323370639154572,0.021,,,,9.811157606
1715323370646849358,0.023,,,,9.818852392
1715323370654544144,0.047,,,,9.826547178
1715323370662238930,0.071,,,,9.834241964
1715323370669933716,0.062,,,,9.84193675
1715323370677628502,0.028,,,,9.849631536
1715323370685323288,0.019,,,,9.857326322
1715323370693018074,0.035,,,,9.865021108
1715323370700712860,0.033,,,,9.872715894
1715323370708407646,0.019,,,,9.88041068
1715323370716102432,0.026,,,,9.888105466
1715323370723797218,0.038,,,,9.895800252
1715323370731492004,0.028,,,,9.903495038
1715323370739186790,-0.016,,,,9.911189824
1715323370746881576,0.062,,,,9.91888461
1715323370754576362,0.51,,,,9.926579396
1715323370762271148,0.975,,,,9.934274182
1715323370769965934,0.766,,,,9.941968968
1715323370777660720,0.0,,,,9.949663754
1715323370785355506,-0.491,,,,9.95735854
1715323370793050292,-0.325,,,,9.965053326
1715323370800745078,-0.031,,,,9.972748112
1715323370808439864,-0.002,,,,9.980442898
1715323370816134650,-0.014,,,,9.988137684
1715323370823829436,0.04,,,,9.99583247
1715323370831524222,0.059,,,,10.003527256
1715323370839219008,0.057,,,,10.011222042
1715323370846913794,0.081,,,,10.018916828
1715323370854608580,0.095,,,,10.026611614
1715323370862303366,0.093,,,,10.0343064
1715323370869998152,0.107,,,,10.042001186
1715323370877692938,0.124,,,,10.049695972
1715323370885387724,0.131,,,,10.057390758
1715323370893082510,0.148,,,,10.065085544
1715323370900777296,0.162,,,,10.07278033
1715323370908472082,0.177,,,,10.080475116
1715323370916166868,0.194,,,,10.088169902
1715323370923861654,0.203,,,,10.095864688
1715323370931556440,0.218,,,,10.103559474
1715323370939251244,0.234,,,,10.111254278
1715323370946946448,0.23,,,,10.118949482
1715323370954641652,0.218,,,,10.126644686
1715323370962336856,0.208,,,,10.13433989
1715323370970032060,0.203,,,,10.142035094
1715323370977727264,0.191,,,,10.149730298
1715323370985422468,0.17,,,,10.157425502
1715323370993117672,0.148,,,,10.165120706
1715323371000812876,0.11,,,,10.17281591
1715323371008508080,0.064,,,,10.180511114
1715323371016203284,0.023,,,,10.188206318
1715323371023898488,-0.004,,,,10.195901522
1715323371031593692,-0.016,,,,10.203596726
1715323371039288896,-0.033,,,,10.21129193
1715323371046984100,-0.05,,,,10.218987134
1715323371054679304,-0.047,,,,10.226682338
1715323371062374508,-0.043,,,,10.234377542
1715323371070069712,-0.04,,,,10.242072746
1715323371077764916,-0.033,,,,10.24976795
1715323371085460120,-0.023,,,,10.257463154
1715323371093155324,-0.014,,,,10.265158358
1715323371100850528,-0.009,,,,10.272853562
1715323371108545732,-0.007,,,,10.280548766
1715323371116240936,0.002,,,,10.28824397
1715323371123936140,0.009,,,,10.295939174
1715323371131631344,0.021,,,,10.303634378
1715323371139326548,0.028,,,,10.311329582
1715323371147021752,0.035,,,,10.319024786
1715323371154716956,0.04,,,,10.32671999
1715323371162412160,0.038,,,,10.334415194
1715323371170107364,0.045,,,,10.342110398
1715323371177802568,0.052,,,,10.349805602
1715323371185497772,0.043,,,,10.357500806
1715323371193192976,0.04,,,,10.36519601
1715323371200888180,0.045,,,,10.372891214
1715323371208583384,0.035,,,,10.380586418
1715323371216278588,0.028,,,,10.388281622
1715323371223973792,0.026,,,,10.395976826
1715323371231668996,0.031,,,,10.40367203
1715323371239364200,0.033,,,,10.411367234
1715323371247059404,0.033,,,,10.419062438
1715323371254754608,0.028,,,,10.426757642
1715323371262449812,0.019,,,,10.434452846
1715323371270145016,0.007,,,,10.44214805
1715323371277840220,-0.007,,,,10.449843254
1715323371285535424,-0.002,,,,10.457538458
1715323371293230628,0.014,,,,10.465233662
1715323371300925832,0.028,,,,10.472928866
1715323371308621036,0.055,,,,10.48062407
1715323371316316240,0.057,,,,10.488319274
1715323371324011444,0.028,,,,10.496014478
1715323371331706648,0.019,,,,10.503709682
1715323371339401852,0.028,,,,10.511404886
1715323371347097056,0.031,,,,10.51910009
1715323371354792260,0.033,,,,10.526795294
1715323371362487464,0.043,,,,10.534490498
1715323371370182668,0.047,,,,10.542185702
1715323371377877872,0.043,,,,10.549880906
1715323371385573076,-0.004,,,,10.55757611
1715323371393268280,-0.026,,,,10.565271314
1715323371400963484,0.282,,,,10.572966518
1715323371408658688,0.903,,,,10.580661722
1715323371416353892,1.124,,,,10.588356926
1715323371424049096,0.577,,,,10.59605213
1715323371431744300,-0.136,,,,10.603747334
1715323371439439504,-0.285,,,,10.611442538
1715323371447134708,-0.026,,,,10.619137742
1715323371454829912,0.035,,,,10.626832946
1715323371462525116,-0.033,,,,10.63452815
1715323371470220320,0.021,,,,10.642223354
1715323371477915524,0.064,,,,10.649918558
1715323371485610728,0.05,,,,10.657613762
1715323371493305932,0.071,,,,10.665308966
1715323371501001156,0.091,87.0,712.0,,10.67300419
1715323371508696360,0.091,,681.0,,10.680699394
1715323371516391564,0.107,,,,10.688394598
1715323371524086768,0.129,,,,10.696089802
1715323371531781972,0.143,,,,10.703785006
1715323371539477176,0.158,,,,10.71148021
1715323371547172380,0.165,,,,10.719175414
1715323371554867584,0.174,,,,10.726870618
1715323371562562788,0.186,,,,10.734565822
1715323371570257992,0.203,,,,10.742261026
1715323371577953196,0.21,,,,10.74995623
1715323371585648400,0.222,,,,10.757651434
1715323371593343604,0.232,,,,10.765346638
1715323371601038808,0.227,,,,10.773041842
1715323371608734012,0.22,,,,10.780737046
1715323371616429216,0.215,,,,10.78843225
1715323371624124420,0.206,,,,10.796127454
1715323371631819624,0.194,,,,10.803822658
1715323371639514828,0.172,,,,10.811517862
1715323371647210032,0.143,,,,10.819213066
1715323371654905236,0.112,,,,10.82690827
1715323371662600440,0.074,,,,10.834603474
1715323371670295644,0.043,,,,10.842298678
1715323371677990848,0.021,,,,10.849993882
1715323371685686052,0.007,,,,10.857689086
1715323371693381256,0.0,,,,10.86538429
1715323371701076460,-0.014,,,,10.873079494
1715323371708771664,-0.021,,,,10.880774698
1715323371716466868,-0.011,,,,10.888469902
1715323371724162072,0.0,,,,10.896165106
1715323371731857276,0.004,,,,10.90386031
1715323371739552480,0.007,,,,10.911555514
1715323371747247684,0.014,,,,10.919250718
1715323371754942888,0.019,,,,10.926945922
1715323371762638092,0.021,,,,10.934641126
1715323371770333296,0.028,,,,10.94233633
1715323371778028500,0.023,,,,10.950031534
1715323371785723704,0.019,,,,10.957726738
1715323371793418908,0.026,,,,10.965421942
1715323371801114112,0.031,,,,10.973117146
1715323371808809316,0.035,,,,10.98081235
1715323371816504520,0.043,,,,10.988507554
1715323371824199724,0.04,,,,10.996202758
1715323371831894928,0.038,,,,11.003897962
1715323371839590132,0.04,,,,11.011593166
1715323371847285336,0.043,,,,11.01928837
1715323371854980540,0.045,,,,11.026983574
1715323371862675744,0.047,,,,11.034678778
1715323371870370948,0.05,,,,11.042373982
1715323371878066152,0.045,,,,11.050069186
1715323371885761356,0.043,,,,11.05776439
1715323371893456560,0.055,,,,11.065459594
1715323371901151764,0.055,,,,11.073154798
1715323371908846968,0.05,,,,11.080850002
1715323371916542172,0.04,,,,11.088545206
1715323371924237376,0.021,,,,11.09624041
1715323371931932580,0.021,,,,11.103935614
1715323371939627784,0.033,,,,11.111630818
1715323371947322988,0.038,,,,11.119326022
1715323371955018192,0.052,,,,11.127021226
1715323371962713396,0.076,,,,11.13471643
1715323371970408600,0.088,,,,11.142411634
1715323371978103804,0.067,,,,11.150106838
1715323371985799008,0.043,,,,11.157802042
1715323371993494212,0.045,,,,11.165497246
1715323372001189416,0.055,,,,11.17319245
1715323372008884620,0.059,,,,11.180887654
1715323372016579824,0.062,,,,11.188582858
1715323372024275028,0.064,,,,11.196278062
1715323372031970232,0.069,,,,11.203973266
1715323372039665436,0.026,,,,11.21166847
1715323372047360640,-0.023,,,,11.219363674
1715323372055055844,0.227,,,,11.227058878
1715323372062751068,0.8290000000000001,,,,11.234754102
1715323372070445854,1.109,,,,11.242448888
1715323372078140640,0.613,,,,11.250143674
1715323372085835426,-0.112,,,,11.25783846
1715323372093530212,-0.301,,,,11.265533246
1715323372101224998,-0.05,,,,11.273228032
1715323372108919784,0.04,,,,11.280922818
1715323372116614570,-0.021,,,,11.288617604
1715323372124309356,0.011,,,,11.29631239
1715323372132004142,0.047,,,,11.304007176
1715323372139698928,0.033,,,,11.311701962
1715323372147393714,0.052,,,,11.319396748
1715323372155088500,0.083,,,,11.327091534
1715323372162783286,0.086,,,,11.33478632
1715323372170478072,0.103,,,,11.342481106
1715323372178172858,0.124,,,,11.350175892
1715323372185867644,0.127,,,,11.357870678
1715323372193562430,0.139,,,,11.365565464
1715323372201257216,0.16,,,,11.37326025
1715323372208952002,0.174,,,,11.380955036
1715323372216646788,0.189,,,,11.388649822
1715323372224341574,0.206,,,,11.396344608
1715323372232036360,0.22,,,,11.404039394
1715323372239731146,0.225,,,,11.41173418
1715323372247425932,0.23,,,,11.419428966
1715323372255120718,0.237,,,,11.427123752
1715323372262815504,0.23,,,,11.434818538
1715323372270510290,0.218,,,,11.442513324
1715323372278205076,0.206,,,,11.45020811
1715323372285899862,0.182,,,,11.457902896
1715323372293594648,0.158,,,,11.465597682
1715323372301289434,0.136,,,,11.473292468
1715323372308984220,0.11,,,,11.480987254
1715323372316679006,0.074,,,,11.48868204
1715323372324373792,0.043,,,,11.496376826
1715323372332068578,0.021,,,,11.504071612
1715323372339763364,0.002,,,,11.511766398
1715323372347458150,-0.002,,,,11.519461184
1715323372355152936,-0.002,,,,11.52715597
1715323372362847722,-0.009,,,,11.534850756
1715323372370542508,-0.007,,,,11.542545542
1715323372378237294,0.002,,,,11.550240328
1715323372385932080,0.004,,,,11.557935114
1715323372393626866,0.011,,,,11.5656299
1715323372401321652,0.021,,,,11.573324686
1715323372409016438,0.028,,,,11.581019472
1715323372416711224,0.035,,,,11.588714258
1715323372424406010,0.04,,,,11.596409044
1715323372432100796,0.045,,,,11.60410383
1715323372439795582,0.043,,,,11.611798616
1715323372447490368,0.05,,,,11.619493402
1715323372455185154,0.062,,,,11.627188188
1715323372462879940,0.062,,,,11.634882974
1715323372470574726,0.059,,,,11.64257776
1715323372478269512,0.064,,,,11.650272546
1715323372485964298,0.067,,,,11.657967332
1715323372493659084,0.067,,,,11.665662118
1715323372501353870,0.062,,,,11.673356904
1715323372509048656,0.064,,,,11.68105169
1715323372516743442,0.067,,,,11.688746476
1715323372524438228,0.064,,,,11.696441262
1715323372532133014,0.074,,,,11.704136048
1715323372539827800,0.076,,,,11.711830834
1715323372547522586,0.071,,,,11.71952562
1715323372555217372,0.074,,,,11.727220406
1715323372562912158,0.076,,,,11.734915192
1715323372570606944,0.076,,,,11.742609978
1715323372578301730,0.071,,,,11.750304764
1715323372585996516,0.064,,,,11.75799955
1715323372593691302,0.062,,,,11.765694336
1715323372601386088,0.052,,,,11.773389122
1715323372609080874,0.057,,,,11.781083908
1715323372616775660,0.071,,,,11.788778694
1715323372624470462,0.083,87.0,651.0,,11.796473496
1715323372632165666,0.112,,,,11.8041687
1715323372639860870,0.127,,,,11.811863904
1715323372647556074,0.11,,,,11.819559108
1715323372655251278,0.088,,,,11.827254312
1715323372662946482,0.071,,,,11.834949516
1715323372670641686,0.067,,,,11.84264472
1715323372678336890,0.069,,,,11.850339924
1715323372686032094,0.069,,,,11.858035128
1715323372693727298,0.069,,,,11.865730332
1715323372701422502,0.069,,,,11.873425536
1715323372709117706,0.043,,,,11.88112074
1715323372716812910,-0.016,,,,11.888815944
1715323372724508114,0.131,,,,11.896511148
1715323372732203318,0.673,,,,11.904206352
1715323372739898522,1.076,,,,11.911901556
1715323372747593726,0.764,,,,11.91959676
1715323372755288930,0.047,,,,11.927291964
1715323372762984134,-0.306,,,,11.934987168
1715323372770679338,-0.115,,,,11.942682372
1715323372778374542,0.057,,,,11.950377576
1715323372786069746,0.007,,,,11.95807278
1715323372793764950,0.004,,,,11.965767984
1715323372801460154,0.045,,,,11.973463188
1715323372809155358,0.04,,,,11.981158392
1715323372816850562,0.043,,,,11.988853596
1715323372824545766,0.062,,,,11.9965488
1715323372832240970,0.076,,,,12.004244004
1715323372839936174,0.083,,,,12.011939208
1715323372847631378,0.095,,,,12.019634412
1715323372855326582,0.112,,,,12.027329616
1715323372863021786,0.122,,,,12.03502482
1715323372870716990,0.139,,,,12.042720024
1715323372878412194,0.153,,,,12.050415228
1715323372886107398,0.165,,,,12.058110432
1715323372893802602,0.177,,,,12.065805636
1715323372901497806,0.184,,,,12.07350084
1715323372909193010,0.196,,,,12.081196044
1715323372916888214,0.201,,,,12.088891248
1715323372924583418,0.194,,,,12.096586452
1715323372932278622,0.186,,,,12.104281656
1715323372939973826,0.172,,,,12.11197686
1715323372947669030,0.158,,,,12.119672064
1715323372955364234,0.15,,,,12.127367268
1715323372963059438,0.141,,,,12.135062472
1715323372970754642,0.124,,,,12.142757676
1715323372978449846,0.098,,,,12.15045288
1715323372986145050,0.064,,,,12.158148084
1715323372993840254,0.033,,,,12.165843288
1715323373001535458,0.014,,,,12.173538492
1715323373009230662,0.0,,,,12.181233696
1715323373016925866,-0.019,,,,12.1889289
1715323373024621070,-0.031,,,,12.196624104
1715323373032316274,-0.031,,,,12.204319308
1715323373040011478,-0.035,,,,12.212014512
1715323373047706682,-0.031,,,,12.219709716
1715323373055401886,-0.019,,,,12.22740492
1715323373063097090,-0.011,,,,12.235100124
1715323373070792294,-0.004,,,,12.242795328
1715323373078487498,0.0,,,,12.250490532
1715323373086182702,0.004,,,,12.258185736
1715323373093877906,0.016,,,,12.26588094
1715323373101573110,0.019,,,,12.273576144
1715323373109268314,0.023,,,,12.281271348
1715323373116963518,0.028,,,,12.288966552
1715323373124658722,0.026,,,,12.296661756
1715323373132353926,0.031,,,,12.30435696
1715323373140049130,0.035,,,,12.312052164
1715323373147744334,0.035,,,,12.319747368
1715323373155439538,0.04,,,,12.327442572
1715323373163134742,0.033,,,,12.335137776
1715323373170829946,0.023,,,,12.34283298
1715323373178525150,0.026,,,,12.350528184
1715323373186220374,0.031,88.0,650.0,,12.358223408
1715323373193915578,0.031,,654.0,,12.365918612
1715323373201610782,0.031,,,,12.373613816
1715323373209305986,0.035,,,,12.38130902
1715323373217001190,0.038,,,,12.389004224
1715323373224696394,0.033,,,,12.396699428
1715323373232391598,0.028,,,,12.404394632
1715323373240086802,0.026,,,,12.412089836
1715323373247782006,0.033,,,,12.41978504
1715323373255477210,0.04,,,,12.427480244
1715323373263172414,0.028,,,,12.435175448
1715323373270867618,0.011,,,,12.442870652
1715323373278562822,0.007,,,,12.450565856
1715323373286258026,0.021,,,,12.45826106
1715323373293953230,0.028,,,,12.465956264
1715323373301648434,0.026,,,,12.473651468
1715323373309343638,0.05,,,,12.481346672
1715323373317038842,0.079,,,,12.489041876
1715323373324734046,0.074,,,,12.49673708
1715323373332429250,0.055,,,,12.504432284
1715323373340124454,0.045,,,,12.512127488
1715323373347819658,0.045,,,,12.519822692
1715323373355514862,0.047,,,,12.527517896
1715323373363210066,0.05,,,,12.5352131
1715323373370905270,0.059,,,,12.542908304
1715323373378600474,0.069,,,,12.550603508
1715323373386295678,0.062,,,,12.558298712
1715323373393990882,0.014,,,,12.565993916
1715323373401686086,0.05,,,,12.57368912
1715323373409381290,0.455,,,,12.581384324
1715323373417076494,0.97,,,,12.589079528
1715323373424771698,0.896,,,,12.596774732
1715323373432466902,0.239,,,,12.604469936
1715323373440162106,-0.278,,,,12.61216514
1715323373447857310,-0.225,,,,12.619860344
1715323373455552514,0.011,,,,12.627555548
1715323373463247718,0.033,,,,12.635250752
1715323373470942922,0.009,,,,12.642945956
1715323373478638126,0.057,,,,12.65064116
1715323373486333330,0.071,,,,12.658336364
1715323373494028534,0.064,,,,12.666031568
1715323373501723738,0.088,,,,12.673726772
1715323373509418942,0.105,,,,12.681421976
1715323373517114146,0.107,,,,12.68911718
1715323373524809350,0.117,,,,12.696812384
1715323373532504554,0.131,,,,12.704507588
1715323373540199758,0.136,,,,12.712202792
1715323373547894962,0.15,,,,12.719897996
1715323373555590166,0.17,,,,12.7275932
1715323373563285370,0.177,,,,12.735288404
1715323373570980574,0.191,,,,12.742983608
1715323373578675778,0.206,,,,12.750678812
1715323373586370982,0.208,,,,12.758374016
1715323373594066186,0.213,,,,12.76606922
1715323373601761390,0.218,,,,12.773764424
1715323373609456594,0.22,,,,12.781459628
1715323373617151798,0.21,,,,12.789154832
1715323373624847002,0.196,,,,12.796850036
1715323373632542206,0.184,,,,12.80454524
1715323373640237410,0.177,,,,12.812240444
1715323373647932614,0.165,,,,12.819935648
1715323373655627818,0.146,,,,12.827630852
1715323373663323022,0.117,,,,12.835326056
1715323373671018226,0.091,,,,12.84302126
1715323373678713430,0.062,,,,12.850716464
1715323373686408634,0.038,,,,12.858411668
1715323373694103838,0.026,,,,12.866106872
1715323373701799042,0.014,,,,12.873802076
1715323373709494246,0.004,,,,12.88149728
1715323373717189450,0.0,,,,12.889192484
1715323373724884654,0.004,,,,12.896887688
1715323373732579858,0.019,,,,12.904582892
1715323373740275062,0.023,,,,12.912278096
1715323373747970286,0.026,,,,12.91997332
1715323373755665072,0.035,,,,12.927668106
1715323373763359858,0.038,,,,12.935362892
1715323373771054644,0.035,,,,12.943057678
1715323373778749430,0.035,,,,12.950752464
1715323373786444216,0.04,,,,12.95844725
1715323373794139002,0.045,,,,12.966142036
1715323373801833788,0.04,,,,12.973836822
1715323373809528574,0.045,,,,12.981531608
1715323373817223360,0.045,,,,12.989226394
1715323373824918146,0.038,,,,12.99692118
1715323373832612932,0.043,,,,13.004615966
1715323373840307718,0.045,,,,13.012310752
1715323373848002504,0.045,,,,13.020005538
1715323373855697290,0.047,,,,13.027700324
1715323373863392076,0.043,,,,13.03539511
1715323373871086862,0.045,,,,13.043089896
1715323373878781648,0.052,,,,13.050784682
1715323373886476434,0.055,,,,13.058479468
1715323373894171220,0.052,,,,13.066174254
1715323373901866006,0.045,,,,13.07386904
1715323373909560792,0.045,,,,13.081563826
1715323373917255578,0.047,,,,13.089258612
1715323373924950364,0.05,,,,13.096953398
1715323373932645150,0.055,,,,13.104648184
1715323373940339936,0.052,,,,13.11234297
1715323373948034722,0.052,,,,13.120037756
1715323373955729508,0.052,,,,13.127732542
1715323373963424294,0.04,,,,13.135427328
1715323373971119080,0.035,,,,13.143122114
1715323373978813866,0.043,,,,13.1508169
1715323373986508652,0.052,,,,13.158511686
1715323373994203438,0.069,,,,13.166206472
1715323374001898224,0.095,,,,13.173901258
1715323374009593010,0.112,,,,13.181596044
1715323374017287796,0.093,,,,13.18929083
1715323374024982582,0.074,,,,13.196985616
1715323374032677368,0.081,,,,13.204680402
1715323374040372154,0.083,,,,13.212375188
1715323374048066940,0.081,,,,13.220069974
1715323374055761726,0.093,,,,13.22776476
1715323374063456512,0.1,,,,13.235459546
1715323374071151298,0.095,,,,13.243154332
1715323374078846084,0.064,,,,13.250849118
1715323374086540870,0.074,,,,13.258543904
1715323374094235656,0.373,,,,13.26623869
1715323374101930442,0.886,,,,13.273933476
1715323374109625228,0.949,,,,13.281628262
1715323374117320014,0.313,,,,13.289323048
1715323374125014800,-0.328,,,,13.297017834
1715323374132709586,-0.357,,,,13.30471262
1715323374140404372,-0.045,,,,13.312407406
1715323374148099158,0.086,,,,13.320102192
1715323374155793944,0.064,,,,13.327796978
1715323374163488730,0.081,,,,13.335491764
1715323374171183516,0.105,,,,13.34318655
1715323374178878302,0.105,,,,13.350881336
1715323374186573088,0.129,,,,13.358576122
1715323374194267874,0.153,,,,13.366270908
1715323374201962660,0.146,,,,13.373965694
1715323374209657446,0.153,,,,13.38166048
1715323374217352232,0.172,,,,13.389355266
1715323374225047018,0.179,,,,13.397050052
1715323374232741804,0.191,,,,13.404744838
1715323374240436590,0.208,,,,13.412439624
1715323374248131376,0.222,,,,13.42013441
1715323374255826162,0.242,,,,13.427829196
1715323374263520948,0.254,,,,13.435523982
1715323374271215734,0.256,,,,13.443218768
1715323374278910520,0.258,,,,13.450913554
1715323374286605306,0.268,,,,13.45860834
1715323374294300092,0.268,,,,13.466303126
1715323374301994878,0.254,,,,13.473997912
1715323374309689682,0.237,88.0,671.0,,13.481692716
1715323374317384886,0.218,,,,13.48938792
1715323374325080090,0.203,,,,13.497083124
1715323374332775294,0.201,,,,13.504778328
1715323374340470498,0.191,,,,13.512473532
1715323374348165702,0.158,,,,13.520168736
1715323374355860906,0.093,,,,13.52786394
1715323374363556110,0.047,,,,13.535559144
1715323374371251314,0.033,,,,13.543254348
1715323374378946518,0.016,,,,13.550949552
1715323374386641722,-0.002,,,,13.558644756
1715323374394336926,-0.019,,,,13.56633996
1715323374402032130,-0.038,,,,13.574035164
1715323374409727334,-0.033,,,,13.581730368
1715323374417422538,-0.019,,,,13.589425572
1715323374425117742,-0.016,,,,13.597120776
1715323374432812946,0.0,,,,13.60481598
1715323374440508150,0.014,,,,13.612511184
1715323374448203354,0.023,,,,13.620206388
1715323374455898558,0.04,,,,13.627901592
1715323374463593762,0.038,,,,13.635596796
1715323374471288966,0.028,,,,13.643292
1715323374478984170,0.04,,,,13.650987204
1715323374486679374,0.047,,,,13.658682408
1715323374494374578,0.052,,,,13.666377612
1715323374502069782,0.071,,,,13.674072816
1715323374509764986,0.093,,,,13.68176802
1715323374517460190,0.088,,,,13.689463224
1715323374525155394,0.069,,,,13.697158428
1715323374532850598,0.071,,,,13.704853632
1715323374540545802,0.076,,,,13.712548836
1715323374548241006,0.079,,,,13.72024404
1715323374555936210,0.069,,,,13.727939244
1715323374563631414,0.043,,,,13.735634448
1715323374571326618,0.052,,,,13.743329652
1715323374579021822,0.076,,,,13.751024856
1715323374586717026,0.079,,,,13.75872006
1715323374594412230,0.076,,,,13.766415264
1715323374602107434,0.071,,,,13.774110468
1715323374609802638,0.069,,,,13.781805672
1715323374617497842,0.059,,,,13.789500876
1715323374625193046,0.052,,,,13.79719608
1715323374632888250,0.074,,,,13.804891284
1715323374640583454,0.1,,,,13.812586488
1715323374648278658,0.105,,,,13.820281692
1715323374655973862,0.107,,,,13.827976896
1715323374663669066,0.103,,,,13.8356721
1715323374671364270,0.086,,,,13.843367304
1715323374679059474,0.074,,,,13.851062508
1715323374686754678,0.086,,,,13.858757712
1715323374694449882,0.103,,,,13.866452916
1715323374702145086,0.103,,,,13.87414812
1715323374709840290,0.105,,,,13.881843324
1715323374717535494,0.093,,,,13.889538528
1715323374725230698,0.059,,,,13.897233732
1715323374732925902,0.17,,,,13.904928936
1715323374740621106,0.625,,,,13.91262414
1715323374748316310,1.056,,,,13.920319344
1715323374756011514,0.798,,,,13.928014548
1715323374763706718,0.002,,,,13.935709752
1715323374771401922,-0.44,,,,13.943404956
1715323374779097126,-0.23,,,,13.95110016
1715323374786792330,0.033,,,,13.958795364
1715323374794487534,0.035,,,,13.966490568
1715323374802182738,0.043,,,,13.974185772
1715323374809877942,0.107,,,,13.981880976
1715323374817573146,0.095,,,,13.98957618
1715323374825268350,0.074,,,,13.997271384
1715323374832963554,0.105,,,,14.004966588
1715323374840658758,0.119,,,,14.012661792
1715323374848353962,0.119,,,,14.020356996
1715323374856049166,0.127,,,,14.0280522
1715323374863744370,0.134,,,,14.035747404
1715323374871439594,0.148,,,,14.043442628
1715323374879134589,0.162,,,,14.051137623
1715323374886829584,0.177,,,,14.058832618
1715323374894524579,0.186,,,,14.066527613
1715323374902219574,0.186,,,,14.074222608
1715323374909914569,0.201,,,,14.081917603
1715323374917609564,0.215,,,,14.089612598
1715323374925304559,0.218,,,,14.097307593
1715323374932999554,0.218,,,,14.105002588
1715323374940694549,0.201,,,,14.112697583
1715323374948389544,0.184,,,,14.120392578
1715323374956084539,0.177,,,,14.128087573
1715323374963779534,0.162,,,,14.135782568
1715323374971474529,0.139,,,,14.143477563
1715323374979169524,0.1,,,,14.151172558
1715323374986864519,0.076,,,,14.158867553
1715323374994559514,0.052,,,,14.166562548
1715323375002254509,0.009,,,,14.174257543
1715323375009949504,-0.016,,,,14.181952538
1715323375017644499,-0.028,,,,14.189647533
1715323375025339494,-0.038,,,,14.197342528
1715323375033034489,-0.038,,,,14.205037523
1715323375040729484,-0.045,,,,14.212732518
1715323375048424479,-0.038,,,,14.220427513
1715323375056119474,-0.028,,,,14.228122508
1715323375063814469,-0.031,,,,14.235817503
1715323375071509464,-0.016,,,,14.243512498
1715323375079204459,-0.009,,,,14.251207493
1715323375086899454,-0.002,,,,14.258902488
1715323375094594449,0.007,,,,14.266597483
1715323375102289444,0.009,,,,14.274292478
1715323375109984439,0.023,,,,14.281987473
1715323375117679434,0.033,,,,14.289682468
1715323375125374429,0.031,,,,14.297377463
1715323375133069424,0.035,,,,14.305072458
1715323375140764419,0.031,,,,14.312767453
1715323375148459414,0.031,,,,14.320462448
1715323375156154409,0.035,,,,14.328157443
1715323375163849404,0.028,,,,14.335852438
1715323375171544399,0.033,,,,14.343547433
1715323375179239394,0.033,,,,14.351242428
1715323375186934389,0.028,,,,14.358937423
1715323375194629384,0.028,,,,14.366632418
1715323375202324379,0.023,,,,14.374327413
1715323375210019374,0.028,,,,14.382022408
1715323375217714369,0.028,,,,14.389717403
1715323375225409364,0.019,,,,14.397412398
1715323375233104359,0.016,,,,14.405107393
1715323375240799354,0.002,,,,14.412802388
1715323375248494349,-0.004,,,,14.420497383
1715323375256189344,-0.002,,,,14.428192378
1715323375263884339,-0.002,,,,14.435887373
1715323375271579334,0.021,,,,14.443582368
1715323375279274329,0.045,,,,14.451277363
1715323375286969324,0.062,,,,14.458972358
1715323375294664319,0.062,,,,14.466667353
1715323375302359314,0.031,,,,14.474362348
1715323375310054309,0.019,,,,14.482057343
1715323375317749304,0.026,,,,14.489752338
1715323375325444299,0.021,,,,14.497447333
1715323375333139294,0.023,,,,14.505142328
1715323375340834289,0.031,,,,14.512837323
1715323375348529284,0.043,,,,14.520532318
1715323375356224279,0.028,,,,14.528227313
1715323375363919274,-0.033,,,,14.535922308
1715323375371614269,0.098,,,,14.543617303
1715323375379309264,0.632,,,,14.551312298
1715323375387004259,1.076,,,,14.559007293
1715323375394699254,0.774,,,,14.566702288
1715323375402394249,-0.019,,,,14.574397283
1715323375410089244,-0.419,,,,14.582092278
1715323375417784239,-0.179,,,,14.589787273
1715323375425479234,0.047,,,,14.597482268
1715323375433174248,0.002,89.0,680.0,,14.605177282
1715323375440869243,0.004,,687.0,,14.612872277
1715323375448564238,0.076,,,,14.620567272
1715323375456259233,0.071,,,,14.628262267
1715323375463954228,0.067,,,,14.635957262
1715323375471649223,0.11,,,,14.643652257
1715323375479344218,0.11,,,,14.651347252
1715323375487039213,0.103,,,,14.659042247
1715323375494734208,0.129,,,,14.666737242
1715323375502429203,0.141,,,,14.674432237
1715323375510124198,0.15,,,,14.682127232
1715323375517819193,0.155,,,,14.689822227
1715323375525514188,0.167,,,,14.697517222
1715323375533209183,0.194,,,,14.705212217
1715323375540904178,0.201,,,,14.712907212
1715323375548599173,0.208,,,,14.720602207
1715323375556294168,0.227,,,,14.728297202
1715323375563989163,0.239,,,,14.735992197
1715323375571684158,0.244,,,,14.743687192
1715323375579379153,0.232,,,,14.751382187
1715323375587074148,0.232,,,,14.759077182
1715323375594769143,0.23,,,,14.766772177
1715323375602464138,0.208,,,,14.774467172
1715323375610159133,0.196,,,,14.782162167
1715323375617854128,0.174,,,,14.789857162
1715323375625549123,0.136,,,,14.797552157
1715323375633244118,0.1,,,,14.805247152
1715323375640939113,0.064,,,,14.812942147
1715323375648634108,0.047,,,,14.820637142
1715323375656329103,0.04,,,,14.828332137
1715323375664024098,0.021,,,,14.836027132
1715323375671719093,0.021,,,,14.843722127
1715323375679414088,0.023,,,,14.851417122
1715323375687109083,0.026,,,,14.859112117
1715323375694804078,0.033,,,,14.866807112
1715323375702499073,0.035,,,,14.874502107
1715323375710194068,0.047,,,,14.882197102
1715323375717889063,0.055,,,,14.889892097
1715323375725584058,0.057,,,,14.897587092
1715323375733279053,0.071,,,,14.905282087
1715323375740974048,0.079,,,,14.912977082
1715323375748669043,0.086,,,,14.920672077
1715323375756364038,0.088,,,,14.928367072
1715323375764059033,0.086,,,,14.936062067
1715323375771754028,0.098,,,,14.943757062
1715323375779449023,0.103,,,,14.951452057
1715323375787144018,0.1,,,,14.959147052
1715323375794839013,0.105,,,,14.966842047
1715323375802534008,0.105,,,,14.974537042
1715323375810229003,0.107,,,,14.982232037
1715323375817923998,0.095,,,,14.989927032
1715323375825618993,0.081,,,,14.997622027
1715323375833313988,0.088,,,,15.005317022
1715323375841008983,0.088,,,,15.013012017
1715323375848703978,0.086,,,,15.020707012
1715323375856398973,0.088,,,,15.028402007
1715323375864093968,0.091,,,,15.036097002
1715323375871788963,0.093,,,,15.043791997
1715323375879483958,0.081,,,,15.051486992
1715323375887178953,0.071,,,,15.059181987
1715323375894873948,0.067,,,,15.066876982
1715323375902568943,0.057,,,,15.074571977
1715323375910263938,0.064,,,,15.082266972
1715323375917958933,0.081,,,,15.089961967
1715323375925653928,0.095,,,,15.097656962
1715323375933348923,0.117,,,,15.105351957
1715323375941043918,0.127,,,,15.113046952
1715323375948738913,0.117,,,,15.120741947
1715323375956433908,0.093,,,,15.128436942
1715323375964128903,0.079,,,,15.136131937
1715323375971823898,0.088,,,,15.143826932
1715323375979518893,0.091,,,,15.151521927
1715323375987213888,0.093,,,,15.159216922
1715323375994908900,0.103,,,,15.166911934
1715323376002604104,0.1,,,,15.174607138
1715323376010299308,0.083,,,,15.182302342
1715323376017994512,0.069,,,,15.189997546
1715323376025689716,0.328,,,,15.19769275
1715323376033384920,0.872,,,,15.205387954
1715323376041080124,1.04,,,,15.213083158
1715323376048775328,0.505,,,,15.220778362
1715323376056470532,-0.198,,,,15.228473566
1715323376064165736,-0.371,,,,15.23616877
1715323376071860940,-0.069,,,,15.243863974
1715323376079556144,0.086,,,,15.251559178
1715323376087251348,0.047,,,,15.259254382
1715323376094946552,0.086,,,,15.266949586
1715323376102641756,0.134,,,,15.27464479
1715323376110336960,0.134,,,,15.282339994
1715323376118032164,0.136,,,,15.290035198
1715323376125727368,0.153,,,,15.297730402
1715323376133422572,0.165,,,,15.305425606
1715323376141117776,0.177,,,,15.31312081
1715323376148812980,0.194,,,,15.320816014
1715323376156508184,0.201,,,,15.328511218
1715323376164203388,0.201,,,,15.336206422
1715323376171898592,0.218,,,,15.343901626
1715323376179593796,0.227,,,,15.35159683
1715323376187289000,0.242,,,,15.359292034
1715323376194984204,0.256,,,,15.366987238
1715323376202679408,0.261,,,,15.374682442
1715323376210374612,0.273,,,,15.382377646
1715323376218069816,0.275,,,,15.39007285
1715323376225765020,0.273,,,,15.397768054
1715323376233460224,0.27,,,,15.405463258
1715323376241155428,0.251,,,,15.413158462
1715323376248850632,0.246,,,,15.420853666
1715323376256545836,0.23,,,,15.42854887
1715323376264241040,0.194,,,,15.436244074
1715323376271936244,0.17,,,,15.443939278
1715323376279631448,0.139,,,,15.451634482
1715323376287326652,0.098,,,,15.459329686
1715323376295021856,0.062,,,,15.46702489
1715323376302717060,0.028,,,,15.474720094
1715323376310412264,0.016,,,,15.482415298
1715323376318107468,0.004,,,,15.490110502
1715323376325802672,-0.007,,,,15.497805706
1715323376333497876,-0.016,,,,15.50550091
1715323376341193080,-0.026,,,,15.513196114
1715323376348888284,-0.023,,,,15.520891318
1715323376356583488,-0.021,,,,15.528586522
1715323376364278692,-0.019,,,,15.536281726
1715323376371973896,-0.007,,,,15.54397693
1715323376379669100,-0.002,,,,15.551672134
1715323376387364304,0.004,,,,15.559367338
1715323376395059508,0.016,,,,15.567062542
1715323376402754712,0.014,,,,15.574757746
1715323376410449916,0.028,,,,15.58245295
1715323376418145120,0.04,,,,15.590148154
1715323376425840324,0.04,,,,15.597843358
1715323376433535528,0.05,,,,15.605538562
1715323376441230732,0.045,,,,15.613233766
1715323376448925936,0.05,,,,15.62092897
1715323376456621140,0.05,,,,15.628624174
1715323376464316344,0.043,,,,15.636319378
1715323376472011548,0.05,,,,15.644014582
1715323376479706752,0.045,,,,15.651709786
1715323376487401956,0.04,,,,15.65940499
1715323376495097160,0.043,,,,15.667100194
1715323376502792364,0.035,,,,15.674795398
1715323376510487568,0.045,,,,15.682490602
1715323376518182772,0.05,,,,15.690185806
1715323376525877976,0.043,,,,15.69788101
1715323376533573180,0.043,,,,15.705576214
1715323376541268384,0.04,,,,15.713271418
1715323376548963588,0.038,,,,15.720966622
1715323376556658812,0.033,89.0,644.0,,15.728661846
1715323376564354016,0.028,,,,15.73635705
1715323376572049220,0.043,,,,15.744052254
1715323376579744424,0.057,,,,15.751747458
1715323376587439628,0.069,,,,15.759442662
1715323376595134832,0.081,,,,15.767137866
1715323376602830036,0.069,,,,15.77483307
1715323376610525240,0.055,,,,15.782528274
1715323376618220444,0.038,,,,15.790223478
1715323376625915648,0.028,,,,15.797918682
1715323376633610852,0.031,,,,15.805613886
1715323376641306056,0.035,,,,15.81330909
1715323376649001260,0.043,,,,15.821004294
1715323376656696464,0.035,,,,15.828699498
1715323376664391668,0.026,,,,15.836394702
1715323376672086872,0.011,,,,15.844089906
1715323376679782076,0.112,,,,15.85178511
1715323376687477280,0.544,,,,15.859480314
1715323376695172484,0.958,,,,15.867175518
1715323376702867688,0.738,,,,15.874870722
1715323376710562892,0.035,,,,15.882565926
1715323376718258096,-0.4,,,,15.89026113
1715323376725953300,-0.242,,,,15.897956334
1715323376733648504,0.011,,,,15.905651538
1715323376741343708,0.009,,,,15.913346742
1715323376749038912,0.009,,,,15.921041946
1715323376756734116,0.071,,,,15.92873715
1715323376764429320,0.071,,,,15.936432354
1715323376772124524,0.069,,,,15.944127558
1715323376779819728,0.098,,,,15.951822762
1715323376787514932,0.112,,,,15.959517966
1715323376795210136,0.117,,,,15.96721317
1715323376802905340,0.131,,,,15.974908374
1715323376810600544,0.155,,,,15.982603578
1715323376818295748,0.16,,,,15.990298782
1715323376825990952,0.162,,,,15.997993986
1715323376833686156,0.174,,,,16.00568919
1715323376841381360,0.182,,,,16.013384394
1715323376849076564,0.196,,,,16.021079598
1715323376856771768,0.213,,,,16.028774802
1715323376864466972,0.222,,,,16.036470006
1715323376872162176,0.237,,,,16.04416521
1715323376879857380,0.239,,,,16.051860414
1715323376887552584,0.242,,,,16.059555618
1715323376895247788,0.237,,,,16.067250822
1715323376902942992,0.225,,,,16.074946026
1715323376910638196,0.218,,,,16.08264123
1715323376918333400,0.198,,,,16.090336434
1715323376926028604,0.174,,,,16.098031638
1715323376933723808,0.146,,,,16.105726842
1715323376941419012,0.105,,,,16.113422046
1715323376949114216,0.067,,,,16.12111725
1715323376956809420,0.035,,,,16.128812454
1715323376964504624,0.014,,,,16.136507658
1715323376972199828,0.009,,,,16.144202862
1715323376979895032,0.0,,,,16.151898066
1715323376987590236,-0.011,,,,16.15959327
1715323376995285440,-0.009,,,,16.167288474
1715323377002980644,-0.004,,,,16.174983678
1715323377010675848,0.004,,,,16.182678882
1715323377018371052,0.007,,,,16.190374086
1715323377026066256,0.021,,,,16.19806929
1715323377033761460,0.038,,,,16.205764494
1715323377041456664,0.033,,,,16.213459698
1715323377049151868,0.038,,,,16.221154902
1715323377056847072,0.052,,,,16.228850106
1715323377064542276,0.064,,,,16.23654531
1715323377072237480,0.069,,,,16.244240514
1715323377079932684,0.064,,,,16.251935718
1715323377087627888,0.076,,,,16.259630922
1715323377095323092,0.081,,,,16.267326126
1715323377103018296,0.071,,,,16.27502133
1715323377110713500,0.079,,,,16.282716534
1715323377118408724,0.083,,,,16.290411758
1715323377126103510,0.079,,,,16.298106544
1715323377133798296,0.079,,,,16.30580133
1715323377141493082,0.076,,,,16.313496116
1715323377149187868,0.076,,,,16.321190902
1715323377156882654,0.074,,,,16.328885688
1715323377164577440,0.064,,,,16.336580474
1715323377172272226,0.067,,,,16.34427526
1715323377179967012,0.067,,,,16.351970046
1715323377187661798,0.062,,,,16.359664832
1715323377195356584,0.055,,,,16.367359618
1715323377203051370,0.052,,,,16.375054404
1715323377210746156,0.067,,,,16.38274919
1715323377218440942,0.069,,,,16.390443976
1715323377226135728,0.062,,,,16.398138762
1715323377233830514,0.062,,,,16.405833548
1715323377241525300,0.064,,,,16.413528334
1715323377249220086,0.071,,,,16.42122312
1715323377256914872,0.074,,,,16.428917906
1715323377264609658,0.074,,,,16.436612692
1715323377272304444,0.079,,,,16.444307478
1715323377279999230,0.076,,,,16.452002264
1715323377287694016,0.069,,,,16.45969705
1715323377295388802,0.064,,,,16.467391836
1715323377303083588,0.064,,,,16.475086622
1715323377310778374,0.076,,,,16.482781408
1715323377318473160,0.081,,,,16.490476194
1715323377326167946,0.088,,,,16.49817098
1715323377333862732,0.11,,,,16.505865766
1715323377341557518,0.119,,,,16.513560552
1715323377349252304,0.107,,,,16.521255338
1715323377356947090,0.076,,,,16.528950124
1715323377364641876,0.057,,,,16.53664491
1715323377372336662,0.057,,,,16.544339696
1715323377380031448,0.062,,,,16.552034482
1715323377387726234,0.067,,,,16.559729268
1715323377395421020,0.069,,,,16.567424054
1715323377403115806,0.071,,,,16.57511884
1715323377410810592,0.067,,,,16.582813626
1715323377418505378,0.043,,,,16.590508412
1715323377426200164,0.127,,,,16.598203198
1715323377433894950,0.505,,,,16.605897984
1715323377441589736,0.917,,,,16.61359277
1715323377449284522,0.783,,,,16.621287556
1715323377456979308,0.107,,,,16.628982342
1715323377464674094,-0.405,,,,16.636677128
1715323377472368880,-0.318,,,,16.644371914
1715323377480063666,-0.031,,,,16.6520667
1715323377487758452,0.045,,,,16.659761486
1715323377495453238,0.033,,,,16.667456272
1715323377503148024,0.071,,,,16.675151058
1715323377510842810,0.093,,,,16.682845844
1715323377518537596,0.083,,,,16.69054063
1715323377526232382,0.095,,,,16.698235416
1715323377533927168,0.122,,,,16.705930202
1715323377541621954,0.134,,,,16.713624988
1715323377549316740,0.141,,,,16.721319774
1715323377557011526,0.143,,,,16.72901456
1715323377564706312,0.15,,,,16.736709346
1715323377572401098,0.174,,,,16.744404132
1715323377580095884,0.191,,,,16.752098918
1715323377587790670,0.208,,,,16.759793704
1715323377595485456,0.225,,,,16.76748849
1715323377603180242,0.23,,,,16.775183276
1715323377610875028,0.237,,,,16.782878062
1715323377618569814,0.251,,,,16.790572848
1715323377626264600,0.266,,,,16.798267634
1715323377633959386,0.268,,,,16.80596242
1715323377641654172,0.258,,,,16.813657206
1715323377649348958,0.249,,,,16.821351992
1715323377657043744,0.239,,,,16.829046778
1715323377664738530,0.23,,,,16.836741564
1715323377672433316,0.208,,,,16.84443635
1715323377680128120,0.167,90.0,639.0,,16.852131154
1715323377687823324,0.134,,651.0,,16.859826358
1715323377695518528,0.103,,,,16.867521562
1715323377703213732,0.062,,,,16.875216766
1715323377710908936,0.035,,,,16.88291197
1715323377718604140,0.014,,,,16.890607174
1715323377726299344,-0.002,,,,16.898302378
1715323377733994548,-0.007,,,,16.905997582
1715323377741689752,-0.014,,,,16.913692786
1715323377749384956,-0.016,,,,16.92138799
1715323377757080160,-0.021,,,,16.929083194
1715323377764775364,-0.028,,,,16.936778398
1715323377772470568,-0.033,,,,16.944473602
1715323377780165772,-0.033,,,,16.952168806
1715323377787860976,-0.031,,,,16.95986401
1715323377795556180,-0.028,,,,16.967559214
1715323377803251384,-0.014,,,,16.975254418
1715323377810946588,0.009,,,,16.982949622
1715323377818641792,0.016,,,,16.990644826
1715323377826336996,0.021,,,,16.99834003
1715323377834032200,0.031,,,,17.006035234
1715323377841727404,0.033,,,,17.013730438
1715323377849422608,0.031,,,,17.021425642
1715323377857117812,0.026,,,,17.029120846
1715323377864813016,0.023,,,,17.03681605
1715323377872508220,0.033,,,,17.044511254
1715323377880203424,0.028,,,,17.052206458
1715323377887898628,0.023,,,,17.059901662
1715323377895593832,0.033,,,,17.067596866
1715323377903289036,0.038,,,,17.07529207
1715323377910984240,0.033,,,,17.082987274
1715323377918679444,0.031,,,,17.090682478
1715323377926374648,0.035,,,,17.098377682
1715323377934069852,0.04,,,,17.106072886
1715323377941765056,0.038,,,,17.11376809
1715323377949460260,0.043,,,,17.121463294
1715323377957155464,0.045,,,,17.129158498
1715323377964850668,0.045,,,,17.136853702
1715323377972545872,0.047,,,,17.144548906
1715323377980241076,0.05,,,,17.15224411
1715323377987936280,0.055,,,,17.159939314
1715323377995631484,0.047,,,,17.167634518
1715323378003326688,0.04,,,,17.175329722
1715323378011021892,0.045,,,,17.183024926
1715323378018717096,0.047,,,,17.19072013
1715323378026412300,0.055,,,,17.198415334
1715323378034107504,0.074,,,,17.206110538
1715323378041802708,0.105,,,,17.213805742
1715323378049497912,0.124,,,,17.221500946
1715323378057193116,0.091,,,,17.22919615
1715323378064888320,0.062,,,,17.236891354
1715323378072583524,0.074,,,,17.244586558
1715323378080278728,0.081,,,,17.252281762
1715323378087973932,0.079,,,,17.259976966
1715323378095669136,0.076,,,,17.26767217
1715323378103364340,0.074,,,,17.275367374
1715323378111059544,0.076,,,,17.283062578
1715323378118754748,0.045,,,,17.290757782
1715323378126449952,0.067,,,,17.298452986
1715323378134145156,0.433,,,,17.30614819
1715323378141840360,0.97,,,,17.313843394
1715323378149535564,0.968,,,,17.321538598
1715323378157230768,0.266,,,,17.329233802
1715323378164925972,-0.383,,,,17.336929006
1715323378172621176,-0.361,,,,17.34462421
1715323378180316380,-0.023,,,,17.352319414
1715323378188011584,0.059,,,,17.360014618
1715323378195706788,0.016,,,,17.367709822
1715323378203401992,0.067,,,,17.375405026
1715323378211097196,0.095,,,,17.38310023
1715323378218792400,0.079,,,,17.390795434
1715323378226487604,0.103,,,,17.398490638
1715323378234182808,0.129,,,,17.406185842
1715323378241878032,0.124,90.0,657.0,,17.413881066
1715323378249572818,0.134,,,,17.421575852
1715323378257267604,0.153,,,,17.429270638
1715323378264962390,0.17,,,,17.436965424
1715323378272657176,0.182,,,,17.44466021
1715323378280351962,0.189,,,,17.452354996
1715323378288046748,0.203,,,,17.460049782
1715323378295741534,0.225,,,,17.467744568
1715323378303436320,0.237,,,,17.475439354
1715323378311131106,0.251,,,,17.48313414
1715323378318825892,0.27,,,,17.490828926
1715323378326520678,0.287,,,,17.498523712
1715323378334215464,0.287,,,,17.506218498
1715323378341910250,0.275,,,,17.513913284
1715323378349605036,0.263,,,,17.52160807
1715323378357299822,0.237,,,,17.529302856
1715323378364994608,0.206,,,,17.536997642
1715323378372689394,0.172,,,,17.544692428
1715323378380384180,0.129,,,,17.552387214
1715323378388078966,0.083,,,,17.560082
1715323378395773752,0.031,,,,17.567776786
1715323378403468538,-0.007,,,,17.575471572
1715323378411163324,-0.023,,,,17.583166358
1715323378418858110,-0.045,,,,17.590861144
1715323378426552896,-0.055,,,,17.59855593
1715323378434247682,-0.05,,,,17.606250716
1715323378441942468,-0.055,,,,17.613945502
1715323378449637254,-0.057,,,,17.621640288
1715323378457332040,-0.052,,,,17.629335074
1715323378465026826,-0.045,,,,17.63702986
1715323378472721612,-0.035,,,,17.644724646
1715323378480416398,-0.033,,,,17.652419432
1715323378488111184,-0.023,,,,17.660114218
1715323378495805970,-0.011,,,,17.667809004
1715323378503500756,-0.004,,,,17.67550379
1715323378511195542,0.007,,,,17.683198576
1715323378518890328,0.009,,,,17.690893362
1715323378526585114,0.021,,,,17.698588148
1715323378534279900,0.038,,,,17.706282934
1715323378541974686,0.04,,,,17.71397772
1715323378549669472,0.047,,,,17.721672506
1715323378557364258,0.05,,,,17.729367292
1715323378565059044,0.045,,,,17.737062078
1715323378572753830,0.043,,,,17.744756864
1715323378580448616,0.038,,,,17.75245165
1715323378588143402,0.038,,,,17.760146436
1715323378595838188,0.033,,,,17.767841222
1715323378603532974,0.026,,,,17.775536008
1715323378611227760,0.031,,,,17.783230794
1715323378618922546,0.033,,,,17.79092558
1715323378626617332,0.031,,,,17.798620366
1715323378634312118,0.033,,,,17.806315152
1715323378642006904,0.028,,,,17.814009938
1715323378649701690,0.033,,,,17.821704724
1715323378657396476,0.033,,,,17.82939951
1715323378665091262,0.031,,,,17.837094296
1715323378672786048,0.038,,,,17.844789082
1715323378680480834,0.04,,,,17.852483868
1715323378688175620,0.028,,,,17.860178654
1715323378695870406,0.016,,,,17.86787344
1715323378703565192,0.019,,,,17.875568226
1715323378711259978,0.028,,,,17.883263012
1715323378718954764,0.038,,,,17.890957798
1715323378726649550,0.052,,,,17.898652584
1715323378734344336,0.076,,,,17.90634737
1715323378742039122,0.083,,,,17.914042156
1715323378749733908,0.064,,,,17.921736942
1715323378757428694,0.043,,,,17.929431728
1715323378765123480,0.04,,,,17.937126514
1715323378772818266,0.052,,,,17.9448213
1715323378780513052,0.052,,,,17.952516086
1715323378788207838,0.052,,,,17.960210872
1715323378795902624,0.059,,,,17.967905658
1715323378803597426,0.064,,,,17.97560046
1715323378811292630,0.026,,,,17.983295664
1715323378818987834,-0.019,,,,17.990990868
1715323378826683038,0.249,,,,17.998686072
1715323378834378242,0.867,,,,18.006381276
1715323378842073446,1.159,,,,18.01407648
1715323378849768650,0.668,,,,18.021771684
1715323378857463854,-0.136,,,,18.029466888
1715323378865159058,-0.405,,,,18.037162092
1715323378872854262,-0.119,,,,18.044857296
1715323378880549466,0.007,,,,18.0525525
1715323378888244670,-0.076,,,,18.060247704
1715323378895939874,-0.033,,,,18.067942908
1715323378903635078,0.021,,,,18.075638112
1715323378911330282,0.004,,,,18.083333316
1715323378919025486,0.019,,,,18.09102852
1715323378926720690,0.057,,,,18.098723724
1715323378934415894,0.064,,,,18.106418928
1715323378942111098,0.067,,,,18.114114132
1715323378949806302,0.093,,,,18.121809336
1715323378957501506,0.11,,,,18.12950454
1715323378965196710,0.122,,,,18.137199744
1715323378972891914,0.148,,,,18.144894948
1715323378980587118,0.167,,,,18.152590152
1715323378988282322,0.179,,,,18.160285356
1715323378995977526,0.203,,,,18.16798056
1715323379003672730,0.23,,,,18.175675764
1715323379011367934,0.249,,,,18.183370968
1715323379019063138,0.263,,,,18.191066172
1715323379026758342,0.273,,,,18.198761376
1715323379034453546,0.278,,,,18.20645658
1715323379042148750,0.275,,,,18.214151784
1715323379049843954,0.263,,,,18.221846988
1715323379057539158,0.244,,,,18.229542192
1715323379065234362,0.222,,,,18.237237396
1715323379072929566,0.189,,,,18.2449326
1715323379080624770,0.129,,,,18.252627804
1715323379088319974,0.071,,,,18.260323008
1715323379096015178,0.038,,,,18.268018212
1715323379103710382,0.014,,,,18.275713416
1715323379111405586,-0.014,,,,18.28340862
1715323379119100790,-0.028,,,,18.291103824
1715323379126795994,-0.023,,,,18.298799028
1715323379134491198,-0.014,,,,18.306494232
1715323379142186402,-0.019,,,,18.314189436
1715323379149881606,-0.019,,,,18.32188464
1715323379157576810,-0.011,,,,18.329579844
1715323379165272014,-0.002,,,,18.337275048
1715323379172967218,0.002,,,,18.344970252
1715323379180662422,0.007,,,,18.352665456
1715323379188357626,0.019,,,,18.36036066
1715323379196052830,0.021,,,,18.368055864
1715323379203748034,0.026,,,,18.375751068
1715323379211443238,0.04,,,,18.383446272
1715323379219138442,0.052,,,,18.391141476
1715323379226833646,0.052,,,,18.39883668
1715323379234528850,0.05,,,,18.406531884
1715323379242224054,0.057,,,,18.414227088
1715323379249919258,0.064,,,,18.421922292
1715323379257614462,0.064,,,,18.429617496
1715323379265309666,0.064,,,,18.4373127
1715323379273004870,0.067,,,,18.445007904
1715323379280700074,0.064,,,,18.452703108
1715323379288395278,0.067,,,,18.460398312
1715323379296090482,0.069,,,,18.468093516
1715323379303785686,0.069,,,,18.47578872
1715323379311480890,0.067,,,,18.483483924
1715323379319176094,0.064,,,,18.491179128
1715323379326871298,0.067,,,,18.498874332
1715323379334566502,0.064,,,,18.506569536
1715323379342261706,0.067,,,,18.51426474
1715323379349956910,0.067,,,,18.521959944
1715323379357652114,0.062,,,,18.529655148
1715323379365347338,0.055,90.0,748.0,,18.537350372
1715323379373042472,0.052,,,,18.545045506
1715323379380737606,0.045,,,,18.55274064
1715323379388432740,0.052,,,,18.560435774
1715323379396127874,0.057,,,,18.568130908
1715323379403823008,0.05,,,,18.575826042
1715323379411518142,0.05,,,,18.583521176
1715323379419213276,0.052,,,,18.59121631
1715323379426908410,0.052,,,,18.598911444
1715323379434603544,0.055,,,,18.606606578
1715323379442298678,0.055,,,,18.614301712
1715323379449993812,0.055,,,,18.621996846
1715323379457688946,0.059,,,,18.62969198
1715323379465384080,0.062,,,,18.637387114
1715323379473079214,0.057,,,,18.645082248
1715323379480774348,0.04,,,,18.652777382
1715323379488469482,0.028,,,,18.660472516
1715323379496164616,0.026,,,,18.66816765
1715323379503859750,0.035,,,,18.675862784
1715323379511554884,0.055,,,,18.683557918
1715323379519250018,0.071,,,,18.691253052
1715323379526945152,0.088,,,,18.698948186
1715323379534640286,0.093,,,,18.70664332
1715323379542335420,0.079,,,,18.714338454
1715323379550030554,0.069,,,,18.722033588
1715323379557725688,0.059,,,,18.729728722
1715323379565420822,0.055,,,,18.737423856
1715323379573115956,0.057,,,,18.74511899
1715323379580811090,0.062,,,,18.752814124
1715323379588506224,0.064,,,,18.760509258
1715323379596201358,0.064,,,,18.768204392
1715323379603896492,0.038,,,,18.775899526
1715323379611591626,-0.002,,,,18.78359466
1715323379619286760,0.17,,,,18.791289794
1715323379626981894,0.733,,,,18.798984928
1715323379634677028,1.157,,,,18.806680062
1715323379642372162,0.846,,,,18.814375196
1715323379650067296,0.069,,,,18.82207033
1715323379657762430,-0.337,,,,18.829765464
1715323379665457564,-0.11,,,,18.837460598
1715323379673152698,0.081,,,,18.845155732
1715323379680847832,-0.004,,,,18.852850866
1715323379688542966,0.004,,,,18.860546
1715323379696238100,0.079,,,,18.868241134
1715323379703933234,0.067,,,,18.875936268
1715323379711628368,0.067,,,,18.883631402
1715323379719323502,0.1,,,,18.891326536
1715323379727018636,0.11,,,,18.89902167
1715323379734713770,0.119,,,,18.906716804
1715323379742408904,0.139,,,,18.914411938
1715323379750104038,0.155,,,,18.922107072
1715323379757799172,0.162,,,,18.929802206
1715323379765494306,0.172,,,,18.93749734
1715323379773189440,0.186,,,,18.945192474
1715323379780884574,0.201,,,,18.952887608
1715323379788579708,0.225,,,,18.960582742
1715323379796274842,0.244,,,,18.968277876
1715323379803969976,0.251,,,,18.97597301
1715323379811665110,0.258,,,,18.983668144
1715323379819360244,0.263,,,,18.991363278
1715323379827055378,0.266,,,,18.999058412
1715323379834750512,0.261,,,,19.006753546
1715323379842445646,0.249,,,,19.01444868
1715323379850140780,0.237,,,,19.022143814
1715323379857835914,0.218,,,,19.029838948
1715323379865531048,0.182,,,,19.037534082
1715323379873226182,0.139,,,,19.045229216
1715323379880921316,0.1,,,,19.05292435
1715323379888616450,0.069,,,,19.060619484
1715323379896311584,0.023,,,,19.068314618
1715323379904006718,-0.011,,,,19.076009752
1715323379911701852,-0.021,,,,19.083704886
1715323379919396986,-0.028,,,,19.09140002
1715323379927092162,-0.033,,,,19.099095196
1715323379934787017,-0.023,,,,19.106790051
1715323379942481872,-0.023,,,,19.114484906
1715323379950176727,-0.026,,,,19.122179761
1715323379957871582,-0.023,,,,19.129874616
1715323379965566437,-0.019,,,,19.137569471
1715323379973261292,-0.014,,,,19.145264326
1715323379980956147,-0.014,,,,19.152959181
1715323379988651002,-0.019,,,,19.160654036
1715323379996345857,-0.011,,,,19.168348891
1715323380004040712,0.0,,,,19.176043746
1715323380011735567,0.002,,,,19.183738601
1715323380019430422,0.0,,,,19.191433456
1715323380027125277,0.007,,,,19.199128311
1715323380034820132,0.007,,,,19.206823166
1715323380042514987,0.004,,,,19.214518021
1715323380050209842,0.014,,,,19.222212876
1715323380057904697,0.009,,,,19.229907731
1715323380065599552,0.002,,,,19.237602586
1715323380073294407,0.004,,,,19.245297441
1715323380080989262,0.004,,,,19.252992296
1715323380088684117,0.004,,,,19.260687151
1715323380096378972,0.004,,,,19.268382006
1715323380104073827,0.007,,,,19.276076861
1715323380111768682,0.004,,,,19.283771716
1715323380119463537,-0.002,,,,19.291466571
1715323380127158392,0.002,,,,19.299161426
1715323380134853247,0.002,,,,19.306856281
1715323380142548102,-0.004,,,,19.314551136
1715323380150242957,-0.004,,,,19.322245991
1715323380157937812,0.002,,,,19.329940846
1715323380165632667,0.004,,,,19.337635701
1715323380173327522,0.007,,,,19.345330556
1715323380181022377,0.004,,,,19.353025411
1715323380188717232,0.011,,,,19.360720266
1715323380196412087,0.014,,,,19.368415121
1715323380204106942,0.011,,,,19.376109976
1715323380211801797,0.011,,,,19.383804831
1715323380219496652,0.014,,,,19.391499686
1715323380227191507,0.021,,,,19.399194541
1715323380234886362,0.023,,,,19.406889396
1715323380242581217,0.023,,,,19.414584251
1715323380250276072,0.028,,,,19.422279106
1715323380257970927,0.028,,,,19.429973961
1715323380265665782,0.031,,,,19.437668816
1715323380273360637,0.031,,,,19.445363671
1715323380281055492,0.028,,,,19.453058526
1715323380288750347,0.031,,,,19.460753381
1715323380296445202,0.038,,,,19.468448236
1715323380304140057,0.038,,,,19.476143091
1715323380311834912,0.035,,,,19.483837946
1715323380319529767,0.035,,,,19.491532801
1715323380327224622,0.035,,,,19.499227656
1715323380334919477,0.038,,,,19.506922511
1715323380342614332,0.04,,,,19.514617366
1715323380350309187,0.043,,,,19.522312221
1715323380358004042,0.045,,,,19.530007076
1715323380365698897,0.045,,,,19.537701931
1715323380373393752,0.033,,,,19.545396786
1715323380381088607,0.028,,,,19.553091641
1715323380388783462,0.043,,,,19.560786496
1715323380396478317,0.045,,,,19.568481351
1715323380404173172,0.035,,,,19.576176206
1715323380411868027,0.043,,,,19.583871061
1715323380419562882,0.047,,,,19.591565916
1715323380427257737,0.047,,,,19.599260771
1715323380434952592,0.047,,,,19.606955626
1715323380442647447,0.035,,,,19.614650481
1715323380450342302,0.033,,,,19.622345336
1715323380458037157,0.047,,,,19.630040191
1715323380465732012,0.057,,,,19.637735046
1715323380473426867,0.059,,,,19.645429901
1715323380481121722,0.079,,,,19.653124756
1715323380488816644,0.1,90.0,702.0,,19.660819678
1715323380496511430,0.091,,,,19.668514464
1715323380504206216,0.074,,,,19.67620925
1715323380511901002,0.067,,,,19.683904036
1715323380519595788,0.057,,,,19.691598822
1715323380527290574,0.055,,,,19.699293608
1715323380534985360,0.057,,,,19.706988394
1715323380542680146,0.067,,,,19.71468318
1715323380550374932,0.069,,,,19.722377966
1715323380558069718,0.023,,,,19.730072752
1715323380565764504,0.014,,,,19.737767538
1715323380573459290,0.325,,,,19.745462324
1715323380581154076,0.874,,,,19.75315711
1715323380588848862,1.042,,,,19.760851896
1715323380596543648,0.536,,,,19.768546682
1715323380604238434,-0.143,,,,19.776241468
1715323380611933220,-0.316,,,,19.783936254
1715323380619628006,-0.055,,,,19.79163104
1715323380627322792,0.045,,,,19.799325826
1715323380635017578,-0.023,,,,19.807020612
1715323380642712364,0.004,,,,19.814715398
1715323380650407150,0.05,,,,19.822410184
1715323380658101936,0.038,,,,19.83010497
1715323380665796722,0.052,,,,19.837799756
1715323380673491508,0.081,,,,19.845494542
1715323380681186294,0.086,,,,19.853189328
1715323380688881080,0.091,,,,19.860884114
1715323380696575866,0.103,,,,19.8685789
1715323380704270652,0.119,,,,19.876273686
1715323380711965438,0.131,,,,19.883968472
1715323380719660224,0.146,,,,19.891663258
1715323380727355010,0.162,,,,19.899358044
1715323380735049796,0.174,,,,19.90705283
1715323380742744582,0.184,,,,19.914747616
1715323380750439368,0.201,,,,19.922442402
1715323380758134154,0.213,,,,19.930137188
1715323380765828940,0.22,,,,19.937831974
1715323380773523726,0.222,,,,19.94552676
1715323380781218512,0.218,,,,19.953221546
1715323380788913298,0.208,,,,19.960916332
1715323380796608084,0.191,,,,19.968611118
1715323380804302870,0.17,,,,19.976305904
1715323380811997656,0.158,,,,19.98400069
1715323380819692442,0.139,,,,19.991695476
1715323380827387228,0.117,,,,19.999390262
1715323380835082014,0.091,,,,20.007085048
1715323380842776800,0.057,,,,20.014779834
1715323380850471586,0.026,,,,20.02247462
1715323380858166372,0.007,,,,20.030169406
1715323380865861158,-0.004,,,,20.037864192
1715323380873555944,-0.023,,,,20.045558978
1715323380881250730,-0.04,,,,20.053253764
1715323380888945516,-0.031,,,,20.06094855
1715323380896640302,-0.026,,,,20.068643336
1715323380904335088,-0.023,,,,20.076338122
1715323380912029874,-0.016,,,,20.084032908
1715323380919724660,-0.009,,,,20.091727694
1715323380927419446,-0.002,,,,20.09942248
1715323380935114232,0.007,,,,20.107117266
1715323380942809018,0.011,,,,20.114812052
1715323380950503804,0.019,,,,20.122506838
1715323380958198590,0.026,,,,20.130201624
1715323380965893376,0.035,,,,20.13789641
1715323380973588162,0.038,,,,20.145591196
1715323380981282948,0.04,,,,20.153285982
1715323380988977734,0.047,,,,20.160980768
1715323380996672520,0.052,,,,20.168675554
1715323381004367306,0.055,,,,20.17637034
1715323381012062092,0.062,,,,20.184065126
1715323381019756878,0.062,,,,20.191759912
1715323381027451664,0.062,,,,20.199454698
1715323381035146450,0.059,,,,20.207149484
1715323381042841236,0.057,,,,20.21484427
1715323381050536040,0.057,,,,20.222539074
1715323381058231244,0.052,,,,20.230234278
1715323381065926448,0.05,,,,20.237929482
1715323381073621652,0.057,,,,20.245624686
1715323381081316856,0.059,,,,20.25331989
1715323381089012060,0.062,,,,20.261015094
1715323381096707264,0.064,,,,20.268710298
1715323381104402468,0.064,,,,20.276405502
1715323381112097672,0.062,,,,20.284100706
1715323381119792876,0.057,,,,20.29179591
1715323381127488080,0.055,,,,20.299491114
1715323381135183284,0.057,,,,20.307186318
1715323381142878488,0.059,,,,20.314881522
1715323381150573692,0.064,,,,20.322576726
1715323381158268896,0.062,,,,20.33027193
1715323381165964100,0.064,,,,20.337967134
1715323381173659304,0.071,,,,20.345662338
1715323381181354508,0.071,,,,20.353357542
1715323381189049712,0.074,,,,20.361052746
1715323381196744916,0.076,,,,20.36874795
1715323381204440120,0.074,,,,20.376443154
1715323381212135324,0.074,,,,20.384138358
1715323381219830528,0.079,,,,20.391833562
1715323381227525732,0.086,,,,20.399528766
1715323381235220936,0.086,,,,20.40722397
1715323381242916140,0.081,,,,20.414919174
1715323381250611344,0.081,,,,20.422614378
1715323381258306548,0.086,,,,20.430309582
1715323381266001752,0.091,,,,20.438004786
1715323381273696956,0.091,,,,20.44569999
1715323381281392160,0.088,,,,20.453395194
1715323381289087364,0.088,,,,20.461090398
1715323381296782568,0.069,,,,20.468785602
1715323381304477772,0.052,,,,20.476480806
1715323381312172976,0.069,,,,20.48417601
1715323381319868180,0.083,,,,20.491871214
1715323381327563384,0.088,,,,20.499566418
1715323381335258588,0.105,,,,20.507261622
1715323381342953792,0.127,,,,20.514956826
1715323381350648996,0.129,,,,20.52265203
1715323381358344200,0.105,,,,20.530347234
1715323381366039404,0.086,,,,20.538042438
1715323381373734608,0.076,,,,20.545737642
1715323381381429812,0.071,,,,20.553432846
1715323381389125016,0.076,,,,20.56112805
1715323381396820220,0.081,,,,20.568823254
1715323381404515424,0.083,,,,20.576518458
1715323381412210628,0.076,,,,20.584213662
1715323381419905832,0.05,,,,20.591908866
1715323381427601036,0.184,,,,20.59960407
1715323381435296240,0.627,,,,20.607299274
1715323381442991444,0.956,,,,20.614994478
1715323381450686648,0.683,,,,20.622689682
1715323381458381852,0.028,,,,20.630384886
1715323381466077056,-0.33,,,,20.63808009
1715323381473772260,-0.16,,,,20.645775294
1715323381481467464,0.052,,,,20.653470498
1715323381489162668,0.04,,,,20.661165702
1715323381496857872,0.035,,,,20.668860906
1715323381504553076,0.086,,,,20.67655611
1715323381512248280,0.091,,,,20.684251314
1715323381519943484,0.081,,,,20.691946518
1715323381527638688,0.105,,,,20.699641722
1715323381535333892,0.117,,,,20.707336926
1715323381543029096,0.117,,,,20.71503213
1715323381550724300,0.129,,,,20.722727334
1715323381558419504,0.141,,,,20.730422538
1715323381566114708,0.155,,,,20.738117742
1715323381573809912,0.17,,,,20.745812946
1715323381581505116,0.182,,,,20.75350815
1715323381589200320,0.201,,,,20.761203354
1715323381596895524,0.22,,,,20.768898558
1715323381604590728,0.237,,,,20.776593762
1715323381612285952,0.254,88.0,696.0,,20.784288986
1715323381619980738,0.263,,794.0,,20.791983772
1715323381627675524,0.278,,,,20.799678558
1715323381635370310,0.28,,,,20.807373344
1715323381643065096,0.268,,,,20.81506813
1715323381650759882,0.266,,,,20.822762916
1715323381658454668,0.256,,,,20.830457702
1715323381666149454,0.227,,,,20.838152488
1715323381673844240,0.196,,,,20.845847274
1715323381681539026,0.17,,,,20.85354206
1715323381689233812,0.139,,,,20.861236846
1715323381696928598,0.093,,,,20.868931632
1715323381704623384,0.055,,,,20.876626418
1715323381712318170,0.035,,,,20.884321204
1715323381720012956,0.016,,,,20.89201599
1715323381727707742,0.009,,,,20.899710776
1715323381735402528,0.009,,,,20.907405562
1715323381743097314,0.007,,,,20.915100348
1715323381750792100,0.0,,,,20.922795134
1715323381758486886,-0.007,,,,20.93048992
1715323381766181672,0.004,,,,20.938184706
1715323381773876458,0.016,,,,20.945879492
1715323381781571244,0.014,,,,20.953574278
1715323381789266030,0.019,,,,20.961269064
1715323381796960816,0.026,,,,20.96896385
1715323381804655602,0.031,,,,20.976658636
1715323381812350388,0.035,,,,20.984353422
1715323381820045174,0.038,,,,20.992048208
1715323381827739960,0.045,,,,20.999742994
1715323381835434746,0.057,,,,21.00743778
1715323381843129532,0.062,,,,21.015132566
1715323381850824318,0.059,,,,21.022827352
1715323381858519104,0.059,,,,21.030522138
1715323381866213890,0.067,,,,21.038216924
1715323381873908676,0.064,,,,21.04591171
1715323381881603462,0.052,,,,21.053606496
1715323381889298248,0.052,,,,21.061301282
1715323381896993034,0.055,,,,21.068996068
1715323381904687820,0.052,,,,21.076690854
1715323381912382606,0.057,,,,21.08438564
1715323381920077392,0.064,,,,21.092080426
1715323381927772178,0.067,,,,21.099775212
1715323381935466964,0.064,,,,21.107469998
1715323381943161750,0.059,,,,21.115164784
1715323381950856536,0.069,,,,21.12285957
1715323381958551322,0.074,,,,21.130554356
1715323381966246108,0.074,,,,21.138249142
1715323381973940894,0.079,,,,21.145943928
1715323381981635680,0.083,,,,21.153638714
1715323381989330466,0.083,,,,21.1613335
1715323381997025252,0.081,,,,21.169028286
1715323382004720038,0.088,,,,21.176723072
1715323382012414824,0.095,,,,21.184417858
1715323382020109610,0.095,,,,21.192112644
1715323382027804396,0.095,,,,21.19980743
1715323382035499182,0.091,,,,21.207502216
1715323382043193968,0.083,,,,21.215197002
1715323382050888754,0.079,,,,21.222891788
1715323382058583540,0.074,,,,21.230586574
1715323382066278326,0.076,,,,21.23828136
1715323382073973112,0.081,,,,21.245976146
1715323382081667898,0.083,,,,21.253670932
1715323382089362684,0.107,,,,21.261365718
1715323382097057470,0.136,,,,21.269060504
1715323382104752256,0.136,,,,21.27675529
1715323382112447042,0.112,,,,21.284450076
1715323382120141828,0.095,,,,21.292144862
1715323382127836614,0.093,,,,21.299839648
1715323382135531400,0.086,,,,21.307534434
1715323382143226186,0.081,,,,21.31522922
1715323382150920972,0.091,,,,21.322924006
1715323382158615758,0.095,,,,21.330618792
1715323382166310544,0.083,,,,21.338313578
1715323382174005346,0.033,87.0,951.0,,21.34600838
1715323382181700550,0.083,,,,21.353703584
1715323382189395754,0.527,,,,21.361398788
1715323382197090958,1.047,,,,21.369093992
1715323382204786162,0.898,,,,21.376789196
1715323382212481366,0.136,,,,21.3844844
1715323382220176570,-0.39,,,,21.392179604
1715323382227871774,-0.251,,,,21.399874808
1715323382235566978,0.028,,,,21.407570012
1715323382243262182,0.028,,,,21.415265216
1715323382250957386,0.016,,,,21.42296042
1715323382258652590,0.079,,,,21.430655624
1715323382266347794,0.079,,,,21.438350828
1715323382274042998,0.067,,,,21.446046032
1715323382281738202,0.091,,,,21.453741236
1715323382289433406,0.107,,,,21.46143644
1715323382297128610,0.112,,,,21.469131644
1715323382304823814,0.122,,,,21.476826848
1715323382312519018,0.139,,,,21.484522052
1715323382320214222,0.153,,,,21.492217256
1715323382327909426,0.167,,,,21.49991246
1715323382335604630,0.184,,,,21.507607664
1715323382343299834,0.203,,,,21.515302868
1715323382350995038,0.22,,,,21.522998072
1715323382358690242,0.232,,,,21.530693276
1715323382366385446,0.251,,,,21.53838848
1715323382374080650,0.268,,,,21.546083684
1715323382381775854,0.27,,,,21.553778888
1715323382389471058,0.266,,,,21.561474092
1715323382397166262,0.254,,,,21.569169296
1715323382404861466,0.246,,,,21.5768645
1715323382412556670,0.237,,,,21.584559704
1715323382420251874,0.215,,,,21.592254908
1715323382427947078,0.191,,,,21.599950112
1715323382435642282,0.16,,,,21.607645316
1715323382443337486,0.112,,,,21.61534052
1715323382451032690,0.062,,,,21.623035724
1715323382458727894,0.028,,,,21.630730928
1715323382466423098,0.009,,,,21.638426132
1715323382474118302,-0.004,,,,21.646121336
1715323382481813506,-0.016,,,,21.65381654
1715323382489508710,-0.016,,,,21.661511744
1715323382497203914,-0.023,,,,21.669206948
1715323382504899118,-0.031,,,,21.676902152
1715323382512594322,-0.023,,,,21.684597356
1715323382520289526,-0.014,,,,21.69229256
1715323382527984730,-0.011,,,,21.699987764
1715323382535679934,-0.011,,,,21.707682968
1715323382543375138,0.0,,,,21.715378172
1715323382551070342,0.009,,,,21.723073376
1715323382558765546,0.014,,,,21.73076858
1715323382566460750,0.026,,,,21.738463784
1715323382574155954,0.035,,,,21.746158988
1715323382581851158,0.038,,,,21.753854192
1715323382589546362,0.045,,,,21.761549396
1715323382597241566,0.047,,,,21.7692446
1715323382604936770,0.05,,,,21.776939804
1715323382612631974,0.057,,,,21.784635008
1715323382620327178,0.059,,,,21.792330212
1715323382628022382,0.059,,,,21.800025416
1715323382635717586,0.059,,,,21.80772062
1715323382643412790,0.059,,,,21.815415824
1715323382651107994,0.059,,,,21.823111028
1715323382658803198,0.057,,,,21.830806232
1715323382666498402,0.057,,,,21.838501436
1715323382674193606,0.059,,,,21.84619664
1715323382681888810,0.059,,,,21.853891844
1715323382689584014,0.059,,,,21.861587048
1715323382697279218,0.062,,,,21.869282252
1715323382704974422,0.067,,,,21.876977456
1715323382712669626,0.067,,,,21.88467266
1715323382720364830,0.064,,,,21.892367864
1715323382728060034,0.067,,,,21.900063068
1715323382735755258,0.069,,,,21.907758292
1715323382743450044,0.064,,,,21.915453078
1715323382751144830,0.062,,,,21.923147864
1715323382758839616,0.055,,,,21.93084265
1715323382766534402,0.045,,,,21.938537436
1715323382774229188,0.04,,,,21.946232222
1715323382781923974,0.045,,,,21.953927008
1715323382789618760,0.062,,,,21.961621794
1715323382797313546,0.083,,,,21.96931658
1715323382805008332,0.095,,,,21.977011366
1715323382812703118,0.083,,,,21.984706152
1715323382820397904,0.059,,,,21.992400938
1715323382828092690,0.043,,,,22.000095724
1715323382835787476,0.04,,,,22.00779051
1715323382843482262,0.043,,,,22.015485296
1715323382851177048,0.055,,,,22.023180082
1715323382858871834,0.059,,,,22.030874868
1715323382866566620,0.057,,,,22.038569654
1715323382874261406,0.031,,,,22.04626444
1715323382881956192,-0.019,,,,22.053959226
1715323382889650978,0.139,,,,22.061654012
1715323382897345764,0.683,,,,22.069348798
1715323382905040550,1.061,,,,22.077043584
1715323382912735336,0.685,,,,22.08473837
1715323382920430122,-0.076,,,,22.092433156
1715323382928124908,-0.395,,,,22.100127942
1715323382935819694,-0.143,,,,22.107822728
1715323382943514480,0.035,,,,22.115517514
1715323382951209266,-0.026,,,,22.1232123
1715323382958904052,-0.004,,,,22.130907086
1715323382966598838,0.059,,,,22.138601872
1715323382974293624,0.045,,,,22.146296658
1715323382981988410,0.045,,,,22.153991444
1715323382989683196,0.076,,,,22.16168623
1715323382997377982,0.086,,,,22.169381016
1715323383005072768,0.091,,,,22.177075802
1715323383012767554,0.107,,,,22.184770588
1715323383020462340,0.117,,,,22.192465374
1715323383028157126,0.129,,,,22.20016016
1715323383035851912,0.146,,,,22.207854946
1715323383043546698,0.158,,,,22.215549732
1715323383051241484,0.172,,,,22.223244518
1715323383058936270,0.189,,,,22.230939304
1715323383066631056,0.203,,,,22.23863409
1715323383074325842,0.215,,,,22.246328876
1715323383082020628,0.225,,,,22.254023662
