time,ecg,hr,rr,marker,norm_time
1715323545639811818,0.237,97.0,659.0,,0.0
1715323545647507022,0.237,,641.0,,0.007695204
1715323545655202226,0.237,,,,0.015390408
1715323545662897430,0.234,,,,0.023085612
1715323545670592634,0.225,,,,0.030780816
1715323545678287838,0.21,,,,0.03847602
1715323545685983042,0.194,,,,0.046171224
1715323545693678246,0.186,,,,0.053866428
1715323545701373450,0.177,,,,0.061561632
1715323545709068654,0.15,,,,0.069256836
1715323545716763858,0.124,,,,0.07695204
1715323545724459062,0.095,,,,0.084647244
1715323545732154266,0.059,,,,0.092342448
1715323545739849470,0.031,,,,0.100037652
1715323545747544674,0.009,,,,0.107732856
1715323545755239878,-0.007,,,,0.11542806
1715323545762935082,-0.021,,,,0.123123264
1715323545770630286,-0.028,,,,0.130818468
1715323545778325490,-0.026,,,,0.138513672
1715323545786020694,-0.019,,,,0.146208876
1715323545793715898,-0.016,,,,0.15390408
1715323545801411102,-0.009,,,,0.161599284
1715323545809106306,-0.002,,,,0.169294488
1715323545816801510,0.004,,,,0.176989692
1715323545824496714,0.009,,,,0.184684896
1715323545832191918,0.019,,,,0.1923801
1715323545839887122,0.028,,,,0.200075304
1715323545847582326,0.031,,,,0.207770508
1715323545855277530,0.033,,,,0.215465712
1715323545862972734,0.038,,,,0.223160916
1715323545870667938,0.043,,,,0.23085612
1715323545878363142,0.045,,,,0.238551324
1715323545886058346,0.043,,,,0.246246528
1715323545893753550,0.038,,,,0.253941732
1715323545901448754,0.04,,,,0.261636936
1715323545909143958,0.043,,,,0.26933214
1715323545916839162,0.043,,,,0.277027344
1715323545924534366,0.043,,,,0.284722548
1715323545932229570,0.043,,,,0.292417752
1715323545939924774,0.045,,,,0.300112956
1715323545947619978,0.04,,,,0.30780816
1715323545955315182,0.047,,,,0.315503364
1715323545963010386,0.057,,,,0.323198568
1715323545970705590,0.057,,,,0.330893772
1715323545978400794,0.055,,,,0.338588976
1715323545986095998,0.05,,,,0.34628418
1715323545993791202,0.052,,,,0.353979384
1715323546001486406,0.057,,,,0.361674588
1715323546009181610,0.055,,,,0.369369792
1715323546016876814,0.055,,,,0.377064996
1715323546024572018,0.047,,,,0.3847602
1715323546032267222,0.04,,,,0.392455404
1715323546039962426,0.035,,,,0.400150608
1715323546047657630,0.033,,,,0.407845812
1715323546055352834,0.038,,,,0.415541016
1715323546063048038,0.043,,,,0.42323622
1715323546070743242,0.059,,,,0.430931424
1715323546078438446,0.088,,,,0.438626628
1715323546086133650,0.076,,,,0.446321832
1715323546093828854,0.047,,,,0.454017036
1715323546101524058,0.052,,,,0.46171224
1715323546109219262,0.062,,,,0.469407444
1715323546116914466,0.062,,,,0.477102648
1715323546124609670,0.064,,,,0.484797852
1715323546132304874,0.064,,,,0.492493056
1715323546140000078,0.026,,,,0.50018826
1715323546147695282,0.064,,,,0.507883464
1715323546155390486,0.467,,,,0.515578668
1715323546163085690,0.982,,,,0.523273872
1715323546170780894,0.925,,,,0.530969076
1715323546178476098,0.249,,,,0.53866428
1715323546186171302,-0.313,,,,0.546359484
1715323546193866506,-0.251,,,,0.554054688
1715323546201561732,0.019,96.0,652.0,,0.561749914
1715323546209256518,0.04,,,,0.5694447
1715323546216951304,0.011,,,,0.577139486
1715323546224646090,0.064,,,,0.584834272
1715323546232340876,0.083,,,,0.592529058
1715323546240035662,0.076,,,,0.600223844
1715323546247730448,0.093,,,,0.60791863
1715323546255425234,0.112,,,,0.615613416
1715323546263120020,0.122,,,,0.623308202
1715323546270814806,0.131,,,,0.631002988
1715323546278509592,0.139,,,,0.638697774
1715323546286204378,0.141,,,,0.64639256
1715323546293899164,0.158,,,,0.654087346
1715323546301593950,0.172,,,,0.661782132
1715323546309288736,0.165,,,,0.669476918
1715323546316983522,0.177,,,,0.677171704
1715323546324678308,0.203,,,,0.68486649
1715323546332373094,0.218,,,,0.692561276
1715323546340067880,0.225,,,,0.700256062
1715323546347762666,0.232,,,,0.707950848
1715323546355457452,0.232,,,,0.715645634
1715323546363152238,0.225,,,,0.72334042
1715323546370847024,0.215,,,,0.731035206
1715323546378541810,0.206,,,,0.738729992
1715323546386236596,0.191,,,,0.746424778
1715323546393931382,0.172,,,,0.754119564
1715323546401626168,0.141,,,,0.76181435
1715323546409320954,0.098,,,,0.769509136
1715323546417015740,0.059,,,,0.777203922
1715323546424710526,0.026,,,,0.784898708
1715323546432405312,0.0,,,,0.792593494
1715323546440100098,-0.014,,,,0.80028828
1715323546447794884,-0.023,,,,0.807983066
1715323546455489670,-0.033,,,,0.815677852
1715323546463184456,-0.035,,,,0.823372638
1715323546470879242,-0.031,,,,0.831067424
1715323546478574028,-0.019,,,,0.83876221
1715323546486268814,-0.016,,,,0.846456996
1715323546493963600,-0.011,,,,0.854151782
1715323546501658386,0.004,,,,0.861846568
1715323546509353172,0.021,,,,0.869541354
1715323546517047958,0.028,,,,0.87723614
1715323546524742744,0.031,,,,0.884930926
1715323546532437530,0.035,,,,0.892625712
1715323546540132316,0.035,,,,0.900320498
1715323546547827102,0.021,,,,0.908015284
1715323546555521888,0.021,,,,0.91571007
1715323546563216674,0.033,,,,0.923404856
1715323546570911460,0.035,,,,0.931099642
1715323546578606246,0.028,,,,0.938794428
1715323546586301032,0.023,,,,0.946489214
1715323546593995818,0.028,,,,0.954184
1715323546601690604,0.031,,,,0.961878786
1715323546609385390,0.023,,,,0.969573572
1715323546617080176,0.031,,,,0.977268358
1715323546624774962,0.035,,,,0.984963144
1715323546632469748,0.028,,,,0.99265793
1715323546640164534,0.031,,,,1.000352716
1715323546647859320,0.035,,,,1.008047502
1715323546655554106,0.035,,,,1.015742288
1715323546663248892,0.035,,,,1.023437074
1715323546670943678,0.038,,,,1.03113186
1715323546678638464,0.043,,,,1.038826646
1715323546686333250,0.035,,,,1.046521432
1715323546694028036,0.031,,,,1.054216218
1715323546701722822,0.031,,,,1.061911004
1715323546709417608,0.031,,,,1.06960579
1715323546717112394,0.026,,,,1.077300576
1715323546724807180,0.019,,,,1.084995362
1715323546732501966,0.026,,,,1.092690148
1715323546740196752,0.047,,,,1.100384934
1715323546747891538,0.076,,,,1.10807972
1715323546755586324,0.093,,,,1.115774506
1715323546763281126,0.069,,,,1.123469308
1715323546770976330,0.043,,,,1.131164512
1715323546778671534,0.055,,,,1.138859716
1715323546786366738,0.064,,,,1.14655492
1715323546794061942,0.059,,,,1.154250124
1715323546801757146,0.067,,,,1.161945328
1715323546809452350,0.057,,,,1.169640532
1715323546817147554,0.002,,,,1.177335736
1715323546824842758,0.095,,,,1.18503094
1715323546832537962,0.589,,,,1.192726144
1715323546840233166,1.037,,,,1.200421348
1715323546847928370,0.745,,,,1.208116552
1715323546855623574,-0.035,,,,1.215811756
1715323546863318778,-0.44,,,,1.22350696
1715323546871013982,-0.213,,,,1.231202164
1715323546878709186,0.038,,,,1.238897368
1715323546886404390,0.019,,,,1.246592572
1715323546894099594,0.023,,,,1.254287776
1715323546901794798,0.083,,,,1.26198298
1715323546909490002,0.074,,,,1.269678184
1715323546917185206,0.074,,,,1.277373388
1715323546924880410,0.11,,,,1.285068592
1715323546932575614,0.124,,,,1.292763796
1715323546940270818,0.122,,,,1.300459
1715323546947966022,0.134,,,,1.308154204
1715323546955661226,0.15,,,,1.315849408
1715323546963356430,0.158,,,,1.323544612
1715323546971051634,0.167,,,,1.331239816
1715323546978746838,0.189,,,,1.33893502
1715323546986442042,0.206,,,,1.346630224
1715323546994137246,0.218,,,,1.354325428
1715323547001832450,0.232,,,,1.362020632
1715323547009527654,0.246,,,,1.369715836
1715323547017222858,0.266,,,,1.37741104
1715323547024918062,0.268,,,,1.385106244
1715323547032613266,0.261,,,,1.392801448
1715323547040308470,0.254,,,,1.400496652
1715323547048003674,0.23,,,,1.408191856
1715323547055698878,0.21,,,,1.41588706
1715323547063394082,0.201,,,,1.423582264
1715323547071089286,0.17,,,,1.431277468
1715323547078784490,0.124,,,,1.438972672
1715323547086479694,0.071,,,,1.446667876
1715323547094174898,0.028,,,,1.45436308
1715323547101870102,-0.004,,,,1.462058284
1715323547109565306,-0.026,,,,1.469753488
1715323547117260510,-0.045,,,,1.477448692
1715323547124955714,-0.057,,,,1.485143896
1715323547132650918,-0.064,,,,1.4928391
1715323547140346122,-0.067,,,,1.500534304
1715323547148041326,-0.069,,,,1.508229508
1715323547155736530,-0.057,,,,1.515924712
1715323547163431734,-0.05,,,,1.523619916
1715323547171126938,-0.043,,,,1.53131512
1715323547178822142,-0.033,,,,1.539010324
1715323547186517346,-0.026,,,,1.546705528
1715323547194212550,-0.016,,,,1.554400732
1715323547201907754,-0.004,,,,1.562095936
1715323547209602958,0.0,,,,1.56979114
1715323547217298162,0.009,,,,1.577486344
1715323547224993366,0.014,,,,1.585181548
1715323547232688570,0.016,,,,1.592876752
1715323547240383774,0.016,,,,1.600571956
1715323547248078978,0.019,,,,1.60826716
1715323547255774182,0.026,,,,1.615962364
1715323547263469386,0.023,,,,1.623657568
1715323547271164590,0.019,,,,1.631352772
1715323547278859794,0.021,,,,1.639047976
1715323547286554998,0.016,,,,1.64674318
1715323547294250202,0.011,,,,1.654438384
1715323547301945406,0.011,,,,1.662133588
1715323547309640610,0.016,,,,1.669828792
1715323547317335814,0.019,,,,1.677523996
1715323547325031038,0.016,96.0,669.0,,1.68521922
1715323547332725963,0.019,,,,1.692914145
1715323547340420888,0.023,,,,1.70060907
1715323547348115813,0.023,,,,1.708303995
1715323547355810738,0.028,,,,1.71599892
1715323547363505663,0.028,,,,1.723693845
1715323547371200588,0.028,,,,1.73138877
1715323547378895513,0.035,,,,1.739083695
1715323547386590438,0.031,,,,1.74677862
1715323547394285363,0.016,,,,1.754473545
1715323547401980288,0.009,,,,1.76216847
1715323547409675213,0.007,,,,1.769863395
1715323547417370138,0.002,,,,1.77755832
1715323547425065063,0.004,,,,1.785253245
1715323547432759988,0.019,,,,1.79294817
1715323547440454913,0.035,,,,1.800643095
1715323547448149838,0.059,,,,1.80833802
1715323547455844763,0.074,,,,1.816032945
1715323547463539688,0.047,,,,1.82372787
1715323547471234613,0.023,,,,1.831422795
1715323547478929538,0.035,,,,1.83911772
1715323547486624463,0.045,,,,1.846812645
1715323547494319388,0.047,,,,1.85450757
1715323547502014313,0.055,,,,1.862202495
1715323547509709238,0.045,,,,1.86989742
1715323547517404163,-0.007,,,,1.877592345
1715323547525099088,0.016,,,,1.88528727
1715323547532794013,0.419,,,,1.892982195
1715323547540488938,0.989,,,,1.90067712
1715323547548183863,0.98,,,,1.908372045
1715323547555878788,0.282,,,,1.91606697
1715323547563573713,-0.33,,,,1.923761895
1715323547571268638,-0.287,,,,1.93145682
1715323547578963563,-0.007,,,,1.939151745
1715323547586658488,0.007,,,,1.94684667
1715323547594353413,-0.026,,,,1.954541595
1715323547602048338,0.033,,,,1.96223652
1715323547609743263,0.047,,,,1.969931445
1715323547617438188,0.038,,,,1.97762637
1715323547625133113,0.055,,,,1.985321295
1715323547632828038,0.071,,,,1.99301622
1715323547640522963,0.079,,,,2.000711145
1715323547648217888,0.093,,,,2.00840607
1715323547655912813,0.11,,,,2.016100995
1715323547663607738,0.119,,,,2.02379592
1715323547671302663,0.136,,,,2.031490845
1715323547678997588,0.16,,,,2.03918577
1715323547686692513,0.177,,,,2.046880695
1715323547694387438,0.191,,,,2.05457562
1715323547702082363,0.213,,,,2.062270545
1715323547709777288,0.237,,,,2.06996547
1715323547717472213,0.254,,,,2.077660395
1715323547725167138,0.263,,,,2.08535532
1715323547732862063,0.27,,,,2.093050245
1715323547740556988,0.273,,,,2.10074517
1715323547748251913,0.266,,,,2.108440095
1715323547755946838,0.256,,,,2.11613502
1715323547763641763,0.239,,,,2.123829945
1715323547771336688,0.218,,,,2.13152487
1715323547779031613,0.177,,,,2.139219795
1715323547786726538,0.124,,,,2.14691472
1715323547794421463,0.081,,,,2.154609645
1715323547802116388,0.04,,,,2.16230457
1715323547809811313,0.004,,,,2.169999495
1715323547817506238,-0.009,,,,2.17769442
1715323547825201163,-0.016,,,,2.185389345
1715323547832896088,-0.014,,,,2.19308427
1715323547840591013,-0.016,,,,2.200779195
1715323547848285938,-0.023,,,,2.20847412
1715323547855980863,-0.011,,,,2.216169045
1715323547863675788,0.0,,,,2.22386397
1715323547871370713,0.002,,,,2.231558895
1715323547879065638,0.016,,,,2.23925382
1715323547886760606,0.028,,,,2.246948788
1715323547894455670,0.033,,,,2.254643852
1715323547902150734,0.045,,,,2.262338916
1715323547909845798,0.055,,,,2.27003398
1715323547917540862,0.062,,,,2.277729044
1715323547925235926,0.059,,,,2.285424108
1715323547932930990,0.057,,,,2.293119172
1715323547940626054,0.064,,,,2.300814236
1715323547948321118,0.071,,,,2.3085093
1715323547956016182,0.067,,,,2.316204364
1715323547963711246,0.064,,,,2.323899428
1715323547971406310,0.069,,,,2.331594492
1715323547979101374,0.071,,,,2.339289556
1715323547986796438,0.067,,,,2.34698462
1715323547994491502,0.062,,,,2.354679684
1715323548002186566,0.064,,,,2.362374748
1715323548009881630,0.069,,,,2.370069812
1715323548017576694,0.069,,,,2.377764876
1715323548025271758,0.064,,,,2.38545994
1715323548032966822,0.062,,,,2.393155004
1715323548040661886,0.064,,,,2.400850068
1715323548048356950,0.062,,,,2.408545132
1715323548056052014,0.055,,,,2.416240196
1715323548063747078,0.05,,,,2.42393526
1715323548071442142,0.055,,,,2.431630324
1715323548079137206,0.057,,,,2.439325388
1715323548086832270,0.057,,,,2.447020452
1715323548094527334,0.062,,,,2.454715516
1715323548102222398,0.067,,,,2.46241058
1715323548109917462,0.064,,,,2.470105644
1715323548117612526,0.064,,,,2.477800708
1715323548125307590,0.069,,,,2.485495772
1715323548133002654,0.079,,,,2.493190836
1715323548140697718,0.079,,,,2.5008859
1715323548148392782,0.069,,,,2.508580964
1715323548156087846,0.064,,,,2.516276028
1715323548163782910,0.071,,,,2.523971092
1715323548171477974,0.071,,,,2.531666156
1715323548179173038,0.074,,,,2.53936122
1715323548186868102,0.081,,,,2.547056284
1715323548194563166,0.083,,,,2.554751348
1715323548202258230,0.081,,,,2.562446412
1715323548209953294,0.086,,,,2.570141476
1715323548217648358,0.088,,,,2.57783654
1715323548225343422,0.088,,,,2.585531604
1715323548233038486,0.088,,,,2.593226668
1715323548240733550,0.083,,,,2.600921732
1715323548248428614,0.076,,,,2.608616796
1715323548256123678,0.076,,,,2.61631186
1715323548263818742,0.074,,,,2.624006924
1715323548271513806,0.069,,,,2.631701988
1715323548279208870,0.069,,,,2.639397052
1715323548286903934,0.064,,,,2.647092116
1715323548294598998,0.062,,,,2.65478718
1715323548302294062,0.064,,,,2.662482244
1715323548309989126,0.064,,,,2.670177308
1715323548317684190,0.055,,,,2.677872372
1715323548325379254,0.052,,,,2.685567436
1715323548333074318,0.064,,,,2.6932625
1715323548340769382,0.067,,,,2.700957564
1715323548348464446,0.074,,,,2.708652628
1715323548356159510,0.105,,,,2.716347692
1715323548363854574,0.117,,,,2.724042756
1715323548371549638,0.1,,,,2.73173782
1715323548379244702,0.083,,,,2.739432884
1715323548386939766,0.074,,,,2.747127948
1715323548394634830,0.081,,,,2.754823012
1715323548402329894,0.093,,,,2.762518076
1715323548410024958,0.098,,,,2.77021314
1715323548417720022,0.088,,,,2.777908204
1715323548425415086,0.043,,,,2.785603268
1715323548433110150,0.093,,,,2.793298332
1715323548440805214,0.5,,,,2.800993396
1715323548448500344,1.004,94.0,689.0,,2.808688526
1715323548456195548,0.985,,675.0,,2.81638373
1715323548463890752,0.385,,,,2.824078934
1715323548471585956,-0.174,,,,2.831774138
1715323548479281160,-0.182,,,,2.839469342
1715323548486976364,0.05,,,,2.847164546
1715323548494671568,0.057,,,,2.85485975
1715323548502366772,0.004,,,,2.862554954
1715323548510061976,0.055,,,,2.870250158
1715323548517757180,0.071,,,,2.877945362
1715323548525452384,0.05,,,,2.885640566
1715323548533147588,0.064,,,,2.89333577
1715323548540842792,0.091,,,,2.901030974
1715323548548537996,0.1,,,,2.908726178
1715323548556233200,0.103,,,,2.916421382
1715323548563928404,0.105,,,,2.924116586
1715323548571623608,0.117,,,,2.93181179
1715323548579318812,0.139,,,,2.939506994
1715323548587014016,0.15,,,,2.947202198
1715323548594709220,0.153,,,,2.954897402
1715323548602404424,0.17,,,,2.962592606
1715323548610099628,0.194,,,,2.97028781
1715323548617794832,0.21,,,,2.977983014
1715323548625490036,0.227,,,,2.985678218
1715323548633185240,0.234,,,,2.993373422
1715323548640880444,0.237,,,,3.001068626
1715323548648575648,0.232,,,,3.00876383
1715323548656270852,0.225,,,,3.016459034
1715323548663966056,0.21,,,,3.024154238
1715323548671661260,0.198,,,,3.031849442
1715323548679356464,0.198,,,,3.039544646
1715323548687051668,0.186,,,,3.04723985
1715323548694746872,0.148,,,,3.054935054
1715323548702442076,0.11,,,,3.062630258
1715323548710137280,0.071,,,,3.070325462
1715323548717832484,0.038,,,,3.078020666
1715323548725527688,0.019,,,,3.08571587
1715323548733222892,0.004,,,,3.093411074
1715323548740918096,-0.002,,,,3.101106278
1715323548748613300,-0.007,,,,3.108801482
1715323548756308504,-0.011,,,,3.116496686
1715323548764003708,-0.014,,,,3.12419189
1715323548771698912,-0.019,,,,3.131887094
1715323548779394116,-0.016,,,,3.139582298
1715323548787089320,-0.007,,,,3.147277502
1715323548794784524,-0.016,,,,3.154972706
1715323548802479728,-0.028,,,,3.16266791
1715323548810174932,-0.026,,,,3.170363114
1715323548817870136,-0.021,,,,3.178058318
1715323548825565340,-0.014,,,,3.185753522
1715323548833260544,-0.011,,,,3.193448726
1715323548840955748,-0.019,,,,3.20114393
1715323548848650952,-0.016,,,,3.208839134
1715323548856346156,-0.019,,,,3.216534338
1715323548864041360,-0.026,,,,3.224229542
1715323548871736564,-0.021,,,,3.231924746
1715323548879431768,-0.011,,,,3.23961995
1715323548887126972,-0.026,,,,3.247315154
1715323548894822176,-0.043,,,,3.255010358
1715323548902517380,-0.04,,,,3.262705562
1715323548910212584,-0.035,,,,3.270400766
1715323548917907788,-0.045,,,,3.27809597
1715323548925602992,-0.055,,,,3.285791174
1715323548933298196,-0.05,,,,3.293486378
1715323548940993400,-0.043,,,,3.301181582
1715323548948688604,-0.04,,,,3.308876786
1715323548956383808,-0.043,,,,3.31657199
1715323548964079012,-0.035,,,,3.324267194
1715323548971774216,-0.033,,,,3.331962398
1715323548979469420,-0.033,,,,3.339657602
1715323548987164624,-0.011,,,,3.347352806
1715323548994859828,0.014,,,,3.35504801
1715323549002555032,0.007,,,,3.362743214
1715323549010250256,-0.019,,,,3.370438438
1715323549017945042,-0.016,,,,3.378133224
1715323549025639828,0.004,,,,3.38582801
1715323549033334614,0.014,,,,3.393522796
1715323549041029400,-0.014,,,,3.401217582
1715323549048724186,-0.05,,,,3.408912368
1715323549056418972,-0.028,,,,3.416607154
1715323549064113758,0.004,,,,3.42430194
1715323549071808544,-0.023,,,,3.431996726
1715323549079503330,-0.035,,,,3.439691512
1715323549087198116,0.021,,,,3.447386298
1715323549094892902,0.05,,,,3.455081084
1715323549102587688,0.002,,,,3.46277587
1715323549110282474,-0.019,,,,3.470470656
1715323549117977260,-0.014,,,,3.478165442
1715323549125672046,-0.043,,,,3.485860228
1715323549133366832,-0.062,,,,3.493555014
1715323549141061618,-0.047,,,,3.5012498
1715323549148756404,-0.019,,,,3.508944586
1715323549156451190,0.016,,,,3.516639372
1715323549164145976,0.019,,,,3.524334158
1715323549171840762,-0.021,,,,3.532028944
1715323549179535548,-0.047,,,,3.53972373
1715323549187230334,-0.04,,,,3.547418516
1715323549194925120,-0.031,,,,3.555113302
1715323549202619906,-0.035,,,,3.562808088
1715323549210314692,-0.064,,,,3.570502874
1715323549218009478,-0.143,,,,3.57819766
1715323549225704264,-0.186,,,,3.585892446
1715323549233399050,0.153,,,,3.593587232
1715323549241093836,0.841,,,,3.601282018
1715323549248788622,1.143,,,,3.608976804
1715323549256483408,0.659,,,,3.61667159
1715323549264178194,-0.059,,,,3.624366376
1715323549271872980,-0.285,,,,3.632061162
1715323549279567766,-0.129,,,,3.639755948
1715323549287262552,-0.122,,,,3.647450734
1715323549294957338,-0.191,,,,3.65514552
1715323549302652124,-0.165,,,,3.662840306
1715323549310346910,-0.179,,,,3.670535092
1715323549318041696,-0.17,,,,3.678229878
1715323549325736482,-0.069,,,,3.685924664
1715323549333431268,-0.045,,,,3.69361945
1715323549341126054,-0.083,,,,3.701314236
1715323549348820840,-0.05,,,,3.709009022
1715323549356515626,-0.019,,,,3.716703808
1715323549364210412,-0.035,,,,3.724398594
1715323549371905198,-0.043,,,,3.73209338
1715323549379599984,-0.023,,,,3.739788166
1715323549387294770,0.002,,,,3.747482952
1715323549394989556,0.035,,,,3.755177738
1715323549402684342,0.059,,,,3.762872524
1715323549410379128,0.079,,,,3.77056731
1715323549418073914,0.088,,,,3.778262096
1715323549425768700,0.1,,,,3.785956882
1715323549433463486,0.134,,,,3.793651668
1715323549441158272,0.131,,,,3.801346454
1715323549448853058,0.091,,,,3.80904124
1715323549456547844,0.11,,,,3.816736026
1715323549464242630,0.148,,,,3.824430812
1715323549471937416,0.1,,,,3.832125598
1715323549479632202,0.031,,,,3.839820384
1715323549487326988,0.011,,,,3.84751517
1715323549495021774,-0.007,,,,3.855209956
1715323549502716560,-0.079,,,,3.862904742
1715323549510411346,-0.139,,,,3.870599528
1715323549518106132,-0.122,,,,3.878294314
1715323549525800918,-0.095,,,,3.8859891
1715323549533495704,-0.122,,,,3.893683886
1715323549541190490,-0.143,,,,3.901378672
1715323549548885276,-0.134,,,,3.909073458
1715323549556580062,-0.112,,,,3.916768244
1715323549564274848,-0.091,,,,3.92446303
1715323549571969652,-0.107,93.0,703.0,,3.932157834
1715323549579664856,-0.131,,,,3.939853038
1715323549587360060,-0.083,,,,3.947548242
1715323549595055264,-0.021,,,,3.955243446
1715323549602750468,-0.033,,,,3.96293865
1715323549610445672,-0.059,,,,3.970633854
1715323549618140876,-0.019,,,,3.978329058
1715323549625836080,0.016,,,,3.986024262
1715323549633531284,-0.016,,,,3.993719466
1715323549641226488,-0.033,,,,4.00141467
1715323549648921692,0.028,,,,4.009109874
1715323549656616896,0.079,,,,4.016805078
1715323549664312100,0.062,,,,4.024500282
1715323549672007304,0.04,,,,4.032195486
1715323549679702508,0.038,,,,4.03989069
1715323549687397712,0.031,,,,4.047585894
1715323549695092916,0.04,,,,4.055281098
1715323549702788120,0.081,,,,4.062976302
1715323549710483324,0.079,,,,4.070671506
1715323549718178528,0.052,,,,4.07836671
1715323549725873732,0.091,,,,4.086061914
1715323549733568936,0.143,,,,4.093757118
1715323549741264140,0.136,,,,4.101452322
1715323549748959344,0.131,,,,4.109147526
1715323549756654548,0.177,,,,4.11684273
1715323549764349752,0.201,,,,4.124537934
1715323549772044956,0.198,,,,4.132233138
1715323549779740160,0.239,,,,4.139928342
1715323549787435364,0.275,,,,4.147623546
1715323549795130568,0.282,,,,4.15531875
1715323549802825772,0.345,,,,4.163013954
1715323549810520976,0.426,,,,4.170709158
1715323549818216180,0.402,,,,4.178404362
1715323549825911384,0.371,,,,4.186099566
1715323549833606588,0.421,,,,4.19379477
1715323549841301792,0.45,,,,4.201489974
1715323549848996996,0.474,,,,4.209185178
1715323549856692200,0.517,,,,4.216880382
1715323549864387404,0.517,,,,4.224575586
1715323549872082608,0.541,,,,4.23227079
1715323549879777812,0.611,,,,4.239965994
1715323549887473016,0.623,,,,4.247661198
1715323549895168220,0.587,,,,4.255356402
1715323549902863424,0.599,,,,4.263051606
1715323549910558628,0.639,,,,4.27074681
1715323549918253832,0.644,,,,4.278442014
1715323549925949036,0.659,,,,4.286137218
1715323549933644240,0.663,,,,4.293832422
1715323549941339444,0.532,,,,4.301527626
1715323549949034648,0.5680000000000001,,,,4.30922283
1715323549956729852,1.169,,,,4.316918034
1715323549964425056,1.756,,,,4.324613238
1715323549972120260,1.519,,,,4.332308442
1715323549979815464,0.786,,,,4.340003646
1715323549987510668,0.467,,,,4.34769885
1715323549995205872,0.63,,,,4.355394054
1715323550002901076,0.7020000000000001,,,,4.363089258
1715323550010596280,0.639,,,,4.370784462
1715323550018291484,0.675,,,,4.378479666
1715323550025986688,0.723,,,,4.38617487
1715323550033681892,0.711,,,,4.393870074
1715323550041377096,0.733,,,,4.401565278
1715323550049072300,0.793,,,,4.409260482
1715323550056767504,0.795,,,,4.416955686
1715323550064462708,0.771,,,,4.42465089
1715323550072157912,0.795,,,,4.432346094
1715323550079853116,0.8190000000000001,,,,4.440041298
1715323550087548320,0.8190000000000001,,,,4.447736502
1715323550095243524,0.8290000000000001,,,,4.455431706
1715323550102938728,0.841,,,,4.46312691
1715323550110633932,0.855,,,,4.470822114
1715323550118329136,0.891,,,,4.478517318
1715323550126024340,0.92,,,,4.486212522
1715323550133719564,0.91,,,,4.493907746
1715323550141414768,0.922,,,,4.50160295
1715323550149109972,0.953,,,,4.509298154
1715323550156805176,0.925,,,,4.516993358
1715323550164500380,0.913,,,,4.524688562
1715323550172195584,0.97,,,,4.532383766
1715323550179890788,0.953,,,,4.54007897
1715323550187585992,0.865,,,,4.547774174
1715323550195281196,0.843,,,,4.555469378
1715323550202976400,0.853,,,,4.563164582
1715323550210671604,0.798,,,,4.570859786
1715323550218366808,0.6990000000000001,,,,4.57855499
1715323550226062012,0.644,,,,4.586250194
1715323550233757216,0.671,,,,4.593945398
1715323550241452420,0.683,,,,4.601640602
1715323550249147624,0.632,,,,4.609335806
1715323550256842828,0.615,,,,4.61703101
1715323550264538032,0.611,,,,4.624726214
1715323550272233236,0.596,,,,4.632421418
1715323550279928440,0.627,,,,4.640116622
1715323550287623644,0.644,,,,4.647811826
1715323550295318848,0.625,,,,4.65550703
1715323550303014052,0.577,,,,4.663202234
1715323550310709256,0.579,,,,4.670897438
1715323550318404460,0.673,,,,4.678592642
1715323550326099664,0.663,,,,4.686287846
1715323550333794868,0.5750000000000001,,,,4.69398305
1715323550341490072,0.601,,,,4.701678254
1715323550349185276,0.647,,,,4.709373458
1715323550356880480,0.642,,,,4.717068662
1715323550364575684,0.627,,,,4.724763866
1715323550372270888,0.599,,,,4.73245907
1715323550379966092,0.606,,,,4.740154274
1715323550387661296,0.647,,,,4.747849478
1715323550395356500,0.632,,,,4.755544682
1715323550403051704,0.608,,,,4.763239886
1715323550410746908,0.62,,,,4.77093509
1715323550418442112,0.603,,,,4.778630294
1715323550426137316,0.5680000000000001,,,,4.786325498
1715323550433832520,0.584,,,,4.794020702
1715323550441527724,0.615,,,,4.801715906
1715323550449222928,0.599,,,,4.80941111
1715323550456918132,0.611,,,,4.817106314
1715323550464613336,0.611,,,,4.824801518
1715323550472308540,0.548,,,,4.832496722
1715323550480003744,0.532,,,,4.840191926
1715323550487698948,0.546,,,,4.84788713
1715323550495394152,0.532,,,,4.855582334
1715323550503089356,0.527,,,,4.863277538
1715323550510784560,0.541,,,,4.870972742
1715323550518479764,0.532,,,,4.878667946
1715323550526174968,0.491,,,,4.88636315
1715323550533870172,0.541,,,,4.894058354
1715323550541565376,0.644,,,,4.901753558
1715323550549260580,0.589,,,,4.909448762
1715323550556955784,0.481,,,,4.917143966
1715323550564650988,0.505,,,,4.92483917
1715323550572346192,0.541,,,,4.932534374
1715323550580041396,0.534,,,,4.940229578
1715323550587736600,0.556,,,,4.947924782
1715323550595431804,0.498,,,,4.955619986
1715323550603127008,0.337,,,,4.96331519
1715323550610822212,0.352,,,,4.971010394
1715323550618517416,0.79,,,,4.978705598
1715323550626212620,1.354,,,,4.986400802
1715323550633907824,1.457,,,,4.994096006
1715323550641603028,0.973,,,,5.00179121
1715323550649298232,0.452,,,,5.009486414
1715323550656993436,0.352,,,,5.017181618
1715323550664688640,0.417,,,,5.024876822
1715323550672383844,0.402,,,,5.032572026
1715323550680079048,0.428,,,,5.04026723
1715323550687774252,0.474,,,,5.047962434
1715323550695469476,0.46,92.0,908.0,,5.055657658
1715323550703164262,0.431,,,,5.063352444
1715323550710859048,0.402,,,,5.07104723
1715323550718553834,0.443,,,,5.078742016
1715323550726248620,0.548,,,,5.086436802
1715323550733943406,0.529,,,,5.094131588
1715323550741638192,0.46,,,,5.101826374
1715323550749332978,0.467,,,,5.10952116
1715323550757027764,0.457,,,,5.117215946
1715323550764722550,0.457,,,,5.124910732
1715323550772417336,0.524,,,,5.132605518
1715323550780112122,0.539,,,,5.140300304
1715323550787806908,0.491,,,,5.14799509
1715323550795501694,0.515,,,,5.155689876
1715323550803196480,0.591,,,,5.163384662
1715323550810891266,0.596,,,,5.171079448
1715323550818586052,0.524,,,,5.178774234
1715323550826280838,0.515,,,,5.18646902
1715323550833975624,0.548,,,,5.194163806
1715323550841670410,0.472,,,,5.201858592
1715323550849365196,0.426,,,,5.209553378
1715323550857059982,0.503,,,,5.217248164
1715323550864754768,0.424,,,,5.22494295
1715323550872449554,0.321,,,,5.232637736
1715323550880144340,0.378,,,,5.240332522
1715323550887839126,0.311,,,,5.248027308
1715323550895533912,0.186,,,,5.255722094
1715323550903228698,0.237,,,,5.26341688
1715323550910923484,0.278,,,,5.271111666
1715323550918618270,0.203,,,,5.278806452
1715323550926313056,0.16,,,,5.286501238
1715323550934007842,0.162,,,,5.294196024
1715323550941702628,0.21,,,,5.30189081
1715323550949397414,0.22,,,,5.309585596
1715323550957092200,0.127,,,,5.317280382
1715323550964786986,0.122,,,,5.324975168
1715323550972481772,0.184,,,,5.332669954
1715323550980176558,0.158,,,,5.34036474
1715323550987871344,0.103,,,,5.348059526
1715323550995566130,0.105,,,,5.355754312
1715323551003260916,0.127,,,,5.363449098
1715323551010955702,0.117,,,,5.371143884
1715323551018650488,0.095,,,,5.37883867
1715323551026345274,0.052,,,,5.386533456
1715323551034040060,0.064,,,,5.394228242
1715323551041734846,0.15,,,,5.401923028
1715323551049429632,0.095,,,,5.409617814
1715323551057124418,-0.014,,,,5.4173126
1715323551064819204,0.014,,,,5.425007386
1715323551072513990,0.043,,,,5.432702172
1715323551080208776,0.011,,,,5.440396958
1715323551087903562,-0.004,,,,5.448091744
1715323551095598348,-0.009,,,,5.45578653
1715323551103293134,-0.026,,,,5.463481316
1715323551110987920,-0.05,,,,5.471176102
1715323551118682706,-0.057,,,,5.478870888
1715323551126377492,-0.062,,,,5.486565674
1715323551134072278,-0.076,,,,5.49426046
1715323551141767064,-0.076,,,,5.501955246
1715323551149461850,-0.098,,,,5.509650032
1715323551157156636,-0.141,,,,5.517344818
1715323551164851422,-0.103,,,,5.525039604
1715323551172546208,-0.064,,,,5.53273439
1715323551180240994,-0.155,,,,5.540429176
1715323551187935780,-0.15,,,,5.548123962
1715323551195630566,-0.045,,,,5.555818748
1715323551203325352,-0.079,,,,5.563513534
1715323551211020138,-0.153,,,,5.57120832
1715323551218714924,-0.141,,,,5.578903106
1715323551226409710,-0.139,,,,5.586597892
1715323551234104496,-0.179,,,,5.594292678
1715323551241799282,-0.177,,,,5.601987464
1715323551249494068,-0.136,,,,5.60968225
1715323551257188870,-0.177,86.0,795.0,,5.617377052
1715323551264884213,-0.313,,718.0,,5.625072395
1715323551272579556,-0.299,,,,5.632767738
1715323551280274899,0.189,,,,5.640463081
1715323551287970242,0.8190000000000001,,,,5.648158424
1715323551295665585,0.774,,,,5.655853767
1715323551303360928,0.079,,,,5.66354911
1715323551311056271,-0.405,,,,5.671244453
1715323551318751614,-0.318,,,,5.678939796
1715323551326446957,-0.203,,,,5.686635139
1715323551334142300,-0.254,,,,5.694330482
1715323551341837643,-0.239,,,,5.702025825
1715323551349532986,-0.227,,,,5.709721168
1715323551357228329,-0.213,,,,5.717416511
1715323551364923672,-0.203,,,,5.725111854
1715323551372619015,-0.215,,,,5.732807197
1715323551380314358,-0.155,,,,5.74050254
1715323551388009701,-0.119,,,,5.748197883
1715323551395705044,-0.155,,,,5.755893226
1715323551403400387,-0.107,,,,5.763588569
1715323551411095730,-0.033,,,,5.771283912
1715323551418791073,-0.071,,,,5.778979255
1715323551426486416,-0.079,,,,5.786674598
1715323551434181759,-0.011,,,,5.794369941
1715323551441877102,0.014,,,,5.802065284
1715323551449572445,0.045,,,,5.809760627
1715323551457267788,0.081,,,,5.81745597
1715323551464963131,0.045,,,,5.825151313
1715323551472658474,0.033,,,,5.832846656
1715323551480353817,0.086,,,,5.840541999
1715323551488049160,0.11,,,,5.848237342
1715323551495744503,0.069,,,,5.855932685
1715323551503439846,0.014,,,,5.863628028
1715323551511135189,0.035,,,,5.871323371
1715323551518830532,0.045,,,,5.879018714
1715323551526525875,-0.019,,,,5.886714057
1715323551534221218,-0.059,,,,5.8944094
1715323551541916561,-0.081,,,,5.902104743
1715323551549611904,-0.15,,,,5.909800086
1715323551557307247,-0.22,,,,5.917495429
1715323551565002590,-0.242,,,,5.925190772
1715323551572697933,-0.249,,,,5.932886115
1715323551580393276,-0.227,,,,5.940581458
1715323551588088619,-0.225,,,,5.948276801
1715323551595783962,-0.309,,,,5.955972144
1715323551603479305,-0.333,,,,5.963667487
1715323551611174648,-0.313,,,,5.97136283
1715323551618869991,-0.34,,,,5.979058173
1715323551626565334,-0.306,,,,5.986753516
1715323551634260677,-0.301,,,,5.994448859
1715323551641956020,-0.371,,,,6.002144202
1715323551649651363,-0.373,,,,6.009839545
1715323551657346706,-0.361,,,,6.017534888
1715323551665042049,-0.407,,,,6.025230231
1715323551672737392,-0.39,,,,6.032925574
1715323551680432735,-0.366,,,,6.040620917
1715323551688128078,-0.424,,,,6.04831626
1715323551695823421,-0.443,,,,6.056011603
1715323551703518764,-0.424,,,,6.063706946
1715323551711214107,-0.457,,,,6.071402289
1715323551718909450,-0.481,,,,6.079097632
1715323551726604793,-0.467,,,,6.086792975
1715323551734300136,-0.46,,,,6.094488318
1715323551741995479,-0.479,,,,6.102183661
1715323551749690822,-0.536,,,,6.109879004
1715323551757386165,-0.553,,,,6.117574347
1715323551765081508,-0.496,,,,6.12526969
1715323551772776851,-0.493,,,,6.132965033
1715323551780472194,-0.548,,,,6.140660376
1715323551788167537,-0.5750000000000001,,,,6.148355719
1715323551795862880,-0.579,,,,6.156051062
1715323551803558223,-0.544,,,,6.163746405
1715323551811253566,-0.556,,,,6.171441748
1715323551818948953,-0.611,,,,6.179137135
1715323551826644854,-0.556,,,,6.186833036
1715323551834340755,-0.522,,,,6.194528937
1715323551842036656,-0.591,,,,6.202224838
1715323551849732557,-0.534,,,,6.209920739
1715323551857428458,-0.474,,,,6.21761664
1715323551865124359,-0.599,,,,6.225312541
1715323551872820260,-0.637,,,,6.233008442
1715323551880516161,-0.582,,,,6.240704343
1715323551888212062,-0.603,,,,6.248400244
1715323551895907963,-0.577,,,,6.256096145
1715323551903603864,-0.5680000000000001,,,,6.263792046
1715323551911299765,-0.661,,,,6.271487947
1715323551918995666,-0.716,,,,6.279183848
1715323551926691567,-0.515,,,,6.286879749
1715323551934387468,0.033,,,,6.29457565
1715323551942083369,0.402,,,,6.302271551
1715323551949779270,0.045,,,,6.309967452
1715323551957475171,-0.68,,,,6.317663353
1715323551965171072,-0.98,,,,6.325359254
1715323551972866973,-0.735,,,,6.333055155
1715323551980562874,-0.5680000000000001,,,,6.340751056
1715323551988258775,-0.635,,,,6.348446957
1715323551995954676,-0.623,,,,6.356142858
1715323552003650577,-0.548,,,,6.363838759
1715323552011346478,-0.539,,,,6.37153466
1715323552019042379,-0.534,,,,6.379230561
1715323552026738280,-0.541,,,,6.386926462
1715323552034434181,-0.551,,,,6.394622363
1715323552042130082,-0.469,,,,6.402318264
1715323552049825983,-0.407,,,,6.410014165
1715323552057521884,-0.443,,,,6.417710066
1715323552065217785,-0.455,,,,6.425405967
1715323552072913686,-0.407,,,,6.433101868
1715323552080609587,-0.354,,,,6.440797769
1715323552088305488,-0.347,,,,6.44849367
1715323552096001389,-0.376,,,,6.456189571
1715323552103697290,-0.359,,,,6.463885472
1715323552111393191,-0.28,,,,6.471581373
1715323552119089092,-0.273,,,,6.479277274
1715323552126784993,-0.309,,,,6.486973175
1715323552134480894,-0.28,,,,6.494669076
1715323552142176795,-0.275,,,,6.502364977
1715323552149872696,-0.299,,,,6.510060878
1715323552157568597,-0.294,,,,6.517756779
1715323552165264498,-0.294,,,,6.52545268
1715323552172960399,-0.313,,,,6.533148581
1715323552180656300,-0.333,,,,6.540844482
1715323552188352201,-0.373,,,,6.548540383
1715323552196048102,-0.438,,,,6.556236284
1715323552203744003,-0.469,,,,6.563932185
1715323552211439904,-0.462,,,,6.571628086
1715323552219135805,-0.474,,,,6.579323987
1715323552226831706,-0.5,,,,6.587019888
1715323552234527607,-0.517,,,,6.594715789
1715323552242223508,-0.527,,,,6.60241169
1715323552249919409,-0.484,,,,6.610107591
1715323552257615310,-0.455,,,,6.617803492
1715323552265311211,-0.498,,,,6.625499393
1715323552273007112,-0.486,,,,6.633195294
1715323552280703013,-0.462,,,,6.640891195
1715323552288398914,-0.457,,,,6.648587096
1715323552296094815,-0.383,,,,6.656282997
1715323552303790716,-0.354,,,,6.663978898
1715323552311486617,-0.438,,,,6.671674799
1715323552319182518,-0.445,,,,6.6793707
1715323552326878419,-0.354,,,,6.687066601
1715323552334574320,-0.361,,,,6.694762502
1715323552342270221,-0.397,,,,6.702458403
1715323552349966122,-0.352,,,,6.710154304
1715323552357662023,-0.34,,,,6.717850205
1715323552365357924,-0.352,,,,6.725546106
1715323552373053825,-0.347,,,,6.733242007
1715323552380749732,-0.33,85.0,665.0,,6.740937914
1715323552388443682,-0.258,,,,6.748631864
1715323552396137632,-0.249,,,,6.756325814
1715323552403831582,-0.323,,,,6.764019764
1715323552411525532,-0.354,,,,6.771713714
1715323552419219482,-0.297,,,,6.779407664
1715323552426913432,-0.186,,,,6.787101614
1715323552434607382,-0.191,,,,6.794795564
1715323552442301332,-0.285,,,,6.802489514
1715323552449995282,-0.266,,,,6.810183464
1715323552457689232,-0.182,,,,6.817877414
1715323552465383182,-0.167,,,,6.825571364
1715323552473077132,-0.17,,,,6.833265314
1715323552480771082,-0.141,,,,6.840959264
1715323552488465032,-0.127,,,,6.848653214
1715323552496158982,-0.129,,,,6.856347164
1715323552503852932,-0.112,,,,6.864041114
1715323552511546882,-0.122,,,,6.871735064
1715323552519240832,-0.148,,,,6.879429014
1715323552526934782,-0.105,,,,6.887122964
1715323552534628732,-0.1,,,,6.894816914
1715323552542322682,-0.22,,,,6.902510864
1715323552550016632,-0.237,,,,6.910204814
1715323552557710582,0.115,,,,6.917898764
1715323552565404532,0.675,,,,6.925592714
1715323552573098482,0.805,,,,6.933286664
1715323552580792432,0.213,,,,6.940980614
1715323552588486382,-0.443,,,,6.948674564
1715323552596180332,-0.486,,,,6.956368514
1715323552603874282,-0.179,,,,6.964062464
1715323552611568232,-0.093,,,,6.971756414
1715323552619262182,-0.179,,,,6.979450364
1715323552626956132,-0.155,,,,6.987144314
1715323552634650082,-0.055,,,,6.994838264
1715323552642344032,-0.023,,,,7.002532214
1715323552650037982,-0.069,,,,7.010226164
1715323552657731932,-0.074,,,,7.017920114
1715323552665425882,-0.028,,,,7.025614064
1715323552673119832,-0.019,,,,7.033308014
1715323552680813782,-0.026,,,,7.041001964
1715323552688507732,0.009,,,,7.048695914
1715323552696201682,0.045,,,,7.056389864
1715323552703895632,0.045,,,,7.064083814
1715323552711589582,0.071,,,,7.071777764
1715323552719283532,0.095,,,,7.079471714
1715323552726977482,0.081,,,,7.087165664
1715323552734671432,0.059,,,,7.094859614
1715323552742365382,0.076,,,,7.102553564
1715323552750059332,0.136,,,,7.110247514
1715323552757753282,0.115,,,,7.117941464
1715323552765447232,0.043,,,,7.125635414
1715323552773141182,0.079,,,,7.133329364
1715323552780835132,0.134,,,,7.141023314
1715323552788529082,0.064,,,,7.148717264
1715323552796223032,-0.002,,,,7.156411214
1715323552803916982,0.057,,,,7.164105164
1715323552811610932,0.031,,,,7.171799114
1715323552819304882,-0.105,,,,7.179493064
1715323552826998832,-0.139,,,,7.187187014
1715323552834692782,-0.115,,,,7.194880964
1715323552842386732,-0.112,,,,7.202574914
1715323552850080682,-0.131,,,,7.210268864
1715323552857774632,-0.172,,,,7.217962814
1715323552865468582,-0.146,,,,7.225656764
1715323552873162532,-0.117,,,,7.233350714
1715323552880856482,-0.177,,,,7.241044664
1715323552888550432,-0.201,,,,7.248738614
1715323552896244382,-0.155,,,,7.256432564
1715323552903938332,-0.16,,,,7.264126514
1715323552911632282,-0.177,,,,7.271820464
1715323552919326232,-0.124,,,,7.279514414
1715323552927020182,-0.098,,,,7.287208364
1715323552934714132,-0.127,,,,7.294902314
1715323552942408090,-0.158,,,,7.302596272
1715323552950103851,-0.143,,,,7.310292033
1715323552957799612,-0.088,,,,7.317987794
1715323552965495373,-0.088,,,,7.325683555
1715323552973191134,-0.177,,,,7.333379316
1715323552980886895,-0.191,,,,7.341075077
1715323552988582656,-0.076,,,,7.348770838
1715323552996278417,-0.079,,,,7.356466599
1715323553003974178,-0.213,,,,7.36416236
1715323553011669939,-0.218,,,,7.371858121
1715323553019365700,-0.098,,,,7.379553882
1715323553027061461,-0.069,,,,7.387249643
1715323553034757222,-0.172,,,,7.394945404
1715323553042452983,-0.21,,,,7.402641165
1715323553050148744,-0.177,,,,7.410336926
1715323553057844505,-0.16,,,,7.418032687
1715323553065540266,-0.11,,,,7.425728448
1715323553073236027,-0.143,,,,7.433424209
1715323553080931788,-0.215,,,,7.44111997
1715323553088627549,-0.155,,,,7.448815731
1715323553096323310,-0.103,,,,7.456511492
1715323553104019071,-0.117,,,,7.464207253
1715323553111714832,-0.093,,,,7.471903014
1715323553119410593,-0.103,,,,7.479598775
1715323553127106354,-0.15,,,,7.487294536
1715323553134802115,-0.17,,,,7.494990297
1715323553142497876,-0.172,,,,7.502686058
1715323553150193637,-0.124,,,,7.510381819
1715323553157889398,-0.059,,,,7.51807758
1715323553165585159,-0.162,,,,7.525773341
1715323553173280920,-0.268,,,,7.533469102
1715323553180976681,0.227,,,,7.541164863
1715323553188672442,0.973,,,,7.548860624
1715323553196368203,0.8240000000000001,,,,7.556556385
1715323553204063964,-0.007,,,,7.564252146
1715323553211759725,-0.397,,,,7.571947907
1715323553219455486,-0.234,,,,7.579643668
1715323553227151247,-0.131,,,,7.587339429
1715323553234847008,-0.16,,,,7.59503519
1715323553242542769,-0.091,,,,7.602730951
1715323553250238530,-0.045,,,,7.610426712
1715323553257934291,-0.079,,,,7.618122473
1715323553265630052,-0.043,,,,7.625818234
1715323553273325813,0.004,,,,7.633513995
1715323553281021574,-0.038,,,,7.641209756
1715323553288717335,-0.05,,,,7.648905517
1715323553296413096,0.016,,,,7.656601278
1715323553304108857,0.05,,,,7.664297039
1715323553311804618,0.035,,,,7.6719928
1715323553319500379,0.011,,,,7.679688561
1715323553327196140,0.002,,,,7.687384322
1715323553334891901,0.062,,,,7.695080083
1715323553342587662,0.103,,,,7.702775844
1715323553350283423,0.062,,,,7.710471605
1715323553357979184,0.091,,,,7.718167366
1715323553365674945,0.071,,,,7.725863127
1715323553373370706,-0.033,,,,7.733558888
1715323553381066467,0.026,,,,7.741254649
1715323553388762228,0.143,,,,7.74895041
1715323553396457989,0.093,,,,7.756646171
1715323553404153750,-0.016,,,,7.764341932
1715323553411849511,-0.023,,,,7.772037693
1715323553419545272,0.035,,,,7.779733454
1715323553427241033,0.043,,,,7.787429215
1715323553434936794,-0.035,,,,7.795124976
1715323553442632555,-0.095,,,,7.802820737
1715323553450328316,-0.139,,,,7.810516498
1715323553458024077,-0.198,,,,7.818212259
1715323553465719838,-0.196,,,,7.82590802
1715323553473415599,-0.131,,,,7.833603781
1715323553481111360,-0.112,,,,7.841299542
1715323553488807121,-0.184,,,,7.848995303
1715323553496502882,-0.263,,,,7.856691064
1715323553504198692,-0.194,86.0,659.0,,7.864386874
1715323553511892920,-0.047,,650.0,,7.872081102
1715323553519587148,-0.091,,,,7.87977533
1715323553527281376,-0.208,,,,7.887469558
1715323553534975604,-0.122,,,,7.895163786
1715323553542669832,-0.067,,,,7.902858014
1715323553550364060,-0.191,,,,7.910552242
1715323553558058288,-0.141,,,,7.91824647
1715323553565752516,-0.002,,,,7.925940698
1715323553573446744,-0.095,,,,7.933634926
1715323553581140972,-0.191,,,,7.941329154
1715323553588835200,-0.136,,,,7.949023382
1715323553596529428,-0.112,,,,7.95671761
1715323553604223656,-0.103,,,,7.964411838
1715323553611917884,-0.086,,,,7.972106066
1715323553619612112,-0.107,,,,7.979800294
1715323553627306340,-0.119,,,,7.987494522
1715323553635000568,-0.105,,,,7.99518875
1715323553642694796,-0.103,,,,8.002882978
1715323553650389024,-0.167,,,,8.010577206
1715323553658083252,-0.179,,,,8.018271434
1715323553665777480,-0.091,,,,8.025965662
1715323553673471708,-0.136,,,,8.03365989
1715323553681165936,-0.177,,,,8.041354118
1715323553688860164,-0.026,,,,8.049048346
1715323553696554392,0.004,,,,8.056742574
1715323553704248620,-0.107,,,,8.064436802
1715323553711942848,-0.103,,,,8.07213103
1715323553719637076,-0.11,,,,8.079825258
1715323553727331304,-0.165,,,,8.087519486
1715323553735025532,-0.069,,,,8.095213714
1715323553742719760,0.011,,,,8.102907942
1715323553750413988,-0.043,,,,8.11060217
1715323553758108216,-0.095,,,,8.118296398
1715323553765802444,-0.112,,,,8.125990626
1715323553773496672,-0.055,,,,8.133684854
1715323553781190900,-0.064,,,,8.141379082
1715323553788885128,0.055,,,,8.14907331
1715323553796579356,0.661,,,,8.156767538
1715323553804273584,1.006,,,,8.164461766
1715323553811967812,0.381,,,,8.172155994
1715323553819662040,-0.361,,,,8.179850222
1715323553827356268,-0.335,,,,8.18754445
1715323553835050496,-0.052,,,,8.195238678
1715323553842744724,-0.067,,,,8.202932906
1715323553850438952,-0.069,,,,8.210627134
1715323553858133180,0.011,,,,8.218321362
1715323553865827408,-0.035,,,,8.22601559
1715323553873521636,-0.055,,,,8.233709818
1715323553881215864,0.026,,,,8.241404046
1715323553888910092,0.045,,,,8.249098274
1715323553896604320,0.021,,,,8.256792502
1715323553904298548,0.026,,,,8.26448673
1715323553911992776,0.059,,,,8.272180958
1715323553919687004,0.052,,,,8.279875186
1715323553927381232,0.079,,,,8.287569414
1715323553935075460,0.16,,,,8.295263642
1715323553942769688,0.122,,,,8.30295787
1715323553950463916,0.069,,,,8.310652098
1715323553958158144,0.117,,,,8.318346326
1715323553965852372,0.141,,,,8.326040554
1715323553973546600,0.119,,,,8.333734782
1715323553981240828,0.136,,,,8.34142901
1715323553988935056,0.198,,,,8.349123238
1715323553996629284,0.167,,,,8.356817466
1715323554004323512,0.076,,,,8.364511694
1715323554012017740,0.091,,,,8.372205922
1715323554019711968,0.127,,,,8.37990015
1715323554027406196,0.105,,,,8.387594378
1715323554035100424,0.069,,,,8.395288606
1715323554042794652,0.011,,,,8.402982834
1715323554050488880,0.011,,,,8.410677062
1715323554058183108,0.011,,,,8.41837129
1715323554065877396,-0.088,,,,8.426065578
1715323554073572600,-0.105,,,,8.433760782
1715323554081267804,-0.021,,,,8.441455986
1715323554088963008,-0.081,,,,8.44915119
1715323554096658212,-0.134,,,,8.456846394
1715323554104353416,-0.057,,,,8.464541598
1715323554112048620,-0.093,,,,8.472236802
1715323554119743824,-0.136,,,,8.479932006
1715323554127439028,-0.059,,,,8.48762721
1715323554135134232,-0.1,,,,8.495322414
1715323554142829436,-0.155,,,,8.503017618
1715323554150524640,-0.067,,,,8.510712822
1715323554158219844,-0.045,,,,8.518408026
1715323554165915048,-0.119,,,,8.52610323
1715323554173610252,-0.131,,,,8.533798434
1715323554181305456,-0.146,,,,8.541493638
1715323554189000660,-0.177,,,,8.549188842
1715323554196695864,-0.11,,,,8.556884046
1715323554204391068,-0.1,,,,8.56457925
1715323554212086272,-0.232,,,,8.572274454
1715323554219781476,-0.258,,,,8.579969658
1715323554227476680,-0.172,,,,8.587664862
1715323554235171884,-0.189,,,,8.595360066
1715323554242867088,-0.266,,,,8.60305527
1715323554250562292,-0.318,,,,8.610750474
1715323554258257496,-0.369,,,,8.618445678
1715323554265952700,-0.393,,,,8.626140882
1715323554273647904,-0.397,,,,8.633836086
1715323554281343108,-0.407,,,,8.64153129
1715323554289038312,-0.426,,,,8.649226494
1715323554296733516,-0.479,,,,8.656921698
1715323554304428720,-0.474,,,,8.664616902
1715323554312123924,-0.412,,,,8.672312106
1715323554319819128,-0.45,,,,8.68000731
1715323554327514332,-0.5680000000000001,,,,8.687702514
1715323554335209536,-0.601,,,,8.695397718
1715323554342904740,-0.5700000000000001,,,,8.703092922
1715323554350599944,-0.5630000000000001,,,,8.710788126
1715323554358295148,-0.594,,,,8.71848333
1715323554365990352,-0.687,,,,8.726178534
1715323554373685556,-0.783,,,,8.733873738
1715323554381380760,-0.675,,,,8.741568942
1715323554389075964,-0.189,,,,8.749264146
1715323554396771168,0.294,,,,8.75695935
1715323554404466372,0.098,,,,8.764654554
1715323554412161576,-0.5720000000000001,,,,8.772349758
1715323554419856780,-0.944,,,,8.780044962
1715323554427551984,-0.874,,,,8.787740166
1715323554435247188,-0.795,,,,8.79543537
1715323554442942392,-0.857,,,,8.803130574
1715323554450637596,-0.848,,,,8.810825778
1715323554458332800,-0.757,,,,8.818520982
1715323554466028004,-0.754,,,,8.826216186
1715323554473723208,-0.807,,,,8.83391139
1715323554481418412,-0.771,,,,8.841606594
1715323554489113616,-0.7020000000000001,,,,8.849301798
1715323554496808820,-0.663,,,,8.856997002
1715323554504504024,-0.637,,,,8.864692206
1715323554512199228,-0.642,,,,8.87238741
1715323554519894432,-0.651,,,,8.880082614
1715323554527589636,-0.615,,,,8.887777818
1715323554535284840,-0.548,,,,8.895473022
1715323554542980044,-0.529,,,,8.903168226
1715323554550675248,-0.536,,,,8.91086343
1715323554558370452,-0.474,,,,8.918558634
1715323554566065656,-0.412,,,,8.926253838
1715323554573760860,-0.409,,,,8.933949042
1715323554581456064,-0.412,,,,8.941644246
1715323554589151268,-0.4,,,,8.94933945
1715323554596846472,-0.39,,,,8.957034654
1715323554604541676,-0.366,,,,8.964729858
1715323554612236880,-0.34,,,,8.972425062
1715323554619932084,-0.354,,,,8.980120266
1715323554627627308,-0.349,88.0,628.0,,8.98781549
1715323554635322094,-0.357,,621.0,,8.995510276
1715323554643016880,-0.426,,,,9.003205062
1715323554650711666,-0.443,,,,9.010899848
1715323554658406452,-0.4,,,,9.018594634
1715323554666101238,-0.421,,,,9.02628942
1715323554673796024,-0.467,,,,9.033984206
1715323554681490810,-0.433,,,,9.041678992
1715323554689185596,-0.433,,,,9.049373778
1715323554696880382,-0.436,,,,9.057068564
1715323554704575168,-0.299,,,,9.06476335
1715323554712269954,-0.266,,,,9.072458136
1715323554719964740,-0.383,,,,9.080152922
1715323554727659526,-0.354,,,,9.087847708
1715323554735354312,-0.251,,,,9.095542494
1715323554743049098,-0.254,,,,9.10323728
1715323554750743884,-0.27,,,,9.110932066
1715323554758438670,-0.287,,,,9.118626852
1715323554766133456,-0.287,,,,9.126321638
1715323554773828242,-0.191,,,,9.134016424
1715323554781523028,-0.162,,,,9.14171121
1715323554789217814,-0.198,,,,9.149405996
1715323554796912600,-0.131,,,,9.157100782
1715323554804607386,-0.103,,,,9.164795568
1715323554812302172,-0.17,,,,9.172490354
1715323554819996958,-0.167,,,,9.18018514
1715323554827691744,-0.095,,,,9.187879926
1715323554835386530,-0.067,,,,9.195574712
1715323554843081316,-0.124,,,,9.203269498
1715323554850776102,-0.208,,,,9.210964284
1715323554858470888,-0.206,,,,9.21865907
1715323554866165674,-0.033,,,,9.226353856
1715323554873860460,0.098,,,,9.234048642
1715323554881555246,0.009,,,,9.241743428
1715323554889250032,-0.055,,,,9.249438214
1715323554896944818,-0.007,,,,9.257133
1715323554904639604,0.016,,,,9.264827786
1715323554912334390,0.021,,,,9.272522572
1715323554920029176,0.0,,,,9.280217358
1715323554927723962,-0.055,,,,9.287912144
1715323554935418748,0.009,,,,9.29560693
1715323554943113534,0.141,,,,9.303301716
1715323554950808320,0.091,,,,9.310996502
1715323554958503106,-0.076,,,,9.318691288
1715323554966197892,-0.067,,,,9.326386074
1715323554973892678,0.397,,,,9.33408086
1715323554981587464,1.004,,,,9.341775646
1715323554989282250,0.927,,,,9.349470432
1715323554996977036,0.251,,,,9.357165218
1715323555004671822,-0.1,,,,9.364860004
1715323555012366608,0.038,,,,9.37255479
1715323555020061394,0.143,,,,9.380249576
1715323555027756180,0.124,,,,9.387944362
1715323555035450966,0.136,,,,9.395639148
1715323555043145752,0.146,,,,9.403333934
1715323555050840538,0.146,,,,9.41102872
1715323555058535324,0.158,,,,9.418723506
1715323555066230110,0.143,,,,9.426418292
1715323555073924896,0.155,,,,9.434113078
1715323555081619682,0.268,,,,9.441807864
1715323555089314468,0.333,,,,9.44950265
1715323555097009254,0.261,,,,9.457197436
1715323555104704040,0.268,,,,9.464892222
1715323555112398826,0.34,,,,9.472587008
1715323555120093612,0.313,,,,9.480281794
1715323555127788398,0.297,,,,9.48797658
1715323555135483184,0.325,,,,9.495671366
1715323555143177970,0.301,,,,9.503366152
1715323555150872756,0.268,,,,9.511060938
1715323555158567542,0.285,,,,9.518755724
1715323555166262328,0.301,,,,9.52645051
1715323555173957114,0.278,,,,9.534145296
1715323555181651900,0.258,,,,9.541840082
1715323555189346702,0.237,89.0,611.0,,9.549534884
1715323555197041906,0.182,,,,9.557230088
1715323555204737110,0.172,,,,9.564925292
1715323555212432314,0.186,,,,9.572620496
1715323555220127518,0.124,,,,9.5803157
1715323555227822722,0.057,,,,9.588010904
1715323555235517926,0.033,,,,9.595706108
1715323555243213130,0.0,,,,9.603401312
1715323555250908334,-0.014,,,,9.611096516
1715323555258603538,0.002,,,,9.61879172
1715323555266298742,-0.023,,,,9.626486924
1715323555273993946,-0.064,,,,9.634182128
1715323555281689150,-0.028,,,,9.641877332
1715323555289384354,0.031,,,,9.649572536
1715323555297079558,0.011,,,,9.65726774
1715323555304774762,-0.033,,,,9.664962944
1715323555312469966,-0.007,,,,9.672658148
1715323555320165170,0.023,,,,9.680353352
1715323555327860374,-0.002,,,,9.688048556
1715323555335555578,-0.011,,,,9.69574376
1715323555343250782,0.023,,,,9.703438964
1715323555350945986,0.04,,,,9.711134168
1715323555358641190,0.023,,,,9.718829372
1715323555366336394,0.05,,,,9.726524576
1715323555374031598,0.086,,,,9.73421978
1715323555381726802,0.067,,,,9.741914984
1715323555389422006,0.047,,,,9.749610188
1715323555397117210,0.05,,,,9.757305392
1715323555404812414,0.057,,,,9.765000596
1715323555412507618,0.052,,,,9.7726958
1715323555420202822,0.028,,,,9.780391004
1715323555427898026,0.033,,,,9.788086208
1715323555435593230,0.071,,,,9.795781412
1715323555443288434,0.081,,,,9.803476616
1715323555450983638,0.059,,,,9.81117182
1715323555458678842,0.098,,,,9.818867024
1715323555466374046,0.155,,,,9.826562228
1715323555474069250,0.122,,,,9.834257432
1715323555481764454,0.074,,,,9.841952636
1715323555489459658,0.103,,,,9.84964784
1715323555497154862,0.136,,,,9.857343044
1715323555504850066,0.124,,,,9.865038248
1715323555512545270,0.115,,,,9.872733452
1715323555520240474,0.122,,,,9.880428656
1715323555527935678,0.088,,,,9.88812386
1715323555535630882,-0.014,,,,9.895819064
1715323555543326086,0.1,,,,9.903514268
1715323555551021290,0.661,,,,9.911209472
1715323555558716494,1.064,,,,9.918904676
1715323555566411698,0.687,,,,9.92659988
1715323555574106902,0.069,,,,9.934295084
1715323555581802106,-0.055,,,,9.941990288
1715323555589497310,0.093,,,,9.949685492
1715323555597192514,0.11,,,,9.957380696
1715323555604887718,0.119,,,,9.9650759
1715323555612582922,0.167,,,,9.972771104
1715323555620278126,0.155,,,,9.980466308
1715323555627973330,0.158,,,,9.988161512
1715323555635668534,0.194,,,,9.995856716
1715323555643363738,0.201,,,,10.00355192
1715323555651058942,0.194,,,,10.011247124
1715323555658754146,0.203,,,,10.018942328
1715323555666449350,0.22,,,,10.026637532
1715323555674144554,0.234,,,,10.034332736
1715323555681839758,0.249,,,,10.04202794
1715323555689534962,0.263,,,,10.049723144
1715323555697230166,0.275,,,,10.057418348
1715323555704925370,0.294,,,,10.065113552
1715323555712620574,0.313,,,,10.072808756
1715323555720315778,0.325,,,,10.08050396
1715323555728010982,0.335,,,,10.088199164
1715323555735706186,0.342,,,,10.095894368
1715323555743401390,0.342,,,,10.103589572
1715323555751096614,0.342,,,,10.111284796
1715323555758791400,0.345,,,,10.118979582
1715323555766486186,0.342,,,,10.126674368
1715323555774180972,0.33,,,,10.134369154
1715323555781875758,0.325,,,,10.14206394
1715323555789570544,0.311,,,,10.149758726
1715323555797265330,0.273,,,,10.157453512
1715323555804960116,0.239,,,,10.165148298
1715323555812654902,0.213,,,,10.172843084
1715323555820349688,0.184,,,,10.18053787
1715323555828044474,0.17,,,,10.188232656
1715323555835739260,0.165,,,,10.195927442
1715323555843434046,0.162,,,,10.203622228
1715323555851128832,0.17,,,,10.211317014
1715323555858823618,0.17,,,,10.2190118
1715323555866518404,0.167,,,,10.226706586
1715323555874213190,0.174,,,,10.234401372
1715323555881907976,0.177,,,,10.242096158
1715323555889602762,0.182,,,,10.249790944
1715323555897297548,0.191,,,,10.25748573
1715323555904992334,0.191,,,,10.265180516
1715323555912687120,0.191,,,,10.272875302
1715323555920381906,0.196,,,,10.280570088
1715323555928076692,0.198,,,,10.288264874
1715323555935771478,0.198,,,,10.29595966
1715323555943466264,0.201,,,,10.303654446
1715323555951161050,0.206,,,,10.311349232
1715323555958855836,0.206,,,,10.319044018
1715323555966550622,0.198,,,,10.326738804
1715323555974245408,0.191,,,,10.33443359
1715323555981940194,0.184,,,,10.342128376
1715323555989634980,0.172,,,,10.349823162
1715323555997329766,0.172,,,,10.357517948
1715323556005024552,0.177,,,,10.365212734
1715323556012719338,0.182,,,,10.37290752
1715323556020414124,0.184,,,,10.380602306
1715323556028108910,0.198,,,,10.388297092
1715323556035803696,0.225,,,,10.395991878
1715323556043498482,0.222,,,,10.403686664
1715323556051193268,0.177,,,,10.41138145
1715323556058888054,0.155,,,,10.419076236
1715323556066582840,0.179,,,,10.426771022
1715323556074277626,0.191,,,,10.434465808
1715323556081972412,0.182,,,,10.442160594
1715323556089667198,0.182,,,,10.44985538
1715323556097361984,0.174,,,,10.457550166
1715323556105056770,0.107,,,,10.465244952
1715323556112751556,0.069,,,,10.472939738
1715323556120446342,0.409,,,,10.480634524
1715323556128141128,1.001,,,,10.48832931
1715323556135835914,1.006,,,,10.496024096
1715323556143530700,0.278,,,,10.503718882
1715323556151225486,-0.256,,,,10.511413668
1715323556158920272,-0.107,,,,10.519108454
1715323556166615058,0.172,,,,10.52680324
1715323556174309844,0.184,,,,10.534498026
1715323556182004630,0.182,,,,10.542192812
1715323556189699416,0.256,,,,10.549887598
1715323556197394202,0.268,,,,10.557582384
1715323556205088988,0.254,,,,10.56527717
1715323556212783774,0.273,,,,10.572971956
1715323556220478560,0.297,,,,10.580666742
1715323556228173346,0.309,,,,10.588361528
1715323556235868132,0.306,,,,10.596056314
1715323556243562918,0.306,,,,10.6037511
1715323556251257704,0.323,,,,10.611445886
1715323556258952490,0.34,,,,10.619140672
1715323556266647276,0.349,,,,10.626835458
1715323556274342062,0.345,,,,10.634530244
1715323556282036848,0.347,,,,10.64222503
1715323556289731634,0.366,,,,10.649919816
1715323556297426420,0.361,,,,10.657614602
1715323556305121206,0.354,,,,10.665309388
1715323556312816010,0.373,91.0,596.0,,10.673004192
1715323556320510796,0.366,,586.0,,10.680698978
1715323556328205582,0.342,,,,10.688393764
1715323556335900368,0.345,,,,10.69608855
1715323556343595154,0.349,,,,10.703783336
1715323556351289940,0.337,,,,10.711478122
1715323556358984726,0.325,,,,10.719172908
1715323556366679512,0.316,,,,10.726867694
1715323556374374298,0.275,,,,10.73456248
1715323556382069084,0.208,,,,10.742257266
1715323556389763870,0.153,,,,10.749952052
1715323556397458656,0.112,,,,10.757646838
1715323556405153442,0.091,,,,10.765341624
1715323556412848228,0.088,,,,10.77303641
1715323556420543014,0.088,,,,10.780731196
1715323556428237800,0.103,,,,10.788425982
1715323556435932586,0.115,,,,10.796120768
1715323556443627372,0.103,,,,10.803815554
1715323556451322158,0.098,,,,10.81151034
1715323556459016944,0.117,,,,10.819205126
1715323556466711730,0.129,,,,10.826899912
1715323556474406516,0.11,,,,10.834594698
1715323556482101302,0.11,,,,10.842289484
1715323556489796088,0.129,,,,10.84998427
1715323556497490874,0.1,,,,10.857679056
1715323556505185660,0.069,,,,10.865373842
1715323556512880446,0.11,,,,10.873068628
1715323556520575232,0.143,,,,10.880763414
1715323556528270018,0.115,,,,10.8884582
1715323556535964804,0.091,,,,10.896152986
1715323556543659590,0.105,,,,10.903847772
1715323556551354376,0.105,,,,10.911542558
1715323556559049162,0.062,,,,10.919237344
1715323556566743948,0.055,,,,10.92693213
1715323556574438734,0.086,,,,10.934626916
1715323556582133520,0.074,,,,10.942321702
1715323556589828306,0.043,,,,10.950016488
1715323556597523092,0.079,,,,10.957711274
1715323556605217878,0.143,,,,10.96540606
1715323556612912664,0.141,,,,10.973100846
1715323556620607450,0.079,,,,10.980795632
1715323556628302236,0.057,,,,10.988490418
1715323556635997022,0.083,,,,10.996185204
1715323556643691808,0.074,,,,11.00387999
1715323556651386594,0.057,,,,11.011574776
1715323556659081380,0.074,,,,11.019269562
1715323556666776166,0.069,,,,11.026964348
1715323556674470952,0.016,,,,11.034659134
1715323556682165738,-0.035,,,,11.04235392
1715323556689860524,0.213,,,,11.050048706
1715323556697555310,0.843,,,,11.057743492
1715323556705250096,1.056,,,,11.065438278
1715323556712944882,0.39,,,,11.073133064
1715323556720639668,-0.354,,,,11.08082785
1715323556728334454,-0.402,,,,11.088522636
1715323556736029240,-0.038,,,,11.096217422
1715323556743724026,0.093,,,,11.103912208
1715323556751418812,0.021,,,,11.111606994
1715323556759113598,0.074,,,,11.11930178
1715323556766808384,0.15,,,,11.126996566
1715323556774503170,0.122,,,,11.134691352
1715323556782197956,0.088,,,,11.142386138
1715323556789892742,0.098,,,,11.150080924
1715323556797587528,0.141,,,,11.15777571
1715323556805282314,0.186,,,,11.165470496
1715323556812977100,0.167,,,,11.173165282
1715323556820671886,0.162,,,,11.180860068
1715323556828366672,0.218,,,,11.188554854
1715323556836061458,0.244,,,,11.19624964
1715323556843756244,0.244,,,,11.203944426
1715323556851451030,0.27,,,,11.211639212
1715323556859145816,0.285,,,,11.219333998
1715323556866840602,0.273,,,,11.227028784
1715323556874535404,0.263,,,,11.234723586
1715323556882230608,0.256,,,,11.24241879
1715323556889925812,0.251,,,,11.250113994
1715323556897621016,0.242,,,,11.257809198
1715323556905316220,0.249,,,,11.265504402
1715323556913011424,0.275,,,,11.273199606
1715323556920706628,0.278,,,,11.28089481
1715323556928401832,0.258,,,,11.288590014
1715323556936097036,0.249,,,,11.296285218
1715323556943792240,0.208,,,,11.303980422
1715323556951487444,0.124,,,,11.311675626
1715323556959182648,0.059,,,,11.31937083
1715323556966877852,0.033,,,,11.327066034
1715323556974573056,0.019,,,,11.334761238
1715323556982268260,0.004,,,,11.342456442
1715323556989963464,0.007,,,,11.350151646
1715323556997658668,0.023,,,,11.35784685
1715323557005353872,0.043,,,,11.365542054
1715323557013049076,0.045,,,,11.373237258
1715323557020744280,0.043,,,,11.380932462
1715323557028439484,0.064,,,,11.388627666
1715323557036134688,0.079,,,,11.39632287
1715323557043829892,0.081,,,,11.404018074
1715323557051525096,0.091,,,,11.411713278
1715323557059220300,0.091,,,,11.419408482
1715323557066915504,0.083,,,,11.427103686
1715323557074610708,0.1,,,,11.43479889
1715323557082305912,0.112,,,,11.442494094
1715323557090001116,0.112,,,,11.450189298
1715323557097696320,0.117,,,,11.457884502
1715323557105391524,0.124,,,,11.465579706
1715323557113086728,0.122,,,,11.47327491
1715323557120781932,0.117,,,,11.480970114
1715323557128477136,0.122,,,,11.488665318
1715323557136172340,0.127,,,,11.496360522
1715323557143867544,0.131,,,,11.504055726
1715323557151562748,0.131,,,,11.51175093
1715323557159257952,0.131,,,,11.519446134
1715323557166953156,0.15,,,,11.527141338
1715323557174648360,0.201,,,,11.534836542
1715323557182343564,0.225,,,,11.542531746
1715323557190038768,0.191,,,,11.55022695
1715323557197733972,0.167,,,,11.557922154
1715323557205429176,0.184,,,,11.565617358
1715323557213124380,0.201,,,,11.573312562
1715323557220819584,0.208,,,,11.581007766
1715323557228514788,0.222,,,,11.58870297
1715323557236209992,0.225,,,,11.596398174
1715323557243905196,0.172,,,,11.604093378
1715323557251600400,0.153,,,,11.611788582
1715323557259295604,0.498,,,,11.619483786
1715323557266990808,1.092,,,,11.62717899
1715323557274686012,1.133,,,,11.634874194
1715323557282381216,0.417,,,,11.642569398
1715323557290076420,-0.196,,,,11.650264602
1715323557297771624,-0.139,,,,11.657959806
1715323557305466828,0.16,,,,11.66565501
1715323557313162032,0.218,,,,11.673350214
1715323557320857236,0.191,,,,11.681045418
1715323557328552440,0.246,,,,11.688740622
1715323557336247644,0.27,,,,11.696435826
1715323557343942848,0.256,,,,11.70413103
1715323557351638052,0.278,,,,11.711826234
1715323557359333256,0.294,,,,11.719521438
1715323557367028460,0.297,,,,11.727216642
1715323557374723664,0.309,,,,11.734911846
1715323557382418868,0.321,,,,11.74260705
1715323557390114072,0.318,,,,11.750302254
1715323557397809276,0.318,,,,11.757997458
1715323557405504480,0.328,,,,11.765692662
1715323557413199684,0.337,,,,11.773387866
1715323557420894888,0.345,,,,11.78108307
1715323557428590092,0.349,,,,11.788778274
1715323557436285316,0.34,95.0,574.0,,11.796473498
1715323557443980241,0.328,,573.0,,11.804168423
1715323557451675166,0.328,,,,11.811863348
1715323557459370091,0.325,,,,11.819558273
1715323557467065016,0.313,,,,11.827253198
1715323557474759941,0.304,,,,11.834948123
1715323557482454866,0.304,,,,11.842643048
1715323557490149791,0.301,,,,11.850337973
1715323557497844716,0.282,,,,11.858032898
1715323557505539641,0.246,,,,11.865727823
1715323557513234566,0.198,,,,11.873422748
1715323557520929491,0.141,,,,11.881117673
1715323557528624416,0.088,,,,11.888812598
1715323557536319341,0.047,,,,11.896507523
1715323557544014266,0.026,,,,11.904202448
1715323557551709191,0.011,,,,11.911897373
1715323557559404116,0.007,,,,11.919592298
1715323557567099041,0.011,,,,11.927287223
1715323557574793966,0.016,,,,11.934982148
1715323557582488891,0.016,,,,11.942677073
1715323557590183816,0.016,,,,11.950371998
1715323557597878741,0.023,,,,11.958066923
1715323557605573666,0.033,,,,11.965761848
1715323557613268591,0.038,,,,11.973456773
1715323557620963516,0.035,,,,11.981151698
1715323557628658441,0.043,,,,11.988846623
1715323557636353366,0.047,,,,11.996541548
1715323557644048291,0.04,,,,12.004236473
1715323557651743216,0.033,,,,12.011931398
1715323557659438141,0.028,,,,12.019626323
1715323557667133066,0.021,,,,12.027321248
1715323557674827991,0.023,,,,12.035016173
1715323557682522916,0.021,,,,12.042711098
1715323557690217841,0.014,,,,12.050406023
1715323557697912766,0.007,,,,12.058100948
1715323557705607691,0.014,,,,12.065795873
1715323557713302616,0.016,,,,12.073490798
1715323557720997541,0.014,,,,12.081185723
1715323557728692466,0.023,,,,12.088880648
1715323557736387391,0.05,,,,12.096575573
1715323557744082316,0.079,,,,12.104270498
1715323557751777241,0.071,,,,12.111965423
1715323557759472166,0.033,,,,12.119660348
1715323557767167091,0.019,,,,12.127355273
1715323557774862016,0.031,,,,12.135050198
1715323557782556941,0.047,,,,12.142745123
1715323557790251866,0.055,,,,12.150440048
1715323557797946791,0.05,,,,12.158134973
1715323557805641716,0.026,,,,12.165829898
1715323557813336641,-0.023,,,,12.173524823
1715323557821031566,0.136,,,,12.181219748
1715323557828726491,0.671,,,,12.188914673
1715323557836421416,0.965,,,,12.196609598
1715323557844116341,0.476,,,,12.204304523
1715323557851811266,-0.27,,,,12.211999448
1715323557859506191,-0.462,,,,12.219694373
1715323557867201116,-0.141,,,,12.227389298
1715323557874896041,0.057,,,,12.235084223
1715323557882590966,0.011,,,,12.242779148
1715323557890285891,0.033,,,,12.250474073
1715323557897980816,0.095,,,,12.258168998
1715323557905675741,0.083,,,,12.265863923
1715323557913370666,0.081,,,,12.273558848
1715323557921065591,0.112,,,,12.281253773
1715323557928760516,0.127,,,,12.288948698
1715323557936455441,0.129,,,,12.296643623
1715323557944150366,0.143,,,,12.304338548
1715323557951845291,0.16,,,,12.312033473
1715323557959540216,0.174,,,,12.319728398
1715323557967235141,0.191,,,,12.327423323
1715323557974930066,0.206,,,,12.335118248
1715323557982624991,0.21,,,,12.342813173
1715323557990319916,0.218,,,,12.350508098
1715323557998014884,0.23,,,,12.358203066
1715323558005709948,0.239,,,,12.36589813
1715323558013405012,0.23,,,,12.373593194
1715323558021100076,0.213,,,,12.381288258
1715323558028795140,0.203,,,,12.388983322
1715323558036490204,0.194,,,,12.396678386
1715323558044185268,0.186,,,,12.40437345
1715323558051880332,0.182,,,,12.412068514
1715323558059575396,0.177,,,,12.419763578
1715323558067270460,0.167,,,,12.427458642
1715323558074965524,0.134,,,,12.435153706
1715323558082660588,0.081,,,,12.44284877
1715323558090355652,0.04,,,,12.450543834
1715323558098050716,0.011,,,,12.458238898
1715323558105745780,-0.014,,,,12.465933962
1715323558113440844,-0.031,,,,12.473629026
1715323558121135908,-0.04,,,,12.48132409
1715323558128830972,-0.043,,,,12.489019154
1715323558136526036,-0.04,,,,12.496714218
1715323558144221100,-0.033,,,,12.504409282
1715323558151916164,-0.019,,,,12.512104346
1715323558159611228,-0.014,,,,12.51979941
1715323558167306292,-0.016,,,,12.527494474
1715323558175001356,-0.011,,,,12.535189538
1715323558182696420,0.002,,,,12.542884602
1715323558190391484,0.007,,,,12.550579666
1715323558198086548,0.011,,,,12.55827473
1715323558205781612,0.023,,,,12.565969794
1715323558213476676,0.028,,,,12.573664858
1715323558221171740,0.021,,,,12.581359922
1715323558228866804,0.021,,,,12.589054986
1715323558236561868,0.021,,,,12.59675005
1715323558244256932,0.014,,,,12.604445114
1715323558251951996,0.002,,,,12.612140178
1715323558259647060,0.002,,,,12.619835242
1715323558267342124,0.009,,,,12.627530306
1715323558275037188,0.002,,,,12.63522537
1715323558282732252,-0.002,,,,12.642920434
1715323558290427316,0.016,,,,12.650615498
1715323558298122380,0.052,,,,12.658310562
1715323558305817444,0.074,,,,12.666005626
1715323558313512508,0.045,,,,12.67370069
1715323558321207572,0.009,,,,12.681395754
1715323558328902636,0.016,,,,12.689090818
1715323558336597700,0.035,,,,12.696785882
1715323558344292764,0.038,,,,12.704480946
1715323558351987828,0.045,,,,12.71217601
1715323558359682892,0.045,,,,12.719871074
1715323558367377956,-0.009,,,,12.727566138
1715323558375073020,-0.064,,,,12.735261202
1715323558382768084,0.21,,,,12.742956266
1715323558390463148,0.8170000000000001,,,,12.75065133
1715323558398158212,0.975,,,,12.758346394
1715323558405853276,0.345,,,,12.766041458
1715323558413548340,-0.325,,,,12.773736522
1715323558421243404,-0.361,,,,12.781431586
1715323558428938468,-0.05,,,,12.78912665
1715323558436633532,0.038,,,,12.796821714
1715323558444328596,-0.002,,,,12.804516778
1715323558452023660,0.047,,,,12.812211842
1715323558459718724,0.076,,,,12.819906906
1715323558467413788,0.067,,,,12.82760197
1715323558475108852,0.088,,,,12.835297034
1715323558482803916,0.107,,,,12.842992098
1715323558490498980,0.105,,,,12.850687162
1715323558498194044,0.11,,,,12.858382226
1715323558505889108,0.124,,,,12.86607729
1715323558513584172,0.131,,,,12.873772354
1715323558521279236,0.143,,,,12.881467418
1715323558528974300,0.16,,,,12.889162482
1715323558536669364,0.174,,,,12.896857546
1715323558544364428,0.179,,,,12.90455261
1715323558552059492,0.186,,,,12.912247674
1715323558559754622,0.194,98.0,571.0,,12.919942804
1715323558567449408,0.194,,568.0,,12.92763759
1715323558575144194,0.186,,,,12.935332376
1715323558582838980,0.174,,,,12.943027162
1715323558590533766,0.17,,,,12.950721948
1715323558598228552,0.158,,,,12.958416734
1715323558605923338,0.146,,,,12.96611152
1715323558613618124,0.141,,,,12.973806306
1715323558621312910,0.131,,,,12.981501092
1715323558629007696,0.112,,,,12.989195878
1715323558636702482,0.074,,,,12.996890664
1715323558644397268,0.026,,,,13.00458545
1715323558652092054,-0.002,,,,13.012280236
1715323558659786840,-0.026,,,,13.019975022
1715323558667481626,-0.055,,,,13.027669808
1715323558675176412,-0.071,,,,13.035364594
1715323558682871198,-0.067,,,,13.04305938
1715323558690565984,-0.062,,,,13.050754166
1715323558698260770,-0.059,,,,13.058448952
1715323558705955556,-0.047,,,,13.066143738
1715323558713650342,-0.033,,,,13.073838524
1715323558721345128,-0.023,,,,13.08153331
1715323558729039914,-0.021,,,,13.089228096
1715323558736734700,-0.014,,,,13.096922882
1715323558744429486,-0.002,,,,13.104617668
1715323558752124272,0.002,,,,13.112312454
1715323558759819058,0.0,,,,13.12000724
1715323558767513844,0.002,,,,13.127702026
1715323558775208630,0.014,,,,13.135396812
1715323558782903416,0.011,,,,13.143091598
1715323558790598202,0.002,,,,13.150786384
1715323558798292988,-0.002,,,,13.15848117
1715323558805987774,-0.002,,,,13.166175956
1715323558813682560,-0.007,,,,13.173870742
1715323558821377346,-0.011,,,,13.181565528
1715323558829072132,-0.004,,,,13.189260314
1715323558836766918,0.0,,,,13.1969551
1715323558844461704,0.016,,,,13.204649886
1715323558852156490,0.059,,,,13.212344672
1715323558859851276,0.076,,,,13.220039458
1715323558867546062,0.04,,,,13.227734244
1715323558875240848,0.009,,,,13.23542903
1715323558882935634,0.019,,,,13.243123816
1715323558890630420,0.031,,,,13.250818602
1715323558898325206,0.04,,,,13.258513388
1715323558906019992,0.05,,,,13.266208174
1715323558913714778,0.043,,,,13.27390296
1715323558921409564,-0.023,,,,13.281597746
1715323558929104350,-0.081,,,,13.289292532
1715323558936799136,0.237,,,,13.296987318
1715323558944493922,0.913,,,,13.304682104
1715323558952188708,1.126,,,,13.31237689
1715323558959883494,0.52,,,,13.320071676
1715323558967578280,-0.167,,,,13.327766462
1715323558975273066,-0.249,,,,13.335461248
1715323558982967852,-0.009,,,,13.343156034
1715323558990662638,0.033,,,,13.35085082
1715323558998357424,-0.009,,,,13.358545606
1715323559006052210,0.035,,,,13.366240392
1715323559013746996,0.052,,,,13.373935178
1715323559021441782,0.035,,,,13.381629964
1715323559029136568,0.064,,,,13.38932475
1715323559036831354,0.088,,,,13.397019536
1715323559044526140,0.081,,,,13.404714322
1715323559052220926,0.091,,,,13.412409108
1715323559059915712,0.105,,,,13.420103894
1715323559067610498,0.103,,,,13.42779868
1715323559075305284,0.115,,,,13.435493466
1715323559083000070,0.136,,,,13.443188252
1715323559090694856,0.136,,,,13.450883038
1715323559098389642,0.139,,,,13.458577824
1715323559106084428,0.165,,,,13.46627261
1715323559113779214,0.165,,,,13.473967396
1715323559121474016,0.146,,,,13.481662198
1715323559129168802,0.148,,,,13.489356984
1715323559136863588,0.146,,,,13.49705177
1715323559144558374,0.122,,,,13.504746556
1715323559152253160,0.103,,,,13.512441342
1715323559159947946,0.098,,,,13.520136128
1715323559167642732,0.079,,,,13.527830914
1715323559175337518,0.047,,,,13.5355257
1715323559183032304,0.014,,,,13.543220486
1715323559190727090,-0.031,,,,13.550915272
1715323559198421876,-0.067,,,,13.558610058
1715323559206116662,-0.081,,,,13.566304844
1715323559213811448,-0.105,,,,13.57399963
1715323559221506234,-0.136,,,,13.581694416
1715323559229201020,-0.143,,,,13.589389202
1715323559236895806,-0.15,,,,13.597083988
1715323559244590592,-0.16,,,,13.604778774
1715323559252285378,-0.167,,,,13.61247356
1715323559259980164,-0.184,,,,13.620168346
1715323559267674950,-0.21,,,,13.627863132
1715323559275369736,-0.244,,,,13.635557918
1715323559283064522,-0.263,,,,13.643252704
1715323559290759308,-0.282,,,,13.65094749
1715323559298454094,-0.323,,,,13.658642276
1715323559306148880,-0.359,,,,13.666337062
1715323559313843666,-0.388,,,,13.674031848
1715323559321538452,-0.414,,,,13.681726634
1715323559329233238,-0.421,,,,13.68942142
1715323559336928024,-0.45,,,,13.697116206
1715323559344622810,-0.508,,,,13.704810992
1715323559352317596,-0.536,,,,13.712505778
1715323559360012382,-0.5630000000000001,,,,13.720200564
1715323559367707168,-0.625,,,,13.72789535
1715323559375401954,-0.654,,,,13.735590136
1715323559383096740,-0.649,,,,13.743284922
1715323559390791526,-0.673,,,,13.750979708
1715323559398486312,-0.685,,,,13.758674494
1715323559406181098,-0.63,,,,13.76636928
1715323559413875884,-0.591,,,,13.774064066
1715323559421570670,-0.632,,,,13.781758852
1715323559429265456,-0.663,,,,13.789453638
1715323559436960242,-0.663,,,,13.797148424
1715323559444655028,-0.673,,,,13.80484321
1715323559452349814,-0.673,,,,13.812537996
1715323559460044600,-0.675,,,,13.820232782
1715323559467739386,-0.6900000000000001,,,,13.827927568
1715323559475434172,-0.774,,,,13.835622354
1715323559483128958,-0.85,,,,13.84331714
1715323559490823744,-0.512,,,,13.851011926
1715323559498518530,0.206,,,,13.858706712
1715323559506213316,0.431,,,,13.866401498
1715323559513908102,-0.266,,,,13.874096284
1715323559521602888,-1.032,,,,13.88179107
1715323559529297674,-1.025,,,,13.889485856
1715323559536992460,-0.647,,,,13.897180642
1715323559544687246,-0.589,,,,13.904875428
1715323559552382032,-0.635,,,,13.912570214
1715323559560076818,-0.539,,,,13.920265
1715323559567771604,-0.508,,,,13.927959786
1715323559575466390,-0.529,,,,13.935654572
1715323559583161176,-0.464,,,,13.943349358
1715323559590855962,-0.405,,,,13.951044144
1715323559598550748,-0.409,,,,13.95873893
1715323559606245534,-0.393,,,,13.966433716
1715323559613940320,-0.359,,,,13.974128502
1715323559621635106,-0.345,,,,13.981823288
1715323559629329892,-0.299,,,,13.989518074
1715323559637024678,-0.251,,,,13.99721286
1715323559644719464,-0.268,,,,14.004907646
1715323559652414250,-0.278,,,,14.012602432
1715323559660109036,-0.22,,,,14.020297218
1715323559667803822,-0.174,,,,14.027992004
1715323559675498608,-0.194,,,,14.03568679
1715323559683193412,-0.201,99.0,564.0,,14.043381594
1715323559690888616,-0.189,,,,14.051076798
1715323559698583820,-0.194,,,,14.058772002
1715323559706279024,-0.196,,,,14.066467206
1715323559713974228,-0.182,,,,14.07416241
1715323559721669432,-0.167,,,,14.081857614
1715323559729364636,-0.201,,,,14.089552818
1715323559737059840,-0.261,,,,14.097248022
1715323559744755044,-0.282,,,,14.104943226
1715323559752450248,-0.306,,,,14.11263843
1715323559760145452,-0.33,,,,14.120333634
1715323559767840656,-0.316,,,,14.128028838
1715323559775535860,-0.313,,,,14.135724042
1715323559783231064,-0.325,,,,14.143419246
1715323559790926268,-0.297,,,,14.15111445
1715323559798621472,-0.275,,,,14.158809654
1715323559806316676,-0.285,,,,14.166504858
1715323559814011880,-0.258,,,,14.174200062
1715323559821707084,-0.21,,,,14.181895266
1715323559829402288,-0.201,,,,14.18959047
1715323559837097492,-0.196,,,,14.197285674
1715323559844792696,-0.172,,,,14.204980878
1715323559852487900,-0.162,,,,14.212676082
1715323559860183104,-0.15,,,,14.220371286
1715323559867878308,-0.131,,,,14.22806649
1715323559875573512,-0.124,,,,14.235761694
1715323559883268716,-0.117,,,,14.243456898
1715323559890963920,-0.1,,,,14.251152102
1715323559898659124,-0.093,,,,14.258847306
1715323559906354328,-0.091,,,,14.26654251
1715323559914049532,-0.079,,,,14.274237714
1715323559921744736,-0.081,,,,14.281932918
1715323559929439940,-0.093,,,,14.289628122
1715323559937135144,-0.086,,,,14.297323326
1715323559944830348,-0.071,,,,14.30501853
1715323559952525552,-0.067,,,,14.312713734
1715323559960220756,-0.057,,,,14.320408938
1715323559967915960,-0.016,,,,14.328104142
1715323559975611164,0.026,,,,14.335799346
1715323559983306368,0.019,,,,14.34349455
1715323559991001572,-0.014,,,,14.351189754
1715323559998696776,-0.004,,,,14.358884958
1715323560006391980,0.033,,,,14.366580162
1715323560014087184,0.047,,,,14.374275366
1715323560021782388,0.064,,,,14.38197057
1715323560029477592,0.091,,,,14.389665774
1715323560037172796,0.062,,,,14.397360978
1715323560044868000,-0.045,,,,14.405056182
1715323560052563204,0.098,,,,14.412751386
1715323560060258408,0.762,,,,14.42044659
1715323560067953612,1.272,,,,14.428141794
1715323560075648816,0.874,,,,14.435836998
1715323560083344020,0.047,,,,14.443532202
1715323560091039224,-0.246,,,,14.451227406
1715323560098734428,0.016,,,,14.45892261
1715323560106429632,0.15,,,,14.466617814
1715323560114124836,0.083,,,,14.474313018
1715323560121820040,0.124,,,,14.482008222
1715323560129515244,0.172,,,,14.489703426
1715323560137210448,0.15,,,,14.49739863
1715323560144905652,0.165,,,,14.505093834
1715323560152600856,0.196,,,,14.512789038
1715323560160296060,0.198,,,,14.520484242
1715323560167991264,0.206,,,,14.528179446
1715323560175686468,0.218,,,,14.53587465
1715323560183381672,0.222,,,,14.543569854
1715323560191076876,0.239,,,,14.551265058
1715323560198772080,0.256,,,,14.558960262
1715323560206467284,0.266,,,,14.566655466
1715323560214162488,0.278,,,,14.57435067
1715323560221857692,0.292,,,,14.582045874
1715323560229552896,0.299,,,,14.589741078
1715323560237248100,0.294,,,,14.597436282
1715323560244943324,0.289,102.0,561.0,,14.605131506
1715323560252638110,0.282,,555.0,,14.612826292
1715323560260332896,0.27,,,,14.620521078
1715323560268027682,0.261,,,,14.628215864
1715323560275722468,0.251,,,,14.63591065
1715323560283417254,0.239,,,,14.643605436
1715323560291112040,0.218,,,,14.651300222
1715323560298806826,0.189,,,,14.658995008
1715323560306501612,0.153,,,,14.666689794
1715323560314196398,0.105,,,,14.67438458
1715323560321891184,0.062,,,,14.682079366
1715323560329585970,0.04,,,,14.689774152
1715323560337280756,0.021,,,,14.697468938
1715323560344975542,0.0,,,,14.705163724
1715323560352670328,-0.007,,,,14.71285851
1715323560360365114,0.002,,,,14.720553296
1715323560368059900,0.011,,,,14.728248082
1715323560375754686,0.016,,,,14.735942868
1715323560383449472,0.023,,,,14.743637654
1715323560391144258,0.033,,,,14.75133244
1715323560398839044,0.04,,,,14.759027226
1715323560406533830,0.047,,,,14.766722012
1715323560414228616,0.055,,,,14.774416798
1715323560421923402,0.059,,,,14.782111584
1715323560429618188,0.064,,,,14.78980637
1715323560437312974,0.064,,,,14.797501156
1715323560445007760,0.062,,,,14.805195942
1715323560452702546,0.069,,,,14.812890728
1715323560460397332,0.074,,,,14.820585514
1715323560468092118,0.071,,,,14.8282803
1715323560475786904,0.067,,,,14.835975086
1715323560483481690,0.062,,,,14.843669872
1715323560491176476,0.05,,,,14.851364658
1715323560498871262,0.045,,,,14.859059444
1715323560506566048,0.047,,,,14.86675423
1715323560514260834,0.043,,,,14.874449016
1715323560521955620,0.04,,,,14.882143802
1715323560529650406,0.043,,,,14.889838588
1715323560537345192,0.057,,,,14.897533374
1715323560545039978,0.098,,,,14.90522816
1715323560552734764,0.112,,,,14.912922946
1715323560560429550,0.069,,,,14.920617732
1715323560568124336,0.045,,,,14.928312518
1715323560575819122,0.062,,,,14.936007304
1715323560583513908,0.064,,,,14.94370209
1715323560591208694,0.059,,,,14.951396876
1715323560598903480,0.069,,,,14.959091662
1715323560606598266,0.057,,,,14.966786448
1715323560614293052,-0.045,,,,14.974481234
1715323560621987838,-0.009,,,,14.98217602
1715323560629682624,0.522,,,,14.989870806
1715323560637377410,1.126,,,,14.997565592
1715323560645072196,0.951,,,,15.005260378
1715323560652766982,0.129,,,,15.012955164
1715323560660461768,-0.366,,,,15.02064995
1715323560668156554,-0.174,,,,15.028344736
1715323560675851340,0.047,,,,15.036039522
1715323560683546126,-0.004,,,,15.043734308
1715323560691240912,0.0,,,,15.051429094
1715323560698935698,0.069,,,,15.05912388
1715323560706630484,0.055,,,,15.066818666
1715323560714325270,0.05,,,,15.074513452
1715323560722020056,0.086,,,,15.082208238
1715323560729714842,0.1,,,,15.089903024
1715323560737409628,0.103,,,,15.09759781
1715323560745104414,0.119,,,,15.105292596
1715323560752799200,0.136,,,,15.112987382
1715323560760493986,0.148,,,,15.120682168
1715323560768188772,0.16,,,,15.128376954
1715323560775883558,0.172,,,,15.13607174
1715323560783578344,0.191,,,,15.143766526
1715323560791273130,0.206,,,,15.151461312
1715323560798967916,0.203,,,,15.159156098
1715323560806662718,0.198,,,,15.1668509
1715323560814357922,0.201,,,,15.174546104
1715323560822053126,0.198,,,,15.182241308
1715323560829748330,0.186,,,,15.189936512
1715323560837443534,0.167,,,,15.197631716
1715323560845138738,0.158,,,,15.20532692
1715323560852833942,0.146,,,,15.213022124
1715323560860529146,0.122,,,,15.220717328
1715323560868224350,0.095,,,,15.228412532
1715323560875919554,0.064,,,,15.236107736
1715323560883614758,0.023,,,,15.24380294
1715323560891309962,-0.019,,,,15.251498144
1715323560899005166,-0.047,,,,15.259193348
1715323560906700370,-0.064,,,,15.266888552
1715323560914395574,-0.083,,,,15.274583756
1715323560922090778,-0.091,,,,15.28227896
1715323560929785982,-0.083,,,,15.289974164
1715323560937481186,-0.076,,,,15.297669368
1715323560945176390,-0.071,,,,15.305364572
1715323560952871594,-0.064,,,,15.313059776
1715323560960566798,-0.057,,,,15.32075498
1715323560968262002,-0.047,,,,15.328450184
1715323560975957206,-0.038,,,,15.336145388
1715323560983652410,-0.033,,,,15.343840592
1715323560991347614,-0.031,,,,15.351535796
1715323560999042818,-0.023,,,,15.359231
1715323561006738022,-0.019,,,,15.366926204
1715323561014433226,-0.019,,,,15.374621408
1715323561022128430,-0.019,,,,15.382316612
1715323561029823634,-0.014,,,,15.390011816
1715323561037518838,-0.016,,,,15.39770702
1715323561045214042,-0.016,,,,15.405402224
1715323561052909246,-0.016,,,,15.413097428
1715323561060604450,-0.026,,,,15.420792632
1715323561068299654,-0.038,,,,15.428487836
1715323561075994858,-0.043,,,,15.43618304
1715323561083690062,-0.047,,,,15.443878244
1715323561091385266,-0.047,,,,15.451573448
1715323561099080470,-0.043,,,,15.459268652
1715323561106775674,-0.033,,,,15.466963856
1715323561114470878,-0.004,,,,15.47465906
1715323561122166082,0.026,,,,15.482354264
1715323561129861286,0.007,,,,15.490049468
1715323561137556490,-0.031,,,,15.497744672
1715323561145251694,-0.023,,,,15.505439876
1715323561152946898,-0.007,,,,15.51313508
1715323561160642102,-0.009,,,,15.520830284
1715323561168337306,-0.004,,,,15.528525488
1715323561176032510,-0.004,,,,15.536220692
1715323561183727714,-0.067,,,,15.543915896
1715323561191422918,-0.143,,,,15.5516111
1715323561199118122,0.124,,,,15.559306304
1715323561206813326,0.786,,,,15.567001508
1715323561214508530,1.066,,,,15.574696712
1715323561222203734,0.484,,,,15.582391916
1715323561229898938,-0.278,,,,15.59008712
1715323561237594142,-0.395,,,,15.597782324
1715323561245289346,-0.093,,,,15.605477528
1715323561252984550,-0.007,,,,15.613172732
1715323561260679754,-0.064,,,,15.620867936
1715323561268374958,-0.016,,,,15.62856314
1715323561276070162,0.014,,,,15.636258344
1715323561283765366,0.0,,,,15.643953548
1715323561291460570,0.021,,,,15.651648752
1715323561299155774,0.05,,,,15.659343956
1715323561306850978,0.055,,,,15.66703916
1715323561314546182,0.067,,,,15.674734364
1715323561322241386,0.086,,,,15.682429568
1715323561329936590,0.095,,,,15.690124772
1715323561337631794,0.105,,,,15.697819976
1715323561345326998,0.129,,,,15.70551518
1715323561353022202,0.143,,,,15.713210384
1715323561360717406,0.15,,,,15.720905588
1715323561368412630,0.158,104.0,554.0,,15.728600812
1715323561376107416,0.167,,564.0,,15.736295598
1715323561383802202,0.172,,,,15.743990384
1715323561391496988,0.17,,,,15.75168517
1715323561399191774,0.158,,,,15.759379956
1715323561406886560,0.148,,,,15.767074742
1715323561414581346,0.141,,,,15.774769528
1715323561422276132,0.131,,,,15.782464314
1715323561429970918,0.117,,,,15.7901591
1715323561437665704,0.095,,,,15.797853886
1715323561445360490,0.071,,,,15.805548672
1715323561453055276,0.031,,,,15.813243458
1715323561460750062,-0.011,,,,15.820938244
1715323561468444848,-0.047,,,,15.82863303
1715323561476139634,-0.071,,,,15.836327816
1715323561483834420,-0.088,,,,15.844022602
1715323561491529206,-0.103,,,,15.851717388
1715323561499223992,-0.105,,,,15.859412174
1715323561506918778,-0.093,,,,15.86710696
1715323561514613564,-0.081,,,,15.874801746
1715323561522308350,-0.079,,,,15.882496532
1715323561530003136,-0.071,,,,15.890191318
1715323561537697922,-0.057,,,,15.897886104
1715323561545392708,-0.05,,,,15.90558089
1715323561553087494,-0.047,,,,15.913275676
1715323561560782280,-0.043,,,,15.920970462
1715323561568477066,-0.04,,,,15.928665248
1715323561576171852,-0.038,,,,15.936360034
1715323561583866638,-0.035,,,,15.94405482
1715323561591561424,-0.033,,,,15.951749606
1715323561599256210,-0.031,,,,15.959444392
1715323561606950996,-0.028,,,,15.967139178
1715323561614645782,-0.031,,,,15.974833964
1715323561622340568,-0.028,,,,15.98252875
1715323561630035354,-0.026,,,,15.990223536
1715323561637730140,-0.033,,,,15.997918322
1715323561645424926,-0.04,,,,16.005613108
1715323561653119712,-0.045,,,,16.013307894
1715323561660814498,-0.045,,,,16.02100268
1715323561668509284,-0.045,,,,16.028697466
1715323561676204070,-0.043,,,,16.036392252
1715323561683898856,-0.035,,,,16.044087038
1715323561691593642,-0.033,,,,16.051781824
1715323561699288428,-0.011,,,,16.05947661
1715323561706983214,0.014,,,,16.067171396
1715323561714678000,-0.004,,,,16.074866182
1715323561722372786,-0.033,,,,16.082560968
1715323561730067572,-0.031,,,,16.090255754
1715323561737762358,-0.019,,,,16.09795054
1715323561745457144,-0.011,,,,16.105645326
1715323561753151930,-0.002,,,,16.113340112
1715323561760846716,-0.007,,,,16.121034898
1715323561768541502,-0.071,,,,16.128729684
1715323561776236288,-0.074,,,,16.13642447
1715323561783931074,0.333,,,,16.144119256
1715323561791625860,0.949,,,,16.151814042
1715323561799320646,0.982,,,,16.159508828
1715323561807015432,0.289,,,,16.167203614
1715323561814710218,-0.345,,,,16.1748984
1715323561822405004,-0.333,,,,16.182593186
1715323561830099790,-0.062,,,,16.190287972
1715323561837794576,-0.021,,,,16.197982758
1715323561845489362,-0.055,,,,16.205677544
1715323561853184148,-0.004,,,,16.21337233
1715323561860878934,0.019,,,,16.221067116
1715323561868573720,0.009,,,,16.228761902
1715323561876268506,0.028,,,,16.236456688
1715323561883963292,0.05,,,,16.244151474
1715323561891658078,0.062,,,,16.25184626
1715323561899352864,0.079,,,,16.259541046
1715323561907047650,0.093,,,,16.267235832
1715323561914742436,0.1,,,,16.274930618
1715323561922437222,0.115,,,,16.282625404
1715323561930132024,0.136,,,,16.290320206
1715323561937826810,0.148,,,,16.298014992
1715323561945521596,0.158,,,,16.305709778
1715323561953216382,0.172,,,,16.313404564
1715323561960911168,0.179,,,,16.32109935
1715323561968605954,0.172,,,,16.328794136
1715323561976300740,0.165,,,,16.336488922
1715323561983995526,0.165,,,,16.344183708
1715323561991690312,0.16,,,,16.351878494
1715323561999385098,0.143,,,,16.35957328
1715323562007079884,0.136,,,,16.367268066
1715323562014774670,0.131,,,,16.374962852
1715323562022469456,0.122,,,,16.382657638
1715323562030164242,0.093,,,,16.390352424
1715323562037859028,0.055,,,,16.39804721
1715323562045553814,0.014,,,,16.405741996
1715323562053248600,-0.021,,,,16.413436782
1715323562060943386,-0.047,,,,16.421131568
1715323562068638172,-0.067,,,,16.428826354
1715323562076332958,-0.081,,,,16.43652114
1715323562084027744,-0.081,,,,16.444215926
1715323562091722530,-0.071,,,,16.451910712
1715323562099417316,-0.069,,,,16.459605498
1715323562107112102,-0.062,,,,16.467300284
1715323562114806888,-0.052,,,,16.47499507
1715323562122501674,-0.043,,,,16.482689856
1715323562130196460,-0.033,,,,16.490384642
1715323562137891246,-0.021,,,,16.498079428
1715323562145586032,-0.019,,,,16.505774214
1715323562153280818,-0.023,,,,16.513469
1715323562160975604,-0.019,,,,16.521163786
1715323562168670390,-0.014,,,,16.528858572
1715323562176365176,-0.011,,,,16.536553358
1715323562184059962,-0.014,,,,16.544248144
1715323562191754748,-0.023,,,,16.55194293
1715323562199449534,-0.033,,,,16.559637716
1715323562207144320,-0.028,,,,16.567332502
1715323562214839106,-0.023,,,,16.575027288
1715323562222533892,-0.023,,,,16.582722074
1715323562230228678,-0.026,,,,16.59041686
1715323562237923464,-0.035,,,,16.598111646
1715323562245618250,-0.043,,,,16.605806432
1715323562253313036,-0.043,,,,16.613501218
1715323562261007822,-0.043,,,,16.621196004
1715323562268702608,-0.033,,,,16.62889079
1715323562276397394,-0.021,,,,16.636585576
1715323562284092180,-0.004,,,,16.644280362
1715323562291786966,0.023,,,,16.651975148
1715323562299481752,0.028,,,,16.659669934
1715323562307176538,-0.009,,,,16.66736472
1715323562314871324,-0.031,,,,16.675059506
1715323562322566110,-0.014,,,,16.682754292
1715323562330260896,-0.002,,,,16.690449078
1715323562337955682,-0.002,,,,16.698143864
1715323562345650468,0.009,,,,16.70583865
1715323562353345254,-0.016,,,,16.713533436
1715323562361040040,-0.079,,,,16.721228222
1715323562368734826,0.139,,,,16.728923008
1715323562376429612,0.764,,,,16.736617794
1715323562384124398,1.095,,,,16.74431258
1715323562391819184,0.582,,,,16.752007366
1715323562399513970,-0.227,,,,16.759702152
1715323562407208756,-0.462,,,,16.767396938
1715323562414903542,-0.158,,,,16.775091724
1715323562422598328,-0.002,,,,16.78278651
1715323562430293114,-0.057,,,,16.790481296
1715323562437987900,-0.014,,,,16.798176082
1715323562445682686,0.038,,,,16.805870868
1715323562453377472,0.019,,,,16.813565654
1715323562461072258,0.033,,,,16.82126044
1715323562468767044,0.067,,,,16.828955226
1715323562476461830,0.071,,,,16.836650012
1715323562484156616,0.079,,,,16.844344798
1715323562491851420,0.098,105.0,571.0,,16.852039602
1715323562499546624,0.103,,573.0,,16.859734806
1715323562507241828,0.112,,,,16.86743001
1715323562514937032,0.131,,,,16.875125214
1715323562522632236,0.148,,,,16.882820418
1715323562530327440,0.167,,,,16.890515622
1715323562538022644,0.186,,,,16.898210826
1715323562545717848,0.194,,,,16.90590603
1715323562553413052,0.196,,,,16.913601234
1715323562561108256,0.191,,,,16.921296438
1715323562568803460,0.189,,,,16.928991642
1715323562576498664,0.186,,,,16.936686846
1715323562584193868,0.179,,,,16.94438205
1715323562591889072,0.172,,,,16.952077254
1715323562599584276,0.16,,,,16.959772458
1715323562607279480,0.139,,,,16.967467662
1715323562614974684,0.112,,,,16.975162866
1715323562622669888,0.071,,,,16.98285807
1715323562630365092,0.019,,,,16.990553274
1715323562638060296,-0.019,,,,16.998248478
1715323562645755500,-0.047,,,,17.005943682
1715323562653450704,-0.076,,,,17.013638886
1715323562661145908,-0.088,,,,17.02133409
1715323562668841112,-0.088,,,,17.029029294
1715323562676536316,-0.086,,,,17.036724498
1715323562684231520,-0.074,,,,17.044419702
1715323562691926724,-0.069,,,,17.052114906
1715323562699621928,-0.076,,,,17.05981011
1715323562707317132,-0.067,,,,17.067505314
1715323562715012336,-0.047,,,,17.075200518
1715323562722707540,-0.035,,,,17.082895722
1715323562730402744,-0.031,,,,17.090590926
1715323562738097948,-0.023,,,,17.09828613
1715323562745793152,-0.019,,,,17.105981334
1715323562753488356,-0.014,,,,17.113676538
1715323562761183560,-0.007,,,,17.121371742
1715323562768878764,-0.002,,,,17.129066946
1715323562776573968,-0.002,,,,17.13676215
1715323562784269172,-0.002,,,,17.144457354
1715323562791964376,-0.004,,,,17.152152558
1715323562799659580,-0.011,,,,17.159847762
1715323562807354784,-0.016,,,,17.167542966
1715323562815049988,-0.021,,,,17.17523817
1715323562822745192,-0.021,,,,17.182933374
1715323562830440396,-0.026,,,,17.190628578
1715323562838135600,-0.033,,,,17.198323782
1715323562845830804,-0.033,,,,17.206018986
1715323562853526008,-0.028,,,,17.21371419
1715323562861221212,-0.019,,,,17.221409394
1715323562868916416,-0.007,,,,17.229104598
1715323562876611620,0.016,,,,17.236799802
1715323562884306824,0.04,,,,17.244495006
1715323562892002028,0.028,,,,17.25219021
1715323562899697232,0.002,,,,17.259885414
1715323562907392436,0.004,,,,17.267580618
1715323562915087640,0.021,,,,17.275275822
1715323562922782844,0.026,,,,17.282971026
1715323562930478048,0.031,,,,17.29066623
1715323562938173252,0.026,,,,17.298361434
1715323562945868456,-0.04,,,,17.306056638
1715323562953563660,-0.011,,,,17.313751842
1715323562961258864,0.46,,,,17.321447046
1715323562968954068,1.068,,,,17.32914225
1715323562976649272,0.98,,,,17.336837454
1715323562984344476,0.177,,,,17.344532658
1715323562992039680,-0.44,,,,17.352227862
1715323562999734884,-0.316,,,,17.359923066
1715323563007430088,0.002,,,,17.36761827
1715323563015125292,0.004,,,,17.375313474
1715323563022820496,-0.026,,,,17.383008678
1715323563030515700,0.047,,,,17.390703882
1715323563038210904,0.057,,,,17.398399086
1715323563045906108,0.035,,,,17.40609429
1715323563053601332,0.057,,,,17.413789514
1715323563061296118,0.076,,,,17.4214843
1715323563068990904,0.081,,,,17.429179086
1715323563076685690,0.098,,,,17.436873872
1715323563084380476,0.117,,,,17.444568658
1715323563092075262,0.131,,,,17.452263444
1715323563099770048,0.146,,,,17.45995823
1715323563107464834,0.162,,,,17.467653016
1715323563115159620,0.177,,,,17.475347802
1715323563122854406,0.198,,,,17.483042588
1715323563130549192,0.218,,,,17.490737374
1715323563138243978,0.222,,,,17.49843216
1715323563145938764,0.22,,,,17.506126946
1715323563153633550,0.222,,,,17.513821732
1715323563161328336,0.218,,,,17.521516518
1715323563169023122,0.203,,,,17.529211304
1715323563176717908,0.186,,,,17.53690609
1715323563184412694,0.179,,,,17.544600876
1715323563192107480,0.165,,,,17.552295662
1715323563199802266,0.129,,,,17.559990448
1715323563207497052,0.083,,,,17.567685234
1715323563215191838,0.04,,,,17.57538002
1715323563222886624,0.0,,,,17.583074806
1715323563230581410,-0.035,,,,17.590769592
1715323563238276196,-0.055,,,,17.598464378
1715323563245970982,-0.067,,,,17.606159164
1715323563253665768,-0.081,,,,17.61385395
1715323563261360554,-0.086,,,,17.621548736
1715323563269055340,-0.076,,,,17.629243522
1715323563276750126,-0.064,,,,17.636938308
1715323563284444912,-0.052,,,,17.644633094
1715323563292139698,-0.043,,,,17.65232788
1715323563299834484,-0.038,,,,17.660022666
1715323563307529270,-0.028,,,,17.667717452
1715323563315224056,-0.014,,,,17.675412238
1715323563322918842,-0.004,,,,17.683107024
1715323563330613628,0.0,,,,17.69080181
1715323563338308414,0.007,,,,17.698496596
1715323563346003200,0.011,,,,17.706191382
1715323563353697986,0.011,,,,17.713886168
1715323563361392772,0.016,,,,17.721580954
1715323563369087558,0.021,,,,17.72927574
1715323563376782344,0.019,,,,17.736970526
1715323563384477130,0.016,,,,17.744665312
1715323563392171916,0.019,,,,17.752360098
1715323563399866702,0.021,,,,17.760054884
1715323563407561488,0.019,,,,17.76774967
1715323563415256274,0.016,,,,17.775444456
1715323563422951060,0.023,,,,17.783139242
1715323563430645846,0.023,,,,17.790834028
1715323563438340632,0.021,,,,17.798528814
1715323563446035418,0.023,,,,17.8062236
1715323563453730204,0.028,,,,17.813918386
1715323563461424990,0.031,,,,17.821613172
1715323563469119776,0.026,,,,17.829307958
1715323563476814562,0.016,,,,17.837002744
1715323563484509348,0.011,,,,17.84469753
1715323563492204134,0.011,,,,17.852392316
1715323563499898920,0.011,,,,17.860087102
1715323563507593706,0.019,,,,17.867781888
1715323563515288492,0.026,,,,17.875476674
1715323563522983278,0.043,,,,17.88317146
1715323563530678064,0.074,,,,17.890866246
1715323563538372850,0.074,,,,17.898561032
1715323563546067636,0.035,,,,17.906255818
1715323563553762422,0.021,,,,17.913950604
1715323563561457208,0.043,,,,17.92164539
1715323563569151994,0.05,,,,17.929340176
1715323563576846780,0.047,,,,17.937034962
1715323563584541566,0.057,,,,17.944729748
1715323563592236352,0.019,,,,17.952424534
1715323563599931138,-0.055,,,,17.96011932
1715323563607625924,0.162,,,,17.967814106
1715323563615320726,0.8240000000000001,105.0,583.0,,17.975508908
1715323563623015930,1.243,,,,17.983204112
1715323563630711134,0.807,,,,17.990899316
1715323563638406338,-0.009,,,,17.99859452
1715323563646101542,-0.318,,,,18.006289724
1715323563653796746,-0.079,,,,18.013984928
1715323563661491950,0.033,,,,18.021680132
1715323563669187154,-0.038,,,,18.029375336
1715323563676882358,0.0,,,,18.03707054
1715323563684577562,0.04,,,,18.044765744
1715323563692272766,0.023,,,,18.052460948
1715323563699967970,0.043,,,,18.060156152
1715323563707663174,0.069,,,,18.067851356
1715323563715358378,0.064,,,,18.07554656
1715323563723053582,0.079,,,,18.083241764
1715323563730748786,0.11,,,,18.090936968
1715323563738443990,0.122,,,,18.098632172
1715323563746139194,0.134,,,,18.106327376
1715323563753834398,0.155,,,,18.11402258
1715323563761529602,0.174,,,,18.121717784
1715323563769224806,0.191,,,,18.129412988
1715323563776920010,0.208,,,,18.137108192
1715323563784615214,0.225,,,,18.144803396
1715323563792310418,0.23,,,,18.1524986
1715323563800005622,0.23,,,,18.160193804
1715323563807700826,0.232,,,,18.167889008
1715323563815396030,0.23,,,,18.175584212
1715323563823091234,0.22,,,,18.183279416
1715323563830786438,0.208,,,,18.19097462
1715323563838481642,0.198,,,,18.198669824
1715323563846176846,0.189,,,,18.206365028
1715323563853872050,0.162,,,,18.214060232
1715323563861567254,0.127,,,,18.221755436
1715323563869262458,0.088,,,,18.22945064
1715323563876957662,0.052,,,,18.237145844
1715323563884652866,0.026,,,,18.244841048
1715323563892348070,0.007,,,,18.252536252
1715323563900043274,-0.004,,,,18.260231456
1715323563907738478,-0.007,,,,18.26792666
1715323563915433682,-0.007,,,,18.275621864
1715323563923128886,0.0,,,,18.283317068
1715323563930824090,0.007,,,,18.291012272
1715323563938519294,0.014,,,,18.298707476
1715323563946214498,0.019,,,,18.30640268
1715323563953909702,0.023,,,,18.314097884
1715323563961604906,0.033,,,,18.321793088
1715323563969300110,0.04,,,,18.329488292
1715323563976995314,0.043,,,,18.337183496
1715323563984690518,0.045,,,,18.3448787
1715323563992385722,0.05,,,,18.352573904
1715323564000080926,0.055,,,,18.360269108
1715323564007776130,0.059,,,,18.367964312
1715323564015471334,0.062,,,,18.375659516
1715323564023166538,0.064,,,,18.38335472
1715323564030861742,0.064,,,,18.391049924
1715323564038556946,0.057,,,,18.398745128
1715323564046252150,0.057,,,,18.406440332
1715323564053947354,0.062,,,,18.414135536
1715323564061642558,0.057,,,,18.42183074
1715323564069337762,0.052,,,,18.429525944
1715323564077032966,0.057,,,,18.437221148
1715323564084728170,0.059,,,,18.444916352
1715323564092423374,0.059,,,,18.452611556
1715323564100118578,0.059,,,,18.46030676
1715323564107813782,0.064,,,,18.468001964
1715323564115508986,0.069,,,,18.475697168
1715323564123204190,0.069,,,,18.483392372
1715323564130899394,0.069,,,,18.491087576
1715323564138594598,0.071,,,,18.49878278
1715323564146289802,0.076,,,,18.506477984
1715323564153985006,0.074,,,,18.514173188
1715323564161680210,0.071,,,,18.521868392
1715323564169375414,0.069,,,,18.529563596
1715323564177070638,0.069,104.0,587.0,,18.53725882
1715323564184765563,0.069,,589.0,,18.544953745
1715323564192460488,0.069,,,,18.55264867
1715323564200155413,0.074,,,,18.560343595
1715323564207850338,0.079,,,,18.56803852
1715323564215545263,0.069,,,,18.575733445
1715323564223240188,0.057,,,,18.58342837
1715323564230935113,0.064,,,,18.591123295
1715323564238630038,0.071,,,,18.59881822
1715323564246324963,0.057,,,,18.606513145
1715323564254019888,0.038,,,,18.61420807
1715323564261714813,0.038,,,,18.621902995
1715323564269409738,0.05,,,,18.62959792
1715323564277104663,0.052,,,,18.637292845
1715323564284799588,0.059,,,,18.64498777
1715323564292494513,0.088,,,,18.652682695
1715323564300189438,0.122,,,,18.66037762
1715323564307884363,0.115,,,,18.668072545
1715323564315579288,0.074,,,,18.67576747
1715323564323274213,0.067,,,,18.683462395
1715323564330969138,0.081,,,,18.69115732
1715323564338664063,0.088,,,,18.698852245
1715323564346358988,0.093,,,,18.70654717
1715323564354053913,0.1,,,,18.714242095
1715323564361748838,0.057,,,,18.72193702
1715323564369443763,0.004,,,,18.729631945
1715323564377138688,0.294,,,,18.73732687
1715323564384833613,0.97,,,,18.745021795
1715323564392528538,1.291,,,,18.75271672
1715323564400223463,0.778,,,,18.760411645
1715323564407918388,-0.021,,,,18.76810657
1715323564415613313,-0.254,,,,18.775801495
1715323564423308238,0.009,,,,18.78349642
1715323564431003163,0.093,,,,18.791191345
1715323564438698088,0.021,,,,18.79888627
1715323564446393013,0.076,,,,18.806581195
1715323564454087938,0.115,,,,18.81427612
1715323564461782863,0.093,,,,18.821971045
1715323564469477788,0.117,,,,18.82966597
1715323564477172713,0.148,,,,18.837360895
1715323564484867638,0.153,,,,18.84505582
1715323564492562563,0.162,,,,18.852750745
1715323564500257488,0.182,,,,18.86044567
1715323564507952413,0.196,,,,18.868140595
1715323564515647338,0.213,,,,18.87583552
1715323564523342263,0.23,,,,18.883530445
1715323564531037188,0.242,,,,18.89122537
1715323564538732113,0.254,,,,18.898920295
1715323564546427038,0.27,,,,18.90661522
1715323564554121963,0.285,,,,18.914310145
1715323564561816888,0.297,,,,18.92200507
1715323564569511813,0.301,,,,18.929699995
1715323564577206738,0.299,,,,18.93739492
1715323564584901663,0.292,,,,18.945089845
1715323564592596588,0.282,,,,18.95278477
1715323564600291513,0.275,,,,18.960479695
1715323564607986438,0.266,,,,18.96817462
1715323564615681363,0.251,,,,18.975869545
1715323564623376288,0.239,,,,18.98356447
1715323564631071213,0.213,,,,18.991259395
1715323564638766138,0.172,,,,18.99895432
1715323564646461063,0.136,,,,19.006649245
1715323564654155988,0.11,,,,19.01434417
1715323564661850913,0.088,,,,19.022039095
1715323564669545838,0.074,,,,19.02973402
1715323564677240763,0.062,,,,19.037428945
1715323564684935688,0.057,,,,19.04512387
1715323564692630613,0.059,,,,19.052818795
1715323564700325538,0.064,,,,19.06051372
1715323564708020463,0.067,,,,19.068208645
1715323564715715388,0.064,,,,19.07590357
1715323564723410313,0.057,,,,19.083598495
1715323564731105238,0.055,,,,19.09129342
1715323564738800206,0.064,,,,19.098988388
1715323564746495270,0.069,,,,19.106683452
1715323564754190334,0.067,,,,19.114378516
1715323564761885398,0.071,,,,19.12207358
1715323564769580462,0.074,,,,19.129768644
1715323564777275526,0.067,,,,19.137463708
1715323564784970590,0.067,,,,19.145158772
1715323564792665654,0.071,,,,19.152853836
1715323564800360718,0.076,,,,19.1605489
1715323564808055782,0.079,,,,19.168243964
1715323564815750846,0.074,,,,19.175939028
1715323564823445910,0.064,,,,19.183634092
1715323564831140974,0.064,,,,19.191329156
1715323564838836038,0.074,,,,19.19902422
1715323564846531102,0.074,,,,19.206719284
1715323564854226166,0.071,,,,19.214414348
1715323564861921230,0.079,,,,19.222109412
1715323564869616294,0.081,,,,19.229804476
1715323564877311358,0.079,,,,19.23749954
1715323564885006422,0.083,,,,19.245194604
1715323564892701486,0.091,,,,19.252889668
1715323564900396550,0.095,,,,19.260584732
1715323564908091614,0.093,,,,19.268279796
1715323564915786678,0.093,,,,19.27597486
1715323564923481742,0.103,,,,19.283669924
1715323564931176806,0.105,,,,19.291364988
1715323564938871870,0.105,,,,19.299060052
1715323564946566934,0.107,,,,19.306755116
1715323564954261998,0.11,,,,19.31445018
1715323564961957062,0.11,,,,19.322145244
1715323564969652126,0.11,,,,19.329840308
1715323564977347190,0.117,,,,19.337535372
1715323564985042254,0.127,,,,19.345230436
1715323564992737318,0.127,,,,19.3529255
1715323565000432382,0.124,,,,19.360620564
1715323565008127446,0.127,,,,19.368315628
1715323565015822510,0.129,,,,19.376010692
1715323565023517574,0.124,,,,19.383705756
1715323565031212638,0.122,,,,19.39140082
1715323565038907702,0.129,,,,19.399095884
1715323565046602766,0.134,,,,19.406790948
1715323565054297830,0.129,,,,19.414486012
1715323565061992894,0.117,,,,19.422181076
1715323565069687958,0.11,,,,19.42987614
1715323565077383022,0.112,,,,19.437571204
1715323565085078086,0.124,,,,19.445266268
1715323565092773150,0.134,,,,19.452961332
1715323565100468214,0.155,,,,19.460656396
1715323565108163278,0.189,,,,19.46835146
1715323565115858342,0.191,,,,19.476046524
1715323565123553406,0.158,,,,19.483741588
1715323565131248470,0.136,,,,19.491436652
1715323565138943534,0.15,,,,19.499131716
1715323565146638598,0.165,,,,19.50682678
1715323565154333662,0.167,,,,19.514521844
1715323565162028726,0.17,,,,19.522216908
1715323565169723790,0.141,,,,19.529911972
1715323565177418854,0.074,,,,19.537607036
1715323565185113918,0.234,,,,19.5453021
1715323565192808982,0.834,,,,19.552997164
1715323565200504046,1.296,,,,19.560692228
1715323565208199110,0.951,,,,19.568387292
1715323565215894174,0.119,,,,19.576082356
1715323565223589238,-0.294,,,,19.58377742
1715323565231284302,-0.055,,,,19.591472484
1715323565238979366,0.15,,,,19.599167548
1715323565246674430,0.079,,,,19.606862612
1715323565254369494,0.093,,,,19.614557676
1715323565262064558,0.167,,,,19.62225274
1715323565269759622,0.143,,,,19.629947804
1715323565277454686,0.134,,,,19.637642868
1715323565285149750,0.177,,,,19.645337932
1715323565292844814,0.191,,,,19.653032996
1715323565300539944,0.189,104.0,650.0,,19.660728126
1715323565308234730,0.206,,,,19.668422912
1715323565315929516,0.222,,,,19.676117698
1715323565323624302,0.227,,,,19.683812484
1715323565331319088,0.232,,,,19.69150727
1715323565339013874,0.251,,,,19.699202056
1715323565346708660,0.278,,,,19.706896842
1715323565354403446,0.289,,,,19.714591628
1715323565362098232,0.301,,,,19.722286414
1715323565369793018,0.316,,,,19.7299812
1715323565377487804,0.325,,,,19.737675986
1715323565385182590,0.325,,,,19.745370772
1715323565392877376,0.316,,,,19.753065558
1715323565400572162,0.311,,,,19.760760344
1715323565408266948,0.306,,,,19.76845513
1715323565415961734,0.294,,,,19.776149916
1715323565423656520,0.275,,,,19.783844702
1715323565431351306,0.254,,,,19.791539488
1715323565439046092,0.237,,,,19.799234274
1715323565446740878,0.21,,,,19.80692906
1715323565454435664,0.165,,,,19.814623846
1715323565462130450,0.129,,,,19.822318632
1715323565469825236,0.11,,,,19.830013418
1715323565477520022,0.088,,,,19.837708204
1715323565485214808,0.067,,,,19.84540299
1715323565492909594,0.055,,,,19.853097776
1715323565500604380,0.062,,,,19.860792562
1715323565508299166,0.064,,,,19.868487348
1715323565515993952,0.059,,,,19.876182134
1715323565523688738,0.067,,,,19.88387692
1715323565531383524,0.083,,,,19.891571706
1715323565539078310,0.091,,,,19.899266492
1715323565546773096,0.091,,,,19.906961278
1715323565554467882,0.098,,,,19.914656064
1715323565562162668,0.112,,,,19.92235085
1715323565569857454,0.122,,,,19.930045636
1715323565577552240,0.115,,,,19.937740422
1715323565585247026,0.112,,,,19.945435208
1715323565592941812,0.124,,,,19.953129994
1715323565600636598,0.131,,,,19.96082478
1715323565608331384,0.131,,,,19.968519566
1715323565616026170,0.131,,,,19.976214352
1715323565623720956,0.134,,,,19.983909138
1715323565631415742,0.131,,,,19.991603924
1715323565639110528,0.134,,,,19.99929871
1715323565646805314,0.136,,,,20.006993496
1715323565654500100,0.134,,,,20.014688282
1715323565662194886,0.136,,,,20.022383068
1715323565669889672,0.136,,,,20.030077854
1715323565677584458,0.136,,,,20.03777264
1715323565685279244,0.139,,,,20.045467426
1715323565692974030,0.139,,,,20.053162212
1715323565700668816,0.143,,,,20.060856998
1715323565708363602,0.143,,,,20.068551784
1715323565716058388,0.139,,,,20.07624657
1715323565723753174,0.139,,,,20.083941356
1715323565731447960,0.139,,,,20.091636142
1715323565739142746,0.141,,,,20.099330928
1715323565746837532,0.139,,,,20.107025714
1715323565754532318,0.134,,,,20.1147205
1715323565762227104,0.131,,,,20.122415286
1715323565769921890,0.136,,,,20.130110072
1715323565777616676,0.143,,,,20.137804858
1715323565785311462,0.139,,,,20.145499644
1715323565793006248,0.131,,,,20.15319443
1715323565800701034,0.136,,,,20.160889216
1715323565808395820,0.141,,,,20.168584002
1715323565816090606,0.139,,,,20.176278788
1715323565823785392,0.134,,,,20.183973574
1715323565831480178,0.127,,,,20.19166836
1715323565839174964,0.124,,,,20.199363146
1715323565846869750,0.124,,,,20.207057932
1715323565854564536,0.131,,,,20.214752718
1715323565862259340,0.15,,,,20.222447522
1715323565869954544,0.186,,,,20.230142726
1715323565877649748,0.201,,,,20.23783793
1715323565885344952,0.167,,,,20.245533134
1715323565893040156,0.131,,,,20.253228338
1715323565900735360,0.127,,,,20.260923542
1715323565908430564,0.129,,,,20.268618746
1715323565916125768,0.136,,,,20.27631395
1715323565923820972,0.148,,,,20.284009154
1715323565931516176,0.143,,,,20.291704358
1715323565939211380,0.091,,,,20.299399562
1715323565946906584,0.103,,,,20.307094766
1715323565954601788,0.498,,,,20.31478997
1715323565962296992,1.092,,,,20.322485174
1715323565969992196,1.088,,,,20.330180378
1715323565977687400,0.337,,,,20.337875582
1715323565985382604,-0.328,,,,20.345570786
1715323565993077808,-0.273,,,,20.35326599
1715323566000773012,0.081,,,,20.360961194
1715323566008468216,0.139,,,,20.368656398
1715323566016163420,0.083,,,,20.376351602
1715323566023858624,0.143,,,,20.384046806
1715323566031553828,0.17,,,,20.39174201
1715323566039249032,0.153,,,,20.399437214
1715323566046944236,0.179,,,,20.407132418
1715323566054639440,0.206,,,,20.414827622
1715323566062334644,0.21,,,,20.422522826
1715323566070029848,0.22,,,,20.43021803
1715323566077725052,0.237,,,,20.437913234
1715323566085420256,0.254,,,,20.445608438
1715323566093115460,0.27,,,,20.453303642
1715323566100810664,0.287,,,,20.460998846
1715323566108505868,0.299,,,,20.46869405
1715323566116201072,0.311,,,,20.476389254
1715323566123896276,0.33,,,,20.484084458
1715323566131591480,0.347,,,,20.491779662
1715323566139286684,0.357,,,,20.499474866
1715323566146981888,0.357,,,,20.50717007
1715323566154677092,0.349,,,,20.514865274
1715323566162372296,0.342,,,,20.522560478
1715323566170067500,0.333,,,,20.530255682
1715323566177762704,0.318,,,,20.537950886
1715323566185457908,0.304,,,,20.54564609
1715323566193153112,0.285,,,,20.553341294
1715323566200848316,0.261,,,,20.561036498
1715323566208543520,0.227,,,,20.568731702
1715323566216238724,0.186,,,,20.576426906
1715323566223933928,0.146,,,,20.58412211
1715323566231629132,0.107,,,,20.591817314
1715323566239324336,0.081,,,,20.599512518
1715323566247019540,0.064,,,,20.607207722
1715323566254714744,0.045,,,,20.614902926
1715323566262409948,0.035,,,,20.62259813
1715323566270105152,0.043,,,,20.630293334
1715323566277800356,0.055,,,,20.637988538
1715323566285495560,0.062,,,,20.645683742
1715323566293190764,0.069,,,,20.653378946
1715323566300885968,0.081,,,,20.66107415
1715323566308581172,0.093,,,,20.668769354
1715323566316276376,0.1,,,,20.676464558
1715323566323971580,0.11,,,,20.684159762
1715323566331666784,0.119,,,,20.691854966
1715323566339361988,0.124,,,,20.69955017
1715323566347057192,0.127,,,,20.707245374
1715323566354752396,0.131,,,,20.714940578
1715323566362447600,0.134,,,,20.722635782
1715323566370142804,0.134,,,,20.730330986
1715323566377838008,0.129,,,,20.73802619
1715323566385533212,0.124,,,,20.745721394
1715323566393228416,0.122,,,,20.753416598
1715323566400923620,0.124,,,,20.761111802
1715323566408618824,0.119,,,,20.768807006
1715323566416314028,0.117,,,,20.77650221
1715323566424009252,0.122,102.0,769.0,,20.784197434
1715323566431704456,0.122,,,,20.791892638
1715323566439399660,0.119,,,,20.799587842
1715323566447094864,0.119,,,,20.807283046
1715323566454790068,0.122,,,,20.81497825
1715323566462485272,0.124,,,,20.822673454
1715323566470180476,0.119,,,,20.830368658
1715323566477875680,0.115,,,,20.838063862
1715323566485570884,0.115,,,,20.845759066
1715323566493266088,0.112,,,,20.85345427
1715323566500961292,0.107,,,,20.861149474
1715323566508656496,0.107,,,,20.868844678
1715323566516351700,0.11,,,,20.876539882
1715323566524046904,0.112,,,,20.884235086
1715323566531742108,0.103,,,,20.89193029
1715323566539437312,0.1,,,,20.899625494
1715323566547132516,0.107,,,,20.907320698
1715323566554827720,0.107,,,,20.915015902
1715323566562522924,0.107,,,,20.922711106
1715323566570218128,0.112,,,,20.93040631
1715323566577913332,0.117,,,,20.938101514
1715323566585608536,0.117,,,,20.945796718
1715323566593303740,0.117,,,,20.953491922
1715323566600998944,0.119,,,,20.961187126
1715323566608694148,0.117,,,,20.96888233
1715323566616389352,0.1,,,,20.976577534
1715323566624084556,0.088,,,,20.984272738
1715323566631779760,0.1,,,,20.991967942
1715323566639474964,0.115,,,,20.999663146
1715323566647170168,0.122,,,,21.00735835
1715323566654865372,0.143,,,,21.015053554
1715323566662560576,0.174,,,,21.022748758
1715323566670255780,0.174,,,,21.030443962
1715323566677950984,0.146,,,,21.038139166
1715323566685646188,0.131,,,,21.04583437
1715323566693341392,0.141,,,,21.053529574
1715323566701036596,0.15,,,,21.061224778
1715323566708731800,0.153,,,,21.068919982
1715323566716427004,0.153,,,,21.076615186
1715323566724122208,0.122,,,,21.08431039
1715323566731817412,0.043,,,,21.092005594
1715323566739512616,0.198,,,,21.099700798
1715323566747207820,0.836,,,,21.107396002
1715323566754903024,1.349,,,,21.115091206
1715323566762598228,1.032,,,,21.12278641
1715323566770293432,0.198,,,,21.130481614
1715323566777988636,-0.23,,,,21.138176818
1715323566785683840,-0.028,,,,21.145872022
1715323566793379044,0.124,,,,21.153567226
1715323566801074248,0.045,,,,21.16126243
1715323566808769452,0.069,,,,21.168957634
1715323566816464656,0.131,,,,21.176652838
1715323566824159860,0.115,,,,21.184348042
1715323566831855064,0.122,,,,21.192043246
1715323566839550268,0.158,,,,21.19973845
1715323566847245472,0.167,,,,21.207433654
1715323566854940676,0.17,,,,21.215128858
1715323566862635880,0.189,,,,21.222824062
1715323566870331084,0.206,,,,21.230519266
1715323566878026288,0.22,,,,21.23821447
1715323566885721492,0.239,,,,21.245909674
1715323566893416696,0.254,,,,21.253604878
1715323566901111900,0.268,,,,21.261300082
1715323566908807104,0.282,,,,21.268995286
1715323566916502308,0.301,,,,21.27669049
1715323566924197512,0.316,,,,21.284385694
1715323566931892716,0.323,,,,21.292080898
1715323566939587920,0.325,,,,21.299776102
1715323566947283124,0.321,,,,21.307471306
1715323566954978328,0.309,,,,21.31516651
1715323566962673532,0.294,,,,21.322861714
1715323566970368736,0.278,,,,21.330556918
1715323566978063940,0.258,,,,21.338252122
1715323566985759164,0.234,,,,21.345947346
1715323566993453950,0.201,,,,21.353642132
1715323567001148736,0.165,,,,21.361336918
1715323567008843522,0.129,,,,21.369031704
1715323567016538308,0.098,,,,21.37672649
1715323567024233094,0.076,,,,21.384421276
1715323567031927880,0.059,,,,21.392116062
1715323567039622666,0.043,,,,21.399810848
1715323567047317452,0.031,,,,21.407505634
1715323567055012238,0.028,,,,21.41520042
1715323567062707024,0.033,,,,21.422895206
1715323567070401810,0.031,,,,21.430589992
1715323567078096596,0.031,,,,21.438284778
1715323567085791382,0.033,,,,21.445979564
1715323567093486168,0.04,,,,21.45367435
1715323567101180954,0.047,,,,21.461369136
1715323567108875740,0.052,,,,21.469063922
1715323567116570526,0.062,,,,21.476758708
1715323567124265312,0.067,,,,21.484453494
1715323567131960098,0.067,,,,21.49214828
1715323567139654884,0.071,,,,21.499843066
1715323567147349670,0.079,,,,21.507537852
1715323567155044456,0.083,,,,21.515232638
1715323567162739242,0.083,,,,21.522927424
1715323567170434028,0.086,,,,21.53062221
1715323567178128814,0.088,,,,21.538316996
1715323567185823600,0.091,,,,21.546011782
1715323567193518386,0.093,,,,21.553706568
1715323567201213172,0.095,,,,21.561401354
1715323567208907958,0.093,,,,21.56909614
1715323567216602744,0.093,,,,21.576790926
1715323567224297530,0.093,,,,21.584485712
1715323567231992316,0.093,,,,21.592180498
1715323567239687102,0.088,,,,21.599875284
1715323567247381888,0.081,,,,21.60757007
1715323567255076674,0.086,,,,21.615264856
1715323567262771460,0.093,,,,21.622959642
1715323567270466246,0.091,,,,21.630654428
1715323567278161032,0.093,,,,21.638349214
1715323567285855818,0.1,,,,21.646044
1715323567293550604,0.103,,,,21.653738786
1715323567301245390,0.107,,,,21.661433572
1715323567308940176,0.107,,,,21.669128358
1715323567316634962,0.105,,,,21.676823144
1715323567324329748,0.11,,,,21.68451793
1715323567332024534,0.115,,,,21.692212716
1715323567339719320,0.117,,,,21.699907502
1715323567347414106,0.119,,,,21.707602288
1715323567355108892,0.124,,,,21.715297074
1715323567362803678,0.124,,,,21.72299186
1715323567370498464,0.122,,,,21.730686646
1715323567378193250,0.124,,,,21.738381432
1715323567385888036,0.131,,,,21.746076218
1715323567393582822,0.134,,,,21.753771004
1715323567401277608,0.129,,,,21.76146579
1715323567408972394,0.117,,,,21.769160576
1715323567416667180,0.107,,,,21.776855362
1715323567424361966,0.105,,,,21.784550148
1715323567432056752,0.112,,,,21.792244934
1715323567439751538,0.124,,,,21.79993972
1715323567447446324,0.139,,,,21.807634506
1715323567455141110,0.167,,,,21.815329292
1715323567462835896,0.189,,,,21.823024078
1715323567470530682,0.174,,,,21.830718864
1715323567478225468,0.141,,,,21.83841365
1715323567485920254,0.131,,,,21.846108436
1715323567493615040,0.136,,,,21.853803222
1715323567501309826,0.143,,,,21.861498008
1715323567509004612,0.15,,,,21.869192794
1715323567516699398,0.15,,,,21.87688758
1715323567524394184,0.107,,,,21.884582366
1715323567532088970,0.067,,,,21.892277152
1715323567539783756,0.354,,,,21.899971938
1715323567547478558,1.004,96.0,810.0,,21.90766674
1715323567555173762,1.298,,,,21.915361944
1715323567562868966,0.783,,,,21.923057148
1715323567570564170,0.0,,,,21.930752352
1715323567578259374,-0.232,,,,21.938447556
1715323567585954578,0.026,,,,21.94614276
1715323567593649782,0.129,,,,21.953837964
1715323567601344986,0.064,,,,21.961533168
1715323567609040190,0.105,,,,21.969228372
1715323567616735394,0.141,,,,21.976923576
1715323567624430598,0.124,,,,21.98461878
1715323567632125802,0.136,,,,21.992313984
1715323567639821006,0.155,,,,22.000009188
1715323567647516210,0.153,,,,22.007704392
1715323567655211414,0.167,,,,22.015399596
1715323567662906618,0.194,,,,22.0230948
1715323567670601822,0.201,,,,22.030790004
1715323567678297026,0.213,,,,22.038485208
1715323567685992230,0.234,,,,22.046180412
1715323567693687434,0.251,,,,22.053875616
1715323567701382638,0.268,,,,22.06157082
1715323567709077842,0.275,,,,22.069266024
1715323567716773046,0.285,,,,22.076961228
1715323567724468250,0.299,,,,22.084656432
1715323567732163454,0.294,,,,22.092351636
1715323567739858658,0.282,,,,22.10004684
