HRV_ULF,HRV_VLF,HRV_LF,HRV_HF,HRV_VHF,HRV_TP,HRV_LFHF,HRV_LFn,HRV_HFn,HRV_LnHF,time
,,0.011685811755051612,0.04382527013860503,0.0015004856719154466,0.05701156756557209,0.2666455156601021,0.20497264422015984,0.7687083869111162,-3.127544684164058,0.0
,,0.011685811755051612,0.04382527013860503,0.0015004856719154466,0.05701156756557209,0.2666455156601021,0.20497264422015984,0.7687083869111162,-3.127544684164058,0.038461538461538464
,,0.011685811755051612,0.04382527013860503,0.0015004856719154466,0.05701156756557209,0.2666455156601021,0.20497264422015984,0.7687083869111162,-3.127544684164058,0.07692307692307693
,,0.011685811755051612,0.04382527013860503,0.0015004856719154466,0.05701156756557209,0.2666455156601021,0.20497264422015984,0.7687083869111162,-3.127544684164058,0.11538461538461539
,,0.011685811755051612,0.04382527013860503,0.0015004856719154466,0.05701156756557209,0.2666455156601021,0.20497264422015984,0.7687083869111162,-3.127544684164058,0.15384615384615385
,,0.011685811755051612,0.04382527013860503,0.0015004856719154466,0.05701156756557209,0.2666455156601021,0.20497264422015984,0.7687083869111162,-3.127544684164058,0.19230769230769232
,,0.011685811755051612,0.04382527013860503,0.0015004856719154466,0.05701156756557209,0.2666455156601021,0.20497264422015984,0.7687083869111162,-3.127544684164058,0.23076923076923078
,,0.01138724212676243,0.04271327813842164,0.0015581181168920015,0.05565863838207607,0.26663948138902693,0.20459074202629973,0.7674150748211034,-3.1532454436575863,0.2692307692307692
,,0.01138724212676243,0.04271327813842164,0.0015581181168920015,0.05565863838207607,0.2666347880670796,0.20459074202629973,0.7674150748211034,-3.1532454436575863,0.3076923076923077
,,0.01138724212676243,0.04271327813842164,0.0015581181168920015,0.05565863838207607,0.26663103340952166,0.20459074202629973,0.7674150748211034,-3.1532454436575863,0.34615384615384615
,,0.01138724212676243,0.04271327813842164,0.0015581181168920015,0.05565863838207607,0.26662796141697426,0.20459074202629973,0.7674150748211034,-3.1532454436575863,0.38461538461538464
,,0.01138724212676243,0.04271327813842164,0.0015581181168920015,0.05565863838207607,0.2666254014231848,0.20459074202629973,0.7674150748211034,-3.1532454436575863,0.4230769230769231
,,0.01138724212676243,0.04271327813842164,0.0015581181168920015,0.05565863838207607,0.26662323527459375,0.20459074202629973,0.7674150748211034,-3.1532454436575863,0.46153846153846156
,,0.01138724212676243,0.04271327813842164,0.0015581181168920015,0.05565863838207607,0.26662137857580137,0.20459074202629973,0.7674150748211034,-3.1532454436575863,0.5
,,0.01138724212676243,0.04271327813842164,0.0015581181168920015,0.05565863838207607,0.266619769436848,0.20459074202629973,0.7674150748211034,-3.1532454436575863,0.5384615384615384
,,0.0124808048845386,0.04157822223769138,0.001502422020072469,0.055561449142302446,0.26871706458145994,0.22463065807684585,0.748328614165595,-3.1801787526925787,0.5769230769230769
,,0.0124808048845386,0.04157822223769138,0.001502422020072469,0.055561449142302446,0.2705676191208234,0.22463065807684585,0.748328614165595,-3.1801787526925787,0.6153846153846154
,,0.0124808048845386,0.04157822223769138,0.001502422020072469,0.055561449142302446,0.2722125564891465,0.22463065807684585,0.748328614165595,-3.1801787526925787,0.6538461538461539
,,0.0124808048845386,0.04157822223769138,0.001502422020072469,0.055561449142302446,0.2736843425555408,0.22463065807684585,0.748328614165595,-3.1801787526925787,0.6923076923076923
,,0.0124808048845386,0.04157822223769138,0.001502422020072469,0.055561449142302446,0.27500895001529574,0.22463065807684585,0.748328614165595,-3.1801787526925787,0.7307692307692307
,,0.0124808048845386,0.04157822223769138,0.001502422020072469,0.055561449142302446,0.2762074043836454,0.22463065807684585,0.748328614165595,-3.1801787526925787,0.7692307692307693
,,0.012191669765206695,0.04145755031266935,0.0016231947410530034,0.055272414818929055,0.2770196123975744,0.2205742196201537,0.7500586042510206,-3.1830852592804386,0.8076923076923077
,,0.0124808048845386,0.04157822223769138,0.001502422020072469,0.055561449142302446,0.278026433239012,0.22463065807684585,0.748328614165595,-3.1801787526925787,0.8461538461538461
,,0.0124808048845386,0.04157822223769138,0.001502422020072469,0.055561449142302446,0.2789493523436631,0.22463065807684585,0.748328614165595,-3.1801787526925787,0.8846153846153846
,,,0.03506511660165491,0.0021475845463624433,0.03721270114801735,0.2789493523436631,,0.9422889368385218,-3.3505484716984952,0.9230769230769231
,,,0.03506511660165491,0.0021475845463624433,0.03721270114801735,0.2789493523436631,,0.9422889368385218,-3.3505484716984952,0.9615384615384616
,,,0.03506511660165491,0.0021475845463624433,0.03721270114801735,0.2789493523436631,,0.9422889368385218,-3.3505484716984952,1.0
,,,0.03506511660165491,0.0021475845463624433,0.03721270114801735,0.2789493523436631,,0.9422889368385218,-3.3505484716984952,1.0384615384615385
,,,0.03506511660165491,0.0021475845463624433,0.03721270114801735,0.2789493523436631,,0.9422889368385218,-3.3505484716984952,1.0769230769230769
,,,0.03506511660165491,0.0021475845463624433,0.03721270114801735,0.2789493523436631,,0.9422889368385218,-3.3505484716984952,1.1153846153846154
,,,0.03506511660165491,0.0021475845463624433,0.03721270114801735,0.2789493523436631,,0.9422889368385218,-3.3505484716984952,1.1538461538461537
,,,0.03506511660165491,0.0021475845463624433,0.03721270114801735,0.2789493523436631,,0.9422889368385218,-3.3505484716984952,1.1923076923076923
,,,0.03506511660165491,0.0021475845463624433,0.03721270114801735,0.2789493523436631,,0.9422889368385218,-3.3505484716984952,1.2307692307692308
,,0.01527587672292869,0.036313452889438755,0.0021585968934687803,0.05374792650583622,0.28461806423809644,0.28421332162962526,0.6756251868710815,-3.3155670033528253,1.2692307692307692
,,0.01527587672292869,0.036313452889438755,0.0021585968934687803,0.05374792650583622,0.2898507213714195,0.28421332162962526,0.6756251868710815,-3.3155670033528253,1.3076923076923077
,,0.01527587672292869,0.036313452889438755,0.0021585968934687803,0.05374792650583622,0.29469577427264454,0.28421332162962526,0.6756251868710815,-3.3155670033528253,1.3461538461538463
,,0.01527587672292869,0.036313452889438755,0.0021585968934687803,0.05374792650583622,0.2991947519666392,0.28421332162962526,0.6756251868710815,-3.3155670033528253,1.3846153846153846
,,0.01527587672292869,0.036313452889438755,0.0021585968934687803,0.05374792650583622,0.30338345533691014,0.28421332162962526,0.6756251868710815,-3.3155670033528253,1.4230769230769231
,,0.01527587672292869,0.036313452889438755,0.0021585968934687803,0.05374792650583622,0.30729291181582963,0.28421332162962526,0.6756251868710815,-3.3155670033528253,1.4615384615384615
,,0.01527587672292869,0.036313452889438755,0.0021585968934687803,0.05374792650583622,0.3109501452961092,0.28421332162962526,0.6756251868710815,-3.3155670033528253,1.5
,,0.01527587672292869,0.036313452889438755,0.0021585968934687803,0.05374792650583622,0.3143788016838713,0.28421332162962526,0.6756251868710815,-3.3155670033528253,1.5384615384615385
,,,0.04171877526762767,0.0024912637385667994,0.04421003900619447,0.3143788016838713,,0.9436493657420719,-3.1768040052817157,1.5769230769230769
,,,0.04171877526762767,0.0024912637385667994,0.04421003900619447,0.3143788016838713,,0.9436493657420719,-3.1768040052817157,1.6153846153846154
,,,0.04171877526762767,0.0024912637385667994,0.04421003900619447,0.3143788016838713,,0.9436493657420719,-3.1768040052817157,1.6538461538461537
,,,0.04171877526762767,0.0024912637385667994,0.04421003900619447,0.3143788016838713,,0.9436493657420719,-3.1768040052817157,1.6923076923076923
,,,0.04171877526762767,0.0024912637385667994,0.04421003900619447,0.3143788016838713,,0.9436493657420719,-3.1768040052817157,1.7307692307692308
,,,0.04171877526762767,0.0024912637385667994,0.04421003900619447,0.3143788016838713,,0.9436493657420719,-3.1768040052817157,1.7692307692307692
,,,0.04171877526762767,0.0024912637385667994,0.04421003900619447,0.3143788016838713,,0.9436493657420719,-3.1768040052817157,1.8076923076923077
,,,0.04171877526762767,0.0024912637385667994,0.04421003900619447,0.3143788016838713,,0.9436493657420719,-3.1768040052817157,1.8461538461538463
,,,0.04171877526762767,0.0024912637385667994,0.04421003900619447,0.3143788016838713,,0.9436493657420719,-3.1768040052817157,1.8846153846153846
,,0.013297453190446708,0.04124782215877297,0.0018064717375508533,0.05635174708677053,0.3146212477535872,0.2359723323213256,0.731970600578887,-3.188156963746171,1.9230769230769231
,,0.013297453190446708,0.04124782215877297,0.0018064717375508533,0.05635174708677053,0.31484943228979034,0.2359723323213256,0.731970600578887,-3.188156963746171,1.9615384615384615
,,0.013297453190446708,0.04124782215877297,0.0018064717375508533,0.05635174708677053,0.3150645777096391,0.2359723323213256,0.731970600578887,-3.188156963746171,2.0
,,0.013297453190446708,0.04124782215877297,0.0018064717375508533,0.05635174708677053,0.3152677706061629,0.2359723323213256,0.731970600578887,-3.188156963746171,2.0384615384615383
,,0.013297453190446708,0.04124782215877297,0.0018064717375508533,0.05635174708677053,0.31545998010287457,0.2359723323213256,0.731970600578887,-3.188156963746171,2.076923076923077
,,0.013297453190446708,0.04124782215877297,0.0018064717375508533,0.05635174708677053,0.31564207331028565,0.2359723323213256,0.731970600578887,-3.188156963746171,2.1153846153846154
,,0.013297453190446708,0.04124782215877297,0.0018064717375508533,0.05635174708677053,0.31581482840449615,0.2359723323213256,0.731970600578887,-3.188156963746171,2.1538461538461537
,,0.013302068551554235,0.041262207645725774,0.001806969085806605,0.05637124528308661,0.3159789322781026,0.23597258646236313,0.7319726118966173,-3.187808267057232,2.1923076923076925
,,0.01260919154032132,0.04339107853197408,0.0021598635365881113,0.058160133608883516,0.3153597900984068,0.21680128221705738,0.7460622223423921,-3.1375014227863067,2.230769230769231
,,0.01260919154032132,0.04339107853197408,0.0021598635365881113,0.058160133608883516,0.3147701308796489,0.21680128221705738,0.7460622223423921,-3.1375014227863067,2.269230769230769
,,0.01260919154032132,0.04339107853197408,0.0021598635365881113,0.058160133608883516,0.3142078976710658,0.21680128221705738,0.7460622223423921,-3.1375014227863067,2.3076923076923075
,,0.01260919154032132,0.04339107853197408,0.0021598635365881113,0.058160133608883516,0.31367122051741825,0.21680128221705738,0.7460622223423921,-3.1375014227863067,2.3461538461538463
,,0.01260919154032132,0.04339107853197408,0.0021598635365881113,0.058160133608883516,0.31315839568171067,0.21680128221705738,0.7460622223423921,-3.1375014227863067,2.3846153846153846
,,0.01260919154032132,0.04339107853197408,0.0021598635365881113,0.058160133608883516,0.3126678675779903,0.21680128221705738,0.7460622223423921,-3.1375014227863067,2.423076923076923
,,0.01260919154032132,0.04339107853197408,0.0021598635365881113,0.058160133608883516,0.31219821301059847,0.21680128221705738,0.7460622223423921,-3.1375014227863067,2.4615384615384617
,,0.01260919154032132,0.04339107853197408,0.0021598635365881113,0.058160133608883516,0.31174812738351465,0.21680128221705738,0.7460622223423921,-3.1375014227863067,2.5
,,0.01260919154032132,0.04339107853197408,0.0021598635365881113,0.058160133608883516,0.31131641259835263,0.21680128221705738,0.7460622223423921,-3.1375014227863067,2.5384615384615383
,,0.013009845045480374,0.04359711941383279,0.0021238118808840447,0.05873077634019721,0.31105829748541813,0.22151665372378235,0.7423215242600758,-3.132764199299841,2.576923076923077
,,0.013009845045480374,0.04359711941383279,0.0021238118808840447,0.05873077634019721,0.3108103045337751,0.22151665372378235,0.7423215242600758,-3.132764199299841,2.6153846153846154
,,0.013009845045480374,0.04359711941383279,0.0021238118808840447,0.05873077634019721,0.31057184977258,0.22151665372378235,0.7423215242600758,-3.132764199299841,2.6538461538461537
,,0.013009845045480374,0.04359711941383279,0.0021238118808840447,0.05873077634019721,0.31034239330426017,0.22151665372378235,0.7423215242600758,-3.132764199299841,2.6923076923076925
,,0.013009845045480374,0.04359711941383279,0.0021238118808840447,0.05873077634019721,0.31012143522365576,0.22151665372378235,0.7423215242600758,-3.132764199299841,2.730769230769231
,,0.021334298748453027,0.06807539707278154,0.003982741779907449,0.09339243760114202,0.31018090375264146,0.22843711221637658,0.728917659944975,-2.687139407567029,2.769230769230769
,,0.013009845045480374,0.04359711941383279,0.0021238118808840447,0.05873077634019721,0.3099707207740519,0.22151665372378235,0.7423215242600758,-3.132764199299841,2.8076923076923075
,,0.013009845045480374,0.04359711941383279,0.0021238118808840447,0.05873077634019721,0.3097679126368164,0.22151665372378235,0.7423215242600758,-3.132764199299841,2.8461538461538463
,,0.0206715476475323,0.06802962164913894,0.004024392536774812,0.09272556183344605,0.3096660690072093,0.22293256831015595,0.7336663192328127,-2.687812056170268,2.8846153846153846
,,0.0206715476475323,0.06802962164913894,0.004024392536774812,0.09272556183344605,0.3095676777040295,0.22293256831015595,0.7336663192328127,-2.687812056170268,2.923076923076923
,,0.0206715476475323,0.06802962164913894,0.004024392536774812,0.09272556183344605,0.3094725661109557,0.22293256831015595,0.7336663192328127,-2.687812056170268,2.9615384615384617
,,0.0206715476475323,0.06802962164913894,0.004024392536774812,0.09272556183344605,0.30938057293076954,0.22293256831015595,0.7336663192328127,-2.687812056170268,3.0
,,0.0206715476475323,0.06802962164913894,0.004024392536774812,0.09272556183344605,0.3092915472725249,0.22293256831015595,0.7336663192328127,-2.687812056170268,3.0384615384615383
,,0.0206715476475323,0.06802962164913894,0.004024392536774812,0.09272556183344605,0.3092053478256531,0.22293256831015595,0.7336663192328127,-2.687812056170268,3.076923076923077
,,0.0206715476475323,0.06802962164913894,0.004024392536774812,0.09272556183344605,0.30912184211149607,0.22293256831015595,0.7336663192328127,-2.687812056170268,3.1153846153846154
,,0.0206715476475323,0.06802962164913894,0.004024392536774812,0.09272556183344605,0.30904090580392846,0.22293256831015595,0.7336663192328127,-2.687812056170268,3.1538461538461537
,,0.0206715476475323,0.06802962164913894,0.004024392536774812,0.09272556183344605,0.3089624221117417,0.22293256831015595,0.7336663192328127,-2.687812056170268,3.1923076923076925
,,0.0206715476475323,0.06802962164913894,0.004024392536774812,0.09272556183344605,0.30888628121633666,0.22293256831015595,0.7336663192328127,-2.687812056170268,3.230769230769231
,,0.0206715476475323,0.06802962164913894,0.004024392536774812,0.09272556183344605,0.3088123797590317,0.22293256831015595,0.7336663192328127,-2.687812056170268,3.269230769230769
,,0.01209854983836149,0.04709445478710486,0.0024725929876404603,0.06166559761310681,0.3080600216295716,0.19619610133787116,0.7637071010416203,-3.055600017648669,3.3076923076923075
,,0.01209854983836149,0.04709445478710486,0.0024725929876404603,0.06166559761310681,0.3073291594466674,0.19619610133787116,0.7637071010416203,-3.055600017648669,3.3461538461538463
,,0.01209854983836149,0.04709445478710486,0.0024725929876404603,0.06166559761310681,0.3066188849308873,0.19619610133787116,0.7637071010416203,-3.055600017648669,3.3846153846153846
,,0.01209854983836149,0.04709445478710486,0.0024725929876404603,0.06166559761310681,0.3059283402627677,0.19619610133787116,0.7637071010416203,-3.055600017648669,3.423076923076923
,,0.01209854983836149,0.04709445478710486,0.0024725929876404603,0.06166559761310681,0.3057929812789647,0.19619610133787116,0.7637071010416203,-3.055600017648669,3.4615384615384617
,,0.01209854983836149,0.04709445478710486,0.0024725929876404603,0.06166559761310681,0.30565762229516164,0.19619610133787116,0.7637071010416203,-3.055600017648669,3.5
,,0.010736803829497646,0.04909641992824806,0.0028421876637599076,0.06267541142150561,0.3049915473714661,0.17130807099598172,0.783344198541659,-3.013969160724977,3.5384615384615383
,,0.01209854983836149,0.04709445478710486,0.0024725929876404603,0.06166559761310681,0.30485618838766304,0.19619610133787116,0.7637071010416203,-3.055600017648669,3.576923076923077
,,0.01209854983836149,0.04709445478710486,0.0024725929876404603,0.06166559761310681,0.30472082940385997,0.19619610133787116,0.7637071010416203,-3.055600017648669,3.6153846153846154
,,0.017118632557149103,0.07039904478725084,0.004072370597392356,0.09159004794179229,0.304394720764665,0.1869049415502917,0.7686320333841418,-2.6535755842731055,3.6538461538461537
,,0.017118632557149103,0.07039904478725084,0.004072370597392356,0.09159004794179229,0.3040686121254701,0.1869049415502917,0.7686320333841418,-2.6535755842731055,3.6923076923076925
,,0.017118632557149103,0.07039904478725084,0.004072370597392356,0.09159004794179229,0.30374317396083905,0.1869049415502917,0.7686320333841418,-2.6535755842731055,3.730769230769231
,,0.017118632557149103,0.07039904478725084,0.004072370597392356,0.09159004794179229,0.303417735796208,0.1869049415502917,0.7686320333841418,-2.6535755842731055,3.769230769230769
,,0.017118632557149103,0.07039904478725084,0.004072370597392356,0.09159004794179229,0.30309229763157697,0.1869049415502917,0.7686320333841418,-2.6535755842731055,3.8076923076923075
,,0.017118632557149103,0.07039904478725084,0.004072370597392356,0.09159004794179229,0.3027668594669459,0.1869049415502917,0.7686320333841418,-2.6535755842731055,3.8461538461538463
,,0.017118632557149103,0.07039904478725084,0.004072370597392356,0.09159004794179229,0.3024414213023149,0.1869049415502917,0.7686320333841418,-2.6535755842731055,3.8846153846153846
,,0.017118632557149103,0.07039904478725084,0.004072370597392356,0.09159004794179229,0.30211598313768384,0.1869049415502917,0.7686320333841418,-2.6535755842731055,3.923076923076923
,,0.017118632557149103,0.07039904478725084,0.004072370597392356,0.09159004794179229,0.30179054497305274,0.1869049415502917,0.7686320333841418,-2.6535755842731055,3.9615384615384617
,,0.017118632557149103,0.07039904478725084,0.004072370597392356,0.09159004794179229,0.30146510680842176,0.1869049415502917,0.7686320333841418,-2.6535755842731055,4.0
,,0.009986550057984569,0.04857904114882234,0.002668355839779483,0.061233947046586384,0.3001511725198672,0.16308845892927443,0.7933351268678421,-3.024563093173456,4.038461538461538
,,0.009986550057984569,0.04857904114882234,0.002668355839779483,0.061233947046586384,0.29883723823131264,0.16308845892927443,0.7933351268678421,-3.024563093173456,4.076923076923077
,,0.009986550057984569,0.04857904114882234,0.002668355839779483,0.061233947046586384,0.29752330394275817,0.16308845892927443,0.7933351268678421,-3.024563093173456,4.115384615384615
,,0.009986550057984569,0.04857904114882234,0.002668355839779483,0.061233947046586384,0.2962093696542036,0.16308845892927443,0.7933351268678421,-3.024563093173456,4.153846153846154
,,0.009986550057984569,0.04857904114882234,0.002668355839779483,0.061233947046586384,0.294895435365649,0.16308845892927443,0.7933351268678421,-3.024563093173456,4.1923076923076925
,,0.009986550057984569,0.04857904114882234,0.002668355839779483,0.061233947046586384,0.29358150107709446,0.16308845892927443,0.7933351268678421,-3.024563093173456,4.230769230769231
,,0.009986550057984569,0.04857904114882234,0.002668355839779483,0.061233947046586384,0.2923522961088254,0.16308845892927443,0.7933351268678421,-3.024563093173456,4.269230769230769
,,,0.05141009563181004,0.0030269694600468062,0.05443706509185684,0.29224209617020835,,0.9443950651097903,-2.967920712737305,4.3076923076923075
,,0.009986550057984569,0.04857904114882234,0.002668355839779483,0.061233947046586384,0.2909096557649136,0.16308845892927443,0.7933351268678421,-3.024563093173456,4.346153846153846
,,0.009986550057984569,0.04857904114882234,0.002668355839779483,0.061233947046586384,0.28972442753171634,0.16308845892927443,0.7933351268678421,-3.024563093173456,4.384615384615385
,,0.008817255656761563,0.05212984844612834,0.003102402083750519,0.06404950618664043,0.2880725894986097,0.13766313250047638,0.8138993030519521,-2.9540175874358066,4.423076923076923
,,0.008817255656761563,0.05212984844612834,0.003102402083750519,0.06404950618664043,0.2864653957366682,0.13766313250047638,0.8138993030519521,-2.9540175874358066,4.461538461538462
,,0.008817255656761563,0.05212984844612834,0.003102402083750519,0.06404950618664043,0.28490106047504504,0.13766313250047638,0.8138993030519521,-2.9540175874358066,4.5
,,0.008817255656761563,0.05212984844612834,0.003102402083750519,0.06404950618664043,0.28337789193083307,0.13766313250047638,0.8138993030519521,-2.9540175874358066,4.538461538461538
,,0.008817255656761563,0.05212984844612834,0.003102402083750519,0.06404950618664043,0.2818942862059512,0.13766313250047638,0.8138993030519521,-2.9540175874358066,4.576923076923077
,,0.008817255656761563,0.05212984844612834,0.003102402083750519,0.06404950618664043,0.28044872165350226,0.13766313250047638,0.8138993030519521,-2.9540175874358066,4.615384615384615
,,0.008817255656761563,0.05212984844612834,0.003102402083750519,0.06404950618664043,0.2790397536720014,0.13766313250047638,0.8138993030519521,-2.9540175874358066,4.653846153846154
,,0.008817255656761563,0.05212984844612834,0.003102402083750519,0.06404950618664043,0.27766600989003803,0.13766313250047638,0.8138993030519521,-2.9540175874358066,4.6923076923076925
,,0.008817255656761563,0.05212984844612834,0.003102402083750519,0.06404950618664043,0.2745219236576685,0.13766313250047638,0.8138993030519521,-2.9540175874358066,4.730769230769231
,,0.008817255656761563,0.05212984844612834,0.003102402083750519,0.06404950618664043,0.271377837425299,0.13766313250047638,0.8138993030519521,-2.9540175874358066,4.769230769230769
,,0.008495439568271384,0.051729237185013065,0.0028416231124440508,0.0630662998657285,0.2681723602337227,0.13470648486368514,0.8202358041481324,-2.961732141160629,4.8076923076923075
,,0.008495439568271384,0.051729237185013065,0.0028416231124440508,0.0630662998657285,0.26496688304214644,0.13470648486368514,0.8202358041481324,-2.961732141160629,4.846153846153846
,,0.008495439568271384,0.051729237185013065,0.0028416231124440508,0.0630662998657285,0.2617614058505702,0.13470648486368514,0.8202358041481324,-2.961732141160629,4.884615384615385
,,0.008495439568271384,0.051729237185013065,0.0028416231124440508,0.0630662998657285,0.2585559286589939,0.13470648486368514,0.8202358041481324,-2.961732141160629,4.923076923076923
,,0.008495439568271384,0.051729237185013065,0.0028416231124440508,0.0630662998657285,0.25535045146741764,0.13470648486368514,0.8202358041481324,-2.961732141160629,4.961538461538462
,,,0.054779126941393676,0.0031257867227760657,0.05790491366416974,0.2532578350340369,,0.9460186273499233,-2.904446052817223,5.0
,,0.008495439568271384,0.051729237185013065,0.0028416231124440508,0.0630662998657285,0.25214497427584137,0.13470648486368514,0.8202358041481324,-2.961732141160629,5.038461538461538
,,0.008495439568271384,0.051729237185013065,0.0028416231124440508,0.0630662998657285,0.25105959156105806,0.13470648486368514,0.8202358041481324,-2.961732141160629,5.076923076923077
,,0.007937639821954431,0.0554460558660354,0.003181380078779644,0.06656507576676947,0.24974373902655428,0.11924631243215755,0.8329601555672698,-2.89234469727311,5.115384615384615
,,0.007937639821954431,0.0554460558660354,0.003181380078779644,0.06656507576676947,0.24845959378203855,0.11924631243215755,0.8329601555672698,-2.89234469727311,5.153846153846154
,,0.007937639821954431,0.0554460558660354,0.003181380078779644,0.06656507576676947,0.24720602342429696,0.11924631243215755,0.8329601555672698,-2.89234469727311,5.1923076923076925
,,0.007937639821954431,0.0554460558660354,0.003181380078779644,0.06656507576676947,0.24598194883967875,0.11924631243215755,0.8329601555672698,-2.89234469727311,5.230769230769231
,,0.007937639821954431,0.0554460558660354,0.003181380078779644,0.06656507576676947,0.24478634110586558,0.11924631243215755,0.8329601555672698,-2.89234469727311,5.269230769230769
,,0.007937639821954431,0.0554460558660354,0.003181380078779644,0.06656507576676947,0.24361821860731253,0.11924631243215755,0.8329601555672698,-2.89234469727311,5.3076923076923075
,,0.007937639821954431,0.0554460558660354,0.003181380078779644,0.06656507576676947,0.2424766443473629,0.11924631243215755,0.8329601555672698,-2.89234469727311,5.346153846153846
,,0.007937639821954431,0.0554460558660354,0.003181380078779644,0.06656507576676947,0.24044005527630896,0.11924631243215755,0.8329601555672698,-2.89234469727311,5.384615384615385
,,0.007937639821954431,0.0554460558660354,0.003181380078779644,0.06656507576676947,0.23840346620525502,0.11924631243215755,0.8329601555672698,-2.89234469727311,5.423076923076923
,,0.007937639821954431,0.0554460558660354,0.003181380078779644,0.06656507576676947,0.2363668771342011,0.11924631243215755,0.8329601555672698,-2.89234469727311,5.461538461538462
,,0.007937639821954431,0.0554460558660354,0.003181380078779644,0.06656507576676947,0.23433028806314707,0.11924631243215755,0.8329601555672698,-2.89234469727311,5.5
,,0.008015468472592272,0.05551088362090461,0.0029119248182235304,0.06643827691172041,0.2323077314429639,0.1206453394816785,0.8355256367449816,-2.8911761761775296,5.538461538461538
,,0.008015468472592272,0.05551088362090461,0.0029119248182235304,0.06643827691172041,0.23028517482278066,0.1206453394816785,0.8355256367449816,-2.8911761761775296,5.576923076923077
,,0.008015468472592272,0.05551088362090461,0.0029119248182235304,0.06643827691172041,0.22826261820259744,0.1206453394816785,0.8355256367449816,-2.8911761761775296,5.615384615384615
,,0.008015468472592272,0.05551088362090461,0.0029119248182235304,0.06643827691172041,0.22624006770327493,0.1206453394816785,0.8355256367449816,-2.8911761761775296,5.653846153846154
,,0.008015468472592272,0.05551088362090461,0.0029119248182235304,0.06643827691172041,0.22457870902711352,0.1206453394816785,0.8355256367449816,-2.8911761761775296,5.6923076923076925
,,0.008015468472592272,0.05551088362090461,0.0029119248182235304,0.06643827691172041,0.22291735035095214,0.1206453394816785,0.8355256367449816,-2.8911761761775296,5.730769230769231
,,0.00810522241574861,0.05909314579331426,0.00314273658508563,0.0703411047941485,0.22117378225709758,0.11522739711678318,0.8400940810675194,-2.8286403377203326,5.769230769230769
,,0.00810522241574861,0.05909314579331426,0.00314273658508563,0.0703411047941485,0.21943021416324296,0.11522739711678318,0.8400940810675194,-2.8286403377203326,5.8076923076923075
,,0.00810522241574861,0.05909314579331426,0.00314273658508563,0.0703411047941485,0.21768664606938837,0.11522739711678318,0.8400940810675194,-2.8286403377203326,5.846153846153846
,,0.00810522241574861,0.05909314579331426,0.00314273658508563,0.0703411047941485,0.2159430779755338,0.11522739711678318,0.8400940810675194,-2.8286403377203326,5.884615384615385
,,0.00810522241574861,0.05909314579331426,0.00314273658508563,0.0703411047941485,0.21419950988167924,0.11522739711678318,0.8400940810675194,-2.8286403377203326,5.923076923076923
,,0.00810522241574861,0.05909314579331426,0.00314273658508563,0.0703411047941485,0.21245594178782462,0.11522739711678318,0.8400940810675194,-2.8286403377203326,5.961538461538462
,,0.00810522241574861,0.05909314579331426,0.00314273658508563,0.0703411047941485,0.21071237369397,0.11522739711678318,0.8400940810675194,-2.8286403377203326,6.0
,,0.00810522241574861,0.05909314579331426,0.00314273658508563,0.0703411047941485,0.20887998112237624,0.11522739711678318,0.8400940810675194,-2.8286403377203326,6.038461538461538
,,0.00810522241574861,0.05909314579331426,0.00314273658508563,0.0703411047941485,0.20704758855078242,0.11522739711678318,0.8400940810675194,-2.8286403377203326,6.076923076923077
,,0.00810522241574861,0.05909314579331426,0.00314273658508563,0.0703411047941485,0.2052151959791886,0.11522739711678318,0.8400940810675194,-2.8286403377203326,6.115384615384615
,,0.00810522241574861,0.05909314579331426,0.00314273658508563,0.0703411047941485,0.2033828034075948,0.11522739711678318,0.8400940810675194,-2.8286403377203326,6.153846153846154
,,0.00810522241574861,0.05909314579331426,0.00314273658508563,0.0703411047941485,0.20155041083600098,0.11522739711678318,0.8400940810675194,-2.8286403377203326,6.1923076923076925
,,0.008690376875496559,0.05907319153287561,0.0028745141852889746,0.07063808259366114,0.19966086335257865,0.12302679456189554,0.8362796577122362,-2.8289780694479947,6.230769230769231
,,0.008690376875496559,0.05907319153287561,0.0028745141852889746,0.07063808259366114,0.1979415607255909,0.12302679456189554,0.8362796577122362,-2.8289780694479947,6.269230769230769
,,0.008690376875496559,0.05907319153287561,0.0028745141852889746,0.07063808259366114,0.19622225809860314,0.12302679456189554,0.8362796577122362,-2.8289780694479947,6.3076923076923075
,,0.008690376875496559,0.05907319153287561,0.0028745141852889746,0.07063808259366114,0.19444101995834293,0.12302679456189554,0.8362796577122362,-2.8289780694479947,6.346153846153846
,,0.009401639761975927,0.0626593340572544,0.00300706797773322,0.07506804179696355,0.19269309655913408,0.12524157466907862,0.834700527112843,-2.7700426213911333,6.384615384615385
,,0.009401639761975927,0.0626593340572544,0.00300706797773322,0.07506804179696355,0.19094517315992524,0.12524157466907862,0.834700527112843,-2.7700426213911333,6.423076923076923
,,0.009401639761975927,0.0626593340572544,0.00300706797773322,0.07506804179696355,0.18919724976071642,0.12524157466907862,0.834700527112843,-2.7700426213911333,6.461538461538462
,,0.009401639761975927,0.0626593340572544,0.00300706797773322,0.07506804179696355,0.18744932636150757,0.12524157466907862,0.834700527112843,-2.7700426213911333,6.5
,,0.009401639761975927,0.0626593340572544,0.00300706797773322,0.07506804179696355,0.1857014029622987,0.12524157466907862,0.834700527112843,-2.7700426213911333,6.538461538461538
,,0.009401639761975927,0.0626593340572544,0.00300706797773322,0.07506804179696355,0.18395347956308986,0.12524157466907862,0.834700527112843,-2.7700426213911333,6.576923076923077
,,0.009401639761975927,0.0626593340572544,0.00300706797773322,0.07506804179696355,0.182205556163881,0.12524157466907862,0.834700527112843,-2.7700426213911333,6.615384615384615
,,0.009401639761975927,0.0626593340572544,0.00300706797773322,0.07506804179696355,0.1804576327646722,0.12524157466907862,0.834700527112843,-2.7700426213911333,6.653846153846154
,,0.009401639761975927,0.0626593340572544,0.00300706797773322,0.07506804179696355,0.17870970936546335,0.12524157466907862,0.834700527112843,-2.7700426213911333,6.6923076923076925
,,0.009401639761975927,0.0626593340572544,0.00300706797773322,0.07506804179696355,0.1769617859662545,0.12524157466907862,0.834700527112843,-2.7700426213911333,6.730769230769231
,,0.009401639761975927,0.0626593340572544,0.00300706797773322,0.07506804179696355,0.17574751385446977,0.12524157466907862,0.834700527112843,-2.7700426213911333,6.769230769230769
,,0.009401639761975927,0.0626593340572544,0.00300706797773322,0.07506804179696355,0.17453324174268506,0.12524157466907862,0.834700527112843,-2.7700426213911333,6.8076923076923075
,,0.009401639761975927,0.0626593340572544,0.00300706797773322,0.07506804179696355,0.1733189696309003,0.12524157466907862,0.834700527112843,-2.7700426213911333,6.846153846153846
,,0.009401639761975927,0.0626593340572544,0.00300706797773322,0.07506804179696355,0.17210469751911558,0.12524157466907862,0.834700527112843,-2.7700426213911333,6.884615384615385
,,0.010704045114825159,0.06243571708960278,0.00272175608539331,0.07586151828982125,0.17113357689058176,0.1410998007439218,0.8230222449684363,-2.773617778102547,6.923076923076923
,,0.010704045114825159,0.06243571708960278,0.00272175608539331,0.07586151828982125,0.17016245626204798,0.1410998007439218,0.8230222449684363,-2.773617778102547,6.961538461538462
,,0.010704045114825159,0.06243571708960278,0.00272175608539331,0.07586151828982125,0.16962555776615343,0.1410998007439218,0.8230222449684363,-2.773617778102547,7.0
,,0.011919395139835389,0.06573870885095537,0.0027508015616081066,0.08040890555239887,0.16876663781557583,0.1482347640221027,0.8175550755148185,-2.722067351173871,7.038461538461538
,,0.011919395139835389,0.06573870885095537,0.0027508015616081066,0.08040890555239887,0.1679077178649982,0.1482347640221027,0.8175550755148185,-2.722067351173871,7.076923076923077
,,0.011919395139835389,0.06573870885095537,0.0027508015616081066,0.08040890555239887,0.16720486581428665,0.1482347640221027,0.8175550755148185,-2.722067351173871,7.115384615384615
,,0.011919395139835389,0.06573870885095537,0.0027508015616081066,0.08040890555239887,0.16650201376357512,0.1482347640221027,0.8175550755148185,-2.722067351173871,7.153846153846154
,,0.011919395139835389,0.06573870885095537,0.0027508015616081066,0.08040890555239887,0.1657991617128636,0.1482347640221027,0.8175550755148185,-2.722067351173871,7.1923076923076925
,,0.011919395139835389,0.06573870885095537,0.0027508015616081066,0.08040890555239887,0.16509630966215205,0.1482347640221027,0.8175550755148185,-2.722067351173871,7.230769230769231
,,0.011919395139835389,0.06573870885095537,0.0027508015616081066,0.08040890555239887,0.1643934576114405,0.1482347640221027,0.8175550755148185,-2.722067351173871,7.269230769230769
,,0.011919395139835389,0.06573870885095537,0.0027508015616081066,0.08040890555239887,0.16369060556072898,0.1482347640221027,0.8175550755148185,-2.722067351173871,7.3076923076923075
,,0.011919395139835389,0.06573870885095537,0.0027508015616081066,0.08040890555239887,0.1629877535100174,0.1482347640221027,0.8175550755148185,-2.722067351173871,7.346153846153846
,,0.011919395139835389,0.06573870885095537,0.0027508015616081066,0.08040890555239887,0.16228490145930585,0.1482347640221027,0.8175550755148185,-2.722067351173871,7.384615384615385
,,0.011919395139835389,0.06573870885095537,0.0027508015616081066,0.08040890555239887,0.16158204940859433,0.1482347640221027,0.8175550755148185,-2.722067351173871,7.423076923076923
,,0.011919395139835389,0.06573870885095537,0.0027508015616081066,0.08040890555239887,0.16087919735788278,0.1482347640221027,0.8175550755148185,-2.722067351173871,7.461538461538462
,,0.011919395139835389,0.06573870885095537,0.0027508015616081066,0.08040890555239887,0.16060353247380027,0.1482347640221027,0.8175550755148185,-2.722067351173871,7.5
,,0.011919395139835389,0.06573870885095537,0.0027508015616081066,0.08040890555239887,0.16032786758971776,0.1482347640221027,0.8175550755148185,-2.722067351173871,7.538461538461538
,,0.013211492711614078,0.06204344978128077,0.0023636339402047656,0.07761857643309962,0.1604115737331209,0.17021044856447762,0.7993376409673882,-2.7799203364608642,7.576923076923077
,,0.013211492711614078,0.06204344978128077,0.0023636339402047656,0.07761857643309962,0.16049527987652407,0.17021044856447762,0.7993376409673882,-2.7799203364608642,7.615384615384615
,,0.013211492711614078,0.06204344978128077,0.0023636339402047656,0.07761857643309962,0.16057898601992726,0.17021044856447762,0.7993376409673882,-2.7799203364608642,7.653846153846154
,,0.014273592047293244,0.06298426806574633,0.002232838884468457,0.07949069899750803,0.16081817148080563,0.17956304608342555,0.7923476439390832,-2.764870297016269,7.6923076923076925
,,0.014273592047293244,0.06298426806574633,0.002232838884468457,0.07949069899750803,0.161057356941684,0.17956304608342555,0.7923476439390832,-2.764870297016269,7.730769230769231
,,0.014273592047293244,0.06298426806574633,0.002232838884468457,0.07949069899750803,0.16179403319550786,0.17956304608342555,0.7923476439390832,-2.764870297016269,7.769230769230769
,,0.014273592047293244,0.06298426806574633,0.002232838884468457,0.07949069899750803,0.16203053117929772,0.17956304608342555,0.7923476439390832,-2.764870297016269,7.8076923076923075
,,0.014273592047293244,0.06298426806574633,0.002232838884468457,0.07949069899750803,0.16226702916308758,0.17956304608342555,0.7923476439390832,-2.764870297016269,7.846153846153846
,,0.014273592047293244,0.06298426806574633,0.002232838884468457,0.07949069899750803,0.16291288638125695,0.17956304608342555,0.7923476439390832,-2.764870297016269,7.884615384615385
,,0.014273592047293244,0.06298426806574633,0.002232838884468457,0.07949069899750803,0.16355874359942635,0.17956304608342555,0.7923476439390832,-2.764870297016269,7.923076923076923
,,0.014273592047293244,0.06298426806574633,0.002232838884468457,0.07949069899750803,0.16420460081759575,0.17956304608342555,0.7923476439390832,-2.764870297016269,7.961538461538462
,,0.014273592047293244,0.06298426806574633,0.002232838884468457,0.07949069899750803,0.16485045803576512,0.17956304608342555,0.7923476439390832,-2.764870297016269,8.0
,,0.014273592047293244,0.06298426806574633,0.002232838884468457,0.07949069899750803,0.1654963152539345,0.17956304608342555,0.7923476439390832,-2.764870297016269,8.038461538461538
,,0.014273592047293244,0.06298426806574633,0.002232838884468457,0.07949069899750803,0.1661421724721039,0.17956304608342555,0.7923476439390832,-2.764870297016269,8.076923076923077
,,0.014273592047293244,0.06298426806574633,0.002232838884468457,0.07949069899750803,0.1667880296902733,0.17956304608342555,0.7923476439390832,-2.764870297016269,8.115384615384615
,,0.014273592047293244,0.06298426806574633,0.002232838884468457,0.07949069899750803,0.16743388690844266,0.17956304608342555,0.7923476439390832,-2.764870297016269,8.153846153846153
,,0.014273592047293244,0.06298426806574633,0.002232838884468457,0.07949069899750803,0.16807974412661206,0.17956304608342555,0.7923476439390832,-2.764870297016269,8.192307692307692
,,0.01571550351427554,0.058468081422473506,0.0018959783122926336,0.07607956324904168,0.16919937884213973,0.20656668943842155,0.7685123169159359,-2.839274290357143,8.23076923076923
,,0.01571550351427554,0.058468081422473506,0.0018959783122926336,0.07607956324904168,0.17037419644234758,0.20656668943842155,0.7685123169159359,-2.839274290357143,8.26923076923077
,,0.01571550351427554,0.058468081422473506,0.0018959783122926336,0.07607956324904168,0.17154901404255546,0.20656668943842155,0.7685123169159359,-2.839274290357143,8.307692307692308
,,0.01571550351427554,0.058468081422473506,0.0018959783122926336,0.07607956324904168,0.1727238316427633,0.20656668943842155,0.7685123169159359,-2.839274290357143,8.346153846153847
,,0.016268918875342993,0.05808171168829919,0.0017098666458592463,0.07606049720950143,0.1740257980495662,0.2138944586508789,0.7636251907257274,-2.8459044376825915,8.384615384615385
,,0.016268918875342993,0.05808171168829919,0.0017098666458592463,0.07606049720950143,0.17532776445636908,0.2138944586508789,0.7636251907257274,-2.8459044376825915,8.423076923076923
,,0.016268918875342993,0.05808171168829919,0.0017098666458592463,0.07606049720950143,0.17649194468000776,0.2138944586508789,0.7636251907257274,-2.8459044376825915,8.461538461538462
,,0.016268918875342993,0.05808171168829919,0.0017098666458592463,0.07606049720950143,0.17777944479340171,0.2138944586508789,0.7636251907257274,-2.8459044376825915,8.5
,,0.016268918875342993,0.05808171168829919,0.0017098666458592463,0.07606049720950143,0.17906694490679567,0.2138944586508789,0.7636251907257274,-2.8459044376825915,8.538461538461538
,,0.016268918875342993,0.05808171168829919,0.0017098666458592463,0.07606049720950143,0.18058854824959683,0.2138944586508789,0.7636251907257274,-2.8459044376825915,8.576923076923077
,,0.016268918875342993,0.05808171168829919,0.0017098666458592463,0.07606049720950143,0.18211015159239793,0.2138944586508789,0.7636251907257274,-2.8459044376825915,8.615384615384615
,,0.016268918875342993,0.05808171168829919,0.0017098666458592463,0.07606049720950143,0.1836317549351991,0.2138944586508789,0.7636251907257274,-2.8459044376825915,8.653846153846153
,,0.016268918875342993,0.05808171168829919,0.0017098666458592463,0.07606049720950143,0.18515335827800022,0.2138944586508789,0.7636251907257274,-2.8459044376825915,8.692307692307692
,,0.016268918875342993,0.05808171168829919,0.0017098666458592463,0.07606049720950143,0.1866749616208014,0.2138944586508789,0.7636251907257274,-2.8459044376825915,8.73076923076923
,,0.016268918875342993,0.05808171168829919,0.0017098666458592463,0.07606049720950143,0.18819656496360251,0.2138944586508789,0.7636251907257274,-2.8459044376825915,8.76923076923077
,,0.016268918875342993,0.05808171168829919,0.0017098666458592463,0.07606049720950143,0.18971816830640367,0.2138944586508789,0.7636251907257274,-2.8459044376825915,8.807692307692308
,,0.016268918875342993,0.05808171168829919,0.0017098666458592463,0.07606049720950143,0.19123977164920478,0.2138944586508789,0.7636251907257274,-2.8459044376825915,8.846153846153847
,,0.017882186449515634,0.05457901589462516,0.0015126547159655728,0.07397385706010637,0.19328953618286338,0.24173656965035265,0.7378149262958911,-2.9081057943770436,8.884615384615385
,,0.017882186449515634,0.05457901589462516,0.0015126547159655728,0.07397385706010637,0.19533930071652192,0.24173656965035265,0.7378149262958911,-2.9081057943770436,8.923076923076923
,,0.017882186449515634,0.05457901589462516,0.0015126547159655728,0.07397385706010637,0.19738906525018052,0.24173656965035265,0.7378149262958911,-2.9081057943770436,8.961538461538462
,,0.017882186449515634,0.05457901589462516,0.0015126547159655728,0.07397385706010637,0.19942510916520992,0.24173656965035265,0.7378149262958911,-2.9081057943770436,9.0
,,0.017933158208094574,0.0543198185967327,0.0013658708563139843,0.07361884766114125,0.2014889503360393,0.24359466057712226,0.7378520626505908,-2.9128661352672305,9.038461538461538
,,0.017933158208094574,0.0543198185967327,0.0013658708563139843,0.07361884766114125,0.20355279150686872,0.24359466057712226,0.7378520626505908,-2.9128661352672305,9.076923076923077
,,0.017933158208094574,0.0543198185967327,0.0013658708563139843,0.07361884766114125,0.20561663267769817,0.24359466057712226,0.7378520626505908,-2.9128661352672305,9.115384615384615
,,0.017933158208094574,0.0543198185967327,0.0013658708563139843,0.07361884766114125,0.2076804738485276,0.24359466057712226,0.7378520626505908,-2.9128661352672305,9.153846153846153
,,0.017933158208094574,0.0543198185967327,0.0013658708563139843,0.07361884766114125,0.209744315019357,0.24359466057712226,0.7378520626505908,-2.9128661352672305,9.192307692307692
,,0.017933158208094574,0.0543198185967327,0.0013658708563139843,0.07361884766114125,0.2118885387319309,0.24359466057712226,0.7378520626505908,-2.9128661352672305,9.23076923076923
,,0.017933158208094574,0.0543198185967327,0.0013658708563139843,0.07361884766114125,0.21403276244450475,0.24359466057712226,0.7378520626505908,-2.9128661352672305,9.26923076923077
,,0.017933158208094574,0.0543198185967327,0.0013658708563139843,0.07361884766114125,0.21617698615707862,0.24359466057712226,0.7378520626505908,-2.9128661352672305,9.307692307692308
,,0.017933158208094574,0.0543198185967327,0.0013658708563139843,0.07361884766114125,0.2183212098696525,0.24359466057712226,0.7378520626505908,-2.9128661352672305,9.346153846153847
,,0.017933158208094574,0.0543198185967327,0.0013658708563139843,0.07361884766114125,0.22046543358222637,0.24359466057712226,0.7378520626505908,-2.9128661352672305,9.384615384615385
,,0.017933158208094574,0.0543198185967327,0.0013658708563139843,0.07361884766114125,0.22260965729480023,0.24359466057712226,0.7378520626505908,-2.9128661352672305,9.423076923076923
,,0.017933158208094574,0.0543198185967327,0.0013658708563139843,0.07361884766114125,0.22475388100737415,0.24359466057712226,0.7378520626505908,-2.9128661352672305,9.461538461538462
,,0.017933158208094574,0.0543198185967327,0.0013658708563139843,0.07361884766114125,0.22689810471994798,0.24359466057712226,0.7378520626505908,-2.9128661352672305,9.5
,,0.017933158208094574,0.0543198185967327,0.0013658708563139843,0.07361884766114125,0.22904232843252184,0.24359466057712226,0.7378520626505908,-2.9128661352672305,9.538461538461538
,,0.019400185727556796,0.05175035477819737,0.0012976696555706793,0.07244821016132486,0.23168366326923906,0.267780055357575,0.714308257760429,-2.9613239912428178,9.576923076923077
,,,0.052184767523812015,0.0012053866760765126,0.053390154199888525,0.23274572565820387,,0.9774230531051917,-2.952964636566993,9.615384615384615
,,,0.052184767523812015,0.0012053866760765126,0.053390154199888525,0.23383192582873608,,0.9774230531051917,-2.952964636566993,9.653846153846153
,,,0.052184767523812015,0.0012053866760765126,0.053390154199888525,0.23482870628910427,,0.9774230531051917,-2.952964636566993,9.692307692307692
,,,0.052184767523812015,0.0012053866760765126,0.053390154199888525,0.2358486676904112,,0.9774230531051917,-2.952964636566993,9.73076923076923
,,,0.052184767523812015,0.0012053866760765126,0.053390154199888525,0.23689262818351367,,0.9774230531051917,-2.952964636566993,9.76923076923077
,,,0.052184767523812015,0.0012053866760765126,0.053390154199888525,0.23796144487883283,,0.9774230531051917,-2.952964636566993,9.807692307692308
,,,0.052184767523812015,0.0012053866760765126,0.053390154199888525,0.23902069454015343,,0.9774230531051917,-2.952964636566993,9.846153846153847
,,,0.052184767523812015,0.0012053866760765126,0.053390154199888525,0.2401057795590672,,0.9774230531051917,-2.952964636566993,9.884615384615385
,,,0.052184767523812015,0.0012053866760765126,0.053390154199888525,0.2412176568006702,,0.9774230531051917,-2.952964636566993,9.923076923076923
,,,0.052184767523812015,0.0012053866760765126,0.053390154199888525,0.24235733097331327,,0.9774230531051917,-2.952964636566993,9.961538461538462
,,,0.052184767523812015,0.0012053866760765126,0.053390154199888525,0.2435258576566562,,0.9774230531051917,-2.952964636566993,10.0
,,,0.052184767523812015,0.0012053866760765126,0.053390154199888525,0.24472434656264894,,0.9774230531051917,-2.952964636566993,10.038461538461538
,,,0.052184767523812015,0.0012053866760765126,0.053390154199888525,0.24595396505061548,,0.9774230531051917,-2.952964636566993,10.076923076923077
,,,0.052184767523812015,0.0012053866760765126,0.053390154199888525,0.2472159419198443,,0.9774230531051917,-2.952964636566993,10.115384615384615
,,,0.052184767523812015,0.0012053866760765126,0.053390154199888525,0.24851157150558592,,0.9774230531051917,-2.952964636566993,10.153846153846153
,,,0.052184767523812015,0.0012053866760765126,0.053390154199888525,0.24984221810715837,,0.9774230531051917,-2.952964636566993,10.192307692307692
,,,0.03687730908789062,0.0008378888072404267,0.03771519789513105,0.2512093207800068,,0.9777837886580837,-3.3001588469500347,10.23076923076923
,,,0.03600220642154021,0.0008470891545148567,0.03684929557605506,0.252614398527101,,0.9770120665463874,-3.324175052916923,10.26923076923077
,,,0.03600220642154021,0.0008470891545148567,0.03684929557605506,0.25405905592904293,,0.9770120665463874,-3.324175052916923,10.307692307692308
,,,0.03600220642154021,0.0008470891545148567,0.03684929557605506,0.2555449892567546,,0.9770120665463874,-3.324175052916923,10.346153846153847
,,,0.03600220642154021,0.0008470891545148567,0.03684929557605506,0.2567638868761959,,0.9770120665463874,-3.324175052916923,10.384615384615385
,,,0.03600220642154021,0.0008470891545148567,0.03684929557605506,0.25801863442562073,,0.9770120665463874,-3.324175052916923,10.423076923076923
,,,0.03600220642154021,0.0008470891545148567,0.03684929557605506,0.2593108371257747,,0.9770120665463874,-3.324175052916923,10.461538461538462
,,,0.03600220642154021,0.0008470891545148567,0.03684929557605506,0.26049259657956747,,0.9770120665463874,-3.324175052916923,10.5
,,,0.03600220642154021,0.0008470891545148567,0.03684929557605506,0.2617107178627077,,0.9770120665463874,-3.324175052916923,10.538461538461538
,,,0.03600220642154021,0.0008470891545148567,0.03684929557605506,0.26296690543594614,,0.9770120665463874,-3.324175052916923,10.576923076923077
,,,0.03600220642154021,0.0008470891545148567,0.03684929557605506,0.26426297197976356,,0.9770120665463874,-3.324175052916923,10.615384615384615
,,,0.03600220642154021,0.0008470891545148567,0.03684929557605506,0.2656008471217686,,0.9770120665463874,-3.324175052916923,10.653846153846153
,,,0.03600220642154021,0.0008470891545148567,0.03684929557605506,0.2669825870225279,,0.9770120665463874,-3.324175052916923,10.692307692307692
,,,0.03600220642154021,0.0008470891545148567,0.03684929557605506,0.2684103849199792,,0.9770120665463874,-3.324175052916923,10.73076923076923
,,,0.03600220642154021,0.0008470891545148567,0.03684929557605506,0.2698865827461577,,0.9770120665463874,-3.324175052916923,10.76923076923077
,,,0.03600220642154021,0.0008470891545148567,0.03684929557605506,0.27141368394565263,,0.9770120665463874,-3.324175052916923,10.807692307692308
,,,0.03600220642154021,0.0008470891545148567,0.03684929557605506,0.2729943676433755,,0.9770120665463874,-3.324175052916923,10.846153846153847
,,0.01865406533663826,0.053280617547422665,0.001128025182119888,0.07306270806618081,0.27595568462129333,0.2553158215781059,0.7292450411112689,-2.9321826622123943,10.884615384615385
,,0.01865406533663826,0.053280617547422665,0.001128025182119888,0.07306270806618081,0.27891700159921123,0.2553158215781059,0.7292450411112689,-2.9321826622123943,10.923076923076923
,,0.019311922691246517,0.0528398016026627,0.0012289415241295914,0.07338066581803881,0.2821479821686345,0.2631745361800623,0.7200779798549245,-2.9404905540159336,10.961538461538462
,,0.019311922691246517,0.0528398016026627,0.0012289415241295914,0.07338066581803881,0.28537896273805785,0.2631745361800623,0.7200779798549245,-2.9404905540159336,11.0
,,0.019311922691246517,0.0528398016026627,0.0012289415241295914,0.07338066581803881,0.2880551248790822,0.2631745361800623,0.7200779798549245,-2.9404905540159336,11.038461538461538
,,0.019311922691246517,0.0528398016026627,0.0012289415241295914,0.07338066581803881,0.29073128702010664,0.2631745361800623,0.7200779798549245,-2.9404905540159336,11.076923076923077
,,0.019311922691246517,0.0528398016026627,0.0012289415241295914,0.07338066581803881,0.29340744916113093,0.2631745361800623,0.7200779798549245,-2.9404905540159336,11.115384615384615
,,0.019311922691246517,0.0528398016026627,0.0012289415241295914,0.07338066581803881,0.2958435730576322,0.2631745361800623,0.7200779798549245,-2.9404905540159336,11.153846153846153
,,0.019311922691246517,0.0528398016026627,0.0012289415241295914,0.07338066581803881,0.2982796969541334,0.2631745361800623,0.7200779798549245,-2.9404905540159336,11.192307692307692
,,0.019311922691246517,0.0528398016026627,0.0012289415241295914,0.07338066581803881,0.30071582085063464,0.2631745361800623,0.7200779798549245,-2.9404905540159336,11.23076923076923
,,0.019311922691246517,0.0528398016026627,0.0012289415241295914,0.07338066581803881,0.3031519447471359,0.2631745361800623,0.7200779798549245,-2.9404905540159336,11.26923076923077
,,0.019311922691246517,0.0528398016026627,0.0012289415241295914,0.07338066581803881,0.30558806864363713,0.2631745361800623,0.7200779798549245,-2.9404905540159336,11.307692307692308
,,0.019311922691246517,0.0528398016026627,0.0012289415241295914,0.07338066581803881,0.30802419254013835,0.2631745361800623,0.7200779798549245,-2.9404905540159336,11.346153846153847
,,0.019311922691246517,0.0528398016026627,0.0012289415241295914,0.07338066581803881,0.3104603164366396,0.2631745361800623,0.7200779798549245,-2.9404905540159336,11.384615384615385
,,0.019311922691246517,0.0528398016026627,0.0012289415241295914,0.07338066581803881,0.3128964403331409,0.2631745361800623,0.7200779798549245,-2.9404905540159336,11.423076923076923
,,0.019311922691246517,0.0528398016026627,0.0012289415241295914,0.07338066581803881,0.3153325642296422,0.2631745361800623,0.7200779798549245,-2.9404905540159336,11.461538461538462
,,0.019311922691246517,0.0528398016026627,0.0012289415241295914,0.07338066581803881,0.31776868812614334,0.2631745361800623,0.7200779798549245,-2.9404905540159336,11.5
,,0.019311922691246517,0.0528398016026627,0.0012289415241295914,0.07338066581803881,0.3202048120226446,0.2631745361800623,0.7200779798549245,-2.9404905540159336,11.538461538461538
,,0.018425141194912134,0.056224351788306266,0.0012584417604400609,0.07590793474365846,0.32197824967794625,0.2427301079542467,0.740691364851069,-2.87840531009061,11.576923076923077
,,0.018425141194912134,0.056224351788306266,0.0012584417604400609,0.07590793474365846,0.3237516873332479,0.2427301079542467,0.740691364851069,-2.87840531009061,11.615384615384615
,,0.01881679801187827,0.05714315931325349,0.0014249194567739138,0.07738487678190567,0.32555292733999397,0.24315859628373873,0.7384279938094422,-2.8621955929615135,11.653846153846153
,,0.01881679801187827,0.05714315931325349,0.0014249194567739138,0.07738487678190567,0.3266144094999877,0.24315859628373873,0.7384279938094422,-2.8621955929615135,11.692307692307692
,,0.01881679801187827,0.05714315931325349,0.0014249194567739138,0.07738487678190567,0.32767589165998146,0.24315859628373873,0.7384279938094422,-2.8621955929615135,11.73076923076923
,,0.01881679801187827,0.05714315931325349,0.0014249194567739138,0.07738487678190567,0.3287373738199752,0.24315859628373873,0.7384279938094422,-2.8621955929615135,11.76923076923077
,,0.01881679801187827,0.05714315931325349,0.0014249194567739138,0.07738487678190567,0.3297988559799689,0.24315859628373873,0.7384279938094422,-2.8621955929615135,11.807692307692308
,,0.01881679801187827,0.05714315931325349,0.0014249194567739138,0.07738487678190567,0.3306618075472091,0.24315859628373873,0.7384279938094422,-2.8621955929615135,11.846153846153847
,,0.01881679801187827,0.05714315931325349,0.0014249194567739138,0.07738487678190567,0.33152475911444923,0.24315859628373873,0.7384279938094422,-2.8621955929615135,11.884615384615385
,,0.01881679801187827,0.05714315931325349,0.0014249194567739138,0.07738487678190567,0.3323877106816893,0.24315859628373873,0.7384279938094422,-2.8621955929615135,11.923076923076923
,,0.01881679801187827,0.05714315931325349,0.0014249194567739138,0.07738487678190567,0.3332506622489295,0.24315859628373873,0.7384279938094422,-2.8621955929615135,11.961538461538462
,,0.01881679801187827,0.05714315931325349,0.0014249194567739138,0.07738487678190567,0.3341136138161696,0.24315859628373873,0.7384279938094422,-2.8621955929615135,12.0
,,0.01881679801187827,0.05714315931325349,0.0014249194567739138,0.07738487678190567,0.33497656538340975,0.24315859628373873,0.7384279938094422,-2.8621955929615135,12.038461538461538
,,0.01881679801187827,0.05714315931325349,0.0014249194567739138,0.07738487678190567,0.3358395169506499,0.24315859628373873,0.7384279938094422,-2.8621955929615135,12.076923076923077
,,0.01881679801187827,0.05714315931325349,0.0014249194567739138,0.07738487678190567,0.33670246851789,0.24315859628373873,0.7384279938094422,-2.8621955929615135,12.115384615384615
,,0.01881679801187827,0.05714315931325349,0.0014249194567739138,0.07738487678190567,0.3375654200851302,0.24315859628373873,0.7384279938094422,-2.8621955929615135,12.153846153846153
,,0.01881679801187827,0.05714315931325349,0.0014249194567739138,0.07738487678190567,0.3384283716523703,0.24315859628373873,0.7384279938094422,-2.8621955929615135,12.192307692307692
,,0.01881679801187827,0.05714315931325349,0.0014249194567739138,0.07738487678190567,0.33929132321961036,0.24315859628373873,0.7384279938094422,-2.8621955929615135,12.23076923076923
,,0.018033086828228764,0.062391704524701684,0.0015289300444995893,0.08195372139743004,0.33944792348757036,0.22003987763750602,0.7613041050587144,-2.7743229527533693,12.26923076923077
,,0.018033086828228764,0.062391704524701684,0.0015289300444995893,0.08195372139743004,0.3396045237555303,0.22003987763750602,0.7613041050587144,-2.7743229527533693,12.307692307692308
,,0.018033086828228764,0.062391704524701684,0.0015289300444995893,0.08195372139743004,0.3389271853010838,0.22003987763750602,0.7613041050587144,-2.7743229527533693,12.346153846153847
,,0.018641936910450966,0.06577851249906487,0.0017542754997707222,0.08617472490928656,0.33815115314901567,0.21632719953646212,0.7633156075439504,-2.721462051747435,12.384615384615385
,,0.018641936910450966,0.06577851249906487,0.0017542754997707222,0.08617472490928656,0.3373751209969475,0.21632719953646212,0.7633156075439504,-2.721462051747435,12.423076923076923
,,0.018641936910450966,0.06577851249906487,0.0017542754997707222,0.08617472490928656,0.3365990888448793,0.21632719953646212,0.7633156075439504,-2.721462051747435,12.461538461538462
,,0.018641936910450966,0.06577851249906487,0.0017542754997707222,0.08617472490928656,0.3357791662889165,0.21632719953646212,0.7633156075439504,-2.721462051747435,12.5
,,0.018641936910450966,0.06577851249906487,0.0017542754997707222,0.08617472490928656,0.33495924373295355,0.21632719953646212,0.7633156075439504,-2.721462051747435,12.538461538461538
,,0.018641936910450966,0.06577851249906487,0.0017542754997707222,0.08617472490928656,0.33413932117699063,0.21632719953646212,0.7633156075439504,-2.721462051747435,12.576923076923077
,,0.018641936910450966,0.06577851249906487,0.0017542754997707222,0.08617472490928656,0.3333193986210278,0.21632719953646212,0.7633156075439504,-2.721462051747435,12.615384615384615
,,0.018641936910450966,0.06577851249906487,0.0017542754997707222,0.08617472490928656,0.3324994760650648,0.21632719953646212,0.7633156075439504,-2.721462051747435,12.653846153846153
,,0.018641936910450966,0.06577851249906487,0.0017542754997707222,0.08617472490928656,0.33167955350910194,0.21632719953646212,0.7633156075439504,-2.721462051747435,12.692307692307692
,,0.018641936910450966,0.06577851249906487,0.0017542754997707222,0.08617472490928656,0.33085963095313903,0.21632719953646212,0.7633156075439504,-2.721462051747435,12.73076923076923
,,0.018641936910450966,0.06577851249906487,0.0017542754997707222,0.08617472490928656,0.33003970839717617,0.21632719953646212,0.7633156075439504,-2.721462051747435,12.76923076923077
,,0.018641936910450966,0.06577851249906487,0.0017542754997707222,0.08617472490928656,0.32921978584121325,0.21632719953646212,0.7633156075439504,-2.721462051747435,12.807692307692308
,,0.018641936910450966,0.06577851249906487,0.0017542754997707222,0.08617472490928656,0.3283998632852503,0.21632719953646212,0.7633156075439504,-2.721462051747435,12.846153846153847
,,0.017270973791320286,0.0689219863515387,0.0018246311185664324,0.08801759126142542,0.32700419741442754,0.19622184092749037,0.7830478585448912,-2.6747800466184786,12.884615384615385
,,0.017270973791320286,0.0689219863515387,0.0018246311185664324,0.08801759126142542,0.3256085315436048,0.19622184092749037,0.7830478585448912,-2.6747800466184786,12.923076923076923
,,0.017270973791320286,0.0689219863515387,0.0018246311185664324,0.08801759126142542,0.3242128656727822,0.19622184092749037,0.7830478585448912,-2.6747800466184786,12.961538461538462
,,0.017270973791320286,0.0689219863515387,0.0018246311185664324,0.08801759126142542,0.32281719980195944,0.19622184092749037,0.7830478585448912,-2.6747800466184786,13.0
,,0.017270973791320286,0.0689219863515387,0.0018246311185664324,0.08801759126142542,0.32063662162985773,0.19622184092749037,0.7830478585448912,-2.6747800466184786,13.038461538461538
,,0.017053198719801238,0.07058630029240934,0.001973366520233533,0.0896128655324441,0.3192738109906254,0.19029855387926606,0.787680428173048,-2.6509192001621926,13.076923076923077
,,0.017053198719801238,0.07058630029240934,0.001973366520233533,0.0896128655324441,0.3179571973222145,0.19029855387926606,0.787680428173048,-2.6509192001621926,13.115384615384615
,,0.017053198719801238,0.07058630029240934,0.001973366520233533,0.0896128655324441,0.316684470776084,0.19029855387926606,0.787680428173048,-2.6509192001621926,13.153846153846153
,,0.017053198719801238,0.07058630029240934,0.001973366520233533,0.0896128655324441,0.31545347296917087,0.19029855387926606,0.787680428173048,-2.6509192001621926,13.192307692307692
,,0.017053198719801238,0.07058630029240934,0.001973366520233533,0.0896128655324441,0.3142621847689323,0.19029855387926606,0.787680428173048,-2.6509192001621926,13.23076923076923
,,0.017053198719801238,0.07058630029240934,0.001973366520233533,0.0896128655324441,0.31310871524171724,0.19029855387926606,0.787680428173048,-2.6509192001621926,13.26923076923077
,,0.017053198719801238,0.07058630029240934,0.001973366520233533,0.0896128655324441,0.31199129163722766,0.19029855387926606,0.787680428173048,-2.6509192001621926,13.307692307692308
,,0.017053198719801238,0.07058630029240934,0.001973366520233533,0.0896128655324441,0.3109082502974916,0.19029855387926606,0.787680428173048,-2.6509192001621926,13.346153846153847
,,0.017053198719801238,0.07058630029240934,0.001973366520233533,0.0896128655324441,0.30985802839229293,0.19029855387926606,0.787680428173048,-2.6509192001621926,13.384615384615385
,,0.017053198719801238,0.07058630029240934,0.001973366520233533,0.0896128655324441,0.30883915639471216,0.19029855387926606,0.787680428173048,-2.6509192001621926,13.423076923076923
,,0.017053198719801238,0.07058630029240934,0.001973366520233533,0.0896128655324441,0.30785025122058973,0.19029855387926606,0.787680428173048,-2.6509192001621926,13.461538461538462
,,0.01562876138378876,0.07230180618936201,0.0020118535518631924,0.08994242112501395,0.3065214075929059,0.17376407248439338,0.8038676887390804,-2.626906168257233,13.5
,,0.01562876138378876,0.07230180618936201,0.0020118535518631924,0.08994242112501395,0.30523053092601304,0.17376407248439338,0.8038676887390804,-2.626906168257233,13.538461538461538
,,0.01562876138378876,0.07230180618936201,0.0020118535518631924,0.08994242112501395,0.3039760169821312,0.17376407248439338,0.8038676887390804,-2.626906168257233,13.576923076923077
,,0.01562876138378876,0.07230180618936201,0.0020118535518631924,0.08994242112501395,0.3027563506478017,0.17376407248439338,0.8038676887390804,-2.626906168257233,13.615384615384615
,,0.01562876138378876,0.07230180618936201,0.0020118535518631924,0.08994242112501395,0.30157009982948124,0.17376407248439338,0.8038676887390804,-2.626906168257233,13.653846153846153
,,0.015578224872585297,0.07514526330184736,0.002135778250197165,0.09285926642462981,0.3002962895808776,0.1677616620547991,0.8092381750919795,-2.58833219468516,13.692307692307692
,,0.015578224872585297,0.07514526330184736,0.002135778250197165,0.09285926642462981,0.2990564476055701,0.1677616620547991,0.8092381750919795,-2.58833219468516,13.73076923076923
,,0.015578224872585297,0.07514526330184736,0.002135778250197165,0.09285926642462981,0.2978492330506654,0.1677616620547991,0.8092381750919795,-2.58833219468516,13.76923076923077
,,0.015578224872585297,0.07514526330184736,0.002135778250197165,0.09285926642462981,0.29667337471796595,0.1677616620547991,0.8092381750919795,-2.58833219468516,13.807692307692308
,,0.015578224872585297,0.07514526330184736,0.002135778250197165,0.09285926642462981,0.29552766659892554,0.1677616620547991,0.8092381750919795,-2.58833219468516,13.846153846153847
,,0.015578224872585297,0.07514526330184736,0.002135778250197165,0.09285926642462981,0.2944109637487216,0.1677616620547991,0.8092381750919795,-2.58833219468516,13.884615384615385
,,0.015578224872585297,0.07514526330184736,0.002135778250197165,0.09285926642462981,0.2933221784697727,0.1677616620547991,0.8092381750919795,-2.58833219468516,13.923076923076923
,,0.015578224872585297,0.07514526330184736,0.002135778250197165,0.09285926642462981,0.2922602767779584,0.1677616620547991,0.8092381750919795,-2.58833219468516,13.961538461538462
,,0.015578224872585297,0.07514526330184736,0.002135778250197165,0.09285926642462981,0.29122427512740784,0.1677616620547991,0.8092381750919795,-2.58833219468516,14.0
,,0.015578224872585297,0.07514526330184736,0.002135778250197165,0.09285926642462981,0.29021323737205124,0.1677616620547991,0.8092381750919795,-2.58833219468516,14.038461538461538
,,0.015578224872585297,0.07514526330184736,0.002135778250197165,0.09285926642462981,0.2892262719442032,0.1677616620547991,0.8092381750919795,-2.58833219468516,14.076923076923077
,,0.01447157597044852,0.07733848800036905,0.002184135476861529,0.09399419944767909,0.28802502139637276,0.15396243657039682,0.8228006457294073,-2.5595635430281085,14.115384615384615
,,0.01447157597044852,0.07733848800036905,0.002184135476861529,0.09399419944767909,0.2868517069077942,0.15396243657039682,0.8228006457294073,-2.5595635430281085,14.153846153846153
,,0.01447157597044852,0.07733848800036905,0.002184135476861529,0.09399419944767909,0.28570536516607953,0.15396243657039682,0.8228006457294073,-2.5595635430281085,14.192307692307692
,,0.01447157597044852,0.07733848800036905,0.002184135476861529,0.09399419944767909,0.28458507664576743,0.15396243657039682,0.8228006457294073,-2.5595635430281085,14.23076923076923
,,0.01447157597044852,0.07733848800036905,0.002184135476861529,0.09399419944767909,0.2834899631483837,0.15396243657039682,0.8228006457294073,-2.5595635430281085,14.26923076923077
,,0.01447157597044852,0.07733848800036905,0.002184135476861529,0.09399419944767909,0.2824191855064974,0.15396243657039682,0.8228006457294073,-2.5595635430281085,14.307692307692308
,,0.014748193482120642,0.08067841647433216,0.0022622249881084095,0.09768883494456121,0.2805602125860105,0.15097112674637075,0.8258714163201708,-2.5172841933280568,14.346153846153847
,,0.014748193482120642,0.08067841647433216,0.0022622249881084095,0.09768883494456121,0.27870123966552357,0.15097112674637075,0.8258714163201708,-2.5172841933280568,14.384615384615385
,,0.014748193482120642,0.08067841647433216,0.0022622249881084095,0.09768883494456121,0.27667147980374984,0.15097112674637075,0.8258714163201708,-2.5172841933280568,14.423076923076923
,,0.014748193482120642,0.08067841647433216,0.0022622249881084095,0.09768883494456121,0.27464171994197606,0.15097112674637075,0.8258714163201708,-2.5172841933280568,14.461538461538462
,,0.014748193482120642,0.08067841647433216,0.0022622249881084095,0.09768883494456121,0.2726119600802024,0.15097112674637075,0.8258714163201708,-2.5172841933280568,14.5
,,0.014748193482120642,0.08067841647433216,0.0022622249881084095,0.09768883494456121,0.2705822002184286,0.15097112674637075,0.8258714163201708,-2.5172841933280568,14.538461538461538
,,0.014748193482120642,0.08067841647433216,0.0022622249881084095,0.09768883494456121,0.26855244035665493,0.15097112674637075,0.8258714163201708,-2.5172841933280568,14.576923076923077
,,0.014748193482120642,0.08067841647433216,0.0022622249881084095,0.09768883494456121,0.26652268049488115,0.15097112674637075,0.8258714163201708,-2.5172841933280568,14.615384615384615
,,0.014003685908419746,0.08226943570144603,0.0022916723015927076,0.09856479391145848,0.2643530888436023,0.142075941649098,0.8346736439722007,-2.497755616929647,14.653846153846153
,,0.014748193482120642,0.08067841647433216,0.0022622249881084095,0.09768883494456121,0.26232332898182853,0.15097112674637075,0.8258714163201708,-2.5172841933280568,14.692307692307692
,,0.014748193482120642,0.08067841647433216,0.0022622249881084095,0.09768883494456121,0.2602935691200548,0.15097112674637075,0.8258714163201708,-2.5172841933280568,14.73076923076923
,,0.014072945071728111,0.0839211802883655,0.0023325007424593418,0.10032662610255295,0.2580959225150395,0.14027128807603753,0.8364796420302427,-2.4778772505463174,14.76923076923077
,,0.014072945071728111,0.0839211802883655,0.0023325007424593418,0.10032662610255295,0.2558982759100241,0.14027128807603753,0.8364796420302427,-2.4778772505463174,14.807692307692308
,,0.014072945071728111,0.0839211802883655,0.0023325007424593418,0.10032662610255295,0.2537006293050088,0.14027128807603753,0.8364796420302427,-2.4778772505463174,14.846153846153847
,,0.014072945071728111,0.0839211802883655,0.0023325007424593418,0.10032662610255295,0.25150298269999344,0.14027128807603753,0.8364796420302427,-2.4778772505463174,14.884615384615385
,,0.014072945071728111,0.0839211802883655,0.0023325007424593418,0.10032662610255295,0.24930533609497807,0.14027128807603753,0.8364796420302427,-2.4778772505463174,14.923076923076923
,,0.014072945071728111,0.0839211802883655,0.0023325007424593418,0.10032662610255295,0.24710768948996278,0.14027128807603753,0.8364796420302427,-2.4778772505463174,14.961538461538462
,,0.015052617049443488,0.08900829920958934,0.0024048593876564587,0.10646577564668928,0.24492584674705592,0.141384561921534,0.8360273399497578,-2.419025664051518,15.0
,,0.015052617049443488,0.08900829920958934,0.0024048593876564587,0.10646577564668928,0.2431637052902422,0.141384561921534,0.8360273399497578,-2.419025664051518,15.038461538461538
,,0.015052617049443488,0.08900829920958934,0.0024048593876564587,0.10646577564668928,0.24140156383342845,0.141384561921534,0.8360273399497578,-2.419025664051518,15.076923076923077
,,0.015052617049443488,0.08900829920958934,0.0024048593876564587,0.10646577564668928,0.23962181422069984,0.141384561921534,0.8360273399497578,-2.419025664051518,15.115384615384615
,,0.015052617049443488,0.08900829920958934,0.0024048593876564587,0.10646577564668928,0.23784206460797128,0.141384561921534,0.8360273399497578,-2.419025664051518,15.153846153846153
,,0.015052617049443488,0.08900829920958934,0.0024048593876564587,0.10646577564668928,0.23606231499524266,0.141384561921534,0.8360273399497578,-2.419025664051518,15.192307692307692
,,0.015052617049443488,0.08900829920958934,0.0024048593876564587,0.10646577564668928,0.23428256538251402,0.141384561921534,0.8360273399497578,-2.419025664051518,15.23076923076923
,,0.015052617049443488,0.08900829920958934,0.0024048593876564587,0.10646577564668928,0.2325028157697855,0.141384561921534,0.8360273399497578,-2.419025664051518,15.26923076923077
,,0.015052617049443488,0.08900829920958934,0.0024048593876564587,0.10646577564668928,0.23072306615705684,0.141384561921534,0.8360273399497578,-2.419025664051518,15.307692307692308
,,0.009124412120773057,0.07150374993138761,0.0024002001570672515,0.08302836220922792,0.22848212436863571,0.10989512352152543,0.8611966806138031,-2.638005384064616,15.346153846153847
,,0.015052617049443488,0.08900829920958934,0.0024048593876564587,0.10646577564668928,0.22670237475590713,0.141384561921534,0.8360273399497578,-2.419025664051518,15.384615384615385
,,0.015052617049443488,0.08900829920958934,0.0024048593876564587,0.10646577564668928,0.2249226251431785,0.141384561921534,0.8360273399497578,-2.419025664051518,15.423076923076923
,,,0.07304236053575044,0.002442765434710692,0.07548512597046114,0.2237499330221295,,0.9676391156097878,-2.6167157248201924,15.461538461538462
,,,0.07304236053575044,0.002442765434710692,0.07548512597046114,0.22255058880742035,,0.9676391156097878,-2.6167157248201924,15.5
,,,0.07304236053575044,0.002442765434710692,0.07548512597046114,0.22132367346133852,,0.9676391156097878,-2.6167157248201924,15.538461538461538
,,,0.07304236053575044,0.002442765434710692,0.07548512597046114,0.22006822520023156,,0.9676391156097878,-2.6167157248201924,15.576923076923077
,,0.016508813551346584,0.09736335723572093,0.002471932831479573,0.11634410361854709,0.21821085975025786,0.1418964351255255,0.8368568256363245,-2.3293053481968773,15.615384615384615
,,0.016508813551346584,0.09736335723572093,0.002471932831479573,0.11634410361854709,0.21635349430028417,0.1418964351255255,0.8368568256363245,-2.3293053481968773,15.653846153846153
,,0.016508813551346584,0.09736335723572093,0.002471932831479573,0.11634410361854709,0.21449612885031052,0.1418964351255255,0.8368568256363245,-2.3293053481968773,15.692307692307692
,,0.016508813551346584,0.09736335723572093,0.002471932831479573,0.11634410361854709,0.21310692647079,0.1418964351255255,0.8368568256363245,-2.3293053481968773,15.73076923076923
,,0.016508813551346584,0.09736335723572093,0.002471932831479573,0.11634410361854709,0.21171772409126946,0.1418964351255255,0.8368568256363245,-2.3293053481968773,15.76923076923077
,,0.016508813551346584,0.09736335723572093,0.002471932831479573,0.11634410361854709,0.21032852171174893,0.1418964351255255,0.8368568256363245,-2.3293053481968773,15.807692307692308
,,0.016508813551346584,0.09736335723572093,0.002471932831479573,0.11634410361854709,0.20900473259693111,0.1418964351255255,0.8368568256363245,-2.3293053481968773,15.846153846153847
,,0.016508813551346584,0.09736335723572093,0.002471932831479573,0.11634410361854709,0.20768094348211327,0.1418964351255255,0.8368568256363245,-2.3293053481968773,15.884615384615385
,,0.016508813551346584,0.09736335723572093,0.002471932831479573,0.11634410361854709,0.20635715436729546,0.1418964351255255,0.8368568256363245,-2.3293053481968773,15.923076923076923
,,0.016508813551346584,0.09736335723572093,0.002471932831479573,0.11634410361854709,0.2050333652524776,0.1418964351255255,0.8368568256363245,-2.3293053481968773,15.961538461538462
,,0.016508813551346584,0.09736335723572093,0.002471932831479573,0.11634410361854709,0.2037095761376598,0.1418964351255255,0.8368568256363245,-2.3293053481968773,16.0
,,0.016508813551346584,0.09736335723572093,0.002471932831479573,0.11634410361854709,0.202385787022842,0.1418964351255255,0.8368568256363245,-2.3293053481968773,16.03846153846154
,,0.016460297074965397,0.09980540540056956,0.002482863494209165,0.11874856596974412,0.2010081038212885,0.13861470191698405,0.8404767214283575,-2.3045329348010886,16.076923076923077
,,0.016460297074965397,0.09980540540056956,0.002482863494209165,0.11874856596974412,0.1996304206197351,0.13861470191698405,0.8404767214283575,-2.3045329348010886,16.115384615384617
,,0.016460297074965397,0.09980540540056956,0.002482863494209165,0.11874856596974412,0.19825273741818164,0.13861470191698405,0.8404767214283575,-2.3045329348010886,16.153846153846153
,,0.016460297074965397,0.09980540540056956,0.002482863494209165,0.11874856596974412,0.19687505421662824,0.13861470191698405,0.8404767214283575,-2.3045329348010886,16.192307692307693
,,0.01878410673185626,0.10306248068748725,0.0024277832981724834,0.124274370717516,0.19569894664744122,0.15115028644605893,0.8293140419254682,-2.2724198660487556,16.23076923076923
,,0.01878410673185626,0.10306248068748725,0.0024277832981724834,0.124274370717516,0.19452283907825427,0.15115028644605893,0.8293140419254682,-2.2724198660487556,16.26923076923077
,,0.01878410673185626,0.10306248068748725,0.0024277832981724834,0.124274370717516,0.19334673150906728,0.15115028644605893,0.8293140419254682,-2.2724198660487556,16.307692307692307
,,0.01878410673185626,0.10306248068748725,0.0024277832981724834,0.124274370717516,0.1925522212532176,0.15115028644605893,0.8293140419254682,-2.2724198660487556,16.346153846153847
,,0.01878410673185626,0.10306248068748725,0.0024277832981724834,0.124274370717516,0.1917577109973679,0.15115028644605893,0.8293140419254682,-2.2724198660487556,16.384615384615383
,,0.01878410673185626,0.10306248068748725,0.0024277832981724834,0.124274370717516,0.19096320074151824,0.15115028644605893,0.8293140419254682,-2.2724198660487556,16.423076923076923
,,0.01878410673185626,0.10306248068748725,0.0024277832981724834,0.124274370717516,0.19016869048566856,0.15115028644605893,0.8293140419254682,-2.2724198660487556,16.46153846153846
,,0.01878410673185626,0.10306248068748725,0.0024277832981724834,0.124274370717516,0.18937418022981892,0.15115028644605893,0.8293140419254682,-2.2724198660487556,16.5
,,0.01878410673185626,0.10306248068748725,0.0024277832981724834,0.124274370717516,0.1886842477134081,0.15115028644605893,0.8293140419254682,-2.2724198660487556,16.53846153846154
,,0.01878410673185626,0.10306248068748725,0.0024277832981724834,0.124274370717516,0.18799431519699727,0.15115028644605893,0.8293140419254682,-2.2724198660487556,16.576923076923077
,,0.01878410673185626,0.10306248068748725,0.0024277832981724834,0.124274370717516,0.1873043826805865,0.15115028644605893,0.8293140419254682,-2.2724198660487556,16.615384615384617
,,0.01878410673185626,0.10306248068748725,0.0024277832981724834,0.124274370717516,0.18661445016417566,0.15115028644605893,0.8293140419254682,-2.2724198660487556,16.653846153846153
,,0.01878624512080464,0.10422995811201083,0.0023832087633155496,0.12539941199613103,0.18590101802594014,0.14981126962050073,0.8311837866929285,-2.2611556851113397,16.692307692307693
,,0.01878624512080464,0.10422995811201083,0.0023832087633155496,0.12539941199613103,0.18518758588770462,0.14981126962050073,0.8311837866929285,-2.2611556851113397,16.73076923076923
,,0.01878624512080464,0.10422995811201083,0.0023832087633155496,0.12539941199613103,0.1844741537494691,0.14981126962050073,0.8311837866929285,-2.2611556851113397,16.76923076923077
,,0.01878624512080464,0.10422995811201083,0.0023832087633155496,0.12539941199613103,0.18376072161123358,0.14981126962050073,0.8311837866929285,-2.2611556851113397,16.807692307692307
,,0.01878624512080464,0.10422995811201083,0.0023832087633155496,0.12539941199613103,0.18304728947299806,0.14981126962050073,0.8311837866929285,-2.2611556851113397,16.846153846153847
,,0.021608343131313195,0.10558232003320522,0.0022860538190945193,0.12947671698361293,0.18261781414374492,0.16688979790897873,0.8154541024280691,-2.248264345654907,16.884615384615383
,,0.021608343131313195,0.10558232003320522,0.0022860538190945193,0.12947671698361293,0.18218833881449176,0.16688979790897873,0.8154541024280691,-2.248264345654907,16.923076923076923
,,0.021608343131313195,0.10558232003320522,0.0022860538190945193,0.12947671698361293,0.18205460259737785,0.16688979790897873,0.8154541024280691,-2.248264345654907,16.96153846153846
,,0.021608343131313195,0.10558232003320522,0.0022860538190945193,0.12947671698361293,0.18192086638026397,0.16688979790897873,0.8154541024280691,-2.248264345654907,17.0
,,0.021608343131313195,0.10558232003320522,0.0022860538190945193,0.12947671698361293,0.18178713016315007,0.16688979790897873,0.8154541024280691,-2.248264345654907,17.03846153846154
,,0.021608343131313195,0.10558232003320522,0.0022860538190945193,0.12947671698361293,0.18165339394603616,0.16688979790897873,0.8154541024280691,-2.248264345654907,17.076923076923077
,,0.021608343131313195,0.10558232003320522,0.0022860538190945193,0.12947671698361293,0.18151965772892228,0.16688979790897873,0.8154541024280691,-2.248264345654907,17.115384615384617
,,0.021608343131313195,0.10558232003320522,0.0022860538190945193,0.12947671698361293,0.18148885057550135,0.16688979790897873,0.8154541024280691,-2.248264345654907,17.153846153846153
,,0.021608343131313195,0.10558232003320522,0.0022860538190945193,0.12947671698361293,0.18145804342208038,0.16688979790897873,0.8154541024280691,-2.248264345654907,17.192307692307693
,,0.021608343131313195,0.10558232003320522,0.0022860538190945193,0.12947671698361293,0.18142723626865945,0.16688979790897873,0.8154541024280691,-2.248264345654907,17.23076923076923
,,0.021608343131313195,0.10558232003320522,0.0022860538190945193,0.12947671698361293,0.1813964291152385,0.16688979790897873,0.8154541024280691,-2.248264345654907,17.26923076923077
,,0.02161112978762073,0.10597177567417641,0.0022027138933562278,0.12978561935515337,0.1813571819304967,0.16651405521656987,0.8165140036369416,-2.244582487550232,17.307692307692307
,,0.02161112978762073,0.10597177567417641,0.0022027138933562278,0.12978561935515337,0.18131793474575497,0.16651405521656987,0.8165140036369416,-2.244582487550232,17.346153846153847
,,0.02161112978762073,0.10597177567417641,0.0022027138933562278,0.12978561935515337,0.18127868756101317,0.16651405521656987,0.8165140036369416,-2.244582487550232,17.384615384615383
,,0.02161112978762073,0.10597177567417641,0.0022027138933562278,0.12978561935515337,0.18123944037627138,0.16651405521656987,0.8165140036369416,-2.244582487550232,17.423076923076923
,,0.02161112978762073,0.10597177567417641,0.0022027138933562278,0.12978561935515337,0.18120019319152963,0.16651405521656987,0.8165140036369416,-2.244582487550232,17.46153846153846
,,0.02161112978762073,0.10597177567417641,0.0022027138933562278,0.12978561935515337,0.1811609460067878,0.16651405521656987,0.8165140036369416,-2.244582487550232,17.5
,,0.024344700264807742,0.10457538617219378,0.0020829520412247973,0.13100303847822634,0.1814573129711058,0.18583309629764053,0.7982668752341571,-2.2578470688833203,17.53846153846154
,,0.024344700264807742,0.10457538617219378,0.0020829520412247973,0.13100303847822634,0.18198842605233292,0.18583309629764053,0.7982668752341571,-2.2578470688833203,17.576923076923077
,,0.024344700264807742,0.10457538617219378,0.0020829520412247973,0.13100303847822634,0.18251953913356012,0.18583309629764053,0.7982668752341571,-2.2578470688833203,17.615384615384617
,,0.024344700264807742,0.10457538617219378,0.0020829520412247973,0.13100303847822634,0.1830506522147873,0.18583309629764053,0.7982668752341571,-2.2578470688833203,17.653846153846153
,,0.024344700264807742,0.10457538617219378,0.0020829520412247973,0.13100303847822634,0.18358176529601447,0.18583309629764053,0.7982668752341571,-2.2578470688833203,17.692307692307693
,,0.024344700264807742,0.10457538617219378,0.0020829520412247973,0.13100303847822634,0.18411287837724163,0.18583309629764053,0.7982668752341571,-2.2578470688833203,17.73076923076923
,,0.024344700264807742,0.10457538617219378,0.0020829520412247973,0.13100303847822634,0.18464399145846883,0.18583309629764053,0.7982668752341571,-2.2578470688833203,17.76923076923077
,,0.024344700264807742,0.10457538617219378,0.0020829520412247973,0.13100303847822634,0.18522531101999454,0.18583309629764053,0.7982668752341571,-2.2578470688833203,17.807692307692307
,,0.024344700264807742,0.10457538617219378,0.0020829520412247973,0.13100303847822634,0.18580663058152025,0.18583309629764053,0.7982668752341571,-2.2578470688833203,17.846153846153847
,,0.024344700264807742,0.10457538617219378,0.0020829520412247973,0.13100303847822634,0.18638795014304593,0.18583309629764053,0.7982668752341571,-2.2578470688833203,17.884615384615383
,,,0.09589539889190898,0.0018100597301385064,0.09770545862204749,0.18643013522622362,,0.9814743233830944,-2.344497276430294,17.923076923076923
,,,0.09589539889190898,0.0018100597301385064,0.09770545862204749,0.1864733247161436,,0.9814743233830944,-2.344497276430294,17.96153846153846
,,,0.09589539889190898,0.0018100597301385064,0.09770545862204749,0.1865175549166641,,0.9814743233830944,-2.344497276430294,18.0
,,,0.09589539889190898,0.0018100597301385064,0.09770545862204749,0.18656286390256313,,0.9814743233830944,-2.344497276430294,18.03846153846154
,,,0.09589539889190898,0.0018100597301385064,0.09770545862204749,0.18660929162885473,,0.9814743233830944,-2.344497276430294,18.076923076923077
,,,0.09589539889190898,0.0018100597301385064,0.09770545862204749,0.18681419081149692,,0.9814743233830944,-2.344497276430294,18.115384615384617
,,,0.09589539889190898,0.0018100597301385064,0.09770545862204749,0.18686497527654186,,0.9814743233830944,-2.344497276430294,18.153846153846153
,,0.02192276854201763,0.08347077757151199,0.0015458026469100717,0.10693934876043969,0.1878755806449611,0.20500188935251465,0.7805431633822565,-2.48325867758229,18.192307692307693
,,0.02192276854201763,0.08347077757151199,0.0015458026469100717,0.10693934876043969,0.18907744939175686,0.20500188935251465,0.7805431633822565,-2.48325867758229,18.23076923076923
,,0.02192276854201763,0.08347077757151199,0.0015458026469100717,0.10693934876043969,0.1902793181385526,0.20500188935251465,0.7805431633822565,-2.48325867758229,18.26923076923077
,,0.02192276854201763,0.08347077757151199,0.0015458026469100717,0.10693934876043969,0.19148118688534835,0.20500188935251465,0.7805431633822565,-2.48325867758229,18.307692307692307
,,0.02192276854201763,0.08347077757151199,0.0015458026469100717,0.10693934876043969,0.1926830556321441,0.20500188935251465,0.7805431633822565,-2.48325867758229,18.346153846153847
,,0.02192276854201763,0.08347077757151199,0.0015458026469100717,0.10693934876043969,0.19388492437893984,0.20500188935251465,0.7805431633822565,-2.48325867758229,18.384615384615383
,,0.02192276854201763,0.08347077757151199,0.0015458026469100717,0.10693934876043969,0.1950867931257356,0.20500188935251465,0.7805431633822565,-2.48325867758229,18.423076923076923
,,0.02192276854201763,0.08347077757151199,0.0015458026469100717,0.10693934876043969,0.1962706574726609,0.20500188935251465,0.7805431633822565,-2.48325867758229,18.46153846153846
,,0.02192276854201763,0.08347077757151199,0.0015458026469100717,0.10693934876043969,0.1974545218195862,0.20500188935251465,0.7805431633822565,-2.48325867758229,18.5
,,0.02192276854201763,0.08347077757151199,0.0015458026469100717,0.10693934876043969,0.1986383861665115,0.20500188935251465,0.7805431633822565,-2.48325867758229,18.53846153846154
,,0.02097368072574424,0.06562629739808186,0.0011836324978649402,0.08778361062169103,0.20054316929707974,0.23892478991473284,0.7475916852053682,-2.7237787883902373,18.576923076923077
,,0.02097368072574424,0.06562629739808186,0.0011836324978649402,0.08778361062169103,0.202447952427648,0.23892478991473284,0.7475916852053682,-2.7237787883902373,18.615384615384617
,,0.02097368072574424,0.06562629739808186,0.0011836324978649402,0.08778361062169103,0.2043527355582162,0.23892478991473284,0.7475916852053682,-2.7237787883902373,18.653846153846153
,,0.02097368072574424,0.06562629739808186,0.0011836324978649402,0.08778361062169103,0.20625751868878442,0.23892478991473284,0.7475916852053682,-2.7237787883902373,18.692307692307693
,,0.02097368072574424,0.06562629739808186,0.0011836324978649402,0.08778361062169103,0.20816230181935266,0.23892478991473284,0.7475916852053682,-2.7237787883902373,18.73076923076923
,,0.02097368072574424,0.06562629739808186,0.0011836324978649402,0.08778361062169103,0.2100670849499209,0.23892478991473284,0.7475916852053682,-2.7237787883902373,18.76923076923077
,,0.02097368072574424,0.06562629739808186,0.0011836324978649402,0.08778361062169103,0.21249727688824016,0.23892478991473284,0.7475916852053682,-2.7237787883902373,18.807692307692307
,,0.019445865234834603,0.06850362191048252,0.0012319586753041325,0.08918144582062126,0.21394982722011324,0.21804832895339954,0.7681376017189727,-2.680868660506186,18.846153846153847
,,0.019445865234834603,0.06850362191048252,0.0012319586753041325,0.08918144582062126,0.21540237755198635,0.21804832895339954,0.7681376017189727,-2.680868660506186,18.884615384615383
,,0.019445865234834603,0.06850362191048252,0.0012319586753041325,0.08918144582062126,0.2162581757699483,0.21804832895339954,0.7681376017189727,-2.680868660506186,18.923076923076923
,,0.019445865234834603,0.06850362191048252,0.0012319586753041325,0.08918144582062126,0.21709284316771366,0.21804832895339954,0.7681376017189727,-2.680868660506186,18.96153846153846
,,0.019445865234834603,0.06850362191048252,0.0012319586753041325,0.08918144582062126,0.21790715282407006,0.21804832895339954,0.7681376017189727,-2.680868660506186,19.0
,,0.019445865234834603,0.06850362191048252,0.0012319586753041325,0.08918144582062126,0.21870184056099623,0.21804832895339954,0.7681376017189727,-2.680868660506186,19.03846153846154
,,0.01758532587936739,0.06370716814006139,0.0010997764296132473,0.08239227044904203,0.21998467084142323,0.21343417026289574,0.7732177762896217,-2.7534581930637145,19.076923076923077
,,0.019445865234834603,0.06850362191048252,0.0012319586753041325,0.08918144582062126,0.22136186891094298,0.21804832895339954,0.7681376017189727,-2.680868660506186,19.115384615384617
,,0.019445865234834603,0.06850362191048252,0.0012319586753041325,0.08918144582062126,0.22273906698046275,0.21804832895339954,0.7681376017189727,-2.680868660506186,19.153846153846153
,,0.01759945180107828,0.06416705898419442,0.0011011266064498671,0.08286763739172257,0.22400071395366658,0.21238027721104358,0.7743319467510715,-2.746265299901705,19.192307692307693
,,0.01759945180107828,0.06416705898419442,0.0011011266064498671,0.08286763739172257,0.22526236092687046,0.21238027721104358,0.7743319467510715,-2.746265299901705,19.23076923076923
,,0.01759945180107828,0.06416705898419442,0.0011011266064498671,0.08286763739172257,0.2265240079000743,0.21238027721104358,0.7743319467510715,-2.746265299901705,19.26923076923077
,,0.01759945180107828,0.06416705898419442,0.0011011266064498671,0.08286763739172257,0.22778565487327815,0.21238027721104358,0.7743319467510715,-2.746265299901705,19.307692307692307
,,0.01759945180107828,0.06416705898419442,0.0011011266064498671,0.08286763739172257,0.22904730184648198,0.21238027721104358,0.7743319467510715,-2.746265299901705,19.346153846153847
,,0.01759945180107828,0.06416705898419442,0.0011011266064498671,0.08286763739172257,0.23030894881968583,0.21238027721104358,0.7743319467510715,-2.746265299901705,19.384615384615383
,,0.01759945180107828,0.06416705898419442,0.0011011266064498671,0.08286763739172257,0.2315705957928897,0.21238027721104358,0.7743319467510715,-2.746265299901705,19.423076923076923
,,0.01759945180107828,0.06416705898419442,0.0011011266064498671,0.08286763739172257,0.23283224276609352,0.21238027721104358,0.7743319467510715,-2.746265299901705,19.46153846153846
,,0.01712025350078828,0.05851534993130064,0.0010679885675748124,0.07670359199966373,0.23431439145140895,0.22320015340172514,0.7628762670144206,-2.838466167175038,19.5
,,0.01712025350078828,0.05851534993130064,0.0010679885675748124,0.07670359199966373,0.23585238220249863,0.22320015340172514,0.7628762670144206,-2.838466167175038,19.53846153846154
,,0.01712025350078828,0.05851534993130064,0.0010679885675748124,0.07670359199966373,0.23739037295358834,0.22320015340172514,0.7628762670144206,-2.838466167175038,19.576923076923077
,,0.01712025350078828,0.05851534993130064,0.0010679885675748124,0.07670359199966373,0.238928363704678,0.22320015340172514,0.7628762670144206,-2.838466167175038,19.615384615384617
,,0.01712025350078828,0.05851534993130064,0.0010679885675748124,0.07670359199966373,0.24046635445576767,0.22320015340172514,0.7628762670144206,-2.838466167175038,19.653846153846153
,,0.01712025350078828,0.05851534993130064,0.0010679885675748124,0.07670359199966373,0.2417954837082608,0.22320015340172514,0.7628762670144206,-2.838466167175038,19.692307692307693
,,0.01712025350078828,0.05851534993130064,0.0010679885675748124,0.07670359199966373,0.24312461296075394,0.22320015340172514,0.7628762670144206,-2.838466167175038,19.73076923076923
,,0.015487937459156291,0.05549426457091444,0.0009768331740378057,0.07195903520410854,0.2442912559679353,0.21523270031658234,0.7711924487801632,-2.8914756046344086,19.76923076923077
,,0.015487937459156291,0.05549426457091444,0.0009768331740378057,0.07195903520410854,0.24545789897511666,0.21523270031658234,0.7711924487801632,-2.8914756046344086,19.807692307692307
,,0.015487937459156291,0.05549426457091444,0.0009768331740378057,0.07195903520410854,0.24662454198229802,0.21523270031658234,0.7711924487801632,-2.8914756046344086,19.846153846153847
,,0.015487937459156291,0.05549426457091444,0.0009768331740378057,0.07195903520410854,0.24779118498947938,0.21523270031658234,0.7711924487801632,-2.8914756046344086,19.884615384615383
,,0.015487937459156291,0.05549426457091444,0.0009768331740378057,0.07195903520410854,0.24895782799666086,0.21523270031658234,0.7711924487801632,-2.8914756046344086,19.923076923076923
,,0.015487937459156291,0.05549426457091444,0.0009768331740378057,0.07195903520410854,0.2501244710038422,0.21523270031658234,0.7711924487801632,-2.8914756046344086,19.96153846153846
,,0.015487937459156291,0.05549426457091444,0.0009768331740378057,0.07195903520410854,0.25129111401102355,0.21523270031658234,0.7711924487801632,-2.8914756046344086,20.0
,,0.015487937459156291,0.05549426457091444,0.0009768331740378057,0.07195903520410854,0.25245775701820494,0.21523270031658234,0.7711924487801632,-2.8914756046344086,20.03846153846154
,,0.015487937459156291,0.05549426457091444,0.0009768331740378057,0.07195903520410854,0.2536244000253863,0.21523270031658234,0.7711924487801632,-2.8914756046344086,20.076923076923077
,,0.015145891737508979,0.05254079304519336,0.0010026890013981745,0.06868937378410052,0.25490162628631413,0.22049832314841672,0.7649042370124932,-2.9461654007162115,20.115384615384617
,,0.015145891737508979,0.05254079304519336,0.0010026890013981745,0.06868937378410052,0.25620320155298804,0.22049832314841672,0.7649042370124932,-2.9461654007162115,20.153846153846153
,,0.015145891737508979,0.05254079304519336,0.0010026890013981745,0.06868937378410052,0.2575047768196619,0.22049832314841672,0.7649042370124932,-2.9461654007162115,20.192307692307693
,,0.015145891737508979,0.05254079304519336,0.0010026890013981745,0.06868937378410052,0.2588063520863358,0.22049832314841672,0.7649042370124932,-2.9461654007162115,20.23076923076923
,,0.015145891737508979,0.05254079304519336,0.0010026890013981745,0.06868937378410052,0.26010792735300964,0.22049832314841672,0.7649042370124932,-2.9461654007162115,20.26923076923077
,,0.015145891737508979,0.05254079304519336,0.0010026890013981745,0.06868937378410052,0.2614095026196836,0.22049832314841672,0.7649042370124932,-2.9461654007162115,20.307692307692307
,,0.015145891737508979,0.05254079304519336,0.0010026890013981745,0.06868937378410052,0.2624168575782553,0.22049832314841672,0.7649042370124932,-2.9461654007162115,20.346153846153847
,,0.016285071403526898,0.04616694081961564,0.0008856832540702852,0.06333769547721282,0.26420100707238964,0.25711499733023635,0.7289014933646465,-3.0754913037094607,20.384615384615383
,,0.016285071403526898,0.04616694081961564,0.0008856832540702852,0.06333769547721282,0.265985156566524,0.25711499733023635,0.7289014933646465,-3.0754913037094607,20.423076923076923
,,0.016285071403526898,0.04616694081961564,0.0008856832540702852,0.06333769547721282,0.2677693060606584,0.25711499733023635,0.7289014933646465,-3.0754913037094607,20.46153846153846
,,0.016285071403526898,0.04616694081961564,0.0008856832540702852,0.06333769547721282,0.2695534555547927,0.25711499733023635,0.7289014933646465,-3.0754913037094607,20.5
,,0.016285071403526898,0.04616694081961564,0.0008856832540702852,0.06333769547721282,0.27133760504892707,0.25711499733023635,0.7289014933646465,-3.0754913037094607,20.53846153846154
,,0.016285071403526898,0.04616694081961564,0.0008856832540702852,0.06333769547721282,0.2731217545430614,0.25711499733023635,0.7289014933646465,-3.0754913037094607,20.576923076923077
,,0.016285071403526898,0.04616694081961564,0.0008856832540702852,0.06333769547721282,0.2749059040371958,0.25711499733023635,0.7289014933646465,-3.0754913037094607,20.615384615384617
,,0.016285071403526898,0.04616694081961564,0.0008856832540702852,0.06333769547721282,0.27669005353133014,0.25711499733023635,0.7289014933646465,-3.0754913037094607,20.653846153846153
,,0.016285071403526898,0.04616694081961564,0.0008856832540702852,0.06333769547721282,0.27847420302546455,0.25711499733023635,0.7289014933646465,-3.0754913037094607,20.692307692307693
,,0.01340627404667792,0.04914565420388063,0.001007814866943311,0.06355974311750186,0.2792950203235887,0.21092398095275433,0.7732198368553168,-3.0129668553443283,20.73076923076923
,,0.01340627404667792,0.04914565420388063,0.001007814866943311,0.06355974311750186,0.28012458271440677,0.21092398095275433,0.7732198368553168,-3.0129668553443283,20.76923076923077
,,0.01340627404667792,0.04914565420388063,0.001007814866943311,0.06355974311750186,0.2809541451052248,0.21092398095275433,0.7732198368553168,-3.0129668553443283,20.807692307692307
,,0.01340627404667792,0.04914565420388063,0.001007814866943311,0.06355974311750186,0.28178370749604287,0.21092398095275433,0.7732198368553168,-3.0129668553443283,20.846153846153847
,,0.01340627404667792,0.04914565420388063,0.001007814866943311,0.06355974311750186,0.28261326988686086,0.21092398095275433,0.7732198368553168,-3.0129668553443283,20.884615384615383
,,0.01340627404667792,0.04914565420388063,0.001007814866943311,0.06355974311750186,0.28344283227767897,0.21092398095275433,0.7732198368553168,-3.0129668553443283,20.923076923076923
,,0.01340627404667792,0.04914565420388063,0.001007814866943311,0.06355974311750186,0.284272394668497,0.21092398095275433,0.7732198368553168,-3.0129668553443283,20.96153846153846
,,0.01340627404667792,0.04914565420388063,0.001007814866943311,0.06355974311750186,0.2847542122783616,0.21092398095275433,0.7732198368553168,-3.0129668553443283,21.0
,,0.012322220639656257,0.04831846701045544,0.0009758139463472591,0.061616501596458956,0.2850219861908545,0.1999824774271898,0.7841806295155235,-3.029941451635849,21.03846153846154
,,0.012322220639656257,0.04831846701045544,0.0009758139463472591,0.061616501596458956,0.2852897601033474,0.1999824774271898,0.7841806295155235,-3.029941451635849,21.076923076923077
,,0.012322220639656257,0.04831846701045544,0.0009758139463472591,0.061616501596458956,0.2855575340158403,0.1999824774271898,0.7841806295155235,-3.029941451635849,21.115384615384617
,,0.012322220639656257,0.04831846701045544,0.0009758139463472591,0.061616501596458956,0.28582530792833316,0.1999824774271898,0.7841806295155235,-3.029941451635849,21.153846153846153
,,0.012322220639656257,0.04831846701045544,0.0009758139463472591,0.061616501596458956,0.2860930818408261,0.1999824774271898,0.7841806295155235,-3.029941451635849,21.192307692307693
,,0.012322220639656257,0.04831846701045544,0.0009758139463472591,0.061616501596458956,0.286360855753319,0.1999824774271898,0.7841806295155235,-3.029941451635849,21.23076923076923
,,0.012012038318920745,0.04816263452231879,0.0010891281816263222,0.061263801022865855,0.2865609769167976,0.19607073211858697,0.7861515890002118,-3.0331717759412355,21.26923076923077
,,0.012012038318920745,0.04816263452231879,0.0010891281816263222,0.061263801022865855,0.2867610980802763,0.19607073211858697,0.7861515890002118,-3.0331717759412355,21.307692307692307
,,0.012012038318920745,0.04816263452231879,0.0010891281816263222,0.061263801022865855,0.28696121924375495,0.19607073211858697,0.7861515890002118,-3.0331717759412355,21.346153846153847
,,0.012012038318920745,0.04816263452231879,0.0010891281816263222,0.061263801022865855,0.28651413040672075,0.19607073211858697,0.7861515890002118,-3.0331717759412355,21.384615384615383
,,0.012012038318920745,0.04816263452231879,0.0010891281816263222,0.061263801022865855,0.28607756130702855,0.19607073211858697,0.7861515890002118,-3.0331717759412355,21.423076923076923
,,0.012012038318920745,0.04816263452231879,0.0010891281816263222,0.061263801022865855,0.28565114497709665,0.19607073211858697,0.7861515890002118,-3.0331717759412355,21.46153846153846
,,0.012012038318920745,0.04816263452231879,0.0010891281816263222,0.061263801022865855,0.285234531321416,0.19607073211858697,0.7861515890002118,-3.0331717759412355,21.5
,,0.012012038318920745,0.04816263452231879,0.0010891281816263222,0.061263801022865855,0.28482738615791,0.19607073211858697,0.7861515890002118,-3.0331717759412355,21.53846153846154
,,0.012012038318920745,0.04816263452231879,0.0010891281816263222,0.061263801022865855,0.28442939032392095,0.19607073211858697,0.7861515890002118,-3.0331717759412355,21.576923076923077
,,0.012012038318920745,0.04816263452231879,0.0010891281816263222,0.061263801022865855,0.2840402388417983,0.19607073211858697,0.7861515890002118,-3.0331717759412355,21.615384615384617
,,0.012012038318920745,0.04816263452231879,0.0010891281816263222,0.061263801022865855,0.28389319122796297,0.19607073211858697,0.7861515890002118,-3.0331717759412355,21.653846153846153
,,0.012012038318920745,0.04816263452231879,0.0010891281816263222,0.061263801022865855,0.28374614361412764,0.19607073211858697,0.7861515890002118,-3.0331717759412355,21.692307692307693
,,0.01138311121416044,0.04864808952581506,0.0010930296582849128,0.06112423039826041,0.2834277971922668,0.18622911307009932,0.7958887859829737,-3.02314274088862,21.73076923076923
,,0.01138311121416044,0.04864808952581506,0.0010930296582849128,0.06112423039826041,0.28310945077040595,0.18622911307009932,0.7958887859829737,-3.02314274088862,21.76923076923077
,,0.01138311121416044,0.04864808952581506,0.0010930296582849128,0.06112423039826041,0.2827911043485451,0.18622911307009932,0.7958887859829737,-3.02314274088862,21.807692307692307
,,0.01101324589247554,0.04897234257779154,0.0012368427889981486,0.06122243125926523,0.28237162671180505,0.17988906461157284,0.7999084905727295,-3.0164995774140744,21.846153846153847
,,0.01101324589247554,0.04897234257779154,0.0012368427889981486,0.06122243125926523,0.281952149075065,0.17988906461157284,0.7999084905727295,-3.0164995774140744,21.884615384615383
,,0.01101324589247554,0.04897234257779154,0.0012368427889981486,0.06122243125926523,0.2815326714383249,0.17988906461157284,0.7999084905727295,-3.0164995774140744,21.923076923076923
,,0.01101324589247554,0.04897234257779154,0.0012368427889981486,0.06122243125926523,0.28111319380158484,0.17988906461157284,0.7999084905727295,-3.0164995774140744,21.96153846153846
,,0.01101324589247554,0.04897234257779154,0.0012368427889981486,0.06122243125926523,0.28069371616484473,0.17988906461157284,0.7999084905727295,-3.0164995774140744,22.0
,,0.01101324589247554,0.04897234257779154,0.0012368427889981486,0.06122243125926523,0.27964143204024033,0.17988906461157284,0.7999084905727295,-3.0164995774140744,22.03846153846154
,,0.01101324589247554,0.04897234257779154,0.0012368427889981486,0.06122243125926523,0.2785891479156359,0.17988906461157284,0.7999084905727295,-3.0164995774140744,22.076923076923077
,,0.01101324589247554,0.04897234257779154,0.0012368427889981486,0.06122243125926523,0.27753686379103143,0.17988906461157284,0.7999084905727295,-3.0164995774140744,22.115384615384617
,,0.01101324589247554,0.04897234257779154,0.0012368427889981486,0.06122243125926523,0.27648457966642703,0.17988906461157284,0.7999084905727295,-3.0164995774140744,22.153846153846153
,,0.01101324589247554,0.04897234257779154,0.0012368427889981486,0.06122243125926523,0.2754322955418226,0.17988906461157284,0.7999084905727295,-3.0164995774140744,22.192307692307693
,,0.01101324589247554,0.04897234257779154,0.0012368427889981486,0.06122243125926523,0.2743800114172182,0.17988906461157284,0.7999084905727295,-3.0164995774140744,22.23076923076923
,,0.01101324589247554,0.04897234257779154,0.0012368427889981486,0.06122243125926523,0.27332772729261373,0.17988906461157284,0.7999084905727295,-3.0164995774140744,22.26923076923077
,,0.01101324589247554,0.04897234257779154,0.0012368427889981486,0.06122243125926523,0.27267240306908613,0.17988906461157284,0.7999084905727295,-3.0164995774140744,22.307692307692307
,,0.01101324589247554,0.04897234257779154,0.0012368427889981486,0.06122243125926523,0.2720170788455585,0.17988906461157284,0.7999084905727295,-3.0164995774140744,22.346153846153847
,,0.01101324589247554,0.04897234257779154,0.0012368427889981486,0.06122243125926523,0.2713617546220309,0.17988906461157284,0.7999084905727295,-3.0164995774140744,22.384615384615383
,,,0.059277222250814804,0.0016212546468725338,0.060898476897687334,0.2712212548426274,,0.9733777472038205,-2.8255301572093408,22.423076923076923
,,,0.057922222676006115,0.0018069472336855498,0.05972916990969167,0.2710775618864193,,0.9697476586998013,-2.84865415670993,22.46153846153846
,,,0.057922222676006115,0.0018069472336855498,0.05972916990969167,0.2709305656438616,,0.9697476586998013,-2.84865415670993,22.5
,,,0.057922222676006115,0.0018069472336855498,0.05972916990969167,0.2708712267735083,,0.9697476586998013,-2.84865415670993,22.53846153846154
,,,0.057922222676006115,0.0018069472336855498,0.05972916990969167,0.27071834432391495,,0.9697476586998013,-2.84865415670993,22.576923076923077
,,,0.057922222676006115,0.0018069472336855498,0.05972916990969167,0.27056182181599797,,0.9697476586998013,-2.84865415670993,22.615384615384617
,,,0.057922222676006115,0.0018069472336855498,0.05972916990969167,0.27051707877770015,,0.9697476586998013,-2.84865415670993,22.653846153846153
,,,0.057922222676006115,0.0018069472336855498,0.05972916990969167,0.27047124444578524,,0.9697476586998013,-2.84865415670993,22.692307692307693
,,,0.057922222676006115,0.0018069472336855498,0.05972916990969167,0.27042427840197125,,0.9697476586998013,-2.84865415670993,22.73076923076923
,,,0.057922222676006115,0.0018069472336855498,0.05972916990969167,0.27037613820706186,,0.9697476586998013,-2.84865415670993,22.76923076923077
,,,0.057922222676006115,0.0018069472336855498,0.05972916990969167,0.2703267792730409,,0.9697476586998013,-2.84865415670993,22.807692307692307
,,,0.057922222676006115,0.0018069472336855498,0.05972916990969167,0.27027615472532707,,0.9697476586998013,-2.84865415670993,22.846153846153847
,,,0.057922222676006115,0.0018069472336855498,0.05972916990969167,0.27022421525429596,,0.9697476586998013,-2.84865415670993,22.884615384615383
,,,0.057922222676006115,0.0018069472336855498,0.05972916990969167,0.2701709089550799,,0.9697476586998013,-2.84865415670993,22.923076923076923
,,,0.057922222676006115,0.0018069472336855498,0.05972916990969167,0.2698721592598145,,0.9697476586998013,-2.84865415670993,22.96153846153846
,,,0.057922222676006115,0.0018069472336855498,0.05972916990969167,0.2695653352484609,,0.9697476586998013,-2.84865415670993,23.0
,,,0.05985038450332303,0.0018152976935354001,0.06166568219685843,0.26925010509980984,,0.970562270149865,-2.8159074225489498,23.03846153846154
,,,0.05985038450332303,0.0018152976935354001,0.06166568219685843,0.2689261185581408,,0.970562270149865,-2.8159074225489498,23.076923076923077
,,0.010209674251229374,0.052937817561683434,0.0015326821766244573,0.06468017398953727,0.2675411810961101,0.15784858978395608,0.8184550890392891,-2.938637307783919,23.115384615384617
,,0.010209674251229374,0.052937817561683434,0.0015326821766244573,0.06468017398953727,0.26615624363407936,0.15784858978395608,0.8184550890392891,-2.938637307783919,23.153846153846153
,,0.010209674251229374,0.052937817561683434,0.0015326821766244573,0.06468017398953727,0.2647713061720486,0.15784858978395608,0.8184550890392891,-2.938637307783919,23.192307692307693
,,0.010209674251229374,0.052937817561683434,0.0015326821766244573,0.06468017398953727,0.2635736792428078,0.15784858978395608,0.8184550890392891,-2.938637307783919,23.23076923076923
,,0.010209674251229374,0.052937817561683434,0.0015326821766244573,0.06468017398953727,0.262376052313567,0.15784858978395608,0.8184550890392891,-2.938637307783919,23.26923076923077
,,0.010209674251229374,0.052937817561683434,0.0015326821766244573,0.06468017398953727,0.26117842538432623,0.15784858978395608,0.8184550890392891,-2.938637307783919,23.307692307692307
,,0.010209674251229374,0.052937817561683434,0.0015326821766244573,0.06468017398953727,0.2599807984550854,0.15784858978395608,0.8184550890392891,-2.938637307783919,23.346153846153847
,,0.010209674251229374,0.052937817561683434,0.0015326821766244573,0.06468017398953727,0.25878317152584457,0.15784858978395608,0.8184550890392891,-2.938637307783919,23.384615384615383
,,0.010209674251229374,0.052937817561683434,0.0015326821766244573,0.06468017398953727,0.25758554459660377,0.15784858978395608,0.8184550890392891,-2.938637307783919,23.423076923076923
,,0.010209674251229374,0.052937817561683434,0.0015326821766244573,0.06468017398953727,0.25638791766736296,0.15784858978395608,0.8184550890392891,-2.938637307783919,23.46153846153846
,,0.010209674251229374,0.052937817561683434,0.0015326821766244573,0.06468017398953727,0.25519029073812216,0.15784858978395608,0.8184550890392891,-2.938637307783919,23.5
,,0.010209674251229374,0.052937817561683434,0.0015326821766244573,0.06468017398953727,0.25399266380888136,0.15784858978395608,0.8184550890392891,-2.938637307783919,23.53846153846154
,,0.010209674251229374,0.052937817561683434,0.0015326821766244573,0.06468017398953727,0.2526675589621273,0.15784858978395608,0.8184550890392891,-2.938637307783919,23.576923076923077
,,0.010209674251229374,0.052937817561683434,0.0015326821766244573,0.06468017398953727,0.25134245411537326,0.15784858978395608,0.8184550890392891,-2.938637307783919,23.615384615384617
,,0.010209674251229374,0.052937817561683434,0.0015326821766244573,0.06468017398953727,0.2500173492686193,0.15784858978395608,0.8184550890392891,-2.938637307783919,23.653846153846153
,,0.014505064505752674,0.061613100312484466,0.001968077468490883,0.07808624228672802,0.24928335721384137,0.1857569794752185,0.789039125307693,-2.786880763642709,23.692307692307693
,,0.014505064505752674,0.061613100312484466,0.001968077468490883,0.07808624228672802,0.2485493651590635,0.1857569794752185,0.789039125307693,-2.786880763642709,23.73076923076923
,,0.014505064505752674,0.061613100312484466,0.001968077468490883,0.07808624228672802,0.2478153731042856,0.1857569794752185,0.789039125307693,-2.786880763642709,23.76923076923077
,,0.014505064505752674,0.061613100312484466,0.001968077468490883,0.07808624228672802,0.24708138104950772,0.1857569794752185,0.789039125307693,-2.786880763642709,23.807692307692307
,,0.010855414512460323,0.05642467758688226,0.0016514837153679754,0.06893157581471054,0.24485422238033674,0.15748101482026022,0.8185606802106616,-2.874848670306697,23.846153846153847
,,0.010855414512460323,0.05642467758688226,0.0016514837153679754,0.06893157581471054,0.24262706371116577,0.15748101482026022,0.8185606802106616,-2.874848670306697,23.884615384615383
,,0.010855414512460323,0.05642467758688226,0.0016514837153679754,0.06893157581471054,0.24039990504199482,0.15748101482026022,0.8185606802106616,-2.874848670306697,23.923076923076923
,,0.010855414512460323,0.05642467758688226,0.0016514837153679754,0.06893157581471054,0.2381727463728238,0.15748101482026022,0.8185606802106616,-2.874848670306697,23.96153846153846
,,0.010855414512460323,0.05642467758688226,0.0016514837153679754,0.06893157581471054,0.23594558770365287,0.15748101482026022,0.8185606802106616,-2.874848670306697,24.0
,,0.010855414512460323,0.05642467758688226,0.0016514837153679754,0.06893157581471054,0.23371842903448192,0.15748101482026022,0.8185606802106616,-2.874848670306697,24.03846153846154
,,0.010855414512460323,0.05642467758688226,0.0016514837153679754,0.06893157581471054,0.2314912703653109,0.15748101482026022,0.8185606802106616,-2.874848670306697,24.076923076923077
,,0.010855414512460323,0.05642467758688226,0.0016514837153679754,0.06893157581471054,0.22926411169613992,0.15748101482026022,0.8185606802106616,-2.874848670306697,24.115384615384617
,,0.010855414512460323,0.05642467758688226,0.0016514837153679754,0.06893157581471054,0.22703695302696897,0.15748101482026022,0.8185606802106616,-2.874848670306697,24.153846153846153
,,0.010855414512460323,0.05642467758688226,0.0016514837153679754,0.06893157581471054,0.2259203023059764,0.15748101482026022,0.8185606802106616,-2.874848670306697,24.192307692307693
,,0.010855414512460323,0.05642467758688226,0.0016514837153679754,0.06893157581471054,0.22480365158498383,0.15748101482026022,0.8185606802106616,-2.874848670306697,24.23076923076923
,,0.010855414512460323,0.05642467758688226,0.0016514837153679754,0.06893157581471054,0.22368700086399126,0.15748101482026022,0.8185606802106616,-2.874848670306697,24.26923076923077
,,0.01523314911998277,0.0646855461833064,0.0020993076547487707,0.08201800295803793,0.22316906817619162,0.18572933466541922,0.7886749719619585,-2.73821749990816,24.307692307692307
,,0.01523314911998277,0.0646855461833064,0.0020993076547487707,0.08201800295803793,0.22265113548839194,0.18572933466541922,0.7886749719619585,-2.73821749990816,24.346153846153847
,,0.01523314911998277,0.0646855461833064,0.0020993076547487707,0.08201800295803793,0.22213320280059232,0.18572933466541922,0.7886749719619585,-2.73821749990816,24.384615384615383
,,0.01523314911998277,0.0646855461833064,0.0020993076547487707,0.08201800295803793,0.22161527011279264,0.18572933466541922,0.7886749719619585,-2.73821749990816,24.423076923076923
,,0.01523314911998277,0.0646855461833064,0.0020993076547487707,0.08201800295803793,0.221097337424993,0.18572933466541922,0.7886749719619585,-2.73821749990816,24.46153846153846
,,0.01523314911998277,0.0646855461833064,0.0020993076547487707,0.08201800295803793,0.22082614955499685,0.18572933466541922,0.7886749719619585,-2.73821749990816,24.5
,,0.01649592873251507,0.06658098615485908,0.0022291135282897093,0.08530602841566386,0.220725266437438,0.1933735404036943,0.7804956741208867,-2.709336235367011,24.53846153846154
,,0.01649592873251507,0.06658098615485908,0.0022291135282897093,0.08530602841566386,0.22062438331987913,0.1933735404036943,0.7804956741208867,-2.709336235367011,24.576923076923077
,,0.01649592873251507,0.06658098615485908,0.0022291135282897093,0.08530602841566386,0.22052350020232028,0.1933735404036943,0.7804956741208867,-2.709336235367011,24.615384615384617
,,0.01649592873251507,0.06658098615485908,0.0022291135282897093,0.08530602841566386,0.22042261708476138,0.1933735404036943,0.7804956741208867,-2.709336235367011,24.653846153846153
,,0.01649592873251507,0.06658098615485908,0.0022291135282897093,0.08530602841566386,0.22032173396720253,0.1933735404036943,0.7804956741208867,-2.709336235367011,24.692307692307693
,,0.01649592873251507,0.06658098615485908,0.0022291135282897093,0.08530602841566386,0.22029883943531284,0.1933735404036943,0.7804956741208867,-2.709336235367011,24.73076923076923
,,0.01649592873251507,0.06658098615485908,0.0022291135282897093,0.08530602841566386,0.22027594490342317,0.1933735404036943,0.7804956741208867,-2.709336235367011,24.76923076923077
,,0.01649592873251507,0.06658098615485908,0.0022291135282897093,0.08530602841566386,0.22025305037153348,0.1933735404036943,0.7804956741208867,-2.709336235367011,24.807692307692307
,,0.01649592873251507,0.06658098615485908,0.0022291135282897093,0.08530602841566386,0.22023015583964378,0.1933735404036943,0.7804956741208867,-2.709336235367011,24.846153846153847
,,0.01649592873251507,0.06658098615485908,0.0022291135282897093,0.08530602841566386,0.2202072613077541,0.1933735404036943,0.7804956741208867,-2.709336235367011,24.884615384615383
,,0.01649592873251507,0.06658098615485908,0.0022291135282897093,0.08530602841566386,0.2201843667758644,0.1933735404036943,0.7804956741208867,-2.709336235367011,24.923076923076923
,,,0.06699857148308486,0.002141220342220272,0.06913979182530514,0.21977279790041343,,0.9690305642280428,-2.7030839809664573,24.96153846153846
,,,0.06699857148308486,0.002141220342220272,0.06913979182530514,0.2193494699142353,,0.9690305642280428,-2.7030839809664573,25.0
,,,0.06699857148308486,0.002141220342220272,0.06913979182530514,0.21891387155164618,,0.9690305642280428,-2.7030839809664573,25.03846153846154
,,,0.06699857148308486,0.002141220342220272,0.06913979182530514,0.21846546147251034,,0.9690305642280428,-2.7030839809664573,25.076923076923077
,,,0.06699857148308486,0.002141220342220272,0.06913979182530514,0.2180036660178779,,0.9690305642280428,-2.7030839809664573,25.115384615384617
,,,0.06699857148308486,0.002141220342220272,0.06913979182530514,0.21752787676158994,,0.9690305642280428,-2.7030839809664573,25.153846153846153
,,,0.06699857148308486,0.002141220342220272,0.06913979182530514,0.21727463080083614,,0.9690305642280428,-2.7030839809664573,25.192307692307693
,,,0.06699857148308486,0.002141220342220272,0.06913979182530514,0.21701347090380876,,0.9690305642280428,-2.7030839809664573,25.23076923076923
,,0.014476401198830232,0.06564502468069047,0.0018542389641507668,0.08197566484367147,0.21680310567345154,0.17659388583717978,0.8007867311094858,-2.7234934666240043,25.26923076923077
,,0.014476401198830232,0.06564502468069047,0.0018542389641507668,0.08197566484367147,0.21673495621401828,0.17659388583717978,0.8007867311094858,-2.7234934666240043,25.307692307692307
,,0.014476401198830232,0.06564502468069047,0.0018542389641507668,0.08197566484367147,0.216666806754585,0.17659388583717978,0.8007867311094858,-2.7234934666240043,25.346153846153847
,,0.014476401198830232,0.06564502468069047,0.0018542389641507668,0.08197566484367147,0.21659865729515174,0.17659388583717978,0.8007867311094858,-2.7234934666240043,25.384615384615383
,,0.014476401198830232,0.06564502468069047,0.0018542389641507668,0.08197566484367147,0.21653050783571845,0.17659388583717978,0.8007867311094858,-2.7234934666240043,25.423076923076923
,,0.014476401198830232,0.06564502468069047,0.0018542389641507668,0.08197566484367147,0.2164623583762852,0.17659388583717978,0.8007867311094858,-2.7234934666240043,25.46153846153846
,,0.014476401198830232,0.06564502468069047,0.0018542389641507668,0.08197566484367147,0.21639420891685188,0.17659388583717978,0.8007867311094858,-2.7234934666240043,25.5
,,0.014476401198830232,0.06564502468069047,0.0018542389641507668,0.08197566484367147,0.21632605945741862,0.17659388583717978,0.8007867311094858,-2.7234934666240043,25.53846153846154
,,0.014476401198830232,0.06564502468069047,0.0018542389641507668,0.08197566484367147,0.21625790999798533,0.17659388583717978,0.8007867311094858,-2.7234934666240043,25.576923076923077
,,0.014637448444753978,0.06510537477949487,0.0017490050022934004,0.08149182822654225,0.21625697220441745,0.1796186042613104,0.7989190596940094,-2.7317481712786567,25.615384615384617
,,0.014637448444753978,0.06510537477949487,0.0017490050022934004,0.08149182822654225,0.2162560344108496,0.1796186042613104,0.7989190596940094,-2.7317481712786567,25.653846153846153
,,0.014637448444753978,0.06510537477949487,0.0017490050022934004,0.08149182822654225,0.2162550966172817,0.1796186042613104,0.7989190596940094,-2.7317481712786567,25.692307692307693
,,0.014637448444753978,0.06510537477949487,0.0017490050022934004,0.08149182822654225,0.21625415882371382,0.1796186042613104,0.7989190596940094,-2.7317481712786567,25.73076923076923
,,0.014637448444753978,0.06510537477949487,0.0017490050022934004,0.08149182822654225,0.21625322103014594,0.1796186042613104,0.7989190596940094,-2.7317481712786567,25.76923076923077
,,0.014637448444753978,0.06510537477949487,0.0017490050022934004,0.08149182822654225,0.21625228323657805,0.1796186042613104,0.7989190596940094,-2.7317481712786567,25.807692307692307
,,0.014637448444753978,0.06510537477949487,0.0017490050022934004,0.08149182822654225,0.21625134544301014,0.1796186042613104,0.7989190596940094,-2.7317481712786567,25.846153846153847
,,0.014637448444753978,0.06510537477949487,0.0017490050022934004,0.08149182822654225,0.21638327914516553,0.1796186042613104,0.7989190596940094,-2.7317481712786567,25.884615384615383
,,0.014637448444753978,0.06510537477949487,0.0017490050022934004,0.08149182822654225,0.21651121485634656,0.1796186042613104,0.7989190596940094,-2.7317481712786567,25.923076923076923
,,0.02153422115292931,0.07336547330967585,0.002297481349271916,0.09719717581187709,0.2176605971514176,0.22155192239955926,0.7548107514118831,-2.6123018449065123,25.96153846153846
,,0.02153422115292931,0.07336547330967585,0.002297481349271916,0.09719717581187709,0.21877617408486894,0.22155192239955926,0.7548107514118831,-2.6123018449065123,26.0
,,0.02153422115292931,0.07336547330967585,0.002297481349271916,0.09719717581187709,0.2198594154550318,0.22155192239955926,0.7548107514118831,-2.6123018449065123,26.03846153846154
,,0.02153422115292931,0.07336547330967585,0.002297481349271916,0.09719717581187709,0.22091170707176144,0.22155192239955926,0.7548107514118831,-2.6123018449065123,26.076923076923077
,,0.02153422115292931,0.07336547330967585,0.002297481349271916,0.09719717581187709,0.22193435667111844,0.22155192239955926,0.7548107514118831,-2.6123018449065123,26.115384615384617
,,0.02153422115292931,0.07336547330967585,0.002297481349271916,0.09719717581187709,0.22292859933715997,0.22155192239955926,0.7548107514118831,-2.6123018449065123,26.153846153846153
,,0.02153422115292931,0.07336547330967585,0.002297481349271916,0.09719717581187709,0.22389560247810444,0.22155192239955926,0.7548107514118831,-2.6123018449065123,26.192307692307693
,,0.01696036475694272,0.06879320747649764,0.001736645663240316,0.08749021789668068,0.22420162501578153,0.19385441212378307,0.7862959897726761,-2.6766502674561004,26.23076923076923
,,0.01696036475694272,0.06879320747649764,0.001736645663240316,0.08749021789668068,0.22449948695245392,0.19385441212378307,0.7862959897726761,-2.6766502674561004,26.26923076923077
,,0.01696036475694272,0.06879320747649764,0.001736645663240316,0.08749021789668068,0.22478951041710865,0.19385441212378307,0.7862959897726761,-2.6766502674561004,26.307692307692307
,,0.01696036475694272,0.06879320747649764,0.001736645663240316,0.08749021789668068,0.2250720008047593,0.19385441212378307,0.7862959897726761,-2.6766502674561004,26.346153846153847
,,0.01696036475694272,0.06879320747649764,0.001736645663240316,0.08749021789668068,0.2253472478491369,0.19385441212378307,0.7862959897726761,-2.6766502674561004,26.384615384615383
