HRV_ULF,HRV_VLF,HRV_LF,HRV_HF,HRV_VHF,HRV_TP,HRV_LFHF,HRV_LFn,HRV_HFn,HRV_LnHF,time
,,0.048169508317949486,0.010687008536993822,0.00028993012085043376,0.05914644697579374,4.507295764872592,0.8144108527374996,0.1806872446855106,-4.538726430619277,0.0
,,0.05162537340425387,0.01118329852351479,0.00029183764836633586,0.063100509576135,4.561793967229738,0.8181451108879618,0.1772299241105397,-4.493333816888835,0.1
,,0.05162537340425387,0.01118329852351479,0.00029183764836633586,0.063100509576135,4.579960034682119,0.8181451108879618,0.1772299241105397,-4.493333816888835,0.2
,,0.05414023519457288,0.010568334746417609,0.00025447965992244774,0.06496304960091294,4.715688239752051,0.8334004565237042,0.16268224492757016,-4.549893036788977,0.3
,,0.05414023519457288,0.010568334746417609,0.00025447965992244774,0.06496304960091294,4.7971251627940115,0.8334004565237042,0.16268224492757016,-4.549893036788977,0.4
,,0.05414023519457288,0.010568334746417609,0.00025447965992244774,0.06496304960091294,4.851416444821984,0.8334004565237042,0.16268224492757016,-4.549893036788977,0.5
,,0.05414023519457288,0.010568334746417609,0.00025447965992244774,0.06496304960091294,4.890195931984822,0.8334004565237042,0.16268224492757016,-4.549893036788977,0.6
,,0.05414023519457288,0.010568334746417609,0.00025447965992244774,0.06496304960091294,4.9192805473569505,0.8334004565237042,0.16268224492757016,-4.549893036788977,0.7
,,0.05414023519457288,0.010568334746417609,0.00025447965992244774,0.06496304960091294,4.941901914868605,0.8334004565237042,0.16268224492757016,-4.549893036788977,0.8
,,0.05401844409454211,0.010316340726900563,0.0002966244033956893,0.06463140922483836,4.9713319248131045,0.8357924535828068,0.1596180688403729,-4.57402616253402,0.9
,,0.048606694871855566,0.008672359904177912,0.000472432962396954,0.05775148773843043,5.028918381068123,0.8416526876676544,0.15016686571707025,-4.747614333280491,1.0
,,0.048606694871855566,0.008672359904177912,0.000472432962396954,0.05775148773843043,5.076907094613969,0.8416526876676544,0.15016686571707025,-4.747614333280491,1.1
,,0.048606694871855566,0.008672359904177912,0.000472432962396954,0.05775148773843043,5.117512929152765,0.8416526876676544,0.15016686571707025,-4.747614333280491,1.2
,,0.048606694871855566,0.008672359904177912,0.000472432962396954,0.05775148773843043,5.152317930186016,0.8416526876676544,0.15016686571707025,-4.747614333280491,1.3
,,0.048606694871855566,0.008672359904177912,0.000472432962396954,0.05775148773843043,5.182482264414835,0.8416526876676544,0.15016686571707025,-4.747614333280491,1.4
,,0.048606694871855566,0.008672359904177912,0.000472432962396954,0.05775148773843043,5.208876056865051,0.8416526876676544,0.15016686571707025,-4.747614333280491,1.5
,,0.05385817756378558,0.009344957329133454,0.0003024165122363012,0.06350555140515533,5.241491653372431,0.8480861337645738,0.14715181779170944,-4.6729184042558805,1.6
,,0.05385817756378558,0.009344957329133454,0.0003024165122363012,0.06350555140515533,5.2704832947123235,0.8480861337645738,0.14715181779170944,-4.6729184042558805,1.7
,,0.048842455476103885,0.008185282929413114,0.0005359583589355536,0.057563696764452554,5.3071476771765616,0.8484940721573963,0.1421952270179387,-4.805417501937506,1.8
,,0.048842455476103885,0.008185282929413114,0.0005359583589355536,0.057563696764452554,5.3401456213943765,0.8484940721573963,0.1421952270179387,-4.805417501937506,1.9
,,0.048842455476103885,0.008185282929413114,0.0005359583589355536,0.057563696764452554,5.370000904258114,0.8484940721573963,0.1421952270179387,-4.805417501937506,2.0
,,0.048842455476103885,0.008185282929413114,0.0005359583589355536,0.057563696764452554,5.397142070497875,0.8484940721573963,0.1421952270179387,-4.805417501937506,2.1
,,0.048842455476103885,0.008185282929413114,0.0005359583589355536,0.057563696764452554,5.421923135325483,0.8484940721573963,0.1421952270179387,-4.805417501937506,2.2
,,0.05186189666207608,0.008357543308395634,0.0003040152305231041,0.06052345520099482,5.454567991805135,0.856889225670375,0.13808767659811763,-4.784590757703712,2.3
,,0.05186189666207608,0.008357543308395634,0.0003040152305231041,0.06052345520099482,5.484601259766414,0.856889225670375,0.13808767659811763,-4.784590757703712,2.4
,,0.05186189666207608,0.008357543308395634,0.0003040152305231041,0.06052345520099482,5.512324276346056,0.856889225670375,0.13808767659811763,-4.784590757703712,2.5
,,0.04664283763518258,0.0076168561425097175,0.0005773860306974355,0.054837079808389734,5.534965369382796,0.8505711427041838,0.13889974026925456,-4.877391574141147,2.6
,,0.04664283763518258,0.0076168561425097175,0.0005773860306974355,0.054837079808389734,5.55598924148834,0.8505711427041838,0.13889974026925456,-4.877391574141147,2.7
,,0.04664283763518258,0.0076168561425097175,0.0005773860306974355,0.054837079808389734,5.575563191379708,0.8505711427041838,0.13889974026925456,-4.877391574141147,2.8
,,0.0502595422427294,0.007636879210992548,0.00030961597920329875,0.05820603743292525,5.609083164677406,0.8634764443576298,0.13120424526052027,-4.874766239491064,2.9
,,0.0502595422427294,0.007636879210992548,0.00030961597920329875,0.05820603743292525,5.6404405590526725,0.8634764443576298,0.13120424526052027,-4.874766239491064,3.0
,,0.05025575403124765,0.007636793491863322,0.00030961062572558136,0.05820215814883656,5.669824923242479,0.8634689095674409,0.13121151748933865,-4.874777463920301,3.1
,,0.05025575403124765,0.007636793491863322,0.00030961062572558136,0.05820215814883656,5.6974284168753275,0.8634689095674409,0.13121151748933865,-4.874777463920301,3.2
,,0.04982242288811135,0.007319094817519466,0.000263084327506327,0.057404602033137145,5.730068277932884,0.8679168764091608,0.12750014037715088,-4.917268617464114,3.3
,,0.04982242288811135,0.007319094817519466,0.000263084327506327,0.057404602033137145,5.760843004072865,0.8679168764091608,0.12750014037715088,-4.917268617464114,3.4
,,0.04982242288811135,0.007319094817519466,0.000263084327506327,0.057404602033137145,5.789908023205069,0.8679168764091608,0.12750014037715088,-4.917268617464114,3.5
,,0.0461153221986237,0.008135630519859325,0.0008065857669892307,0.055057538485472256,5.786621744177953,0.8375841613549779,0.1477659689055302,-4.811502034263721,3.6
,,0.0461153221986237,0.008135630519859325,0.0008065857669892307,0.055057538485472256,5.783508427204896,0.8375841613549779,0.1477659689055302,-4.811502034263721,3.7
,,0.0461153221986237,0.008135630519859325,0.0008065857669892307,0.055057538485472256,5.780554767512508,0.8375841613549779,0.1477659689055302,-4.811502034263721,3.8
,,0.0461153221986237,0.008135630519859325,0.0008065857669892307,0.055057538485472256,5.77774879080474,0.8375841613549779,0.1477659689055302,-4.811502034263721,3.9
,,0.04913744386895329,0.006962069171177226,0.0002714572632115936,0.05637097030334211,5.808971486082768,0.8716799374666794,0.12350451187398596,-4.967278554109753,4.0
,,0.04913744386895329,0.006962069171177226,0.0002714572632115936,0.05637097030334211,5.838707386347558,0.8716799374666794,0.12350451187398596,-4.967278554109753,4.1
,,0.04875729601963106,0.0068075836872728375,0.0003332706067451273,0.055898150313649024,5.869486353122701,0.872252404525909,0.1217854910954108,-4.989718040098924,4.2
,,0.04875729601963106,0.0068075836872728375,0.0003332706067451273,0.055898150313649024,5.89886627595352,0.872252404525909,0.1217854910954108,-4.989718040098924,4.3
,,0.04875729601963106,0.0068075836872728375,0.0003332706067451273,0.055898150313649024,5.926940424436303,0.872252404525909,0.1217854910954108,-4.989718040098924,4.4
,,0.04875729601963106,0.0068075836872728375,0.0003332706067451273,0.055898150313649024,5.953793957767659,0.872252404525909,0.1217854910954108,-4.989718040098924,4.5
,,0.04875729601963106,0.0068075836872728375,0.0003332706067451273,0.055898150313649024,5.979504787553002,0.872252404525909,0.1217854910954108,-4.989718040098924,4.6
,,0.04875729601963106,0.0068075836872728375,0.0003332706067451273,0.055898150313649024,6.004144332763954,0.872252404525909,0.1217854910954108,-4.989718040098924,4.7
,,0.0557708554088519,0.010702692540702968,0.000999352432733186,0.06747290038228806,5.987956044453654,0.8265667415045936,0.1586220909441218,-4.537259929852105,4.8
,,0.0557708554088519,0.010702692540702968,0.000999352432733186,0.06747290038228806,5.972415287675765,0.8265667415045936,0.1586220909441218,-4.537259929852105,4.9
,,0.0557708554088519,0.010702692540702968,0.000999352432733186,0.06747290038228806,5.957483972340147,0.8265667415045936,0.1586220909441218,-4.537259929852105,5.0
,,0.0557708554088519,0.010702692540702968,0.000999352432733186,0.06747290038228806,5.943126938363591,0.8265667415045936,0.1586220909441218,-4.537259929852105,5.1
,,0.0557708554088519,0.010702692540702968,0.000999352432733186,0.06747290038228806,5.9293116792540745,0.8265667415045936,0.1586220909441218,-4.537259929852105,5.2
,,0.0557708554088519,0.010702692540702968,0.000999352432733186,0.06747290038228806,5.9160080964078725,0.8265667415045936,0.1586220909441218,-4.537259929852105,5.3
,,0.05570087480046246,0.011704047710717968,0.0012299035216860707,0.0686348260328665,5.894973623313128,0.8115541048182962,0.17052636958842676,-4.447820538827137,5.4
,,0.04862216439649389,0.006511475840869186,0.00035018297477301403,0.05548382321213609,5.923048194807888,0.8763304614138173,0.11735809581782601,-5.0341891447885105,5.5
,,0.04862216439649389,0.006511475840869186,0.00035018297477301403,0.05548382321213609,5.95013769361862,0.8763304614138173,0.11735809581782601,-5.0341891447885105,5.6
,,0.05459353609257632,0.011081784338814522,0.0010359572540381088,0.06671127768542896,5.932487407366461,0.8183554263494582,0.16611560628578695,-4.502452569219522,5.7
,,0.05459353609257632,0.011081784338814522,0.0010359572540381088,0.06671127768542896,5.915435435902511,0.8183554263494582,0.16611560628578695,-4.502452569219522,5.8
,,0.05459353609257632,0.011081784338814522,0.0010359572540381088,0.06671127768542896,5.898951863487359,0.8183554263494582,0.16611560628578695,-4.502452569219522,5.9
,,0.04906797256096643,0.006414596966802645,0.0003605213693078516,0.055843090897076925,5.927648129484174,0.8786757998657783,0.11486822924299152,-5.049179109575255,6.0
,,0.04906797256096643,0.006414596966802645,0.0003605213693078516,0.055843090897076925,5.9554187094810915,0.8786757998657783,0.11486822924299152,-5.049179109575255,6.1
,,0.04906797256096643,0.006414596966802645,0.0003605213693078516,0.055843090897076925,5.982307683763823,0.8786757998657783,0.11486822924299152,-5.049179109575255,6.2
,,0.04906797256096643,0.006414596966802645,0.0003605213693078516,0.055843090897076925,6.008356377600217,0.8786757998657783,0.11486822924299152,-5.049179109575255,6.3
,,0.04947394090682681,0.006378650045823494,0.00029705858257700053,0.0561496495352273,6.035245930775339,0.8811086323127935,0.1136008879596237,-5.054798795577807,6.4
,,0.04947394090682681,0.006378650045823494,0.00029705858257700053,0.0561496495352273,6.0613206490057605,0.8811086323127935,0.1136008879596237,-5.054798795577807,6.5
,,0.049783879763494764,0.006367481164993563,0.0003695525932653033,0.056520913521753625,6.087546569559985,0.8808045847371888,0.11265708156933561,-5.056551309105839,6.6
,,0.049783879763494764,0.006367481164993563,0.0003695525932653033,0.056520913521753625,6.113001139509673,0.8808045847371888,0.11265708156933561,-5.056551309105839,6.7
,,0.049783879763494764,0.006367481164993563,0.0003695525932653033,0.056520913521753625,6.137717895837631,0.8808045847371888,0.11265708156933561,-5.056551309105839,6.8
,,0.049783879763494764,0.006367481164993563,0.0003695525932653033,0.056520913521753625,6.161728459127648,0.8808045847371888,0.11265708156933561,-5.056551309105839,6.9
,,0.049783879763494764,0.006367481164993563,0.0003695525932653033,0.056520913521753625,6.185062668522172,0.8808045847371888,0.11265708156933561,-5.056551309105839,7.0
,,0.049783879763494764,0.006367481164993563,0.0003695525932653033,0.056520913521753625,6.207748705433514,0.8808045847371888,0.11265708156933561,-5.056551309105839,7.1
,,0.05070391922148095,0.0063490668038247485,0.00037627167102322057,0.05742925769632892,6.232108898479727,0.882893515524616,0.11055456849881246,-5.059447436904819,7.2
,,0.05070391922148095,0.0063490668038247485,0.00037627167102322057,0.05742925769632892,6.255810707930098,0.882893515524616,0.11055456849881246,-5.059447436904819,7.3
,,0.05070391922148095,0.0063490668038247485,0.00037627167102322057,0.05742925769632892,6.278880469128459,0.882893515524616,0.11055456849881246,-5.059447436904819,7.4
,,0.05070391922148095,0.0063490668038247485,0.00037627167102322057,0.05742925769632892,6.301343131347914,0.882893515524616,0.11055456849881246,-5.059447436904819,7.5
,,0.05070391922148095,0.0063490668038247485,0.00037627167102322057,0.05742925769632892,6.323222347795437,0.882893515524616,0.11055456849881246,-5.059447436904819,7.6
,,0.05070391922148095,0.0063490668038247485,0.00037627167102322057,0.05742925769632892,6.344540558693022,0.882893515524616,0.11055456849881246,-5.059447436904819,7.7
,,0.05124345072197476,0.006420650751617265,0.0004027469635495895,0.05806684843714161,6.365255702552165,0.8824906482990325,0.11057343259412009,-5.048235803236908,7.8
,,0.05173106849205157,0.006345270789041099,0.0003790702957960913,0.05845540957688876,6.387598715551427,0.8849663164879139,0.1085489065078726,-5.060045501178598,7.9
,,0.05173106849205157,0.006345270789041099,0.0003790702957960913,0.05845540957688876,6.4093900492173725,0.8849663164879139,0.1085489065078726,-5.060045501178598,8.0
,,0.05173106849205157,0.006345270789041099,0.0003790702957960913,0.05845540957688876,6.430649886940246,0.8849663164879139,0.1085489065078726,-5.060045501178598,8.1
,,0.05173106849205157,0.006345270789041099,0.0003790702957960913,0.05845540957688876,6.451397439416785,0.8849663164879139,0.1085489065078726,-5.060045501178598,8.2
,,0.05173106849205157,0.006345270789041099,0.0003790702957960913,0.05845540957688876,6.471651002548645,0.8849663164879139,0.1085489065078726,-5.060045501178598,8.3
,,0.042299207835551716,0.01100081538771895,0.0008841803727318255,0.05418420359600249,6.4407503732034375,0.7806557082749556,0.20302624487647816,-4.509785882774706,8.4
,,0.052766057168610006,0.006333584751619063,0.0003751085897521659,0.05947475050998123,6.462731787281232,0.8872009838823056,0.1064919936159487,-5.061888891647674,8.5
,,0.052766057168610006,0.006333584751619063,0.0003751085897521659,0.05947475050998123,6.484207881495167,0.8872009838823056,0.1064919936159487,-5.061888891647674,8.6
,,0.052766057168610006,0.006333584751619063,0.0003751085897521659,0.05947475050998123,6.5051958826587875,0.8872009838823056,0.1064919936159487,-5.061888891647674,8.7
,,0.052766057168610006,0.006333584751619063,0.0003751085897521659,0.05947475050998123,6.52571224334682,0.8872009838823056,0.1064919936159487,-5.061888891647674,8.8
,,0.052766057168610006,0.006333584751619063,0.0003751085897521659,0.05947475050998123,6.545772684908451,0.8872009838823056,0.1064919936159487,-5.061888891647674,8.9
,,0.052766057168610006,0.006333584751619063,0.0003751085897521659,0.05947475050998123,6.588259976230909,0.8872009838823056,0.1064919936159487,-5.061888891647674,9.0
,,0.05340893786973682,0.006461770181856127,0.0004066253878872052,0.06027733343948015,6.628805313763912,0.8860534270873254,0.10720066421557774,-5.041851976765634,9.1
,,0.053676341697810555,0.006305628468254701,0.00032074980002359663,0.06030271996608885,6.672095946884898,0.8901147697482861,0.10456623634556886,-5.0663126367762565,9.2
,,0.053676341697810555,0.006305628468254701,0.00032074980002359663,0.06030271996608885,6.709757905723943,0.8901147697482861,0.10456623634556886,-5.0663126367762565,9.3
,,0.053676341697810555,0.006305628468254701,0.00032074980002359663,0.06030271996608885,6.747419864562986,0.8901147697482861,0.10456623634556886,-5.0663126367762565,9.4
,,0.053676341697810555,0.006305628468254701,0.00032074980002359663,0.06030271996608885,6.785081823402029,0.8901147697482861,0.10456623634556886,-5.0663126367762565,9.5
,,0.053676341697810555,0.006305628468254701,0.00032074980002359663,0.06030271996608885,6.822743782241073,0.8901147697482861,0.10456623634556886,-5.0663126367762565,9.6
,,0.05426864048263175,0.006447480461137695,0.00039538998484360554,0.06111151092861305,6.859345535219346,0.8880264889216248,0.10550353547418048,-5.044065850668939,9.7
,,0.05426864048263175,0.006447480461137695,0.00039538998484360554,0.06111151092861305,6.89594728819762,0.8880264889216248,0.10550353547418048,-5.044065850668939,9.8
,,0.05426864048263175,0.006447480461137695,0.00039538998484360554,0.06111151092861305,6.931289828294208,0.8880264889216248,0.10550353547418048,-5.044065850668939,9.9
,,0.04502970907014559,0.00944132573813302,0.0004993130002749435,0.05497034780855355,6.922008089913581,0.8191636193929781,0.17175306532559217,-4.662658870323723,10.0
,,0.04502970907014559,0.00944132573813302,0.0004993130002749435,0.05497034780855355,6.912726351532952,0.8191636193929781,0.17175306532559217,-4.662658870323723,10.1
,,0.04502970907014559,0.00944132573813302,0.0004993130002749435,0.05497034780855355,6.903444613152326,0.8191636193929781,0.17175306532559217,-4.662658870323723,10.2
,,0.05489269864401499,0.006417289251490866,0.0003782037213825847,0.061688191616888446,6.936212317467834,0.8898412679192067,0.10402783876929207,-5.048759485416823,10.3
,,0.05489269864401499,0.006417289251490866,0.0003782037213825847,0.061688191616888446,6.96898002178334,0.8898412679192067,0.10402783876929207,-5.048759485416823,10.4
,,0.05489269864401499,0.006417289251490866,0.0003782037213825847,0.061688191616888446,7.001747726098847,0.8898412679192067,0.10402783876929207,-5.048759485416823,10.5
,,0.05489269864401499,0.006417289251490866,0.0003782037213825847,0.061688191616888446,7.0327536720379955,0.8898412679192067,0.10402783876929207,-5.048759485416823,10.6
,,0.05477375628006391,0.006215934862146114,0.000294936614435895,0.061284627756645914,7.066625760877023,0.8937601203610812,0.10142730876703476,-5.08063914503442,10.7
,,0.05477375628006391,0.006215934862146114,0.000294936614435895,0.061284627756645914,7.098233790115579,0.8937601203610812,0.10142730876703476,-5.08063914503442,10.8
,,0.03902756551470576,0.009741303587304575,0.0004786998638192489,0.04924756896582958,7.076448169436006,0.7924769960073568,0.1978027300000042,-4.631380331750973,10.9
,,0.03902756551470576,0.009741303587304575,0.0004786998638192489,0.04924756896582958,7.054662548756432,0.7924769960073568,0.1978027300000042,-4.631380331750973,11.0
,,0.03902756551470576,0.009741303587304575,0.0004786998638192489,0.04924756896582958,7.032876928076859,0.7924769960073568,0.1978027300000042,-4.631380331750973,11.1
,,0.03902756551470576,0.009741303587304575,0.0004786998638192489,0.04924756896582958,7.011091307397285,0.7924769960073568,0.1978027300000042,-4.631380331750973,11.2
,,0.03902756551470576,0.009741303587304575,0.0004786998638192489,0.04924756896582958,6.9866579852809965,0.7924769960073568,0.1978027300000042,-4.631380331750973,11.3
,,0.03902756551470576,0.009741303587304575,0.0004786998638192489,0.04924756896582958,6.96222466316471,0.7924769960073568,0.1978027300000042,-4.631380331750973,11.4
,,0.05550801655969526,0.006388035218806223,0.0003443201499705529,0.06224037192847204,6.989824359305576,0.891832982995125,0.10263491397749823,-5.0533285353687045,11.5
,,0.05550801655969526,0.006388035218806223,0.0003443201499705529,0.06224037192847204,7.01833256547421,0.891832982995125,0.10263491397749823,-5.0533285353687045,11.6
,,0.05550801655969526,0.006388035218806223,0.0003443201499705529,0.06224037192847204,7.046840771642843,0.891832982995125,0.10263491397749823,-5.0533285353687045,11.7
,,0.05550801655969526,0.006388035218806223,0.0003443201499705529,0.06224037192847204,7.075348977811478,0.891832982995125,0.10263491397749823,-5.0533285353687045,11.8
,,0.05550801655969526,0.006388035218806223,0.0003443201499705529,0.06224037192847204,7.098773532847084,0.891832982995125,0.10263491397749823,-5.0533285353687045,11.9
,,0.05550801655969526,0.006388035218806223,0.0003443201499705529,0.06224037192847204,7.122198087882689,0.891832982995125,0.10263491397749823,-5.0533285353687045,12.0
,,0.053019880701677735,0.010039834171242719,0.0003896675984370152,0.06344938247135747,7.107755994805627,0.8356248498653576,0.1582337570546874,-4.601194681663452,12.1
,,0.05551865116588174,0.0063857135198363705,0.0003302997636234813,0.062234664449341594,7.131238847712731,0.8920856512542681,0.10260702096392403,-5.053692046354073,12.2
,,0.05551865116588174,0.0063857135198363705,0.0003302997636234813,0.062234664449341594,7.152205661956435,0.8920856512542681,0.10260702096392403,-5.053692046354073,12.3
,,0.05551865116588174,0.0063857135198363705,0.0003302997636234813,0.062234664449341594,7.17317247620014,0.8920856512542681,0.10260702096392403,-5.053692046354073,12.4
,,0.05551865116588174,0.0063857135198363705,0.0003302997636234813,0.062234664449341594,7.194139290443846,0.8920856512542681,0.10260702096392403,-5.053692046354073,12.5
,,0.05551865116588174,0.0063857135198363705,0.0003302997636234813,0.062234664449341594,7.227760193505666,0.8920856512542681,0.10260702096392403,-5.053692046354073,12.6
,,0.0558504975706998,0.006592811184702649,0.0003590873405387662,0.06280239609594121,7.2589058390561085,0.889305202390348,0.10497706448382992,-5.021775438013893,12.7
,,0.0558504975706998,0.006592811184702649,0.0003590873405387662,0.06280239609594121,7.290051484606552,0.889305202390348,0.10497706448382992,-5.021775438013893,12.8
,,0.05535602928774728,0.006384698756587763,0.00028666716049483915,0.06202739520482988,7.32340473503957,0.892444848037676,0.1029335301845886,-5.053850970471601,12.9
,,0.05535602928774728,0.006384698756587763,0.00028666716049483915,0.06202739520482988,7.341318389939231,0.892444848037676,0.1029335301845886,-5.053850970471601,13.0
,,0.05535602928774728,0.006384698756587763,0.00028666716049483915,0.06202739520482988,7.359232044838893,0.892444848037676,0.1029335301845886,-5.053850970471601,13.1
,,0.055658300653198337,0.006587545525398527,0.0003449208501318395,0.0625907670287287,7.373530006507894,0.8892413896709651,0.10524787980909216,-5.0225744542621,13.2
,,0.055658300653198337,0.006587545525398527,0.0003449208501318395,0.0625907670287287,7.3878279681768975,0.8892413896709651,0.10524787980909216,-5.0225744542621,13.3
,,0.055658300653198337,0.006587545525398527,0.0003449208501318395,0.0625907670287287,7.402125929845899,0.8892413896709651,0.10524787980909216,-5.0225744542621,13.4
,,0.055658300653198337,0.006587545525398527,0.0003449208501318395,0.0625907670287287,7.4164238915149,0.8892413896709651,0.10524787980909216,-5.0225744542621,13.5
,,0.0551287323952937,0.006404853452140526,0.0002782019136383653,0.061811787761072594,7.432480936945,0.8918805682888256,0.10361864110609224,-5.05069922412306,13.6
,,0.0551287323952937,0.006404853452140526,0.0002782019136383653,0.061811787761072594,7.4485379823751,0.8918805682888256,0.10361864110609224,-5.05069922412306,13.7
,,0.05543065636198645,0.00660561290666981,0.0003373156263607662,0.06237358489501703,7.483877200879429,0.8886879991791967,0.10590401237619944,-5.019835550964785,13.8
,,0.05543065636198645,0.00660561290666981,0.0003373156263607662,0.06237358489501703,7.519216419383758,0.8886879991791967,0.10590401237619944,-5.019835550964785,13.9
,,0.05543065636198645,0.00660561290666981,0.0003373156263607662,0.06237358489501703,7.554555637888087,0.8886879991791967,0.10590401237619944,-5.019835550964785,14.0
,,0.05543065636198645,0.00660561290666981,0.0003373156263607662,0.06237358489501703,7.589894856392418,0.8886879991791967,0.10590401237619944,-5.019835550964785,14.1
,,0.05543065636198645,0.00660561290666981,0.0003373156263607662,0.06237358489501703,7.625234074896746,0.8886879991791967,0.10590401237619944,-5.019835550964785,14.2
,,0.06200706626202327,0.009156170750664805,0.000236468636642526,0.0713997056493306,7.6425812216625095,0.868449886426172,0.12823821425306742,-4.693327228019749,14.3
,,0.06200706626202327,0.009156170750664805,0.000236468636642526,0.0713997056493306,7.664948436532297,0.868449886426172,0.12823821425306742,-4.693327228019749,14.4
,,0.0608267528140009,0.009015747814106948,0.00027699860901280224,0.07011949923712064,7.656943695830765,0.8674727212227402,0.12857689960988897,-4.708782473564543,14.5
,,0.0608267528140009,0.009015747814106948,0.00027699860901280224,0.07011949923712064,7.648938955129229,0.8674727212227402,0.12857689960988897,-4.708782473564543,14.6
,,0.0608267528140009,0.009015747814106948,0.00027699860901280224,0.07011949923712064,7.669164531494654,0.8674727212227402,0.12857689960988897,-4.708782473564543,14.7
,,0.0608267528140009,0.009015747814106948,0.00027699860901280224,0.07011949923712064,7.6893901078600795,0.8674727212227402,0.12857689960988897,-4.708782473564543,14.8
,,0.0608267528140009,0.009015747814106948,0.00027699860901280224,0.07011949923712064,7.709615684225502,0.8674727212227402,0.12857689960988897,-4.708782473564543,14.9
,,0.054635215180884836,0.006481572702134791,0.00027133831094718617,0.061388126193966816,7.718281133953307,0.8899964629683443,0.10558349153149092,-5.038792097118337,15.0
,,0.054948297635348003,0.0066663648620482446,0.00033419399051471283,0.061948856487910965,7.724872175120272,0.8869945427656265,0.10761078153797972,-5.010680565813768,15.1
,,0.054948297635348003,0.0066663648620482446,0.00033419399051471283,0.061948856487910965,7.731463216287238,0.8869945427656265,0.10761078153797972,-5.010680565813768,15.2
,,0.054948297635348003,0.0066663648620482446,0.00033419399051471283,0.061948856487910965,7.738054257454202,0.8869945427656265,0.10761078153797972,-5.010680565813768,15.3
,,0.05495267462154162,0.006668713300821442,0.00033467826179236874,0.06195606618415543,7.743434191958676,0.8869619717010881,0.10763616400369348,-5.0103283460864,15.4
,,0.054948297635348003,0.0066663648620482446,0.00033419399051471283,0.061948856487910965,7.748839085962418,0.8869945427656265,0.10761078153797972,-5.010680565813768,15.5
,,0.054948297635348003,0.0066663648620482446,0.00033419399051471283,0.061948856487910965,7.753551980053319,0.8869945427656265,0.10761078153797972,-5.010680565813768,15.6
,,0.05466888482970205,0.006692465083065596,0.00033850610819093204,0.06169985602095858,7.757443806561,0.886045581875131,0.10846808266120198,-5.006772999906411,15.7
,,0.05466888482970205,0.006692465083065596,0.00033850610819093204,0.06169985602095858,7.761335633068679,0.886045581875131,0.10846808266120198,-5.006772999906411,15.8
,,0.05466888482970205,0.006692465083065596,0.00033850610819093204,0.06169985602095858,7.76522745957636,0.886045581875131,0.10846808266120198,-5.006772999906411,15.9
,,0.05466888482970205,0.006692465083065596,0.00033850610819093204,0.06169985602095858,7.76911928608404,0.886045581875131,0.10846808266120198,-5.006772999906411,16.0
,,0.05466888482970205,0.006692465083065596,0.00033850610819093204,0.06169985602095858,7.773011112591719,0.886045581875131,0.10846808266120198,-5.006772999906411,16.1
,,0.05466744546660022,0.006692231712719695,0.0003384919464016281,0.06169816912572154,7.775041653620447,0.886046478222151,0.1084672658451667,-5.006807871125309,16.2
,,0.05430584181945186,0.0066968314347900125,0.0003435586220333855,0.061346231876275255,7.776409895003702,0.8852351669940765,0.10916451149430602,-5.0061207846278295,16.3
,,0.05430584181945186,0.0066968314347900125,0.0003435586220333855,0.061346231876275255,7.777778136386958,0.8852351669940765,0.10916451149430602,-5.0061207846278295,16.4
,,0.05430584181945186,0.0066968314347900125,0.0003435586220333855,0.061346231876275255,7.779146377770213,0.8852351669940765,0.10916451149430602,-5.0061207846278295,16.5
,,0.05430584181945186,0.0066968314347900125,0.0003435586220333855,0.061346231876275255,7.780514619153468,0.8852351669940765,0.10916451149430602,-5.0061207846278295,16.6
,,0.05430584181945186,0.0066968314347900125,0.0003435586220333855,0.061346231876275255,7.781882860536723,0.8852351669940765,0.10916451149430602,-5.0061207846278295,16.7
,,0.05430584181945186,0.0066968314347900125,0.0003435586220333855,0.061346231876275255,7.783306722744887,0.8852351669940765,0.10916451149430602,-5.0061207846278295,16.8
,,0.0546051292990067,0.007195629629140728,0.0002596407000462036,0.06206039962819363,7.7770395591286725,0.8798707328046265,0.1159455896554008,-4.93428143320943,16.9
,,0.03665249065504195,0.006910693485035061,0.00027083182871748615,0.04383401596879449,7.745384434676489,0.8361654720647753,0.1576559512583742,-4.974685286609442,17.0
,,0.03665249065504195,0.006910693485035061,0.00027083182871748615,0.04383401596879449,7.713729310224305,0.8361654720647753,0.1576559512583742,-4.974685286609442,17.1
,,0.03665249065504195,0.006910693485035061,0.00027083182871748615,0.04383401596879449,7.682074185772122,0.8361654720647753,0.1576559512583742,-4.974685286609442,17.2
,,0.03665249065504195,0.006910693485035061,0.00027083182871748615,0.04383401596879449,7.650419061319939,0.8361654720647753,0.1576559512583742,-4.974685286609442,17.3
,,0.03665249065504195,0.006910693485035061,0.00027083182871748615,0.04383401596879449,7.666626150582054,0.8361654720647753,0.1576559512583742,-4.974685286609442,17.4
,,0.05373672326679162,0.006743299516727151,0.00035898737208940617,0.06083901015560817,7.662601200623426,0.8832609723489746,0.11083841600117733,-4.999205931303659,17.5
,,0.053168366328663653,0.006622507617859501,0.0003558727748808591,0.060146746721404014,7.659237669153847,0.8839774256608793,0.11010583246562851,-5.0172811865190505,17.6
,,0.053168366328663653,0.006622507617859501,0.0003558727748808591,0.060146746721404014,7.655874137684268,0.8839774256608793,0.11010583246562851,-5.0172811865190505,17.7
,,0.053168366328663653,0.006622507617859501,0.0003558727748808591,0.060146746721404014,7.652510606214689,0.8839774256608793,0.11010583246562851,-5.0172811865190505,17.8
,,0.053168366328663653,0.006622507617859501,0.0003558727748808591,0.060146746721404014,7.649147074745111,0.8839774256608793,0.11010583246562851,-5.0172811865190505,17.9
,,0.053168366328663653,0.006622507617859501,0.0003558727748808591,0.060146746721404014,7.645783543275531,0.8839774256608793,0.11010583246562851,-5.0172811865190505,18.0
,,0.053168366328663653,0.006622507617859501,0.0003558727748808591,0.060146746721404014,7.643150894431914,0.8839774256608793,0.11010583246562851,-5.0172811865190505,18.1
,,0.05133756063322914,0.006358906529962196,0.0002754330615517927,0.05797190022474313,7.638271809844816,0.8855593905703583,0.10968946171007407,-5.057898845662861,18.2
,,0.05238968706528868,0.006532395179724336,0.00036234258958235037,0.05928442483459537,7.632799944634891,0.8837006888648556,0.11018737548605453,-5.030981606664668,18.3
,,0.05238968706528868,0.006532395179724336,0.00036234258958235037,0.05928442483459537,7.627328079424965,0.8837006888648556,0.11018737548605453,-5.030981606664668,18.4
,,0.05238968706528868,0.006532395179724336,0.00036234258958235037,0.05928442483459537,7.621856214215039,0.8837006888648556,0.11018737548605453,-5.030981606664668,18.5
,,0.05238968706528868,0.006532395179724336,0.00036234258958235037,0.05928442483459537,7.616384349005114,0.8837006888648556,0.11018737548605453,-5.030981606664668,18.6
,,0.05238968706528868,0.006532395179724336,0.00036234258958235037,0.05928442483459537,7.611972689655958,0.8837006888648556,0.11018737548605453,-5.030981606664668,18.7
,,0.05219281784635772,0.006535837635169268,0.0003712135442247795,0.05909986902575177,7.6071794118794775,0.883129162665582,0.11058971437519409,-5.0304547633533625,18.8
,,0.05144610189162351,0.006403778326127025,0.0003680370528689536,0.05821791727061949,7.602920300639344,0.883681593288232,0.10999669219288241,-5.050867099355113,18.9
,,0.05144610189162351,0.006403778326127025,0.0003680370528689536,0.05821791727061949,7.639190124217482,0.883681593288232,0.10999669219288241,-5.050867099355113,19.0
,,0.05144610189162351,0.006403778326127025,0.0003680370528689536,0.05821791727061949,7.67545994779562,0.883681593288232,0.10999669219288241,-5.050867099355113,19.1
,,0.05144610189162351,0.006403778326127025,0.0003680370528689536,0.05821791727061949,7.711729771373759,0.883681593288232,0.10999669219288241,-5.050867099355113,19.2
,,0.05144610189162351,0.006403778326127025,0.0003680370528689536,0.05821791727061949,7.705950152255762,0.883681593288232,0.10999669219288241,-5.050867099355113,19.3
,,0.05144610189162351,0.006403778326127025,0.0003680370528689536,0.05821791727061949,7.700170533137767,0.883681593288232,0.10999669219288241,-5.050867099355113,19.4
,,0.05088373124038388,0.006303952076717404,0.0003763887944207571,0.05756407211152204,7.694813232070808,0.883949473584913,0.10951192029126103,-5.066578528499014,19.5
,,0.05088373124038388,0.006303952076717404,0.0003763887944207571,0.05756407211152204,7.689455931003849,0.883949473584913,0.10951192029126103,-5.066578528499014,19.6
,,0.05088373124038388,0.006303952076717404,0.0003763887944207571,0.05756407211152204,7.681232487037012,0.883949473584913,0.10951192029126103,-5.066578528499014,19.7
,,0.05088373124038388,0.006303952076717404,0.0003763887944207571,0.05756407211152204,7.6730090430701745,0.883949473584913,0.10951192029126103,-5.066578528499014,19.8
,,0.05088373124038388,0.006303952076717404,0.0003763887944207571,0.05756407211152204,7.718179249021468,0.883949473584913,0.10951192029126103,-5.066578528499014,19.9
,,0.05088373124038388,0.006303952076717404,0.0003763887944207571,0.05756407211152204,7.7633494549727615,0.883949473584913,0.10951192029126103,-5.066578528499014,20.0
,,0.05088373124038388,0.006303952076717404,0.0003763887944207571,0.05756407211152204,7.808519660924054,0.883949473584913,0.10951192029126103,-5.066578528499014,20.1
,,0.050535275371685784,0.006218707287204818,0.00038665967116170377,0.05714064233005231,7.8542966670472465,0.8844015977242081,0.10883159575429163,-5.080193225470134,20.2
,,0.050535275371685784,0.006218707287204818,0.00038665967116170377,0.05714064233005231,7.90007367317044,0.8844015977242081,0.10883159575429163,-5.080193225470134,20.3
,,0.050535275371685784,0.006218707287204818,0.00038665967116170377,0.05714064233005231,7.945850679293632,0.8844015977242081,0.10883159575429163,-5.080193225470134,20.4
,,0.050535275371685784,0.006218707287204818,0.00038665967116170377,0.05714064233005231,7.939594667159671,0.8844015977242081,0.10883159575429163,-5.080193225470134,20.5
,,0.050535275371685784,0.006218707287204818,0.00038665967116170377,0.05714064233005231,7.933338655025711,0.8844015977242081,0.10883159575429163,-5.080193225470134,20.6
,,0.050535275371685784,0.006218707287204818,0.00038665967116170377,0.05714064233005231,7.927082642891749,0.8844015977242081,0.10883159575429163,-5.080193225470134,20.7
,,0.04984701039198742,0.006118877269721025,0.00030810260317568885,0.05627399026488413,7.921049959330067,0.8857912893213252,0.10873366613810755,-5.096376651947363,20.8
,,0.05024449633513155,0.006140258365802906,0.00039735157322590874,0.05678210627416036,7.915421359964649,0.8848649624326482,0.10813720674882983,-5.092888458587393,20.9
,,0.05024449633513155,0.006140258365802906,0.00039735157322590874,0.05678210627416036,7.90979276059923,0.8848649624326482,0.10813720674882983,-5.092888458587393,21.0
,,0.05024449633513155,0.006140258365802906,0.00039735157322590874,0.05678210627416036,7.9420355002040806,0.8848649624326482,0.10813720674882983,-5.092888458587393,21.1
,,0.05024449633513155,0.006140258365802906,0.00039735157322590874,0.05678210627416036,7.936353293824767,0.8848649624326482,0.10813720674882983,-5.092888458587393,21.2
,,0.05024449633513155,0.006140258365802906,0.00039735157322590874,0.05678210627416036,7.930671087445454,0.8848649624326482,0.10813720674882983,-5.092888458587393,21.3
,,0.05020863840905341,0.006130833141542273,0.0003187596643360871,0.05665823121493177,7.925063670219722,0.8861667110395316,0.10820728092066784,-5.094424626108998,21.4
,,0.05020863840905341,0.006130833141542273,0.0003187596643360871,0.05665823121493177,7.919456252993993,0.8861667110395316,0.10820728092066784,-5.094424626108998,21.5
,,0.05019046560745015,0.0061056356485693075,0.000409075521314148,0.0567051767773336,7.9141912931658265,0.8851125851266628,0.10767333770150372,-5.0985430574997395,21.6
,,0.05019046560745015,0.0061056356485693075,0.000409075521314148,0.0567051767773336,7.911401590849038,0.8851125851266628,0.10767333770150372,-5.0985430574997395,21.7
,,0.05019046560745015,0.0061056356485693075,0.000409075521314148,0.0567051767773336,7.90861188853225,0.8851125851266628,0.10767333770150372,-5.0985430574997395,21.8
,,0.05019046560745015,0.0061056356485693075,0.000409075521314148,0.0567051767773336,7.903614581332886,0.8851125851266628,0.10767333770150372,-5.0985430574997395,21.9
,,0.05019046560745015,0.0061056356485693075,0.000409075521314148,0.0567051767773336,7.898617274133522,0.8851125851266628,0.10767333770150372,-5.0985430574997395,22.0
,,0.05032234519875197,0.006125255538939935,0.0003274939846913029,0.056775094722383214,7.893566630771918,0.8863454203787124,0.10788631122309854,-5.095334802778374,22.1
,,0.05032380672951852,0.006113898473304897,0.0004217526741242513,0.05685945787694767,7.891144752259278,0.8850560418361133,0.1075264995761353,-5.097190661260643,22.2
,,0.05032380672951852,0.006113898473304897,0.0004217526741242513,0.05685945787694767,7.888722873746636,0.8850560418361133,0.1075264995761353,-5.097190661260643,22.3
,,0.05032380672951852,0.006113898473304897,0.0004217526741242513,0.05685945787694767,7.886300995233996,0.8850560418361133,0.1075264995761353,-5.097190661260643,22.4
,,0.05032380672951852,0.006113898473304897,0.0004217526741242513,0.05685945787694767,7.8838791167213556,0.8850560418361133,0.1075264995761353,-5.097190661260643,22.5
,,0.05032380672951852,0.006113898473304897,0.0004217526741242513,0.05685945787694767,7.879698154447616,0.8850560418361133,0.1075264995761353,-5.097190661260643,22.6
,,0.04793557208757935,0.005367029116115931,0.00027420222687863396,0.053576803430573916,7.88329986471259,0.8947075789934984,0.10017449292342821,-5.227480760775902,22.7
,,0.04793557208757935,0.005367029116115931,0.00027420222687863396,0.053576803430573916,7.88930034359355,0.8947075789934984,0.10017449292342821,-5.227480760775902,22.8
,,0.05058328799863706,0.006164238722258855,0.0004322068363706522,0.05717973355726656,7.887238991630308,0.8846366509906339,0.1078046073104775,-5.088990633809098,22.9
,,0.05058328799863706,0.006164238722258855,0.0004322068363706522,0.05717973355726656,7.885177639667064,0.8846366509906339,0.1078046073104775,-5.088990633809098,23.0
,,0.05058328799863706,0.006164238722258855,0.0004322068363706522,0.05717973355726656,7.883116287703821,0.8846366509906339,0.1078046073104775,-5.088990633809098,23.1
,,0.05058328799863706,0.006164238722258855,0.0004322068363706522,0.05717973355726656,7.881054935740579,0.8846366509906339,0.1078046073104775,-5.088990633809098,23.2
,,0.05058328799863706,0.006164238722258855,0.0004322068363706522,0.05717973355726656,7.896985655515901,0.8846366509906339,0.1078046073104775,-5.088990633809098,23.3
,,0.04845214952237694,0.00545469047023423,0.0002793211602417808,0.054186161152852956,7.9204356167205585,0.8941794083861925,0.10066574848967752,-5.211279403702205,23.4
,,0.04845214952237694,0.00545469047023423,0.0002793211602417808,0.054186161152852956,7.944168227376284,0.8941794083861925,0.10066574848967752,-5.211279403702205,23.5
,,0.050934804359019176,0.006254271038595787,0.0004415077950903537,0.057630583192705316,7.9596935651222065,0.883815528791427,0.10852347299146248,-5.074490682446846,23.6
,,0.050934804359019176,0.006254271038595787,0.0004415077950903537,0.057630583192705316,7.975218902868125,0.883815528791427,0.10852347299146248,-5.074490682446846,23.7
,,0.050934804359019176,0.006254271038595787,0.0004415077950903537,0.057630583192705316,7.990744240614044,0.883815528791427,0.10852347299146248,-5.074490682446846,23.8
,,0.050934804359019176,0.006254271038595787,0.0004415077950903537,0.057630583192705316,8.006269578359966,0.883815528791427,0.10852347299146248,-5.074490682446846,23.9
,,0.050934804359019176,0.006254271038595787,0.0004415077950903537,0.057630583192705316,8.00309945387351,0.883815528791427,0.10852347299146248,-5.074490682446846,24.0
,,0.05114574951392898,0.006307598578313251,0.00034678735339324754,0.057800135445635475,8.001610289201537,0.8848724854984925,0.10912774736048722,-5.066000248825529,24.1
,,0.035217069161605344,0.006381376819340865,0.0004503795944242736,0.042048825575370485,7.971344823066685,0.8375280089209733,0.1517611189378537,-5.054371402502904,24.2
,,0.035217069161605344,0.006381376819340865,0.0004503795944242736,0.042048825575370485,7.941079356931832,0.8375280089209733,0.1517611189378537,-5.054371402502904,24.3
,,0.035217069161605344,0.006381376819340865,0.0004503795944242736,0.042048825575370485,7.910838850296248,0.8375280089209733,0.1517611189378537,-5.054371402502904,24.4
,,0.035217069161605344,0.006381376819340865,0.0004503795944242736,0.042048825575370485,7.880573384161395,0.8375280089209733,0.1517611189378537,-5.054371402502904,24.5
,,0.035217069161605344,0.006381376819340865,0.0004503795944242736,0.042048825575370485,7.850307918026542,0.8375280089209733,0.1517611189378537,-5.054371402502904,24.6
,,0.05154200533938006,0.006434421441779812,0.0003522700548947675,0.058328696836054635,7.848548297170061,0.8836474691737065,0.1103131355714176,-5.046093350013342,24.7
,,0.05154200533938006,0.006434421441779812,0.0003522700548947675,0.058328696836054635,7.8467886763135795,0.8836474691737065,0.1103131355714176,-5.046093350013342,24.8
,,0.0518013918895067,0.00653860488629569,0.00045647688760269044,0.05879647366340508,7.844051680955049,0.8810288893523878,0.11120743267236649,-5.03003145640728,24.9
,,0.0518013918895067,0.00653860488629569,0.00045647688760269044,0.05879647366340508,7.84131468559652,0.8810288893523878,0.11120743267236649,-5.03003145640728,25.0
,,0.0518013918895067,0.00653860488629569,0.00045647688760269044,0.05879647366340508,7.83857769023799,0.8810288893523878,0.11120743267236649,-5.03003145640728,25.1
,,0.0518013918895067,0.00653860488629569,0.00045647688760269044,0.05879647366340508,7.8358399195620985,0.8810288893523878,0.11120743267236649,-5.03003145640728,25.2
,,0.0518013918895067,0.00653860488629569,0.00045647688760269044,0.05879647366340508,7.833764448531679,0.8810288893523878,0.11120743267236649,-5.03003145640728,25.3
,,0.051942436874560564,0.006590828794056073,0.00035731570620987777,0.058890581374826514,7.831229259073185,0.8820160314593869,0.11191651772134485,-5.022076172964894,25.4
,,0.051942436874560564,0.006590828794056073,0.00035731570620987777,0.058890581374826514,7.82869406961469,0.8820160314593869,0.11191651772134485,-5.022076172964894,25.5
,,0.050892391523504436,0.006063971547141623,0.00036254888965366966,0.05731891196029973,7.831842954423553,0.8878813254297913,0.10579355643285163,-5.105390322747134,25.6
,,0.050892391523504436,0.006063971547141623,0.00036254888965366966,0.05731891196029973,7.834991839232416,0.8878813254297913,0.10579355643285163,-5.105390322747134,25.7
,,0.050892391523504436,0.006063971547141623,0.00036254888965366966,0.05731891196029973,7.83814072404128,0.8878813254297913,0.10579355643285163,-5.105390322747134,25.8
,,0.050892391523504436,0.006063971547141623,0.00036254888965366966,0.05731891196029973,7.847073303353102,0.8878813254297913,0.10579355643285163,-5.105390322747134,25.9
,,0.051112826264385354,0.006153105477012205,0.00031769557900599126,0.05758362732040355,7.880441064870829,0.8876277623149071,0.1068551212096356,-5.090798368999153,26.0
,,0.051112826264385354,0.006153105477012205,0.00031769557900599126,0.05758362732040355,7.913808826388557,0.8876277623149071,0.1068551212096356,-5.090798368999153,26.1
,,0.05253751934099177,0.0069124694283619,0.000458646814597617,0.059908635583951285,7.939327298986416,0.8769607057294735,0.11538352294261993,-4.974428334803587,26.2
,,0.05253751934099177,0.0069124694283619,0.000458646814597617,0.059908635583951285,7.964845771584273,0.8769607057294735,0.11538352294261993,-4.974428334803587,26.3
,,0.05253751934099177,0.0069124694283619,0.000458646814597617,0.059908635583951285,7.990364244182134,0.8769607057294735,0.11538352294261993,-4.974428334803587,26.4
,,0.05253751934099177,0.0069124694283619,0.000458646814597617,0.059908635583951285,7.986269706270875,0.8769607057294735,0.11538352294261993,-4.974428334803587,26.5
,,0.05249517092006972,0.006943168750361315,0.0004207325605573385,0.059859072230988374,7.981072588047132,0.8769793610816032,0.11599192054912796,-4.969997016398874,26.6
,,0.05249517092006972,0.006943168750361315,0.0004207325605573385,0.059859072230988374,7.975875469823389,0.8769793610816032,0.11599192054912796,-4.969997016398874,26.7
,,0.05249517092006972,0.006943168750361315,0.0004207325605573385,0.059859072230988374,7.970678351599646,0.8769793610816032,0.11599192054912796,-4.969997016398874,26.8
,,0.052735993676639496,0.007111018710861509,0.00045688049178377733,0.06030389287928479,7.963874588514054,0.8745039691252674,0.11791972908110947,-4.946109766828205,26.9
,,0.052735993676639496,0.007111018710861509,0.00045688049178377733,0.06030389287928479,7.9570708254284614,0.8745039691252674,0.11791972908110947,-4.946109766828205,27.0
,,0.052735993676639496,0.007111018710861509,0.00045688049178377733,0.06030389287928479,7.95026706234287,0.8745039691252674,0.11791972908110947,-4.946109766828205,27.1
,,0.052555947711189044,0.007117808809255076,0.00041610561236895465,0.060089862132813074,7.942604775068515,0.8746225377423522,0.11845273989018319,-4.945155352432585,27.2
,,0.052555947711189044,0.007117808809255076,0.00041610561236895465,0.060089862132813074,7.935535268416988,0.8746225377423522,0.11845273989018319,-4.945155352432585,27.3
,,0.052555947711189044,0.007117808809255076,0.00041610561236895465,0.060089862132813074,7.928465761765461,0.8746225377423522,0.11845273989018319,-4.945155352432585,27.4
,,0.052555947711189044,0.007117808809255076,0.00041610561236895465,0.060089862132813074,7.921396255113934,0.8746225377423522,0.11845273989018319,-4.945155352432585,27.5
,,0.05275885844510692,0.007290530791228104,0.00045021618058039317,0.060499605416915424,7.912692328523119,0.8720529345858473,0.12050542711787181,-4.9211789247441,27.6
,,0.05275885844510692,0.007290530791228104,0.00045021618058039317,0.060499605416915424,7.903988401932305,0.8720529345858473,0.12050542711787181,-4.9211789247441,27.7
,,0.05207325023459608,0.006717372229170963,0.00030793773567336136,0.0590985601994404,7.901392749480863,0.8811255309581832,0.11366388972086275,-5.003058238247861,27.8
,,0.05207325023459608,0.006717372229170963,0.00030793773567336136,0.0590985601994404,7.8982629304930745,0.8811255309581832,0.11366388972086275,-5.003058238247861,27.9
,,0.05207325023459608,0.006717372229170963,0.00030793773567336136,0.0590985601994404,7.895133111505288,0.8811255309581832,0.11366388972086275,-5.003058238247861,28.0
,,0.05207325023459608,0.006717372229170963,0.00030793773567336136,0.0590985601994404,7.8920032925175025,0.8811255309581832,0.11366388972086275,-5.003058238247861,28.1
,,0.05207325023459608,0.006717372229170963,0.00030793773567336136,0.0590985601994404,7.888873473529716,0.8811255309581832,0.11366388972086275,-5.003058238247861,28.2
,,0.05263229975680407,0.0074317134010040715,0.0004371160231217107,0.060501129180929855,7.878300264915209,0.8699391312087104,0.12283594540490941,-4.90199884105,28.3
,,0.052235295046748974,0.0073888737842683575,0.00039520406818028175,0.060019372899197614,7.867586290110807,0.87030724453716,0.12310814704242166,-4.907779952892995,28.4
,,0.052235295046748974,0.0073888737842683575,0.00039520406818028175,0.060019372899197614,7.856449997255367,0.87030724453716,0.12310814704242166,-4.907779952892995,28.5
,,0.052235295046748974,0.0073888737842683575,0.00039520406818028175,0.060019372899197614,7.845313704399927,0.87030724453716,0.12310814704242166,-4.907779952892995,28.6
,,0.052235295046748974,0.0073888737842683575,0.00039520406818028175,0.060019372899197614,7.834177411544487,0.87030724453716,0.12310814704242166,-4.907779952892995,28.7
,,0.052235295046748974,0.0073888737842683575,0.00039520406818028175,0.060019372899197614,7.823041118689048,0.87030724453716,0.12310814704242166,-4.907779952892995,28.8
,,0.052235295046748974,0.0073888737842683575,0.00039520406818028175,0.060019372899197614,7.811904825833608,0.87030724453716,0.12310814704242166,-4.907779952892995,28.9
,,0.05198054540297945,0.007483373152492198,0.00038325830620290736,0.05984717686167456,7.799398371784043,0.8685546775768999,0.12504137279171249,-4.895071632430412,29.0
,,0.05198054540297945,0.007483373152492198,0.00038325830620290736,0.05984717686167456,7.786891917734479,0.8685546775768999,0.12504137279171249,-4.895071632430412,29.1
,,0.05198054540297945,0.007483373152492198,0.00038325830620290736,0.05984717686167456,7.773778663513014,0.8685546775768999,0.12504137279171249,-4.895071632430412,29.2
,,0.05198054540297945,0.007483373152492198,0.00038325830620290736,0.05984717686167456,7.7606654092915495,0.8685546775768999,0.12504137279171249,-4.895071632430412,29.3
,,0.05198054540297945,0.007483373152492198,0.00038325830620290736,0.05984717686167456,7.747552155070085,0.8685546775768999,0.12504137279171249,-4.895071632430412,29.4
,,0.05198054540297945,0.007483373152492198,0.00038325830620290736,0.05984717686167456,7.7344389008486205,0.8685546775768999,0.12504137279171249,-4.895071632430412,29.5
,,0.05168358862675863,0.0075376329872301065,0.00036862274311529644,0.05958984435710403,7.720332329940268,0.86732209463469,0.1264919059371818,-4.887847073670864,29.6
,,0.05168358862675863,0.0075376329872301065,0.00036862274311529644,0.05958984435710403,7.706225759031915,0.86732209463469,0.1264919059371818,-4.887847073670864,29.7
,,0.05168358862675863,0.0075376329872301065,0.00036862274311529644,0.05958984435710403,7.691895859551285,0.86732209463469,0.1264919059371818,-4.887847073670864,29.8
,,0.05168358862675863,0.0075376329872301065,0.00036862274311529644,0.05958984435710403,7.67716187587439,0.86732209463469,0.1264919059371818,-4.887847073670864,29.9
,,0.05168358862675863,0.0075376329872301065,0.00036862274311529644,0.05958984435710403,7.662427892197495,0.86732209463469,0.1264919059371818,-4.887847073670864,30.0
,,0.05168358862675863,0.0075376329872301065,0.00036862274311529644,0.05958984435710403,7.6476939085206,0.86732209463469,0.1264919059371818,-4.887847073670864,30.1
,,0.05168358862675863,0.0075376329872301065,0.00036862274311529644,0.05958984435710403,7.6329599248437034,0.86732209463469,0.1264919059371818,-4.887847073670864,30.2
,,0.04970248516110998,0.007300382506106139,0.00034288848465406413,0.05734575615187018,7.617686641217156,0.8667160134654369,0.1273046690111184,-4.919828534103792,30.3
,,0.04970248516110998,0.007300382506106139,0.00034288848465406413,0.05734575615187018,7.602338568437026,0.8667160134654369,0.1273046690111184,-4.919828534103792,30.4
,,0.04970248516110998,0.007300382506106139,0.00034288848465406413,0.05734575615187018,7.586990495656894,0.8667160134654369,0.1273046690111184,-4.919828534103792,30.5
,,0.04970248516110998,0.007300382506106139,0.00034288848465406413,0.05734575615187018,7.5712999654792,0.8667160134654369,0.1273046690111184,-4.919828534103792,30.6
,,0.04970248516110998,0.007300382506106139,0.00034288848465406413,0.05734575615187018,7.555609435301506,0.8667160134654369,0.1273046690111184,-4.919828534103792,30.7
,,0.04970248516110998,0.007300382506106139,0.00034288848465406413,0.05734575615187018,7.539918905123812,0.8667160134654369,0.1273046690111184,-4.919828534103792,30.8
,,0.049276744792099945,0.007301833242208647,0.00034978256889384553,0.056928360603202444,7.523565501420977,0.8655921981587493,0.12826354324698208,-4.91962983328574,30.9
,,0.05088044979496999,0.0068863824859022055,0.0002441920488607472,0.05801102432973294,7.514323383130443,0.8770824232609137,0.11870816910179369,-4.978209370168052,31.0
,,0.05088044979496999,0.0068863824859022055,0.0002441920488607472,0.05801102432973294,7.505134601002151,0.8770824232609137,0.11870816910179369,-4.978209370168052,31.1
,,0.05088044979496999,0.0068863824859022055,0.0002441920488607472,0.05801102432973294,7.4957735954725,0.8770824232609137,0.11870816910179369,-4.978209370168052,31.2
,,0.05088044979496999,0.0068863824859022055,0.0002441920488607472,0.05801102432973294,7.486412589942851,0.8770824232609137,0.11870816910179369,-4.978209370168052,31.3
,,0.05088044979496999,0.0068863824859022055,0.0002441920488607472,0.05801102432973294,7.4770515844132,0.8770824232609137,0.11870816910179369,-4.978209370168052,31.4
,,0.05088044979496999,0.0068863824859022055,0.0002441920488607472,0.05801102432973294,7.467690578883551,0.8770824232609137,0.11870816910179369,-4.978209370168052,31.5
,,0.05073012899879507,0.006875962050025562,0.00025445881447564133,0.057860549863296265,7.458211078774083,0.8767654147541317,0.11883679063318608,-4.979723710670255,31.6
,,0.046232164044752,0.006770423497651283,0.0002969125627613938,0.05329950010516468,7.434845049399523,0.8674033331181682,0.12702602246348713,-4.995191638969936,31.7
,,0.046232164044752,0.006770423497651283,0.0002969125627613938,0.05329950010516468,7.411479020024965,0.8674033331181682,0.12702602246348713,-4.995191638969936,31.8
,,0.046232164044752,0.006770423497651283,0.0002969125627613938,0.05329950010516468,7.396174821494608,0.8674033331181682,0.12702602246348713,-4.995191638969936,31.9
,,0.046232164044752,0.006770423497651283,0.0002969125627613938,0.05329950010516468,7.380870622964254,0.8674033331181682,0.12702602246348713,-4.995191638969936,32.0
,,0.046232164044752,0.006770423497651283,0.0002969125627613938,0.05329950010516468,7.365566424433897,0.8674033331181682,0.12702602246348713,-4.995191638969936,32.1
,,0.04625006594367981,0.006787131197584099,0.00030141639463129855,0.0533386135358952,7.350104758886283,0.8671028899646027,0.12724611210631814,-4.9927269307292,32.2
,,0.04625006594367981,0.006787131197584099,0.00030141639463129855,0.0533386135358952,7.334643093338669,0.8671028899646027,0.12724611210631814,-4.9927269307292,32.3
,,0.045191968264252216,0.00655227841164092,0.0002821844625594661,0.0520264311384526,7.312581760598757,0.868634793418512,0.1259413392051439,-5.027942440714966,32.4
,,0.045191968264252216,0.00655227841164092,0.0002821844625594661,0.0520264311384526,7.290520427858847,0.868634793418512,0.1259413392051439,-5.027942440714966,32.5
,,0.045191968264252216,0.00655227841164092,0.0002821844625594661,0.0520264311384526,7.276666368028741,0.868634793418512,0.1259413392051439,-5.027942440714966,32.6
,,0.045191968264252216,0.00655227841164092,0.0002821844625594661,0.0520264311384526,7.262812308198638,0.868634793418512,0.1259413392051439,-5.027942440714966,32.7
,,0.045191968264252216,0.00655227841164092,0.0002821844625594661,0.0520264311384526,7.248958248368534,0.868634793418512,0.1259413392051439,-5.027942440714966,32.8
,,0.045445867451804366,0.006581852824195045,0.0002875877265936626,0.05231530800259307,7.235188461302298,0.8686915777988307,0.12581122190600136,-5.023438989058137,32.9
,,0.045445867451804366,0.006581852824195045,0.0002875877265936626,0.05231530800259307,7.221418674236062,0.8686915777988307,0.12581122190600136,-5.023438989058137,33.0
,,0.04463955231872342,0.00636877311637269,0.0002723596180259994,0.05128068505312211,7.20920240781526,0.8704944614620674,0.12419438448950558,-5.056348431343663,33.1
,,0.04463955231872342,0.00636877311637269,0.0002723596180259994,0.05128068505312211,7.225762442857337,0.8704944614620674,0.12419438448950558,-5.056348431343663,33.2
,,0.04463955231872342,0.00636877311637269,0.0002723596180259994,0.05128068505312211,7.242322477899417,0.8704944614620674,0.12419438448950558,-5.056348431343663,33.3
,,0.04463955231872342,0.00636877311637269,0.0002723596180259994,0.05128068505312211,7.258882512941494,0.8704944614620674,0.12419438448950558,-5.056348431343663,33.4
,,0.04512664200863757,0.006408962133129413,0.0002791063857099602,0.051814710527476944,7.275798646006895,0.8709233642192648,0.12369001134785437,-5.0500579348673575,33.5
,,0.04512664200863757,0.006408962133129413,0.0002791063857099602,0.051814710527476944,7.292714779072298,0.8709233642192648,0.12369001134785437,-5.0500579348673575,33.6
,,0.04512664200863757,0.006408962133129413,0.0002791063857099602,0.051814710527476944,7.28194613444255,0.8709233642192648,0.12369001134785437,-5.0500579348673575,33.7
,,0.04456558043120601,0.006224456318754356,0.00026665123008907954,0.05105668798004945,7.2724950108089335,0.8728646959751902,0.12191265366031147,-5.079269178798295,33.8
,,0.04456558043120601,0.006224456318754356,0.00026665123008907954,0.05105668798004945,7.264021261677365,0.8728646959751902,0.12191265366031147,-5.079269178798295,33.9
,,0.04456558043120601,0.006224456318754356,0.00026665123008907954,0.05105668798004945,7.255547512545795,0.8728646959751902,0.12191265366031147,-5.079269178798295,34.0
,,0.04456558043120601,0.006224456318754356,0.00026665123008907954,0.05105668798004945,7.247073763414227,0.8728646959751902,0.12191265366031147,-5.079269178798295,34.1
,,0.045277994976019684,0.006277101814161235,0.000275830326667336,0.05183092711684825,7.239193858245058,0.873571002771076,0.1211072647805443,-5.0708468995837315,34.2
,,0.045277994976019684,0.006277101814161235,0.000275830326667336,0.05183092711684825,7.231313953075889,0.873571002771076,0.1211072647805443,-5.0708468995837315,34.3
,,0.0449415615031041,0.006115463095986226,0.00026519620386841617,0.05132222080295874,7.225400873125468,0.8756745284980576,0.11915819308492721,-5.09693478155981,34.4
,,0.0449415615031041,0.006115463095986226,0.00026519620386841617,0.05132222080295874,7.21948779317505,0.8756745284980576,0.11915819308492721,-5.09693478155981,34.5
,,0.0449415615031041,0.006115463095986226,0.00026519620386841617,0.05132222080295874,7.207890638957272,0.8756745284980576,0.11915819308492721,-5.09693478155981,34.6
,,0.0449415615031041,0.006115463095986226,0.00026519620386841617,0.05132222080295874,7.1962934847394955,0.8756745284980576,0.11915819308492721,-5.09693478155981,34.7
,,0.046973872911508494,0.005568604302499265,0.00020982904848362244,0.05275230626249138,7.196770150511796,0.8904610289030805,0.10556134313427591,-5.190610830499452,34.8
,,0.046973872911508494,0.005568604302499265,0.00020982904848362244,0.05275230626249138,7.197246816284096,0.8904610289030805,0.10556134313427591,-5.190610830499452,34.9
,,0.046973872911508494,0.005568604302499265,0.00020982904848362244,0.05275230626249138,7.198676260686461,0.8904610289030805,0.10556134313427591,-5.190610830499452,35.0
,,0.04577356321421154,0.006041598640380115,0.00026917103119240387,0.052084332885784054,7.190560317792786,0.8788355476221338,0.11599646775986862,-5.109086626496189,35.1
,,0.04577356321421154,0.006041598640380115,0.00026917103119240387,0.052084332885784054,7.19029366381898,0.8788355476221338,0.11599646775986862,-5.109086626496189,35.2
,,0.04577356321421154,0.006041598640380115,0.00026917103119240387,0.052084332885784054,7.190027009845174,0.8788355476221338,0.11599646775986862,-5.109086626496189,35.3
,,0.04577356321421154,0.006041598640380115,0.00026917103119240387,0.052084332885784054,7.189760355871368,0.8788355476221338,0.11599646775986862,-5.109086626496189,35.4
,,0.046963582734289536,0.006122140331091639,0.00028798466760321254,0.05337370773298439,7.190545990959523,0.8799010735629771,0.11470329851767486,-5.095843516295686,35.5
,,0.046963582734289536,0.006122140331091639,0.00028798466760321254,0.05337370773298439,7.191772787871111,0.8799010735629771,0.11470329851767486,-5.095843516295686,35.6
,,0.04651560171535725,0.00594203257330401,0.0002757379987373996,0.052733372287398654,7.194745423120593,0.8820904049497471,0.11268068616813907,-5.125704020081282,35.7
,,0.04651560171535725,0.00594203257330401,0.0002757379987373996,0.052733372287398654,7.197718058370074,0.8820904049497471,0.11268068616813907,-5.125704020081282,35.8
,,0.04651560171535725,0.00594203257330401,0.0002757379987373996,0.052733372287398654,7.202297338481404,0.8820904049497471,0.11268068616813907,-5.125704020081282,35.9
,,0.04651560171535725,0.00594203257330401,0.0002757379987373996,0.052733372287398654,7.2068766185927355,0.8820904049497471,0.11268068616813907,-5.125704020081282,36.0
,,0.04651560171535725,0.00594203257330401,0.0002757379987373996,0.052733372287398654,7.211455898704066,0.8820904049497471,0.11268068616813907,-5.125704020081282,36.1
,,0.04666557590168699,0.005880037836651128,0.00029320374830839373,0.05283881748664651,7.217595295159167,0.8831684379288081,0.11128254030547027,-5.136192082287691,36.2
,,0.0462860752068624,0.005716696159700283,0.00028031283159253107,0.05228308419815521,7.225516651669673,0.8852973369251921,0.10934121900754268,-5.164364234920361,36.3
,,0.0462860752068624,0.005716696159700283,0.00028031283159253107,0.05228308419815521,7.233438008180178,0.8852973369251921,0.10934121900754268,-5.164364234920361,36.4
,,0.0462860752068624,0.005716696159700283,0.00028031283159253107,0.05228308419815521,7.241359364690684,0.8852973369251921,0.10934121900754268,-5.164364234920361,36.5
,,0.0462860752068624,0.005716696159700283,0.00028031283159253107,0.05228308419815521,7.250915141140477,0.8852973369251921,0.10934121900754268,-5.164364234920361,36.6
,,0.0462860752068624,0.005716696159700283,0.00028031283159253107,0.05228308419815521,7.260470917590271,0.8852973369251921,0.10934121900754268,-5.164364234920361,36.7
,,0.0462860752068624,0.005716696159700283,0.00028031283159253107,0.05228308419815521,7.264300038328016,0.8852973369251921,0.10934121900754268,-5.164364234920361,36.8
,,0.04531457819662707,0.0045347309901592105,0.00022478904415138335,0.05007409823093766,7.289197317148335,0.9049504593700305,0.09056041247603502,-5.395989515772203,36.9
,,0.04531457819662707,0.0045347309901592105,0.00022478904415138335,0.05007409823093766,7.314094595968653,0.9049504593700305,0.09056041247603502,-5.395989515772203,37.0
,,0.04531457819662707,0.0045347309901592105,0.00022478904415138335,0.05007409823093766,7.338991874788971,0.9049504593700305,0.09056041247603502,-5.395989515772203,37.1
,,0.04531457819662707,0.0045347309901592105,0.00022478904415138335,0.05007409823093766,7.363889153609289,0.9049504593700305,0.09056041247603502,-5.395989515772203,37.2
,,0.04531457819662707,0.0045347309901592105,0.00022478904415138335,0.05007409823093766,7.396229822056326,0.9049504593700305,0.09056041247603502,-5.395989515772203,37.3
,,0.04531457819662707,0.0045347309901592105,0.00022478904415138335,0.05007409823093766,7.42871125669326,0.9049504593700305,0.09056041247603502,-5.395989515772203,37.4
,,0.045866008569692376,0.005371856342847774,0.00022088169969182667,0.05145874661223197,7.445030720327485,0.8913160850052617,0.10439151157970217,-5.2265817425164345,37.5
,,0.04614278760990559,0.00533143569281023,0.00029983539434544067,0.05177405869706126,7.4626462676609355,0.8912337330919875,0.10297503860003247,-5.23413471632309,37.6
,,0.04614278760990559,0.00533143569281023,0.00029983539434544067,0.05177405869706126,7.480261814994386,0.8912337330919875,0.10297503860003247,-5.23413471632309,37.7
,,0.04614278760990559,0.00533143569281023,0.00029983539434544067,0.05177405869706126,7.497877362327837,0.8912337330919875,0.10297503860003247,-5.23413471632309,37.8
,,0.04614201311307531,0.005331292023280147,0.00029982396193396576,0.051773129098289426,7.515493886997254,0.8912347759679805,0.10297411255863792,-5.234161664311244,37.9
,,0.04614278760990559,0.00533143569281023,0.00029983539434544067,0.05177405869706126,7.53447959552483,0.8912337330919875,0.10297503860003247,-5.23413471632309,38.0
,,0.02988198937530714,0.005221476135423002,0.0002314054830926093,0.03533487099382275,7.520888065723867,0.8456798775501718,0.14777119566492322,-5.254975132499815,38.1
,,0.04619832019706586,0.0051920612732882536,0.0003142851430422156,0.05170466661339632,7.542574045371925,0.8935038793016062,0.10041765305460892,-5.2606244981691965,38.2
,,0.04619832019706586,0.0051920612732882536,0.0003142851430422156,0.05170466661339632,7.564260025019983,0.8935038793016062,0.10041765305460892,-5.2606244981691965,38.3
,,0.04619832019706586,0.0051920612732882536,0.0003142851430422156,0.05170466661339632,7.585946004668041,0.8935038793016062,0.10041765305460892,-5.2606244981691965,38.4
,,0.04619832019706586,0.0051920612732882536,0.0003142851430422156,0.05170466661339632,7.607631984316099,0.8935038793016062,0.10041765305460892,-5.2606244981691965,38.5
,,0.04619832019706586,0.0051920612732882536,0.0003142851430422156,0.05170466661339632,7.630311280651046,0.8935038793016062,0.10041765305460892,-5.2606244981691965,38.6
,,0.04619832019706586,0.0051920612732882536,0.0003142851430422156,0.05170466661339632,7.652990576985993,0.8935038793016062,0.10041765305460892,-5.2606244981691965,38.7
,,0.04484748410362426,0.004034728477899282,0.0002037640007962338,0.04908597658231978,7.700308646094921,0.9136516623727076,0.08219717236618139,-5.512816271247021,38.8
,,0.046322369702285815,0.005096017038068625,0.00033233133308274796,0.05175071807343719,7.725121720514154,0.8951058347934759,0.0984723928050059,-5.2792960172978045,38.9
,,0.046322369702285815,0.005096017038068625,0.00033233133308274796,0.05175071807343719,7.749934794933389,0.8951058347934759,0.0984723928050059,-5.2792960172978045,39.0
,,0.046322369702285815,0.005096017038068625,0.00033233133308274796,0.05175071807343719,7.774747869352621,0.8951058347934759,0.0984723928050059,-5.2792960172978045,39.1
,,0.046322369702285815,0.005096017038068625,0.00033233133308274796,0.05175071807343719,7.799560943771855,0.8951058347934759,0.0984723928050059,-5.2792960172978045,39.2
,,0.046322369702285815,0.005096017038068625,0.00033233133308274796,0.05175071807343719,7.82491331814074,0.8951058347934759,0.0984723928050059,-5.2792960172978045,39.3
,,0.04495886537822518,0.003941609473187234,0.0002256903301004235,0.04912616518151284,7.876002398931025,0.9151714816760032,0.08023442209713817,-5.536166143351161,39.4
,,0.0465085158516305,0.005054564210337766,0.0003531466663437316,0.051916226728312,7.902592266278702,0.8958377521351633,0.09736000724377201,-5.28746363985252,39.5
,,0.0465085158516305,0.005054564210337766,0.0003531466663437316,0.051916226728312,7.9291821336263775,0.8958377521351633,0.09736000724377201,-5.28746363985252,39.6
,,0.0465085158516305,0.005054564210337766,0.0003531466663437316,0.051916226728312,7.955772000974054,0.8958377521351633,0.09736000724377201,-5.28746363985252,39.7
,,0.0465085158516305,0.005054564210337766,0.0003531466663437316,0.051916226728312,7.982361868321731,0.8958377521351633,0.09736000724377201,-5.28746363985252,39.8
,,0.0465085158516305,0.005054564210337766,0.0003531466663437316,0.051916226728312,8.009614609194548,0.8958377521351633,0.09736000724377201,-5.28746363985252,39.9
,,0.0465085158516305,0.005054564210337766,0.0003531466663437316,0.051916226728312,8.029756064655064,0.8958377521351633,0.09736000724377201,-5.28746363985252,40.0
,,0.04672735554547124,0.005080729673193231,0.00037268107223227147,0.05218076629089674,8.049849590993047,0.8954900218401568,0.09736786242021125,-5.282300391251114,40.1
,,0.04672735554547124,0.005080729673193231,0.00037268107223227147,0.05218076629089674,8.069943117331029,0.8954900218401568,0.09736786242021125,-5.282300391251114,40.2
,,0.04672735554547124,0.005080729673193231,0.00037268107223227147,0.05218076629089674,8.090036643669011,0.8954900218401568,0.09736786242021125,-5.282300391251114,40.3
,,0.04672735554547124,0.005080729673193231,0.00037268107223227147,0.05218076629089674,8.110130170006995,0.8954900218401568,0.09736786242021125,-5.282300391251114,40.4
,,0.04672735554547124,0.005080729673193231,0.00037268107223227147,0.05218076629089674,8.130223696344977,0.8954900218401568,0.09736786242021125,-5.282300391251114,40.5
,,0.04672735554547124,0.005080729673193231,0.00037268107223227147,0.05218076629089674,8.150435717262779,0.8954900218401568,0.09736786242021125,-5.282300391251114,40.6
,,0.04578976227293592,0.003994723068176703,0.0003555105522460914,0.05013999589335872,8.201924762059782,0.9132382533561594,0.07967138802071229,-5.522781021771944,40.7
,,0.04578976227293592,0.003994723068176703,0.0003555105522460914,0.05013999589335872,8.253413806856782,0.9132382533561594,0.07967138802071229,-5.522781021771944,40.8
,,0.04578976227293592,0.003994723068176703,0.0003555105522460914,0.05013999589335872,8.304902851653786,0.9132382533561594,0.07967138802071229,-5.522781021771944,40.9
,,0.04578976227293592,0.003994723068176703,0.0003555105522460914,0.05013999589335872,8.356391896450788,0.9132382533561594,0.07967138802071229,-5.522781021771944,41.0
,,0.04578976227293592,0.003994723068176703,0.0003555105522460914,0.05013999589335872,8.407880941247791,0.9132382533561594,0.07967138802071229,-5.522781021771944,41.1
,,0.04578976227293592,0.003994723068176703,0.0003555105522460914,0.05013999589335872,8.459527453062051,0.9132382533561594,0.07967138802071229,-5.522781021771944,41.2
,,0.04578976227293592,0.003994723068176703,0.0003555105522460914,0.05013999589335872,8.511173964876313,0.9132382533561594,0.07967138802071229,-5.522781021771944,41.3
,,0.047338208525083254,0.005356021700099064,0.00042149427036233816,0.05311572449554466,8.532742601777143,0.8912277668179783,0.100836837884953,-5.2295337996119295,41.4
,,0.047338208525083254,0.005356021700099064,0.00042149427036233816,0.05311572449554466,8.554311238677972,0.8912277668179783,0.100836837884953,-5.2295337996119295,41.5
,,0.047338208525083254,0.005356021700099064,0.00042149427036233816,0.05311572449554466,8.575879875578803,0.8912277668179783,0.100836837884953,-5.2295337996119295,41.6
,,0.047338208525083254,0.005356021700099064,0.00042149427036233816,0.05311572449554466,8.597448512479632,0.8912277668179783,0.100836837884953,-5.2295337996119295,41.7
,,0.047338208525083254,0.005356021700099064,0.00042149427036233816,0.05311572449554466,8.619017149380461,0.8912277668179783,0.100836837884953,-5.2295337996119295,41.8
,,0.047338208525083254,0.005356021700099064,0.00042149427036233816,0.05311572449554466,8.640501513517423,0.8912277668179783,0.100836837884953,-5.2295337996119295,41.9
,,0.04657488737922471,0.004338946658603402,0.0004178976220725308,0.051331731659900647,8.683050664415898,0.9073313109288326,0.08452757228903117,-5.440123665718465,42.0
,,0.04657488737922471,0.004338946658603402,0.0004178976220725308,0.051331731659900647,8.724439743415296,0.9073313109288326,0.08452757228903117,-5.440123665718465,42.1
,,0.04657488737922471,0.004338946658603402,0.0004178976220725308,0.051331731659900647,8.765828822414694,0.9073313109288326,0.08452757228903117,-5.440123665718465,42.2
,,0.04657488737922471,0.004338946658603402,0.0004178976220725308,0.051331731659900647,8.80721790141409,0.9073313109288326,0.08452757228903117,-5.440123665718465,42.3
,,0.04657488737922471,0.004338946658603402,0.0004178976220725308,0.051331731659900647,8.848606980413486,0.9073313109288326,0.08452757228903117,-5.440123665718465,42.4
,,0.04657488737922471,0.004338946658603402,0.0004178976220725308,0.051331731659900647,8.889639961389559,0.9073313109288326,0.08452757228903117,-5.440123665718465,42.5
,,0.04803682830417723,0.005824213059375198,0.0003825453121973194,0.05424358667574975,8.903046652905273,0.8855761804861011,0.10737145930615578,-5.145731385759778,42.6
,,0.04838374213807383,0.005940594062433125,0.00048615025128164325,0.054810486451788605,8.91530686147219,0.8827460814570994,0.10838426087786106,-5.125946140097674,42.7
,,0.04838374213807383,0.005940594062433125,0.00048615025128164325,0.054810486451788605,8.92624954904298,0.8827460814570994,0.10838426087786106,-5.125946140097674,42.8
,,0.04838374213807383,0.005940594062433125,0.00048615025128164325,0.054810486451788605,8.937192236613768,0.8827460814570994,0.10838426087786106,-5.125946140097674,42.9
,,0.04838374213807383,0.005940594062433125,0.00048615025128164325,0.054810486451788605,8.948134924184558,0.8827460814570994,0.10838426087786106,-5.125946140097674,43.0
,,0.04838374213807383,0.005940594062433125,0.00048615025128164325,0.054810486451788605,8.959077611755347,0.8827460814570994,0.10838426087786106,-5.125946140097674,43.1
,,0.048802208828372586,0.006214585532839689,0.0004161594143606339,0.05543295377557291,8.96618482807431,0.8803826154737179,0.1121099474150376,-5.080856244442787,43.2
,,0.048802208828372586,0.006214585532839689,0.0004161594143606339,0.05543295377557291,8.973292044393274,0.8803826154737179,0.1121099474150376,-5.080856244442787,43.3
,,0.049209231837835446,0.0063678283908543245,0.000526448357008168,0.05610350858569794,8.977502581667615,0.8771150517737851,0.11350142890132238,-5.056496779475551,43.4
,,0.049209231837835446,0.0063678283908543245,0.000526448357008168,0.05610350858569794,8.981713118941956,0.8771150517737851,0.11350142890132238,-5.056496779475551,43.5
,,0.049209231837835446,0.0063678283908543245,0.000526448357008168,0.05610350858569794,8.985923656216297,0.8771150517737851,0.11350142890132238,-5.056496779475551,43.6
,,0.049209231837835446,0.0063678283908543245,0.000526448357008168,0.05610350858569794,8.990134193490636,0.8771150517737851,0.11350142890132238,-5.056496779475551,43.7
,,0.04982822817854008,0.0067054314142890575,0.0004550364002290826,0.056988695993058225,8.978973536614287,0.8743528398089622,0.11766248196143747,-5.004837422142517,43.8
,,0.04982822817854008,0.0067054314142890575,0.0004550364002290826,0.056988695993058225,8.967812879737938,0.8743528398089622,0.11766248196143747,-5.004837422142517,43.9
,,0.04982822817854008,0.0067054314142890575,0.0004550364002290826,0.056988695993058225,8.956652222861587,0.8743528398089622,0.11766248196143747,-5.004837422142517,44.0
,,0.04982822817854008,0.0067054314142890575,0.0004550364002290826,0.056988695993058225,8.955036953281276,0.8743528398089622,0.11766248196143747,-5.004837422142517,44.1
,,0.05032849256163115,0.0069069700887396225,0.0005717937760278653,0.05780725642639864,8.951817226297822,0.8706258638257707,0.11948275209244216,-4.975224219456616,44.2
,,0.05032849256163115,0.0069069700887396225,0.0005717937760278653,0.05780725642639864,8.948597499314365,0.8706258638257707,0.11948275209244216,-4.975224219456616,44.3
,,0.05123703951129573,0.007336167008820877,0.0005701098293255898,0.0591433163494422,8.942017177659043,0.8663200285991228,0.1240405080681626,-4.914938778635406,44.4
,,0.05123703951129573,0.007336167008820877,0.0005701098293255898,0.0591433163494422,8.93438456694176,0.8663200285991228,0.1240405080681626,-4.914938778635406,44.5
,,0.05123703951129573,0.007336167008820877,0.0005701098293255898,0.0591433163494422,8.926751956224479,0.8663200285991228,0.1240405080681626,-4.914938778635406,44.6
,,0.05123703951129573,0.007336167008820877,0.0005701098293255898,0.0591433163494422,8.917373507169305,0.8663200285991228,0.1240405080681626,-4.914938778635406,44.7
,,0.05123703951129573,0.007336167008820877,0.0005701098293255898,0.0591433163494422,8.90799505811413,0.8663200285991228,0.1240405080681626,-4.914938778635406,44.8
,,0.04990865182850346,0.005974737401315979,0.0005895099068062513,0.05647289913662569,8.913828934547666,0.8837628772654074,0.10579831198078235,-5.120215131700921,44.9
,,0.04990865182850346,0.005974737401315979,0.0005895099068062513,0.05647289913662569,8.919662810981203,0.8837628772654074,0.10579831198078235,-5.120215131700921,45.0
,,0.05310620304203983,0.008124598412006712,0.000622123466385396,0.061852924920431936,8.905309927156642,0.8585883870545499,0.13135350385544833,-4.81285897820241,45.1
,,0.05310620304203983,0.008124598412006712,0.000622123466385396,0.061852924920431936,8.889756591332569,0.8585883870545499,0.13135350385544833,-4.81285897820241,45.2
,,0.05310620304203983,0.008124598412006712,0.000622123466385396,0.061852924920431936,8.872421295453092,0.8585883870545499,0.13135350385544833,-4.81285897820241,45.3
,,0.05310620304203983,0.008124598412006712,0.000622123466385396,0.061852924920431936,8.855085999573616,0.8585883870545499,0.13135350385544833,-4.81285897820241,45.4
,,0.05310620304203983,0.008124598412006712,0.000622123466385396,0.061852924920431936,8.83775070369414,0.8585883870545499,0.13135350385544833,-4.81285897820241,45.5
,,0.0372898038141382,0.008436805158505098,0.0006680747153996575,0.046394683688042955,8.796897909477142,0.8037516553593551,0.18184853280246568,-4.775151577759147,45.6
,,0.048975954005427196,0.0067443000876959355,0.0006084144859619263,0.056328668579085056,8.787622145450674,0.8694676306198379,0.1197312178296383,-4.99905756228323,45.7
,,0.048975954005427196,0.0067443000876959355,0.0006084144859619263,0.056328668579085056,8.778346381424205,0.8694676306198379,0.1197312178296383,-4.99905756228323,45.8
,,0.048975954005427196,0.0067443000876959355,0.0006084144859619263,0.056328668579085056,8.748002459315163,0.8694676306198379,0.1197312178296383,-4.99905756228323,45.9
,,0.048975954005427196,0.0067443000876959355,0.0006084144859619263,0.056328668579085056,8.71765853720612,0.8694676306198379,0.1197312178296383,-4.99905756228323,46.0
,,0.048975954005427196,0.0067443000876959355,0.0006084144859619263,0.056328668579085056,8.687314615097078,0.8694676306198379,0.1197312178296383,-4.99905756228323,46.1
,,0.05373313190102968,0.00908298144548408,0.0006883937478083582,0.06350450709432211,8.642014852161806,0.8461309969892502,0.14302892599407616,-4.701352787238111,46.2
,,0.05373313190102968,0.00908298144548408,0.0006883937478083582,0.06350450709432211,8.596715089226535,0.8461309969892502,0.14302892599407616,-4.701352787238111,46.3
,,0.05123711254719534,0.00906496925177773,0.0005499388260390321,0.060852020625012104,8.548486514790001,0.8419952537473384,0.14896743211928348,-4.7033378267526444,46.4
,,0.05123711254719534,0.00906496925177773,0.0005499388260390321,0.060852020625012104,8.516419911356177,0.8419952537473384,0.14896743211928348,-4.7033378267526444,46.5
,,0.05123711254719534,0.00906496925177773,0.0005499388260390321,0.060852020625012104,8.483057224223128,0.8419952537473384,0.14896743211928348,-4.7033378267526444,46.6
,,0.05123711254719534,0.00906496925177773,0.0005499388260390321,0.060852020625012104,8.449694537090078,0.8419952537473384,0.14896743211928348,-4.7033378267526444,46.7
,,0.05123711254719534,0.00906496925177773,0.0005499388260390321,0.060852020625012104,8.416331849957025,0.8419952537473384,0.14896743211928348,-4.7033378267526444,46.8
,,0.04479032525529998,0.006915869969254402,0.0006142892862034611,0.052320484510757846,8.392126467377624,0.8560762705874875,0.13218283496270758,-4.973936512775898,46.9
,,0.04479032525529998,0.006915869969254402,0.0006142892862034611,0.052320484510757846,8.367922062134188,0.8560762705874875,0.13218283496270758,-4.973936512775898,47.0
,,0.04479032525529998,0.006915869969254402,0.0006142892862034611,0.052320484510757846,8.376294895219292,0.8560762705874875,0.13218283496270758,-4.973936512775898,47.1
,,0.045353026644711414,0.00863678933150165,0.000503341247180986,0.054493157223394054,8.335775647564734,0.8322701226281901,0.15849309842876663,-4.751724370378748,47.2
,,0.045353026644711414,0.00863678933150165,0.000503341247180986,0.054493157223394054,8.295256399910178,0.8322701226281901,0.15849309842876663,-4.751724370378748,47.3
,,0.045353026644711414,0.00863678933150165,0.000503341247180986,0.054493157223394054,8.25473715225562,0.8322701226281901,0.15849309842876663,-4.751724370378748,47.4
,,0.045353026644711414,0.00863678933150165,0.000503341247180986,0.054493157223394054,8.214217904601064,0.8322701226281901,0.15849309842876663,-4.751724370378748,47.5
,,0.038078679223292805,0.006420597636517017,0.000555619092112599,0.04505489595192243,8.181249347021888,0.8451618501999457,0.14250610285213763,-5.048244075812695,47.6
,,0.038078679223292805,0.006420597636517017,0.000555619092112599,0.04505489595192243,8.14828078944271,0.8451618501999457,0.14250610285213763,-5.048244075812695,47.7
,,0.038078679223292805,0.006420597636517017,0.000555619092112599,0.04505489595192243,8.09067345908955,0.8451618501999457,0.14250610285213763,-5.048244075812695,47.8
,,0.040484404134165375,0.008307879366971381,0.0004632577792048248,0.04925554128034158,8.043818974975453,0.8219258804556704,0.16866892842952363,-4.790550893178241,47.9
,,0.040484404134165375,0.008307879366971381,0.0004632577792048248,0.04925554128034158,7.996964490861355,0.8219258804556704,0.16866892842952363,-4.790550893178241,48.0
,,0.040484404134165375,0.008307879366971381,0.0004632577792048248,0.04925554128034158,7.95011000674726,0.8219258804556704,0.16866892842952363,-4.790550893178241,48.1
,,0.03246557919022581,0.005998228549894585,0.0005078865050723578,0.03897169424519275,7.9092501323188555,0.8330553705457779,0.15391243994054687,-5.116291095030724,48.2
,,0.03246557919022581,0.005998228549894585,0.0005078865050723578,0.03897169424519275,7.868390257890454,0.8330553705457779,0.15391243994054687,-5.116291095030724,48.3
,,0.03246557919022581,0.005998228549894585,0.0005078865050723578,0.03897169424519275,7.801793677040651,0.8330553705457779,0.15391243994054687,-5.116291095030724,48.4
,,0.03246557919022581,0.005998228549894585,0.0005078865050723578,0.03897169424519275,7.7596963096334575,0.8330553705457779,0.15391243994054687,-5.116291095030724,48.5
,,0.03246557919022581,0.005998228549894585,0.0005078865050723578,0.03897169424519275,7.717598942226264,0.8330553705457779,0.15391243994054687,-5.116291095030724,48.6
,,0.03687691717657862,0.008175275215330322,0.0004335837889303852,0.04548577618083933,7.6654822209774185,0.8107351412442831,0.17973256480943858,-4.8066408972816586,48.7
,,0.018077331346438588,0.005659656499741974,0.0004726576274661712,0.024209645473646735,7.598735306597259,0.7466995485793693,0.23377692605630096,-5.174392077700227,48.8
,,0.018077331346438588,0.005659656499741974,0.0004726576274661712,0.024209645473646735,7.531988392217099,0.7466995485793693,0.23377692605630096,-5.174392077700227,48.9
,,0.018077331346438588,0.005659656499741974,0.0004726576274661712,0.024209645473646735,7.465241477836939,0.7466995485793693,0.23377692605630096,-5.174392077700227,49.0
,,0.018077331346438588,0.005659656499741974,0.0004726576274661712,0.024209645473646735,7.3985424925793115,0.7466995485793693,0.23377692605630096,-5.174392077700227,49.1
,,0.018077331346438588,0.005659656499741974,0.0004726576274661712,0.024209645473646735,7.331843507321683,0.7466995485793693,0.23377692605630096,-5.174392077700227,49.2
,,0.018077331346438588,0.005659656499741974,0.0004726576274661712,0.024209645473646735,7.265144522064055,0.7466995485793693,0.23377692605630096,-5.174392077700227,49.3
,,0.03450647823726784,0.008275715487533778,0.0004154640213618622,0.04319765774616348,7.209284847889096,0.7988043805530745,0.19157787526729436,-4.79442989770648,49.4
,,0.02402485601663033,0.005406654702506539,0.00045022414964361135,0.02988173486878048,7.156469226228239,0.8039980316447678,0.18093510053043294,-5.22012473181872,49.5
,,0.02402485601663033,0.005406654702506539,0.00045022414964361135,0.02988173486878048,7.103653604567381,0.8039980316447678,0.18093510053043294,-5.22012473181872,49.6
,,0.02402485601663033,0.005406654702506539,0.00045022414964361135,0.02988173486878048,7.0256648157537,0.8039980316447678,0.18093510053043294,-5.22012473181872,49.7
,,0.02402485601663033,0.005406654702506539,0.00045022414964361135,0.02988173486878048,6.947676026940021,0.8039980316447678,0.18093510053043294,-5.22012473181872,49.8
,,0.02402485601663033,0.005406654702506539,0.00045022414964361135,0.02988173486878048,6.869687238126341,0.8039980316447678,0.18093510053043294,-5.22012473181872,49.9
,,0.02402485601663033,0.005406654702506539,0.00045022414964361135,0.02988173486878048,6.791698449312661,0.8039980316447678,0.18093510053043294,-5.22012473181872,50.0
,,0.02333479020845028,0.005477421262428567,0.0004508772056181161,0.029263088676496962,6.711671957760729,0.797413781792348,0.1871785074699866,-5.207120861325754,50.1
,,0.031279853768146224,0.008759259051299866,0.0004998738633203287,0.04053898668276642,6.623988616161658,0.7715993005183734,0.21607000490279954,-4.737643960796143,50.2
,,0.031279853768146224,0.008759259051299866,0.0004998738633203287,0.04053898668276642,6.5363052745625865,0.7715993005183734,0.21607000490279954,-4.737643960796143,50.3
,,0.031279853768146224,0.008759259051299866,0.0004998738633203287,0.04053898668276642,6.477780233639909,0.7715993005183734,0.21607000490279954,-4.737643960796143,50.4
,,0.031279853768146224,0.008759259051299866,0.0004998738633203287,0.04053898668276642,6.419255192717231,0.7715993005183734,0.21607000490279954,-4.737643960796143,50.5
,,0.031279853768146224,0.008759259051299866,0.0004998738633203287,0.04053898668276642,6.360730151794554,0.7715993005183734,0.21607000490279954,-4.737643960796143,50.6
,,0.031279853768146224,0.008759259051299866,0.0004998738633203287,0.04053898668276642,6.302205110871877,0.7715993005183734,0.21607000490279954,-4.737643960796143,50.7
,,0.019087472059864906,0.005003532640609282,0.00041000209965164427,0.024501006800125832,6.2463882647798235,0.7790484781126168,0.2042174299785748,-5.297611087899674,50.8
,,0.01581470017828995,0.004459537471988809,0.0003710362080319323,0.020645273858310692,6.187587702245496,0.7660203631507552,0.21600766851506964,-5.412710224160092,50.9
,,0.01581470017828995,0.004459537471988809,0.0003710362080319323,0.020645273858310692,6.107722352949655,0.7660203631507552,0.21600766851506964,-5.412710224160092,51.0
,,0.01581470017828995,0.004459537471988809,0.0003710362080319323,0.020645273858310692,6.027857003653815,0.7660203631507552,0.21600766851506964,-5.412710224160092,51.1
,,0.01581470017828995,0.004459537471988809,0.0003710362080319323,0.020645273858310692,5.947991654357973,0.7660203631507552,0.21600766851506964,-5.412710224160092,51.2
,,0.01581470017828995,0.004459537471988809,0.0003710362080319323,0.020645273858310692,5.868126305062133,0.7660203631507552,0.21600766851506964,-5.412710224160092,51.3
,,0.02811560229651605,0.009372954589744523,0.0004462183481149745,0.037934775234375544,5.782187482037051,0.7411564223804441,0.247080799394087,-4.6699269080236645,51.4
,,0.02811560229651605,0.009372954589744523,0.0004462183481149745,0.037934775234375544,5.696248659011967,0.7411564223804441,0.247080799394087,-4.6699269080236645,51.5
,,0.025950642738615255,0.008701503914685276,0.00041927556064540595,0.03507142221394594,5.637743513564113,0.7399369942943499,0.24810809956903246,-4.744259404503889,51.6
,,0.025950642738615255,0.008701503914685276,0.00041927556064540595,0.03507142221394594,5.580384851065052,0.7399369942943499,0.24810809956903246,-4.744259404503889,51.7
,,0.025950642738615255,0.008701503914685276,0.00041927556064540595,0.03507142221394594,5.523026188565991,0.7399369942943499,0.24810809956903246,-4.744259404503889,51.8
,,0.025950642738615255,0.008701503914685276,0.00041927556064540595,0.03507142221394594,5.465667526066929,0.7399369942943499,0.24810809956903246,-4.744259404503889,51.9
,,0.025940191647973093,0.009480541910740386,0.0004089810241885263,0.03582971458290201,5.4055736831624674,0.7239854391793505,0.26459998415015323,-4.658513800768772,52.0
,,0.025940191647973093,0.009480541910740386,0.0004089810241885263,0.03582971458290201,5.3454798402580055,0.7239854391793505,0.26459998415015323,-4.658513800768772,52.1
,,0.024511571765962366,0.008926677220010766,0.0003900472323224566,0.03382829621829559,5.288735711887069,0.724587830489246,0.26388196326550106,-4.718711045161172,52.2
,,0.024511571765962366,0.008926677220010766,0.0003900472323224566,0.03382829621829559,5.231991583516132,0.724587830489246,0.26388196326550106,-4.718711045161172,52.3
,,0.024511571765962366,0.008926677220010766,0.0003900472323224566,0.03382829621829559,5.176637027399144,0.724587830489246,0.26388196326550106,-4.718711045161172,52.4
,,0.024511571765962366,0.008926677220010766,0.0003900472323224566,0.03382829621829559,5.121282471282156,0.724587830489246,0.26388196326550106,-4.718711045161172,52.5
,,0.024514283951719222,0.009702508765403215,0.00037946465339364457,0.03459625737051609,5.0634914009631835,0.7085819627590986,0.28044966429438023,-4.635370791304644,52.6
,,0.024514283951719222,0.009702508765403215,0.00037946465339364457,0.03459625737051609,5.005700330644211,0.7085819627590986,0.28044966429438023,-4.635370791304644,52.7
,,0.0233806178362789,0.009143092667252342,0.0003629887409426557,0.0328866992444739,4.951546600040728,0.7109444965112347,0.27801794881524017,-4.694756584528849,52.8
,,0.0233806178362789,0.009143092667252342,0.0003629887409426557,0.0328866992444739,4.897392869437246,0.7109444965112347,0.27801794881524017,-4.694756584528849,52.9
,,0.0233806178362789,0.009143092667252342,0.0003629887409426557,0.0328866992444739,4.843239138833763,0.7109444965112347,0.27801794881524017,-4.694756584528849,53.0
,,0.0233806178362789,0.009143092667252342,0.0003629887409426557,0.0328866992444739,4.789085408230281,0.7109444965112347,0.27801794881524017,-4.694756584528849,53.1
,,0.023149296858496864,0.009803491874677642,0.0003491798245328884,0.033301968557707395,4.734359941390436,0.6951329864594206,0.29438175276904843,-4.625016643027661,53.2
,,0.023149296858496864,0.009803491874677642,0.0003491798245328884,0.033301968557707395,4.679634474550594,0.6951329864594206,0.29438175276904843,-4.625016643027661,53.3
,,0.023149296858496864,0.009803491874677642,0.0003491798245328884,0.033301968557707395,4.628269602382616,0.6951329864594206,0.29438175276904843,-4.625016643027661,53.4
,,0.021777236103030874,0.009046597673755647,0.0003276428852395427,0.031151476662026063,4.5774147040997235,0.6990755635535417,0.29040670437249394,-4.705366539607647,53.5
,,0.021777236103030874,0.009046597673755647,0.0003276428852395427,0.031151476662026063,4.526559805816833,0.6990755635535417,0.29040670437249394,-4.705366539607647,53.6
,,0.021777236103030874,0.009046597673755647,0.0003276428852395427,0.031151476662026063,4.47570490753394,0.6990755635535417,0.29040670437249394,-4.705366539607647,53.7
,,0.006688150453980211,0.003420610233204733,0.0002753643646110041,0.010384125051795949,4.419828023112815,0.6440745292087451,0.32940765024908225,-5.67793631306288,53.8
,,0.006688150453980211,0.003420610233204733,0.0002753643646110041,0.010384125051795949,4.348738813202979,0.6440745292087451,0.32940765024908225,-5.67793631306288,53.9
,,0.020822179023268553,0.00909304522852294,0.00030314513223497015,0.030218369384026465,4.281367947199028,0.6890570023369702,0.3009111813071408,-4.700245418257227,54.0
,,0.020822179023268553,0.00909304522852294,0.00030314513223497015,0.030218369384026465,4.234183841453175,0.6890570023369702,0.3009111813071408,-4.700245418257227,54.1
,,0.020822179023268553,0.00909304522852294,0.00030314513223497015,0.030218369384026465,4.186999735707322,0.6890570023369702,0.3009111813071408,-4.700245418257227,54.2
,,0.020822179023268553,0.00909304522852294,0.00030314513223497015,0.030218369384026465,4.13981562996147,0.6890570023369702,0.3009111813071408,-4.700245418257227,54.3
,,0.020816755845289234,0.00980925970320283,0.0002952838857072678,0.030921299434199332,4.090767657357529,0.6732173688103692,0.3172331008946432,-4.6244284717383275,54.4
,,0.020816755845289234,0.00980925970320283,0.0002952838857072678,0.030921299434199332,4.041719684753588,0.6732173688103692,0.3172331008946432,-4.6244284717383275,54.5
,,0.020400624156519914,0.009320385037895654,0.00028512828423117614,0.030006137478646742,4.016929923144024,0.6798817132340876,0.31061595463689107,-4.6755513380590665,54.6
,,0.020400624156519914,0.009320385037895654,0.00028512828423117614,0.030006137478646742,3.9605631313439327,0.6798817132340876,0.31061595463689107,-4.6755513380590665,54.7
,,0.020400624156519914,0.009320385037895654,0.00028512828423117614,0.030006137478646742,3.9041963395438417,0.6798817132340876,0.31061595463689107,-4.6755513380590665,54.8
,,0.020400624156519914,0.009320385037895654,0.00028512828423117614,0.030006137478646742,3.8478295477437507,0.6798817132340876,0.31061595463689107,-4.6755513380590665,54.9
,,0.020454632799483605,0.010040426526645276,0.0002798733937965664,0.030774932719925444,3.7897784196365554,0.6646523969893234,0.3262534029893925,-4.601135682887326,55.0
,,0.020454632799483605,0.010040426526645276,0.0002798733937965664,0.030774932719925444,3.7317272915293604,0.6646523969893234,0.3262534029893925,-4.601135682887326,55.1
,,0.02040809331482917,0.009656563838015993,0.0002744189114751058,0.030339076064320267,3.6894782635554213,0.6726669352607525,0.31828799985680595,-4.640117404387955,55.2
,,0.02040809331482917,0.009656563838015993,0.0002744189114751058,0.030339076064320267,3.6472292355814817,0.6726669352607525,0.31828799985680595,-4.640117404387955,55.3
,,0.02040809331482917,0.009656563838015993,0.0002744189114751058,0.030339076064320267,3.6079090191088046,0.6726669352607525,0.31828799985680595,-4.640117404387955,55.4
,,0.02040809331482917,0.009656563838015993,0.0002744189114751058,0.030339076064320267,3.5685888026361265,0.6726669352607525,0.31828799985680595,-4.640117404387955,55.5
,,0.004413552779390742,0.00294279155753483,0.00022971247902543463,0.007586056815951007,3.5224507367697413,0.581798012652697,0.38792110696391013,-5.82839663876483,55.6
,,0.004413552779390742,0.00294279155753483,0.00022971247902543463,0.007586056815951007,3.476312670903357,0.581798012652697,0.38792110696391013,-5.82839663876483,55.7
,,0.0028395632380808144,0.002843566592464506,0.00022869690690712732,0.005911826737452447,3.424605802449976,0.4803190898832824,0.48099626710133747,-5.86269617230244,55.8
,,0.0028395632380808144,0.002843566592464506,0.00022869690690712732,0.005911826737452447,3.36374065210698,0.4803190898832824,0.48099626710133747,-5.86269617230244,55.9
,,0.0028395632380808144,0.002843566592464506,0.00022869690690712732,0.005911826737452447,3.3028755017639853,0.4803190898832824,0.48099626710133747,-5.86269617230244,56.0
,,0.0028395632380808144,0.002843566592464506,0.00022869690690712732,0.005911826737452447,3.24201035142099,0.4803190898832824,0.48099626710133747,-5.86269617230244,56.1
,,0.0028395632380808144,0.002843566592464506,0.00022869690690712732,0.005911826737452447,3.1947597723686334,0.4803190898832824,0.48099626710133747,-5.86269617230244,56.2
,,0.020947141318913932,0.010973909941626123,0.00027298313717331917,0.03219403439771337,3.1576227578228044,0.6506528837032532,0.3408678081801876,-4.512234646901159,56.3
,,0.021785675215766544,0.01085684176201402,0.00027828132387505315,0.03292079830165561,3.1215726105635224,0.6617602348564836,0.32978670998594894,-4.522959820581748,56.4
,,0.021785675215766544,0.01085684176201402,0.00027828132387505315,0.03292079830165561,3.08552246330424,0.6617602348564836,0.32978670998594894,-4.522959820581748,56.5
,,0.021785675215766544,0.01085684176201402,0.00027828132387505315,0.03292079830165561,3.0419216259695783,0.6617602348564836,0.32978670998594894,-4.522959820581748,56.6
,,0.021785675215766544,0.01085684176201402,0.00027828132387505315,0.03292079830165561,2.9983207886349166,0.6617602348564836,0.32978670998594894,-4.522959820581748,56.7
,,0.021785675215766544,0.01085684176201402,0.00027828132387505315,0.03292079830165561,2.9547199513002544,0.6617602348564836,0.32978670998594894,-4.522959820581748,56.8
,,0.021785675215766544,0.01085684176201402,0.00027828132387505315,0.03292079830165561,2.9228712624162245,0.6617602348564836,0.32978670998594894,-4.522959820581748,56.9
,,0.005248350370680191,0.0032625004513384894,0.0002506396416966276,0.008761490463715308,2.886601001850374,0.5990248340069104,0.3723682020598841,-5.725261367992036,57.0
,,0.005248350370680191,0.0032625004513384894,0.0002506396416966276,0.008761490463715308,2.8503307412845236,0.5990248340069104,0.3723682020598841,-5.725261367992036,57.1
,,0.005248350370680191,0.0032625004513384894,0.0002506396416966276,0.008761490463715308,2.8080658710329796,0.5990248340069104,0.3723682020598841,-5.725261367992036,57.2
,,0.005248350370680191,0.0032625004513384894,0.0002506396416966276,0.008761490463715308,2.765801000781436,0.5990248340069104,0.3723682020598841,-5.725261367992036,57.3
,,0.005248350370680191,0.0032625004513384894,0.0002506396416966276,0.008761490463715308,2.723536130529892,0.5990248340069104,0.3723682020598841,-5.725261367992036,57.4
,,0.005248350370680191,0.0032625004513384894,0.0002506396416966276,0.008761490463715308,2.681271260278348,0.5990248340069104,0.3723682020598841,-5.725261367992036,57.5
,,0.005650404559150312,0.0034286866045794145,0.00025339279881901475,0.009332483962548741,2.639442942874252,0.6054555873683133,0.36739271327320083,-5.675578005251408,57.6
,,0.024920513212713394,0.01280284733370946,0.00031380193300255927,0.038037162479425415,2.610950677103853,0.6551622568111668,0.33658786563363174,-4.35808768484839,57.7
,,0.024920513212713394,0.01280284733370946,0.00031380193300255927,0.038037162479425415,2.59708860446477,0.6551622568111668,0.33658786563363174,-4.35808768484839,57.8
,,0.024920513212713394,0.01280284733370946,0.00031380193300255927,0.038037162479425415,2.583226531825687,0.6551622568111668,0.33658786563363174,-4.35808768484839,57.9
,,0.024920513212713394,0.01280284733370946,0.00031380193300255927,0.038037162479425415,2.5693644591866045,0.6551622568111668,0.33658786563363174,-4.35808768484839,58.0
,,0.024920513212713394,0.01280284733370946,0.00031380193300255927,0.038037162479425415,2.5555023865475217,0.6551622568111668,0.33658786563363174,-4.35808768484839,58.1
,,0.006953229835002087,0.0038752949796235165,0.00028060558043945454,0.011109130395065057,2.5399487939571337,0.6259022612688819,0.3488387337090773,-5.553133495300283,58.2
,,0.027097540452695718,0.01395199130443478,0.0003420710008686175,0.041391602757999114,2.526039128801672,0.6546627491359704,0.33707299004599417,-4.272133035064361,58.3
,,0.027097540452695718,0.01395199130443478,0.0003420710008686175,0.041391602757999114,2.5012901525635405,0.6546627491359704,0.33707299004599417,-4.272133035064361,58.4
,,0.027097540452695718,0.01395199130443478,0.0003420710008686175,0.041391602757999114,2.4734971238113084,0.6546627491359704,0.33707299004599417,-4.272133035064361,58.5
,,0.027097540452695718,0.01395199130443478,0.0003420710008686175,0.041391602757999114,2.4457040950590763,0.6546627491359704,0.33707299004599417,-4.272133035064361,58.6
,,0.027097540452695718,0.01395199130443478,0.0003420710008686175,0.041391602757999114,2.417911066306844,0.6546627491359704,0.33707299004599417,-4.272133035064361,58.7
,,0.026984127333584844,0.01466356559933036,0.0003510925784669777,0.04199878551138218,2.388984895054431,0.6424978009488349,0.34914261021563003,-4.222389392497108,58.8
,,0.026984127333584844,0.01466356559933036,0.0003510925784669777,0.04199878551138218,2.3600587238020174,0.6424978009488349,0.34914261021563003,-4.222389392497108,58.9
,,0.028912364343892286,0.014830491632094614,0.0002846983220225356,0.04402755429800943,2.3323470601721232,0.6566879492826942,0.3368456837668389,-4.211069972195364,59.0
,,0.028912364343892286,0.014830491632094614,0.0002846983220225356,0.04402755429800943,2.3066730992804807,0.6566879492826942,0.3368456837668389,-4.211069972195364,59.1
,,0.028912364343892286,0.014830491632094614,0.0002846983220225356,0.04402755429800943,2.288655988435978,0.6566879492826942,0.3368456837668389,-4.211069972195364,59.2
,,0.028912364343892286,0.014830491632094614,0.0002846983220225356,0.04402755429800943,2.270638877591475,0.6566879492826942,0.3368456837668389,-4.211069972195364,59.3
,,0.028107695067563804,0.01518670299784871,0.00037118401685192517,0.04366558208226444,2.2515249658577714,0.6437036614927034,0.34779573003830544,-4.1873350367662665,59.4
,,0.028107695067563804,0.01518670299784871,0.00037118401685192517,0.04366558208226444,2.2324110541240674,0.6437036614927034,0.34779573003830544,-4.1873350367662665,59.5
,,0.028107695067563804,0.01518670299784871,0.00037118401685192517,0.04366558208226444,2.213297142390364,0.6437036614927034,0.34779573003830544,-4.1873350367662665,59.6
,,0.028107695067563804,0.01518670299784871,0.00037118401685192517,0.04366558208226444,2.1941832306566598,0.6437036614927034,0.34779573003830544,-4.1873350367662665,59.7
,,0.029010274941465415,0.014862397053363549,0.0002907304686868179,0.04416340246351578,2.173484621952494,0.6568849618285492,0.3365319749908684,-4.208920943592183,59.8
,,0.029010274941465415,0.014862397053363549,0.0002907304686868179,0.04416340246351578,2.1557697296906024,0.6568849618285492,0.3365319749908684,-4.208920943592183,59.9
,,0.02746053473231723,0.014843455284628226,0.000371785955012831,0.04267577597195829,2.1369224511119307,0.6434689026008853,0.3478192240577341,-4.210196232453582,60.0
,,0.02746053473231723,0.014843455284628226,0.000371785955012831,0.04267577597195829,2.118075172533259,0.6434689026008853,0.3478192240577341,-4.210196232453582,60.1
,,0.02746053473231723,0.014843455284628226,0.000371785955012831,0.04267577597195829,2.0992278939545876,0.6434689026008853,0.3478192240577341,-4.210196232453582,60.2
,,0.02746053473231723,0.014843455284628226,0.000371785955012831,0.04267577597195829,2.080380615375916,0.6434689026008853,0.3478192240577341,-4.210196232453582,60.3
,,0.02746053473231723,0.014843455284628226,0.000371785955012831,0.04267577597195829,2.0676068105264864,0.6434689026008853,0.3478192240577341,-4.210196232453582,60.4
,,0.028217384937284457,0.014524755258237442,0.00029050136014293287,0.04303264155566484,2.0558630083544647,0.6557204930304797,0.33752878589730445,-4.231900826077173,60.5
,,0.02667627925438701,0.014493394808797555,0.000372598381995591,0.041542272445180155,2.0431770625067935,0.6421478095496449,0.34888305226738064,-4.234062263768868,60.6
,,0.02667627925438701,0.014493394808797555,0.000372598381995591,0.041542272445180155,2.030491116659122,0.6421478095496449,0.34888305226738064,-4.234062263768868,60.7
,,0.02667627925438701,0.014493394808797555,0.000372598381995591,0.041542272445180155,2.0178051708114504,0.6421478095496449,0.34888305226738064,-4.234062263768868,60.8
,,0.02667627925438701,0.014493394808797555,0.000372598381995591,0.041542272445180155,2.0051192249637793,0.6421478095496449,0.34888305226738064,-4.234062263768868,60.9
,,0.02667627925438701,0.014493394808797555,0.000372598381995591,0.041542272445180155,1.9951684595215085,0.6421478095496449,0.34888305226738064,-4.234062263768868,61.0
,,0.025300091395097542,0.014517375509906859,0.0003738866688898384,0.04019135357389424,1.984130624081832,0.6294909015338782,0.3612064341952501,-4.232409035929153,61.1
,,0.017822318928138264,0.007119319964302703,0.00045691014778232364,0.02539854904022329,1.9814361263048286,0.701706184078206,0.2803041997803869,-4.944943068751327,61.2
,,0.017822318928138264,0.007119319964302703,0.00045691014778232364,0.02539854904022329,1.9787416285278252,0.701706184078206,0.2803041997803869,-4.944943068751327,61.3
,,0.017822318928138264,0.007119319964302703,0.00045691014778232364,0.02539854904022329,1.9760471307508216,0.701706184078206,0.2803041997803869,-4.944943068751327,61.4
,,0.017822318928138264,0.007119319964302703,0.00045691014778232364,0.02539854904022329,1.973352632973818,0.701706184078206,0.2803041997803869,-4.944943068751327,61.5
,,0.017822318928138264,0.007119319964302703,0.00045691014778232364,0.02539854904022329,1.973094649398799,0.701706184078206,0.2803041997803869,-4.944943068751327,61.6
,,0.024469555299671826,0.014158845933738586,0.0003734253348485364,0.03900182656825894,1.9642238104058565,0.6273951107609409,0.36303032907852456,-4.2574156958926395,61.7
,,0.024469555299671826,0.014158845933738586,0.0003734253348485364,0.03900182656825894,1.955013005858037,0.6273951107609409,0.36303032907852456,-4.2574156958926395,61.8
,,0.01966627101322803,0.007617545053626556,0.00046946789262710417,0.027753283959481692,1.9552854282131977,0.7086105933243695,0.2744736466051284,-4.877301132632034,61.9
,,0.01966627101322803,0.007617545053626556,0.00046946789262710417,0.027753283959481692,1.9555578505683586,0.7086105933243695,0.2744736466051284,-4.877301132632034,62.0
,,0.01966627101322803,0.007617545053626556,0.00046946789262710417,0.027753283959481692,1.9558302729235195,0.7086105933243695,0.2744736466051284,-4.877301132632034,62.1
,,0.01966627101322803,0.007617545053626556,0.00046946789262710417,0.027753283959481692,1.9582788889181868,0.7086105933243695,0.2744736466051284,-4.877301132632034,62.2
,,0.023727029019270277,0.013905072832517188,0.0003730126792581413,0.0380051145310456,1.9510013999456794,0.6243114726016192,0.3658737252629095,-4.275501553444613,62.3
,,0.023727029019270277,0.013905072832517188,0.0003730126792581413,0.0380051145310456,1.9437239109731725,0.6243114726016192,0.3658737252629095,-4.275501553444613,62.4
,,0.023727029019270277,0.013905072832517188,0.0003730126792581413,0.0380051145310456,1.935936448115579,0.6243114726016192,0.3658737252629095,-4.275501553444613,62.5
,,0.024390149004113702,0.013666586767490538,0.0003739874683361031,0.038430723239940345,1.9290189598839922,0.6346523548837475,0.3556161741262029,-4.292801347244208,62.6
,,0.024390149004113702,0.013666586767490538,0.0003739874683361031,0.038430723239940345,1.9221014716524052,0.6346523548837475,0.3556161741262029,-4.292801347244208,62.7
,,0.024390149004113702,0.013666586767490538,0.0003739874683361031,0.038430723239940345,1.920205969559052,0.6346523548837475,0.3556161741262029,-4.292801347244208,62.8
,,0.023152331412656678,0.013720465926190206,0.0003723259676998598,0.03724512330654674,1.9172301888556211,0.6216204796021468,0.3683828836667725,-4.288866697626158,62.9
,,0.023148987292549314,0.013741109080853646,0.00037264203426239854,0.037262738407665356,1.9105051933700687,0.6212368784948803,0.36876272834599155,-4.287363276315006,63.0
,,0.023148987292549314,0.013741109080853646,0.00037264203426239854,0.037262738407665356,1.9037801978845166,0.6212368784948803,0.36876272834599155,-4.287363276315006,63.1
,,0.02382377786137586,0.013522205086654578,0.0003726070803889442,0.03771859002841938,1.8979126953728485,0.6316189932716372,0.3585024009769761,-4.303422123541034,63.2
,,0.02382377786137586,0.013522205086654578,0.0003726070803889442,0.03771859002841938,1.8920451928611806,0.6316189932716372,0.3585024009769761,-4.303422123541034,63.3
,,0.022691376875153955,0.013608924797633027,0.0003711393279844186,0.0366714410007714,1.8869922571822808,0.6187751627943017,0.37110417333605067,-4.2970294663481665,63.4
,,0.022691376875153955,0.013608924797633027,0.0003711393279844186,0.0366714410007714,1.8819393215033813,0.6187751627943017,0.37110417333605067,-4.2970294663481665,63.5
,,0.022691376875153955,0.013608924797633027,0.0003711393279844186,0.0366714410007714,1.8761456731676232,0.6187751627943017,0.37110417333605067,-4.2970294663481665,63.6
,,0.022691376875153955,0.013608924797633027,0.0003711393279844186,0.0366714410007714,1.870352024831865,0.6187751627943017,0.37110417333605067,-4.2970294663481665,63.7
,,0.023371210014010553,0.013396680155897765,0.00036944728990394017,0.037137337459812264,1.8654157428082994,0.6293184060193178,0.36073345781438493,-4.312748352280132,63.8
,,0.023371210014010553,0.013396680155897765,0.00036944728990394017,0.037137337459812264,1.8604794607847335,0.6293184060193178,0.36073345781438493,-4.312748352280132,63.9
,,0.023078605496747923,0.008992785893022463,0.0004324267495951872,0.03250381813936557,1.8663585621475869,0.7100275234679978,0.2766686010383268,-4.711332590514823,64.0
,,0.023078605496747923,0.008992785893022463,0.0004324267495951872,0.03250381813936557,1.8722376635104405,0.7100275234679978,0.2766686010383268,-4.711332590514823,64.1
,,0.023078605496747923,0.008992785893022463,0.0004324267495951872,0.03250381813936557,1.877270505566268,0.7100275234679978,0.2766686010383268,-4.711332590514823,64.2
,,0.023078605496747923,0.008992785893022463,0.0004324267495951872,0.03250381813936557,1.8823033476220956,0.7100275234679978,0.2766686010383268,-4.711332590514823,64.3
,,0.023073253531442715,0.0132680688339636,0.00027726285922035623,0.03661858522462667,1.8781435182096926,0.6300968043933475,0.3623315524773628,-4.322394969942474,64.4
,,0.02202356734371766,0.013375742727406803,0.00035740057124333715,0.0357567106423678,1.8729561805370865,0.6159282257250513,0.3740764317274198,-4.314312456720788,64.5
,,0.02202356734371766,0.013375742727406803,0.00035740057124333715,0.0357567106423678,1.874586692258188,0.6159282257250513,0.3740764317274198,-4.314312456720788,64.6
,,0.022039919229090835,0.013385728233661319,0.0003576660685298768,0.03578331353128203,1.8762171296426762,0.6159272871648228,0.3740773816812526,-4.313566196791171,64.7
,,0.02202356734371766,0.013375742727406803,0.00035740057124333715,0.0357567106423678,1.8834164439507735,0.6159282257250513,0.3740764317274198,-4.314312456720788,64.8
,,0.02202356734371766,0.013375742727406803,0.00035740057124333715,0.0357567106423678,1.8906157582588707,0.6159282257250513,0.3740764317274198,-4.314312456720788,64.9
,,0.023102271607149234,0.008625206108924447,0.0002897597192447549,0.03201723743531844,1.909280959389445,0.7215573065546548,0.2693925772437169,-4.753066419663343,65.0
,,0.02189630708645865,0.013300128450366419,0.0003447751715630338,0.0355412107083881,1.9164779687493554,0.6160821944450781,0.3742170901124493,-4.31998158587878,65.1
,,0.02189630708645865,0.013300128450366419,0.0003447751715630338,0.0355412107083881,1.9236749781092657,0.6160821944450781,0.3742170901124493,-4.31998158587878,65.2
,,0.02189630708645865,0.013300128450366419,0.0003447751715630338,0.0355412107083881,1.9207584229626475,0.6160821944450781,0.3742170901124493,-4.31998158587878,65.3
,,0.02189630708645865,0.013300128450366419,0.0003447751715630338,0.0355412107083881,1.9167550005294829,0.6160821944450781,0.3742170901124493,-4.31998158587878,65.4
,,0.02189630708645865,0.013300128450366419,0.0003447751715630338,0.0355412107083881,1.912751578096318,0.6160821944450781,0.3742170901124493,-4.31998158587878,65.5
,,0.021281290023676513,0.012902629809933211,0.00031992601406188035,0.034503845847671605,1.908782079912632,0.6167802313292743,0.37394758447785925,-4.350324127156256,65.6
,,0.021281290023676513,0.012902629809933211,0.00031992601406188035,0.034503845847671605,1.9048125817289452,0.6167802313292743,0.37394758447785925,-4.350324127156256,65.7
,,0.021281290023676513,0.012902629809933211,0.00031992601406188035,0.034503845847671605,1.9008430835452588,0.6167802313292743,0.37394758447785925,-4.350324127156256,65.8
,,0.021281290023676513,0.012902629809933211,0.00031992601406188035,0.034503845847671605,1.8968735853615726,0.6167802313292743,0.37394758447785925,-4.350324127156256,65.9
,,0.021281290023676513,0.012902629809933211,0.00031992601406188035,0.034503845847671605,1.897325658859707,0.6167802313292743,0.37394758447785925,-4.350324127156256,66.0
,,0.019397047406549572,0.012412153558092292,0.0002981111901066947,0.03210731215474856,1.8968151786669192,0.6041317726336309,0.3865833894244734,-4.389079160728068,66.1
,,0.019713771963020058,0.011945416849697294,0.00027942314014840525,0.03193861195286576,1.8972777500797402,0.6172394715247229,0.37401177193692875,-4.427407601391977,66.2
,,0.019713771963020058,0.011945416849697294,0.00027942314014840525,0.03193861195286576,1.8977403214925614,0.6172394715247229,0.37401177193692875,-4.427407601391977,66.3
,,0.019713771963020058,0.011945416849697294,0.00027942314014840525,0.03193861195286576,1.8982028929053825,0.6172394715247229,0.37401177193692875,-4.427407601391977,66.4
,,0.019713771963020058,0.011945416849697294,0.00027942314014840525,0.03193861195286576,1.8986654643182037,0.6172394715247229,0.37401177193692875,-4.427407601391977,66.5
,,0.019713771963020058,0.011945416849697294,0.00027942314014840525,0.03193861195286576,1.898691482883577,0.6172394715247229,0.37401177193692875,-4.427407601391977,66.6
,,0.018139038472780596,0.011633518773173694,0.00026209743079751494,0.030034654676751805,1.8943884018838137,0.6039369744051374,0.38733652503681254,-4.453864798181488,66.7
,,0.018139038472780596,0.011633518773173694,0.00026209743079751494,0.030034654676751805,1.8900853208840507,0.6039369744051374,0.38733652503681254,-4.453864798181488,66.8
,,0.01845466314118367,0.011181834229727797,0.00024393466967898323,0.02988043204059045,1.8867956826223706,0.6176170115651044,0.3742192955757155,-4.493464761230212,66.9
,,0.01845466314118367,0.011181834229727797,0.00024393466967898323,0.02988043204059045,1.8835060443606908,0.6176170115651044,0.3742192955757155,-4.493464761230212,67.0
,,0.01845466314118367,0.011181834229727797,0.00024393466967898323,0.02988043204059045,1.880216406099011,0.6176170115651044,0.3742192955757155,-4.493464761230212,67.1
,,0.01845466314118367,0.011181834229727797,0.00024393466967898323,0.02988043204059045,1.878618287788636,0.6176170115651044,0.3742192955757155,-4.493464761230212,67.2
,,0.017368881132913586,0.007711793554832283,0.0002001346740070482,0.025280809361752917,1.882063292871867,0.6870381752567934,0.30504535849629,-4.865004491374485,67.3
,,0.017368881132913586,0.007711793554832283,0.0002001346740070482,0.025280809361752917,1.8855082979550977,0.6870381752567934,0.30504535849629,-4.865004491374485,67.4
,,0.017562012644209223,0.010693918563349164,0.00021552838964308132,0.028471459597201466,1.8821754557157153,0.616828673087608,0.37560134656392175,-4.53808005765673,67.5
,,0.017562012644209223,0.010693918563349164,0.00021552838964308132,0.028471459597201466,1.8788426134763325,0.616828673087608,0.37560134656392175,-4.53808005765673,67.6
,,0.017562012644209223,0.010693918563349164,0.00021552838964308132,0.028471459597201466,1.87550977123695,0.616828673087608,0.37560134656392175,-4.53808005765673,67.7
,,0.017562012644209223,0.010693918563349164,0.00021552838964308132,0.028471459597201466,1.8733100714977486,0.616828673087608,0.37560134656392175,-4.53808005765673,67.8
,,0.01660607039376996,0.010816996881415877,0.00020829216895444928,0.027631359444140288,1.8699208171607122,0.6009863693945601,0.39147537794090725,-4.526636596638004,67.9
,,0.01660607039376996,0.010816996881415877,0.00020829216895444928,0.027631359444140288,1.8653170552011566,0.6009863693945601,0.39147537794090725,-4.526636596638004,68.0
,,0.017094936979905932,0.010558555770473549,0.0001952443601943672,0.02784873711057385,1.8616452609814496,0.6138496303092745,0.37913948228785516,-4.550818774216794,68.1
,,0.017094936979905932,0.010558555770473549,0.0001952443601943672,0.02784873711057385,1.8579734667617427,0.6138496303092745,0.37913948228785516,-4.550818774216794,68.2
,,0.017094936979905932,0.010558555770473549,0.0001952443601943672,0.02784873711057385,1.8543016725420356,0.6138496303092745,0.37913948228785516,-4.550818774216794,68.3
,,0.017094936979905932,0.010558555770473549,0.0001952443601943672,0.02784873711057385,1.851726679211529,0.6138496303092745,0.37913948228785516,-4.550818774216794,68.4
,,0.017094936979905932,0.010558555770473549,0.0001952443601943672,0.02784873711057385,1.8491516858810229,0.6138496303092745,0.37913948228785516,-4.550818774216794,68.5
,,0.017094936979905932,0.010558555770473549,0.0001952443601943672,0.02784873711057385,1.8465766925505167,0.6138496303092745,0.37913948228785516,-4.550818774216794,68.6
,,0.0173984583572082,0.011036632363821358,0.00018579984169746382,0.02862089056272702,1.84352801065651,0.6078936753933928,0.38561456847867487,-4.506535324176137,68.7
,,0.0173984583572082,0.011036632363821358,0.00018579984169746382,0.02862089056272702,1.839355830902341,0.6078936753933928,0.38561456847867487,-4.506535324176137,68.8
,,0.0173984583572082,0.011036632363821358,0.00018579984169746382,0.02862089056272702,1.8351836511481723,0.6078936753933928,0.38561456847867487,-4.506535324176137,68.9
,,0.0173984583572082,0.011036632363821358,0.00018579984169746382,0.02862089056272702,1.8321438577107831,0.6078936753933928,0.38561456847867487,-4.506535324176137,69.0
,,0.0173984583572082,0.011036632363821358,0.00018579984169746382,0.02862089056272702,1.8291040642733938,0.6078936753933928,0.38561456847867487,-4.506535324176137,69.1
,,0.0173984583572082,0.011036632363821358,0.00018579984169746382,0.02862089056272702,1.8260642708360046,0.6078936753933928,0.38561456847867487,-4.506535324176137,69.2
,,0.017975018004265386,0.01082225084497846,0.00012737248536486535,0.028924641334608713,1.8239634037821828,0.6214430732718556,0.37415332898283843,-4.5261510008601595,69.3
,,0.02304151311703375,0.010970748397115699,0.00017770247484864062,0.03418996398899809,1.8267440540415145,0.6739262177768958,0.32087627821561765,-4.512522784860155,69.4
,,0.018006629831533918,0.011739920539689587,0.00018007614209683727,0.029926626513320342,1.822200554332218,0.6016926038596153,0.3922901411712459,-4.444760232944991,69.5
,,0.018006629831533918,0.011739920539689587,0.00018007614209683727,0.029926626513320342,1.8187918101817029,0.6016926038596153,0.3922901411712459,-4.444760232944991,69.6
,,0.018006629831533918,0.011739920539689587,0.00018007614209683727,0.029926626513320342,1.8153830660311883,0.6016926038596153,0.3922901411712459,-4.444760232944991,69.7
,,0.018006629831533918,0.011739920539689587,0.00018007614209683727,0.029926626513320342,1.811974321880673,0.6016926038596153,0.3922901411712459,-4.444760232944991,69.8
,,0.01857175798977724,0.011549281588051007,0.00017192976498776346,0.030292969342816008,1.8093905729634325,0.6130715605857747,0.38125287281518755,-4.461132044117589,69.9
,,0.01857175798977724,0.011549281588051007,0.00017192976498776346,0.030292969342816008,1.8068068240461919,0.6130715605857747,0.38125287281518755,-4.461132044117589,70.0
,,0.01857175798977724,0.011549281588051007,0.00017192976498776346,0.030292969342816008,1.8053101451263578,0.6130715605857747,0.38125287281518755,-4.461132044117589,70.1
,,0.01857175798977724,0.011549281588051007,0.00017192976498776346,0.030292969342816008,1.79536204129975,0.6130715605857747,0.38125287281518755,-4.461132044117589,70.2
,,0.02994278071796451,0.015102622948338676,0.0002243508515202958,0.04526975451782348,1.7895759017346438,0.661430154346773,0.33361397933784936,-4.192886845058266,70.3
,,0.02994278071796451,0.015102622948338676,0.0002243508515202958,0.04526975451782348,1.7837897621695378,0.661430154346773,0.33361397933784936,-4.192886845058266,70.4
,,0.01849284439960704,0.011786212130760197,0.00016359944862840505,0.03044265597899564,1.773408092951407,0.6074648812628718,0.3871610985221614,-4.440824894191123,70.5
,,0.01849284439960704,0.011786212130760197,0.00016359944862840505,0.03044265597899564,1.763026423733276,0.6074648812628718,0.3871610985221614,-4.440824894191123,70.6
,,0.01849284439960704,0.011786212130760197,0.00016359944862840505,0.03044265597899564,1.7612576099330688,0.6074648812628718,0.3871610985221614,-4.440824894191123,70.7
,,0.01849284439960704,0.011786212130760197,0.00016359944862840505,0.03044265597899564,1.7594887961328614,0.6074648812628718,0.3871610985221614,-4.440824894191123,70.8
,,0.01849284439960704,0.011786212130760197,0.00016359944862840505,0.03044265597899564,1.7482367554296738,0.6074648812628718,0.3871610985221614,-4.440824894191123,70.9
,,0.03461127548524828,0.018113063939090516,0.0002529092826688814,0.05297724870700768,1.7407827417694193,0.6533233856040169,0.34190269183787514,-4.0111218364665175,71.0
,,0.01801257333803898,0.011632299817453756,0.00015297954510897987,0.029797852700601715,1.7293026206148758,0.6044923276526986,0.3903737606307069,-4.453969583295006,71.1
,,0.01801257333803898,0.011632299817453756,0.00015297954510897987,0.029797852700601715,1.7178224994603322,0.6044923276526986,0.3903737606307069,-4.453969583295006,71.2
,,0.01801257333803898,0.011632299817453756,0.00015297954510897987,0.029797852700601715,1.7160684832729631,0.6044923276526986,0.3903737606307069,-4.453969583295006,71.3
,,0.01801257333803898,0.011632299817453756,0.00015297954510897987,0.029797852700601715,1.714314467085594,0.6044923276526986,0.3903737606307069,-4.453969583295006,71.4
,,0.01801257333803898,0.011632299817453756,0.00015297954510897987,0.029797852700601715,1.712560450898225,0.6044923276526986,0.3903737606307069,-4.453969583295006,71.5
,,0.01801257333803898,0.011632299817453756,0.00015297954510897987,0.029797852700601715,1.7099364600848495,0.6044923276526986,0.3903737606307069,-4.453969583295006,71.6
,,0.01762227079685353,0.011357803257806704,0.00014335772113011408,0.02912343177579035,1.7073464687729645,0.6050890888313006,0.38998849260780416,-4.477850259581597,71.7
,,0.01762227079685353,0.011357803257806704,0.00014335772113011408,0.02912343177579035,1.70475647746108,0.6050890888313006,0.38998849260780416,-4.477850259581597,71.8
,,0.01762227079685353,0.011357803257806704,0.00014335772113011408,0.02912343177579035,1.7032467647592726,0.6050890888313006,0.38998849260780416,-4.477850259581597,71.9
