HRV_ULF,HRV_VLF,HRV_LF,HRV_HF,HRV_VHF,HRV_TP,HRV_LFHF,HRV_LFn,HRV_HFn,HRV_LnHF,time
,,0.035680835230479636,0.023981109428108563,0.0016325932517073539,0.06129453791029555,1.4878725831031685,0.5821209596636241,0.39124382442045447,-3.7304888657278203,0.0
,,0.035680835230479636,0.023981109428108563,0.0016325932517073539,0.06129453791029555,1.4878725831031685,0.5821209596636241,0.39124382442045447,-3.7304888657278203,0.1
,,0.035680835230479636,0.023981109428108563,0.0016325932517073539,0.06129453791029555,1.4878725831031685,0.5821209596636241,0.39124382442045447,-3.7304888657278203,0.2
,,0.035680835230479636,0.023981109428108563,0.0016325932517073539,0.06129453791029555,1.4878725831031685,0.5821209596636241,0.39124382442045447,-3.7304888657278203,0.3
,,0.035680835230479636,0.023981109428108563,0.0016325932517073539,0.06129453791029555,1.4878725831031685,0.5821209596636241,0.39124382442045447,-3.7304888657278203,0.4
,,0.035680835230479636,0.023981109428108563,0.0016325932517073539,0.06129453791029555,1.4878725831031685,0.5821209596636241,0.39124382442045447,-3.7304888657278203,0.5
,,0.036221793935658296,0.023639163618965498,0.002116152905618727,0.06197711046024253,1.4942163566117048,0.5844382493258392,0.38141764666698524,-3.7448504669785203,0.6
,,0.036221793935658296,0.023639163618965498,0.002116152905618727,0.06197711046024253,1.4989741867431072,0.5844382493258392,0.38141764666698524,-3.7448504669785203,0.7
,,0.03735554127338548,0.023926763309544862,0.0016560992837387207,0.06293840386666906,1.5058931738427086,0.5935253990952929,0.3801615840184343,-3.73275764281057,0.8
,,0.03735554127338548,0.023926763309544862,0.0016560992837387207,0.06293840386666906,1.51142836352239,0.5935253990952929,0.3801615840184343,-3.73275764281057,0.9
,,0.03735554127338548,0.023926763309544862,0.0016560992837387207,0.06293840386666906,1.5159571550784927,0.5935253990952929,0.3801615840184343,-3.73275764281057,1.0
,,0.03735554127338548,0.023926763309544862,0.0016560992837387207,0.06293840386666906,1.519731148041912,0.5935253990952929,0.3801615840184343,-3.73275764281057,1.1
,,0.03735554127338548,0.023926763309544862,0.0016560992837387207,0.06293840386666906,1.5229245267032665,0.5935253990952929,0.3801615840184343,-3.73275764281057,1.2
,,0.03735554127338548,0.023926763309544862,0.0016560992837387207,0.06293840386666906,1.525661708412999,0.5935253990952929,0.3801615840184343,-3.73275764281057,1.3
,,0.03758450474596299,0.023350491468768365,0.002108831915309863,0.06304382813004122,1.5312563202496412,0.5961646978104979,0.3703850505493264,-3.7571372471757427,1.4
,,0.03845268080889233,0.02346889859878303,0.0020841183495257476,0.06400569775720111,1.537956095405308,0.6007696526449651,0.36666889700679195,-3.752079198265395,1.5
,,0.03845268080889233,0.02346889859878303,0.0020841183495257476,0.06400569775720111,1.5438676617191316,0.6007696526449651,0.36666889700679195,-3.752079198265395,1.6
,,0.03845268080889233,0.02346889859878303,0.0020841183495257476,0.06400569775720111,1.5491223873314195,0.6007696526449651,0.36666889700679195,-3.752079198265395,1.7
,,0.03845268080889233,0.02346889859878303,0.0020841183495257476,0.06400569775720111,1.5538239839318875,0.6007696526449651,0.36666889700679195,-3.752079198265395,1.8
,,0.03845268080889233,0.02346889859878303,0.0020841183495257476,0.06400569775720111,1.5580554208723085,0.6007696526449651,0.36666889700679195,-3.752079198265395,1.9
,,0.03845268080889233,0.02346889859878303,0.0020841183495257476,0.06400569775720111,1.561883863818404,0.6007696526449651,0.36666889700679195,-3.752079198265395,2.0
,,0.03845268080889233,0.02346889859878303,0.0020841183495257476,0.06400569775720111,1.5653642664966725,0.6007696526449651,0.36666889700679195,-3.752079198265395,2.1
,,0.03888729369375898,0.02309158653498249,0.0021202958001199064,0.06409917602886138,1.5705243414067154,0.6066738467316574,0.3602477904643461,-3.7682869470631624,2.2
,,0.038866392765951246,0.02276052718231179,0.0020816661090079644,0.063708586057271,1.5762367728051014,0.6100652230927273,0.3572599643296298,-3.78272750732478,2.3
,,0.038866392765951246,0.02276052718231179,0.0020816661090079644,0.063708586057271,1.5814922096916166,0.6100652230927273,0.3572599643296298,-3.78272750732478,2.4
,,0.038866392765951246,0.02276052718231179,0.0020816661090079644,0.063708586057271,1.586343382202246,0.6100652230927273,0.3572599643296298,-3.78272750732478,2.5
,,0.038866392765951246,0.02276052718231179,0.0020816661090079644,0.063708586057271,1.590835208600977,0.6100652230927273,0.3572599643296298,-3.78272750732478,2.6
,,0.038866392765951246,0.02276052718231179,0.0020816661090079644,0.063708586057271,1.5950061902569412,0.6100652230927273,0.3572599643296298,-3.78272750732478,2.7
,,0.049939127945415225,0.02633630699478391,0.0024978976507878765,0.07877333259098701,1.60539247518056,0.6339598224784144,0.33433023751234847,-3.63680679770609,2.8
,,0.03868864594496954,0.022123687451892807,0.0020712289250214106,0.06288356232188376,1.6101708295926962,0.6152425930791411,0.35181988161942385,-3.811106414056129,2.9
,,0.03800585895218774,0.021562149023729382,0.0020369068605370273,0.06160491483645415,1.6150885205909216,0.6169290072567086,0.3500069609863364,-3.8368158614834096,3.0
,,0.03800585895218774,0.021562149023729382,0.0020369068605370273,0.06160491483645415,1.619698855901758,0.6169290072567086,0.3500069609863364,-3.8368158614834096,3.1
,,0.03800585895218774,0.021562149023729382,0.0020369068605370273,0.06160491483645415,1.6240297769513314,0.6169290072567086,0.3500069609863364,-3.8368158614834096,3.2
,,0.03800585895218774,0.021562149023729382,0.0020369068605370273,0.06160491483645415,1.6281059379391654,0.6169290072567086,0.3500069609863364,-3.8368158614834096,3.3
,,0.03800585895218774,0.021562149023729382,0.0020369068605370273,0.06160491483645415,1.6319491754419804,0.6169290072567086,0.3500069609863364,-3.8368158614834096,3.4
,,0.03862218395191822,0.021515936300214165,0.0020584643691056756,0.06219658462123806,1.6364797571246252,0.6209695305155073,0.3459343697285138,-3.8389613951530395,3.5
,,0.04960699015375718,0.025265526005918613,0.002718649821311573,0.07759116598098736,1.6453161415217106,0.6393381195729508,0.32562374448799464,-3.6783144209054695,3.6
,,0.03727883121309326,0.020684708799942008,0.0020139997126660232,0.05997753972570129,1.6494457442575015,0.6215465219744369,0.3448742461684919,-3.878360557004839,3.7
,,0.03727883121309326,0.020684708799942008,0.0020139997126660232,0.05997753972570129,1.653363572494021,0.6215465219744369,0.3448742461684919,-3.878360557004839,3.8
,,0.03727883121309326,0.020684708799942008,0.0020139997126660232,0.05997753972570129,1.6570855093187145,0.6215465219744369,0.3448742461684919,-3.878360557004839,3.9
,,0.03727883121309326,0.020684708799942008,0.0020139997126660232,0.05997753972570129,1.6606258882495202,0.6215465219744369,0.3448742461684919,-3.878360557004839,4.0
,,0.03727883121309326,0.020684708799942008,0.0020139997126660232,0.05997753972570129,1.6639976777074308,0.6215465219744369,0.3448742461684919,-3.878360557004839,4.1
,,0.03727883121309326,0.020684708799942008,0.0020139997126660232,0.05997753972570129,1.6672126397486944,0.6215465219744369,0.3448742461684919,-3.878360557004839,4.2
,,0.037247445841378055,0.020282857752729495,0.001984542217245874,0.05951484581135342,1.6710578135981384,0.6258513373191417,0.3408033319454591,-3.8979791953578458,4.3
,,0.037247445841378055,0.020282857752729495,0.001984542217245874,0.05951484581135342,1.6747320908320515,0.6258513373191417,0.3408033319454591,-3.8979791953578458,4.4
,,0.04920687084814834,0.02520732250581745,0.00313555695843353,0.07754975031239932,1.6807615318218148,0.6345200422944589,0.3250471136821583,-3.6806207510460043,4.5
,,0.04920687084814834,0.02520732250581745,0.00313555695843353,0.07754975031239932,1.6865344008545666,0.6345200422944589,0.3250471136821583,-3.6806207510460043,4.6
,,0.04920687084814834,0.02520732250581745,0.00313555695843353,0.07754975031239932,1.6920667336776207,0.6345200422944589,0.3250471136821583,-3.6806207510460043,4.7
,,0.04920687084814834,0.02520732250581745,0.00313555695843353,0.07754975031239932,1.6973732569976931,0.6345200422944589,0.3250471136821583,-3.6806207510460043,4.8
,,0.04891092805240835,0.02463657541593908,0.0032234931906463373,0.07677099665899377,1.7031317389925544,0.6371016422994217,0.32090993328341644,-3.7035231347188247,4.9
,,0.04891092805240835,0.02463657541593908,0.0032234931906463373,0.07677099665899377,1.708664398164088,0.6371016422994217,0.32090993328341644,-3.7035231347188247,5.0
,,0.04891092805240835,0.02463657541593908,0.0032234931906463373,0.07677099665899377,1.7139842627521011,0.6371016422994217,0.32090993328341644,-3.7035231347188247,5.1
,,0.03362770682597465,0.018380395940950974,0.001489365324782387,0.05349746809170801,1.7161645979051403,0.6285850158053905,0.3435750624579539,-3.9964706203415186,5.2
,,0.03362770682597465,0.018380395940950974,0.001489365324782387,0.05349746809170801,1.7182641799043628,0.6285850158053905,0.3435750624579539,-3.9964706203415186,5.3
,,0.03362770682597465,0.018380395940950974,0.001489365324782387,0.05349746809170801,1.7202874134672503,0.6285850158053905,0.3435750624579539,-3.9964706203415186,5.4
,,0.03362770682597465,0.018380395940950974,0.001489365324782387,0.05349746809170801,1.722238388688606,0.6285850158053905,0.3435750624579539,-3.9964706203415186,5.5
,,0.04866625074030886,0.025003950108353323,0.003526842927720604,0.07719704377638278,1.7261700397477848,0.6304159895200226,0.3238977671318923,-3.6887214622611735,5.6
,,0.04866625074030886,0.025003950108353323,0.003526842927720604,0.07719704377638278,1.729966116632509,0.6304159895200226,0.3238977671318923,-3.6887214622611735,5.7
,,0.04866625074030886,0.025003950108353323,0.003526842927720604,0.07719704377638278,1.7336335129448701,0.6304159895200226,0.3238977671318923,-3.6887214622611735,5.8
,,0.04704706843962868,0.025270376072041596,0.002891672866854321,0.07520911737852459,1.7357687519741503,0.6255500673255158,0.336001497595787,-3.678122475538376,5.9
,,0.04704706843962868,0.025270376072041596,0.002891672866854321,0.07520911737852459,1.7378339831664054,0.6255500673255158,0.336001497595787,-3.678122475538376,6.0
,,0.04704706843962868,0.025270376072041596,0.002891672866854321,0.07520911737852459,1.7398325939976198,0.6255500673255158,0.336001497595787,-3.678122475538376,6.1
,,0.03303591988105077,0.017797862601049194,0.001785538220557922,0.05261932070265789,1.7416792741216256,0.6278287032196915,0.3382381673382225,-4.028676907486851,6.2
,,0.03303591988105077,0.017797862601049194,0.001785538220557922,0.05261932070265789,1.7434682454917565,0.6278287032196915,0.3382381673382225,-4.028676907486851,6.3
,,0.03303591988105077,0.017797862601049194,0.001785538220557922,0.05261932070265789,1.74520217158896,0.6278287032196915,0.3382381673382225,-4.028676907486851,6.4
,,0.03303591988105077,0.017797862601049194,0.001785538220557922,0.05261932070265789,1.7468835544710968,0.6278287032196915,0.3382381673382225,-4.028676907486851,6.5
,,0.03303591988105077,0.017797862601049194,0.001785538220557922,0.05261932070265789,1.7485147468194384,0.6278287032196915,0.3382381673382225,-4.028676907486851,6.6
,,0.031179369896509664,0.017289679749815427,0.0013826942831513785,0.04985174392947647,1.7493211696477071,0.6254419091259482,0.3468219642280626,-4.057645501736359,6.7
,,0.03209256066360454,0.017402505527433096,0.0017252405406045475,0.051220306731642185,1.750695275746473,0.6265593221014202,0.33975793270059457,-4.05114108729857,6.8
,,0.03209256066360454,0.017402505527433096,0.0017252405406045475,0.051220306731642185,1.7520301216709884,0.6265593221014202,0.33975793270059457,-4.05114108729857,6.9
,,0.03209256066360454,0.017402505527433096,0.0017252405406045475,0.051220306731642185,1.7533273663018554,0.6265593221014202,0.33975793270059457,-4.05114108729857,7.0
,,0.03209256066360454,0.017402505527433096,0.0017252405406045475,0.051220306731642185,1.754588576359643,0.6265593221014202,0.33975793270059457,-4.05114108729857,7.1
,,0.03209256066360454,0.017402505527433096,0.0017252405406045475,0.051220306731642185,1.755815232717217,0.6265593221014202,0.33975793270059457,-4.05114108729857,7.2
,,0.03209256066360454,0.017402505527433096,0.0017252405406045475,0.051220306731642185,1.757008736200262,0.6265593221014202,0.33975793270059457,-4.05114108729857,7.3
,,0.04132783225938802,0.024889429802863867,0.003052623769374882,0.06926988583162677,1.7557213820303348,0.5966204760296984,0.35931096903150983,-3.693312071548698,7.4
,,0.036969695479358876,0.022309455790656046,0.003557769226353751,0.06283692049636867,1.7544241429308933,0.5883435277751293,0.3550373827110974,-3.8027446639030713,7.5
,,0.036969695479358876,0.022309455790656046,0.003557769226353751,0.06283692049636867,1.7531605983535152,0.5883435277751293,0.3550373827110974,-3.8027446639030713,7.6
,,0.036969695479358876,0.022309455790656046,0.003557769226353751,0.06283692049636867,1.7519294523550444,0.5883435277751293,0.3550373827110974,-3.8027446639030713,7.7
,,0.036969695479358876,0.022309455790656046,0.003557769226353751,0.06283692049636867,1.7507294746096993,0.5883435277751293,0.3550373827110974,-3.8027446639030713,7.8
,,0.036969695479358876,0.022309455790656046,0.003557769226353751,0.06283692049636867,1.7495594963079877,0.5883435277751293,0.3550373827110974,-3.8027446639030713,7.9
,,0.036969695479358876,0.022309455790656046,0.003557769226353751,0.06283692049636867,1.748418406359405,0.5883435277751293,0.3550373827110974,-3.8027446639030713,8.0
,,0.02974183262085619,0.01681530015766602,0.001262524308246411,0.047819657086768615,1.7486661861568769,0.6219582998449723,0.3516399150908739,-4.085466083359512,8.1
,,0.030820946094179163,0.016833523067134627,0.0015845955911552108,0.049239064752468996,1.7496572761522466,0.6259449940635541,0.341873330692995,-4.084382960117525,8.2
,,0.030820946094179163,0.016833523067134627,0.0015845955911552108,0.049239064752468996,1.7506247687667742,0.6259449940635541,0.341873330692995,-4.084382960117525,8.3
,,0.030820946094179163,0.016833523067134627,0.0015845955911552108,0.049239064752468996,1.7515694968491955,0.6259449940635541,0.341873330692995,-4.084382960117525,8.4
,,0.030820946094179163,0.016833523067134627,0.0015845955911552108,0.049239064752468996,1.7524922545110952,0.6259449940635541,0.341873330692995,-4.084382960117525,8.5
,,0.030820946094179163,0.016833523067134627,0.0015845955911552108,0.049239064752468996,1.7533937993531812,0.6259449940635541,0.341873330692995,-4.084382960117525,8.6
,,0.030820946094179163,0.016833523067134627,0.0015845955911552108,0.049239064752468996,1.7542748545397648,0.6259449940635541,0.341873330692995,-4.084382960117525,8.7
,,0.02937463594337633,0.016654743008866123,0.0011949758478647715,0.04722435480010723,1.7543812041574534,0.6220230232411695,0.352672748613779,-4.095060237724763,8.8
,,0.02937463594337633,0.016654743008866123,0.0011949758478647715,0.04722435480010723,1.7544851904503043,0.6220230232411695,0.352672748613779,-4.095060237724763,8.9
,,0.026537609098416008,0.019041528059183247,0.0030482996844305075,0.04862743684202977,1.7534384966510945,0.5457332490014971,0.39157992474580183,-3.9611329976299907,9.0
,,0.026537609098416008,0.019041528059183247,0.0030482996844305075,0.04862743684202977,1.7523918028518846,0.5457332490014971,0.39157992474580183,-3.9611329976299907,9.1
,,0.026537609098416008,0.019041528059183247,0.0030482996844305075,0.04862743684202977,1.7513451090526748,0.5457332490014971,0.39157992474580183,-3.9611329976299907,9.2
,,0.026537609098416008,0.019041528059183247,0.0030482996844305075,0.04862743684202977,1.7502984152534649,0.5457332490014971,0.39157992474580183,-3.9611329976299907,9.3
,,0.026537609098416008,0.019041528059183247,0.0030482996844305075,0.04862743684202977,1.7492517214542551,0.5457332490014971,0.39157992474580183,-3.9611329976299907,9.4
,,0.029291064341396233,0.016476969554872486,0.0011226501634793975,0.04689068405974812,1.752471996121182,0.6246670298960355,0.3513911107348643,-4.105791657643423,9.5
,,0.029291064341396233,0.016476969554872486,0.0011226501634793975,0.04689068405974812,1.7551988661818898,0.6246670298960355,0.3513911107348643,-4.105791657643423,9.6
,,0.030812878377084452,0.016373886148398673,0.001423069907567178,0.0486098344330503,1.7590827717766457,0.6338815743041181,0.3368430758790223,-4.112067521246224,9.7
,,0.030812878377084452,0.016373886148398673,0.001423069907567178,0.0486098344330503,1.7626448321161061,0.6338815743041181,0.3368430758790223,-4.112067521246224,9.8
,,0.030812878377084452,0.016373886148398673,0.001423069907567178,0.0486098344330503,1.766206892455566,0.6338815743041181,0.3368430758790223,-4.112067521246224,9.9
,,0.030812878377084452,0.016373886148398673,0.001423069907567178,0.0486098344330503,1.7697689527950262,0.6338815743041181,0.3368430758790223,-4.112067521246224,10.0
,,0.030812878377084452,0.016373886148398673,0.001423069907567178,0.0486098344330503,1.7733310131344866,0.6338815743041181,0.3368430758790223,-4.112067521246224,10.1
,,0.029373513645497087,0.016196780956670157,0.0010414299979182296,0.046611724600085475,1.776134292534812,0.6301743584369162,0.34748297977887854,-4.122942762866912,10.2
,,0.029373513645497087,0.016196780956670157,0.0010414299979182296,0.046611724600085475,1.7789375719351375,0.6301743584369162,0.34748297977887854,-4.122942762866912,10.3
,,0.029373513645497087,0.016196780956670157,0.0010414299979182296,0.046611724600085475,1.781203786720762,0.6301743584369162,0.34748297977887854,-4.122942762866912,10.4
,,0.030729808584887625,0.01585390143361512,0.0013122000603293588,0.0478959100788321,1.7845355573016017,0.6415956714113854,0.33100741603032724,-4.144339661716869,10.5
,,0.030729808584887625,0.01585390143361512,0.0013122000603293588,0.0478959100788321,1.787867327882441,0.6415956714113854,0.33100741603032724,-4.144339661716869,10.6
,,0.030729808584887625,0.01585390143361512,0.0013122000603293588,0.0478959100788321,1.7911990984632808,0.6415956714113854,0.33100741603032724,-4.144339661716869,10.7
,,0.030729808584887625,0.01585390143361512,0.0013122000603293588,0.0478959100788321,1.7945308690441202,0.6415956714113854,0.33100741603032724,-4.144339661716869,10.8
,,0.029549712460031526,0.01571420330669801,0.0009536829095678479,0.046217598676297385,1.7972196844441182,0.6393606181704555,0.3400047548285327,-4.1531903063780025,10.9
,,0.029549712460031526,0.01571420330669801,0.0009536829095678479,0.046217598676297385,1.7999084998441162,0.6393606181704555,0.3400047548285327,-4.1531903063780025,11.0
,,0.03005437174247503,0.014968303286280678,0.0011763299078645054,0.04619900493662021,1.8040131099974732,0.6505415383665994,0.323996226906088,-4.201820427903983,11.1
,,0.0300607568745302,0.014848387497446883,0.0011691288682813797,0.04607827324025847,1.8077960792936014,0.6523846220927002,0.32224270688324935,-4.209864005659831,11.2
,,0.0300607568745302,0.014848387497446883,0.0011691288682813797,0.04607827324025847,1.8113170851948373,0.6523846220927002,0.32224270688324935,-4.209864005659831,11.3
,,0.0300607568745302,0.014848387497446883,0.0011691288682813797,0.04607827324025847,1.814838091096073,0.6523846220927002,0.32224270688324935,-4.209864005659831,11.4
,,0.0300607568745302,0.014848387497446883,0.0011691288682813797,0.04607827324025847,1.8183590969973087,0.6523846220927002,0.32224270688324935,-4.209864005659831,11.5
,,0.0300607568745302,0.014848387497446883,0.0011691288682813797,0.04607827324025847,1.8218801028985445,0.6523846220927002,0.32224270688324935,-4.209864005659831,11.6
,,0.029535070207003616,0.014884802123449985,0.0008576925232147078,0.04527756485366831,1.8249536661633086,0.6523113666218013,0.3287456419433309,-4.207414578291037,11.7
,,0.029535070207003616,0.014884802123449985,0.0008576925232147078,0.04527756485366831,1.8259318321161404,0.6523113666218013,0.3287456419433309,-4.207414578291037,11.8
,,0.029535070207003616,0.014884802123449985,0.0008576925232147078,0.04527756485366831,1.8285485019078307,0.6523113666218013,0.3287456419433309,-4.207414578291037,11.9
,,0.029631198060450482,0.013807423021012887,0.0010378222412151838,0.04447644332267855,1.832808664829084,0.6662222931243589,0.31044350648363284,-4.282548931361968,12.0
,,0.029631198060450482,0.013807423021012887,0.0010378222412151838,0.04447644332267855,1.8370688277503373,0.6662222931243589,0.31044350648363284,-4.282548931361968,12.1
,,0.029631198060450482,0.013807423021012887,0.0010378222412151838,0.04447644332267855,1.8413289906715906,0.6662222931243589,0.31044350648363284,-4.282548931361968,12.2
,,0.029631198060450482,0.013807423021012887,0.0010378222412151838,0.04447644332267855,1.845589153592844,0.6662222931243589,0.31044350648363284,-4.282548931361968,12.3
,,0.029631198060450482,0.013807423021012887,0.0010378222412151838,0.04447644332267855,1.8498493165140972,0.6662222931243589,0.31044350648363284,-4.282548931361968,12.4
,,0.029135786114561753,0.013727304902768672,0.0007526100435485877,0.04361570106087901,1.8534873097837792,0.6680114134562203,0.3147331022745234,-4.28836837105803,12.5
,,0.029135786114561753,0.013727304902768672,0.0007526100435485877,0.04361570106087901,1.855254460122355,0.6680114134562203,0.3147331022745234,-4.28836837105803,12.6
,,0.029364568323339117,0.012767951462745307,0.0009117921676047759,0.043044311953689206,1.86078361833366,0.6821939297097387,0.29662343021029525,-4.360817039758625,12.7
,,0.029364568323339117,0.012767951462745307,0.0009117921676047759,0.043044311953689206,1.8663127765449656,0.6821939297097387,0.29662343021029525,-4.360817039758625,12.8
,,0.029364568323339117,0.012767951462745307,0.0009117921676047759,0.043044311953689206,1.8718419347562707,0.6821939297097387,0.29662343021029525,-4.360817039758625,12.9
,,0.029364568323339117,0.012767951462745307,0.0009117921676047759,0.043044311953689206,1.8773710929675762,0.6821939297097387,0.29662343021029525,-4.360817039758625,13.0
,,0.029364568323339117,0.012767951462745307,0.0009117921676047759,0.043044311953689206,1.8829002511788813,0.6821939297097387,0.29662343021029525,-4.360817039758625,13.1
,,0.029364568323339117,0.012767951462745307,0.0009117921676047759,0.043044311953689206,1.8884294093901866,0.6821939297097387,0.29662343021029525,-4.360817039758625,13.2
,,0.028916752542048372,0.01198212239176941,0.0010316516624794241,0.04193052659629721,1.8948396811929604,0.6896348529188743,0.28576131435533947,-4.424339540736502,13.3
,,0.010278776766987706,0.01225551543282782,0.001552780536830467,0.024087072736645992,1.8837541913040827,0.4267341606582858,0.5088005324192972,-4.401779203904237,13.4
,,0.010278776766987706,0.01225551543282782,0.001552780536830467,0.024087072736645992,1.8713833004459057,0.4267341606582858,0.5088005324192972,-4.401779203904237,13.5
,,0.010278776766987706,0.01225551543282782,0.001552780536830467,0.024087072736645992,1.859012409587729,0.4267341606582858,0.5088005324192972,-4.401779203904237,13.6
,,0.010278776766987706,0.01225551543282782,0.001552780536830467,0.024087072736645992,1.8466415187295517,0.4267341606582858,0.5088005324192972,-4.401779203904237,13.7
,,0.010278776766987706,0.01225551543282782,0.001552780536830467,0.024087072736645992,1.834270627871375,0.4267341606582858,0.5088005324192972,-4.401779203904237,13.8
,,0.010278776766987706,0.01225551543282782,0.001552780536830467,0.024087072736645992,1.8215307261200915,0.4267341606582858,0.5088005324192972,-4.401779203904237,13.9
,,0.029757434072323716,0.011047421581503573,0.0007830271890053365,0.04158788284283262,1.829400855362501,0.7155313528409681,0.2656403939400709,-4.505558219287032,14.0
,,0.029444853533198295,0.010779733751311372,0.0005751859863908255,0.040799773270900494,1.8376920069663896,0.7216915971001036,0.2642106288124834,-4.530087412200418,14.1
,,0.029444853533198295,0.010779733751311372,0.0005751859863908255,0.040799773270900494,1.8477137733578064,0.7216915971001036,0.2642106288124834,-4.530087412200418,14.2
,,0.029444853533198295,0.010779733751311372,0.0005751859863908255,0.040799773270900494,1.8577355397492237,0.7216915971001036,0.2642106288124834,-4.530087412200418,14.3
,,0.029444853533198295,0.010779733751311372,0.0005751859863908255,0.040799773270900494,1.8677573061406405,0.7216915971001036,0.2642106288124834,-4.530087412200418,14.4
,,0.029444853533198295,0.010779733751311372,0.0005751859863908255,0.040799773270900494,1.8777790725320576,0.7216915971001036,0.2642106288124834,-4.530087412200418,14.5
,,0.029444853533198295,0.010779733751311372,0.0005751859863908255,0.040799773270900494,1.8865030558879343,0.7216915971001036,0.2642106288124834,-4.530087412200418,14.6
,,0.030079029011663865,0.010205808610003404,0.0006933758460238084,0.04097821346769108,1.8976242063437108,0.7340248992401637,0.24905450351197195,-4.584798249210351,14.7
,,0.030079029011663865,0.010205808610003404,0.0006933758460238084,0.04097821346769108,1.908745356799487,0.7340248992401637,0.24905450351197195,-4.584798249210351,14.8
,,0.029903748147063865,0.009923764898787095,0.0005231374311739584,0.040350650477024914,1.921540903933888,0.7410970527994495,0.2459381641056207,-4.612822903599755,14.9
,,0.029903748147063865,0.009923764898787095,0.0005231374311739584,0.040350650477024914,1.9343364510682888,0.7410970527994495,0.2459381641056207,-4.612822903599755,15.0
,,0.029903748147063865,0.009923764898787095,0.0005231374311739584,0.040350650477024914,1.9471319982026898,0.7410970527994495,0.2459381641056207,-4.612822903599755,15.1
,,0.029903748147063865,0.009923764898787095,0.0005231374311739584,0.040350650477024914,1.9599894832581097,0.7410970527994495,0.2459381641056207,-4.612822903599755,15.2
,,0.029903748147063865,0.009923764898787095,0.0005231374311739584,0.040350650477024914,1.97284696831353,0.7410970527994495,0.2459381641056207,-4.612822903599755,15.3
,,0.03074101097430617,0.009474101977779276,0.0006266541506059961,0.04084176710269145,1.9882755012517177,0.7526856244249127,0.23197091237403727,-4.659193310576161,15.4
,,0.03074101097430617,0.009474101977779276,0.0006266541506059961,0.04084176710269145,2.0037040341899055,0.7526856244249127,0.23197091237403727,-4.659193310576161,15.5
,,0.03074101097430617,0.009474101977779276,0.0006266541506059961,0.04084176710269145,2.0191325671280937,0.7526856244249127,0.23197091237403727,-4.659193310576161,15.6
,,0.0306797701989689,0.00918386280702126,0.00048451172366481695,0.04034814472965498,2.0362132973111153,0.7603762305437544,0.22761549182883067,-4.690307377776383,15.7
,,0.0306797701989689,0.00918386280702126,0.00048451172366481695,0.04034814472965498,2.052840883146127,0.7603762305437544,0.22761549182883067,-4.690307377776383,15.8
,,0.0306797701989689,0.00918386280702126,0.00048451172366481695,0.04034814472965498,2.069468468981139,0.7603762305437544,0.22761549182883067,-4.690307377776383,15.9
,,0.0306797701989689,0.00918386280702126,0.00048451172366481695,0.04034814472965498,2.086096054816151,0.7603762305437544,0.22761549182883067,-4.690307377776383,16.0
,,0.0306797701989689,0.00918386280702126,0.00048451172366481695,0.04034814472965498,2.102723640651163,0.7603762305437544,0.22761549182883067,-4.690307377776383,16.1
,,0.031833636392426395,0.00884158361430865,0.000577268685047655,0.0412524886917827,2.1222382029693643,0.7716779617896727,0.21432849010318863,-4.728289276486459,16.2
,,0.031833636392426395,0.00884158361430865,0.000577268685047655,0.0412524886917827,2.1417527652875656,0.7716779617896727,0.21432849010318863,-4.728289276486459,16.3
,,0.031833636392426395,0.00884158361430865,0.000577268685047655,0.0412524886917827,2.163308186683621,0.7716779617896727,0.21432849010318863,-4.728289276486459,16.4
,,0.03193972890820907,0.008544027649671838,0.00045644843762199575,0.0409402049955029,2.1864317516083074,0.7801555686327781,0.2086952825617351,-4.762522760618804,16.5
,,0.03193972890820907,0.008544027649671838,0.00045644843762199575,0.0409402049955029,2.209555316532994,0.7801555686327781,0.2086952825617351,-4.762522760618804,16.6
,,0.03193972890820907,0.008544027649671838,0.00045644843762199575,0.0409402049955029,2.232678881457681,0.7801555686327781,0.2086952825617351,-4.762522760618804,16.7
,,0.03193972890820907,0.008544027649671838,0.00045644843762199575,0.0409402049955029,2.2558024463823676,0.7801555686327781,0.2086952825617351,-4.762522760618804,16.8
,,0.03193972890820907,0.008544027649671838,0.00045644843762199575,0.0409402049955029,2.278926011307054,0.7801555686327781,0.2086952825617351,-4.762522760618804,16.9
,,0.033319678584500995,0.008362848058811243,0.0005418028323640074,0.04222432947567624,2.3047828883488126,0.7891108988171177,0.198057569241656,-4.783956233011425,17.0
,,0.033319678584500995,0.008362848058811243,0.0005418028323640074,0.04222432947567624,2.329399708287468,0.7891108988171177,0.198057569241656,-4.783956233011425,17.1
,,0.033561957224999446,0.008068833657219901,0.00043717756727900515,0.04206796844949835,2.3552722547065716,0.7978031376839558,0.19180469023376667,-4.819746335371029,17.2
,,0.033561957224999446,0.008068833657219901,0.00043717756727900515,0.04206796844949835,2.381144801125676,0.7978031376839558,0.19180469023376667,-4.819746335371029,17.3
,,0.033561957224999446,0.008068833657219901,0.00043717756727900515,0.04206796844949835,2.40701734754478,0.7978031376839558,0.19180469023376667,-4.819746335371029,17.4
,,0.033561957224999446,0.008068833657219901,0.00043717756727900515,0.04206796844949835,2.432889893963884,0.7978031376839558,0.19180469023376667,-4.819746335371029,17.5
,,0.03496903146628857,0.008042931235982561,0.0005150430912194786,0.04352700579349061,2.46085511886047,0.803387019823866,0.184780255139566,-4.82296168064511,17.6
,,0.03520005885281365,0.008046891162824614,0.000517813581621609,0.04376476359725988,2.4891155722352405,0.8043013593478553,0.18386689430965947,-4.82246945309606,17.7
,,0.03520005885281365,0.008046891162824614,0.000517813581621609,0.04376476359725988,2.518122544335106,0.8043013593478553,0.18386689430965947,-4.82246945309606,17.8
,,0.017212196545483886,0.013512949758693436,0.0012319092797026792,0.031957055583880005,2.512678274470759,0.5386039555586022,0.42284714632814074,-4.304106811931069,17.9
,,0.017212196545483886,0.013512949758693436,0.0012319092797026792,0.031957055583880005,2.5113458915990767,0.5386039555586022,0.42284714632814074,-4.304106811931069,18.0
,,0.017212196545483886,0.013512949758693436,0.0012319092797026792,0.031957055583880005,2.510013508727394,0.5386039555586022,0.42284714632814074,-4.304106811931069,18.1
,,0.017212196545483886,0.013512949758693436,0.0012319092797026792,0.031957055583880005,2.5086811258557113,0.5386039555586022,0.42284714632814074,-4.304106811931069,18.2
,,0.017212196545483886,0.013512949758693436,0.0012319092797026792,0.031957055583880005,2.5073487429840284,0.5386039555586022,0.42284714632814074,-4.304106811931069,18.3
,,0.03688084855948305,0.007857696592424426,0.0005033457362810791,0.04524189088818856,2.5440145791630613,0.815192465112276,0.17368187841317348,-4.846261769888781,18.4
,,0.01887130437046279,0.014236662990177597,0.0012523227690953783,0.034360290129735765,2.5389906388719194,0.5492184233372163,0.41433477239055777,-4.251934741037767,18.5
,,0.01887130437046279,0.014236662990177597,0.0012523227690953783,0.034360290129735765,2.5339666985807776,0.5492184233372163,0.41433477239055777,-4.251934741037767,18.6
,,0.0368296981380632,0.0075300186488482255,0.00048150925581531503,0.044841226042726744,2.5674024714177928,0.8213356633685752,0.16792624362396524,-4.888857760566731,18.7
,,0.0368296981380632,0.0075300186488482255,0.00048150925581531503,0.044841226042726744,2.6008382442548084,0.8213356633685752,0.16792624362396524,-4.888857760566731,18.8
,,0.0368296981380632,0.0075300186488482255,0.00048150925581531503,0.044841226042726744,2.6342740170918235,0.8213356633685752,0.16792624362396524,-4.888857760566731,18.9
,,0.0368296981380632,0.0075300186488482255,0.00048150925581531503,0.044841226042726744,2.6677097899288387,0.8213356633685752,0.16792624362396524,-4.888857760566731,19.0
,,0.0368296981380632,0.0075300186488482255,0.00048150925581531503,0.044841226042726744,2.701145562765854,0.8213356633685752,0.16792624362396524,-4.888857760566731,19.1
,,0.03756559176423906,0.007617627787509261,0.0004881930808331,0.045671412632581426,2.7357884814721527,0.822518717922034,0.1667920335372972,-4.8772902717269995,19.2
,,0.037499060930720696,0.007605642042013843,0.0004870397172655406,0.04559174269000008,2.7704205540002236,0.8224967662608255,0.16682060375994434,-4.878864933163899,19.3
,,0.023216256577353465,0.007382093466847955,0.0004804410565392775,0.0310787911007407,2.7852139083306953,0.7470128584506028,0.23752833380549407,-4.908698013001227,19.4
,,0.023216256577353465,0.007382093466847955,0.0004804410565392775,0.0310787911007407,2.798620908679532,0.7470128584506028,0.23752833380549407,-4.908698013001227,19.5
,,0.023216256577353465,0.007382093466847955,0.0004804410565392775,0.0310787911007407,2.81202790902837,0.7470128584506028,0.23752833380549407,-4.908698013001227,19.6
,,0.023216256577353465,0.007382093466847955,0.0004804410565392775,0.0310787911007407,2.8254349093772073,0.7470128584506028,0.23752833380549407,-4.908698013001227,19.7
,,0.023216256577353465,0.007382093466847955,0.0004804410565392775,0.0310787911007407,2.8388419097260447,0.7470128584506028,0.23752833380549407,-4.908698013001227,19.8
,,0.023216256577353465,0.007382093466847955,0.0004804410565392775,0.0310787911007407,2.852891865255724,0.7470128584506028,0.23752833380549407,-4.908698013001227,19.9
,,0.023216256577353465,0.007382093466847955,0.0004804410565392775,0.0310787911007407,2.8669418207854025,0.7470128584506028,0.23752833380549407,-4.908698013001227,20.0
,,0.03833216302215686,0.007458126389370054,0.0004922011441128403,0.04628249055563975,2.901739408151146,0.8282217003009985,0.16114358367132522,-4.898451050550914,20.1
,,0.03833216302215686,0.007458126389370054,0.0004922011441128403,0.04628249055563975,2.936352044522037,0.8282217003009985,0.16114358367132522,-4.898451050550914,20.2
,,0.03833216302215686,0.007458126389370054,0.0004922011441128403,0.04628249055563975,2.9709646808929273,0.8282217003009985,0.16114358367132522,-4.898451050550914,20.3
,,0.03833216302215686,0.007458126389370054,0.0004922011441128403,0.04628249055563975,3.005577317263818,0.8282217003009985,0.16114358367132522,-4.898451050550914,20.4
,,0.03833216302215686,0.007458126389370054,0.0004922011441128403,0.04628249055563975,3.0401899536347092,0.8282217003009985,0.16114358367132522,-4.898451050550914,20.5
,,0.03833216302215686,0.007458126389370054,0.0004922011441128403,0.04628249055563975,3.0748025900056,0.8282217003009985,0.16114358367132522,-4.898451050550914,20.6
,,0.03833216302215686,0.007458126389370054,0.0004922011441128403,0.04628249055563975,3.109862669012962,0.8282217003009985,0.16114358367132522,-4.898451050550914,20.7
,,0.04036705049976186,0.007986615427151702,0.0005348316525306407,0.048888497579444204,3.1439748267059384,0.8256962782332403,0.16336389585655373,-4.829988210055669,20.8
,,0.04036705049976186,0.007986615427151702,0.0005348316525306407,0.048888497579444204,3.1780869843989143,0.8256962782332403,0.16336389585655373,-4.829988210055669,20.9
,,0.04036705049976186,0.007986615427151702,0.0005348316525306407,0.048888497579444204,3.210401469595738,0.8256962782332403,0.16336389585655373,-4.829988210055669,21.0
,,0.04036705049976186,0.007986615427151702,0.0005348316525306407,0.048888497579444204,3.242715954792562,0.8256962782332403,0.16336389585655373,-4.829988210055669,21.1
,,0.04036705049976186,0.007986615427151702,0.0005348316525306407,0.048888497579444204,3.2750304399893855,0.8256962782332403,0.16336389585655373,-4.829988210055669,21.2
,,0.04036705049976186,0.007986615427151702,0.0005348316525306407,0.048888497579444204,3.3073449251862086,0.8256962782332403,0.16336389585655373,-4.829988210055669,21.3
,,0.04036705049976186,0.007986615427151702,0.0005348316525306407,0.048888497579444204,3.3396594103830326,0.8256962782332403,0.16336389585655373,-4.829988210055669,21.4
,,0.04036705049976186,0.007986615427151702,0.0005348316525306407,0.048888497579444204,3.3722357222816552,0.8256962782332403,0.16336389585655373,-4.829988210055669,21.5
,,0.04236584999830375,0.008759946053912632,0.00047807362575813674,0.05160386967797452,3.4023895502730235,0.8209820360891709,0.1697536659281104,-4.73756553228195,21.6
,,0.04236584999830375,0.008759946053912632,0.00047807362575813674,0.05160386967797452,3.430572314106496,0.8209820360891709,0.1697536659281104,-4.73756553228195,21.7
,,0.04236584999830375,0.008759946053912632,0.00047807362575813674,0.05160386967797452,3.4587550779399687,0.8209820360891709,0.1697536659281104,-4.73756553228195,21.8
,,0.04236584999830375,0.008759946053912632,0.00047807362575813674,0.05160386967797452,3.48693784177344,0.8209820360891709,0.1697536659281104,-4.73756553228195,21.9
,,0.04236584999830375,0.008759946053912632,0.00047807362575813674,0.05160386967797452,3.5151206056069126,0.8209820360891709,0.1697536659281104,-4.73756553228195,22.0
,,0.04236584999830375,0.008759946053912632,0.00047807362575813674,0.05160386967797452,3.5433033694403853,0.8209820360891709,0.1697536659281104,-4.73756553228195,22.1
,,0.04236584999830375,0.008759946053912632,0.00047807362575813674,0.05160386967797452,3.571486133273858,0.8209820360891709,0.1697536659281104,-4.73756553228195,22.2
,,0.043527087105834,0.009469370030350713,0.000592406421354078,0.05358886355753879,3.5957449593220128,0.8122412795542607,0.17670406501872118,-4.65969289666312,22.3
,,0.03229422354624363,0.015225885043368526,0.0008964978267673616,0.048416606416379515,3.60999275679001,0.6670071683363247,0.31447650238901403,-4.184758336148388,22.4
,,0.03229422354624363,0.015225885043368526,0.0008964978267673616,0.048416606416379515,3.6242405542580065,0.6670071683363247,0.31447650238901403,-4.184758336148388,22.5
,,0.03229422354624363,0.015225885043368526,0.0008964978267673616,0.048416606416379515,3.638488351726003,0.6670071683363247,0.31447650238901403,-4.184758336148388,22.6
,,0.03229422354624363,0.015225885043368526,0.0008964978267673616,0.048416606416379515,3.652736149194,0.6670071683363247,0.31447650238901403,-4.184758336148388,22.7
,,0.03229422354624363,0.015225885043368526,0.0008964978267673616,0.048416606416379515,3.6669839466619956,0.6670071683363247,0.31447650238901403,-4.184758336148388,22.8
,,0.032641113651475165,0.014798884271617215,0.0010122132442301499,0.048452211167322526,3.6821721769978093,0.6736764507764964,0.30543258842225923,-4.213203488106705,22.9
,,0.04553712819006255,0.01054017605819076,0.0006562549688539388,0.05673355921710725,3.7002469491037435,0.8026488875094485,0.1857837971676649,-4.552561032195263,23.0
,,0.04553712819006255,0.01054017605819076,0.0006562549688539388,0.05673355921710725,3.7179006988481995,0.8026488875094485,0.1857837971676649,-4.552561032195263,23.1
,,0.046302318243352,0.010927104037986964,0.0005786749653717815,0.05780809724671075,3.734632714299934,0.8009659623589596,0.18902376238665614,-4.516508967253995,23.2
,,0.046302318243352,0.010927104037986964,0.0005786749653717815,0.05780809724671075,3.751364729751669,0.8009659623589596,0.18902376238665614,-4.516508967253995,23.3
,,0.046302318243352,0.010927104037986964,0.0005786749653717815,0.05780809724671075,3.768096745203404,0.8009659623589596,0.18902376238665614,-4.516508967253995,23.4
,,0.046302318243352,0.010927104037986964,0.0005786749653717815,0.05780809724671075,3.78482876065514,0.8009659623589596,0.18902376238665614,-4.516508967253995,23.5
,,0.046302318243352,0.010927104037986964,0.0005786749653717815,0.05780809724671075,3.801560776106874,0.8009659623589596,0.18902376238665614,-4.516508967253995,23.6
,,0.046302318243352,0.010927104037986964,0.0005786749653717815,0.05780809724671075,3.8158956244587094,0.8009659623589596,0.18902376238665614,-4.516508967253995,23.7
,,0.047161461179144486,0.011620584134647647,0.0007187233603329251,0.059500768674125064,3.828242240940911,0.7926193598848994,0.19530141195807876,-4.454977259058717,23.8
,,0.047161461179144486,0.011620584134647647,0.0007187233603329251,0.059500768674125064,3.839854401237378,0.7926193598848994,0.19530141195807876,-4.454977259058717,23.9
,,0.047161461179144486,0.011620584134647647,0.0007187233603329251,0.059500768674125064,3.8514665615338446,0.7926193598848994,0.19530141195807876,-4.454977259058717,24.0
,,0.0470374395878137,0.011798675014939378,0.0006107389605121259,0.059446853563265206,3.862281275399733,0.7912519631969248,0.19847433981317208,-4.439768040684704,24.1
,,0.0470374395878137,0.011798675014939378,0.0006107389605121259,0.059446853563265206,3.873095989265621,0.7912519631969248,0.19847433981317208,-4.439768040684704,24.2
,,0.0470374395878137,0.011798675014939378,0.0006107389605121259,0.059446853563265206,3.883910703131509,0.7912519631969248,0.19847433981317208,-4.439768040684704,24.3
,,0.0470374395878137,0.011798675014939378,0.0006107389605121259,0.059446853563265206,3.8921543691146288,0.7912519631969248,0.19847433981317208,-4.439768040684704,24.4
,,0.0470374395878137,0.011798675014939378,0.0006107389605121259,0.059446853563265206,3.9003980350977496,0.7912519631969248,0.19847433981317208,-4.439768040684704,24.5
,,0.04762841900192863,0.012384364577141795,0.0007521241293351541,0.06076490770840558,3.907077028886919,0.7838145534670204,0.20380783982378486,-4.39132052319941,24.6
,,0.04762841900192863,0.012384364577141795,0.0007521241293351541,0.06076490770840558,3.912690735905348,0.7838145534670204,0.20380783982378486,-4.39132052319941,24.7
,,0.04762841900192863,0.012384364577141795,0.0007521241293351541,0.06076490770840558,3.9183044429237763,0.7838145534670204,0.20380783982378486,-4.39132052319941,24.8
,,0.04762841900192863,0.012384364577141795,0.0007521241293351541,0.06076490770840558,3.9239181499422053,0.7838145534670204,0.20380783982378486,-4.39132052319941,24.9
,,0.04692309193346557,0.012374684894060017,0.0006240276396781587,0.05992180446720374,3.928931975960923,0.783072077863533,0.206513889294387,-4.3921024339578345,25.0
,,0.04692309193346557,0.012374684894060017,0.0006240276396781587,0.05992180446720374,3.9339458019796414,0.783072077863533,0.206513889294387,-4.3921024339578345,25.1
,,0.04692309193346557,0.012374684894060017,0.0006240276396781587,0.05992180446720374,3.93607265151517,0.783072077863533,0.206513889294387,-4.3921024339578345,25.2
,,0.04692309193346557,0.012374684894060017,0.0006240276396781587,0.05992180446720374,3.9381995010506987,0.783072077863533,0.206513889294387,-4.3921024339578345,25.3
,,0.04746654558215566,0.012831663592550429,0.0007617928450403386,0.06106000201974643,3.93929647952457,0.7773754341967639,0.21014843052905155,-4.355839444492901,25.4
,,0.04746654558215566,0.012831663592550429,0.0007617928450403386,0.06106000201974643,3.938862269614065,0.7773754341967639,0.21014843052905155,-4.355839444492901,25.5
,,0.04746654558215566,0.012831663592550429,0.0007617928450403386,0.06106000201974643,3.9384280597035595,0.7773754341967639,0.21014843052905155,-4.355839444492901,25.6
,,0.04746654558215566,0.012831663592550429,0.0007617928450403386,0.06106000201974643,3.937993849793054,0.7773754341967639,0.21014843052905155,-4.355839444492901,25.7
,,0.046336361770910495,0.012610789694994478,0.0006190183432601968,0.05956616980916517,3.937283744729933,0.7778972849750184,0.21171060243417086,-4.373202506462218,25.8
,,0.046336361770910495,0.012610789694994478,0.0006190183432601968,0.05956616980916517,3.9365736396668125,0.7778972849750184,0.21171060243417086,-4.373202506462218,25.9
,,0.046336361770910495,0.012610789694994478,0.0006190183432601968,0.05956616980916517,3.93313022248662,0.7778972849750184,0.21171060243417086,-4.373202506462218,26.0
,,0.030939143249346823,0.01087667457385332,0.0007240834538955011,0.04253990127709564,3.92046678395522,0.727297015755067,0.2556817069932775,-4.521134730059074,26.1
,,0.030939143249346823,0.01087667457385332,0.0007240834538955011,0.04253990127709564,3.905856615543144,0.727297015755067,0.2556817069932775,-4.521134730059074,26.2
,,0.030939143249346823,0.01087667457385332,0.0007240834538955011,0.04253990127709564,3.8912464471310684,0.727297015755067,0.2556817069932775,-4.521134730059074,26.3
,,0.030939143249346823,0.01087667457385332,0.0007240834538955011,0.04253990127709564,3.8766362787189923,0.727297015755067,0.2556817069932775,-4.521134730059074,26.4
,,0.030939143249346823,0.01087667457385332,0.0007240834538955011,0.04253990127709564,3.862026110306916,0.727297015755067,0.2556817069932775,-4.521134730059074,26.5
,,0.04419909707066941,0.012163939115439244,0.0005805018098173095,0.056943537995925955,3.8540907791414063,0.776191621142888,0.21361403845875396,-4.409279514487072,26.6
,,0.04419909707066941,0.012163939115439244,0.0005805018098173095,0.056943537995925955,3.845860219497711,0.776191621142888,0.21361403845875396,-4.409279514487072,26.7
,,0.04313808037085666,0.011903009338618636,0.0006714528530301834,0.055712542562505483,3.8375242730565864,0.7742974631333478,0.21365044191376317,-4.430964025236622,26.8
,,0.04313808037085666,0.011903009338618636,0.0006714528530301834,0.055712542562505483,3.8636395685796736,0.7742974631333478,0.21365044191376317,-4.430964025236622,26.9
,,0.04313808037085666,0.011903009338618636,0.0006714528530301834,0.055712542562505483,3.889754864102761,0.7742974631333478,0.21365044191376317,-4.430964025236622,27.0
,,0.04313808037085666,0.011903009338618636,0.0006714528530301834,0.055712542562505483,3.9158701596258467,0.7742974631333478,0.21365044191376317,-4.430964025236622,27.1
,,0.04313808037085666,0.011903009338618636,0.0006714528530301834,0.055712542562505483,3.941985455148934,0.7742974631333478,0.21365044191376317,-4.430964025236622,27.2
,,0.04313808037085666,0.011903009338618636,0.0006714528530301834,0.055712542562505483,3.9681007506720216,0.7742974631333478,0.21365044191376317,-4.430964025236622,27.3
,,0.04129309775601663,0.011221595180864472,0.0006089894807212969,0.0531236824176024,3.9568362304404223,0.7773011183865949,0.21123526589614247,-4.489915216010634,27.4
,,0.025691176516409685,0.011189473502542535,0.0006047324943507735,0.037485382513302995,3.9676192339223344,0.6853651955476852,0.2985023161647493,-4.492781808476345,27.5
,,0.025691176516409685,0.011189473502542535,0.0006047324943507735,0.037485382513302995,3.9784022374042465,0.6853651955476852,0.2985023161647493,-4.492781808476345,27.6
,,0.025691176516409685,0.011189473502542535,0.0006047324943507735,0.037485382513302995,3.9495684922239533,0.6853651955476852,0.2985023161647493,-4.492781808476345,27.7
,,0.025691176516409685,0.011189473502542535,0.0006047324943507735,0.037485382513302995,3.9207347470436598,0.6853651955476852,0.2985023161647493,-4.492781808476345,27.8
,,0.025691176516409685,0.011189473502542535,0.0006047324943507735,0.037485382513302995,3.8919010018633666,0.6853651955476852,0.2985023161647493,-4.492781808476345,27.9
,,0.025691176516409685,0.011189473502542535,0.0006047324943507735,0.037485382513302995,3.8630672566830735,0.6853651955476852,0.2985023161647493,-4.492781808476345,28.0
,,0.025691176516409685,0.011189473502542535,0.0006047324943507735,0.037485382513302995,3.8342335115027804,0.6853651955476852,0.2985023161647493,-4.492781808476345,28.1
,,0.014441908503058576,0.008626746911588325,0.0005877396777562272,0.023656395092403127,3.7980410915476845,0.610486443375997,0.3646687028134167,-4.752887796099258,28.2
,,0.039712884384926955,0.010446619228001261,0.000533032279347218,0.05069253589227543,3.785497526351201,0.7834069392251185,0.20607805555833567,-4.561476871766384,28.3
,,0.039712884384926955,0.010446619228001261,0.000533032279347218,0.05069253589227543,3.792792679352317,0.7834069392251185,0.20607805555833567,-4.561476871766384,28.4
,,0.039712884384926955,0.010446619228001261,0.000533032279347218,0.05069253589227543,3.8000878323534337,0.7834069392251185,0.20607805555833567,-4.561476871766384,28.5
,,0.039712884384926955,0.010446619228001261,0.000533032279347218,0.05069253589227543,3.80738298535455,0.7834069392251185,0.20607805555833567,-4.561476871766384,28.6
,,0.039712884384926955,0.010446619228001261,0.000533032279347218,0.05069253589227543,3.8146781383556663,0.7834069392251185,0.20607805555833567,-4.561476871766384,28.7
,,0.039712884384926955,0.010446619228001261,0.000533032279347218,0.05069253589227543,3.8219732913567825,0.7834069392251185,0.20607805555833567,-4.561476871766384,28.8
,,0.039712884384926955,0.010446619228001261,0.000533032279347218,0.05069253589227543,3.8292684443578984,0.7834069392251185,0.20607805555833567,-4.561476871766384,28.9
,,0.030439382162182952,0.007633143106871782,0.00039526155505519944,0.03846778682410993,3.8386334361095016,0.7912953844047216,0.1984294844352122,-4.87525557789772,29.0
,,0.030439382162182952,0.007633143106871782,0.00039526155505519944,0.03846778682410993,3.8258350012716806,0.7912953844047216,0.1984294844352122,-4.87525557789772,29.1
,,0.030439382162182952,0.007633143106871782,0.00039526155505519944,0.03846778682410993,3.8130365664338592,0.7912953844047216,0.1984294844352122,-4.87525557789772,29.2
,,0.030439382162182952,0.007633143106871782,0.00039526155505519944,0.03846778682410993,3.800238131596039,0.7912953844047216,0.1984294844352122,-4.87525557789772,29.3
,,0.030439382162182952,0.007633143106871782,0.00039526155505519944,0.03846778682410993,3.787439696758218,0.7912953844047216,0.1984294844352122,-4.87525557789772,29.4
,,0.030439382162182952,0.007633143106871782,0.00039526155505519944,0.03846778682410993,3.7746412619203973,0.7912953844047216,0.1984294844352122,-4.87525557789772,29.5
,,0.030439382162182952,0.007633143106871782,0.00039526155505519944,0.03846778682410993,3.761842827082576,0.7912953844047216,0.1984294844352122,-4.87525557789772,29.6
,,0.030439382162182952,0.007633143106871782,0.00039526155505519944,0.03846778682410993,3.749044392244756,0.7912953844047216,0.1984294844352122,-4.87525557789772,29.7
,,0.038709468062491426,0.00973288266006609,0.00045233817440328353,0.0488946888969608,3.7370760224005357,0.7916906505748834,0.1990580752150172,-4.632245161495988,29.8
,,0.031129372688342965,0.007054026946837856,0.0003500994539406587,0.03853349908912147,3.729949973310337,0.8078522175301543,0.1830621955852772,-4.95415662709649,29.9
,,0.031129372688342965,0.007054026946837856,0.0003500994539406587,0.03853349908912147,3.7228239242201386,0.8078522175301543,0.1830621955852772,-4.95415662709649,30.0
,,0.031129372688342965,0.007054026946837856,0.0003500994539406587,0.03853349908912147,3.7156978751299397,0.8078522175301543,0.1830621955852772,-4.95415662709649,30.1
,,0.031129372688342965,0.007054026946837856,0.0003500994539406587,0.03853349908912147,3.7085718260397416,0.8078522175301543,0.1830621955852772,-4.95415662709649,30.2
,,0.031129372688342965,0.007054026946837856,0.0003500994539406587,0.03853349908912147,3.7014457769495435,0.8078522175301543,0.1830621955852772,-4.95415662709649,30.3
,,0.031129372688342965,0.007054026946837856,0.0003500994539406587,0.03853349908912147,3.6943197278593445,0.8078522175301543,0.1830621955852772,-4.95415662709649,30.4
,,0.031129372688342965,0.007054026946837856,0.0003500994539406587,0.03853349908912147,3.6871936787691464,0.8078522175301543,0.1830621955852772,-4.95415662709649,30.5
,,0.03869542184055906,0.009356584836954092,0.0003987149027289141,0.048450721580242065,3.6794083587227573,0.7986552228427252,0.19311548996144684,-4.67167492291989,30.6
,,0.03224855772450273,0.0065892431393245144,0.00030739786650683747,0.039145198730334084,3.6800506659867316,0.823818980883419,0.16832825871486587,-5.022316786938357,30.7
,,0.03224855772450273,0.0065892431393245144,0.00030739786650683747,0.039145198730334084,3.6806929732507063,0.823818980883419,0.16832825871486587,-5.022316786938357,30.8
,,0.03224855772450273,0.0065892431393245144,0.00030739786650683747,0.039145198730334084,3.6813352805146815,0.823818980883419,0.16832825871486587,-5.022316786938357,30.9
,,0.03224855772450273,0.0065892431393245144,0.00030739786650683747,0.039145198730334084,3.6819775877786562,0.823818980883419,0.16832825871486587,-5.022316786938357,31.0
,,0.03224855772450273,0.0065892431393245144,0.00030739786650683747,0.039145198730334084,3.682619895042631,0.823818980883419,0.16832825871486587,-5.022316786938357,31.1
,,0.03224855772450273,0.0065892431393245144,0.00030739786650683747,0.039145198730334084,3.6832622023066057,0.823818980883419,0.16832825871486587,-5.022316786938357,31.2
,,0.039170715632411084,0.009136524337061558,0.0003490113848411425,0.048656251354313784,3.679824952356777,0.8050500098573309,0.1877769882132839,-4.695475235304948,31.3
,,0.039170715632411084,0.009136524337061558,0.0003490113848411425,0.048656251354313784,3.7038944926787583,0.8050500098573309,0.1877769882132839,-4.695475235304948,31.4
,,0.039571609257970236,0.008788766919746744,0.0002608518299484514,0.048621228007665426,3.730355750624267,0.8138751504123165,0.18075987135415714,-4.734280859293121,31.5
,,0.039571609257970236,0.008788766919746744,0.0002608518299484514,0.048621228007665426,3.756817008569776,0.8138751504123165,0.18075987135415714,-4.734280859293121,31.6
,,0.039571609257970236,0.008788766919746744,0.0002608518299484514,0.048621228007665426,3.783278266515285,0.8138751504123165,0.18075987135415714,-4.734280859293121,31.7
,,0.039571609257970236,0.008788766919746744,0.0002608518299484514,0.048621228007665426,3.8097395244607934,0.8138751504123165,0.18075987135415714,-4.734280859293121,31.8
,,0.039571609257970236,0.008788766919746744,0.0002608518299484514,0.048621228007665426,3.8352603495384856,0.8138751504123165,0.18075987135415714,-4.734280859293121,31.9
,,0.039571609257970236,0.008788766919746744,0.0002608518299484514,0.048621228007665426,3.8372846018523643,0.8138751504123165,0.18075987135415714,-4.734280859293121,32.0
,,0.04006085023298473,0.009103706496759963,0.00030377999000273583,0.04946833671974743,3.8381752729726486,0.8098281221772453,0.1840309802275164,-4.699073641050189,32.1
,,0.040735819861393005,0.008848115486174854,0.0002234725944112817,0.04980740794197914,3.8422476669507786,0.8178666898073944,0.17764657611739323,-4.727550782052386,32.2
,,0.040735819861393005,0.008848115486174854,0.0002234725944112817,0.04980740794197914,3.8463200609289094,0.8178666898073944,0.17764657611739323,-4.727550782052386,32.3
,,0.040735819861393005,0.008848115486174854,0.0002234725944112817,0.04980740794197914,3.85039245490704,0.8178666898073944,0.17764657611739323,-4.727550782052386,32.4
,,0.040735819861393005,0.008848115486174854,0.0002234725944112817,0.04980740794197914,3.8544648488851694,0.8178666898073944,0.17764657611739323,-4.727550782052386,32.5
,,0.040735819861393005,0.008848115486174854,0.0002234725944112817,0.04980740794197914,3.8585372428633,0.8178666898073944,0.17764657611739323,-4.727550782052386,32.6
,,0.040735819861393005,0.008848115486174854,0.0002234725944112817,0.04980740794197914,3.8626096368414307,0.8178666898073944,0.17764657611739323,-4.727550782052386,32.7
,,0.040735819861393005,0.008848115486174854,0.0002234725944112817,0.04980740794197914,3.8686702626891942,0.8178666898073944,0.17764657611739323,-4.727550782052386,32.8
,,0.04136628989822241,0.00933205147130142,0.00026428379002858235,0.05096262515955241,3.872828815629722,0.8116985686807526,0.18311559583292433,-4.67430040926793,32.9
,,0.04227159767543933,0.009162820344336967,0.0001905265110124047,0.051624944530788704,3.8789948296912713,0.8188211737492306,0.17748823611563078,-4.692601249833534,33.0
,,0.04227159767543933,0.009162820344336967,0.0001905265110124047,0.051624944530788704,3.885958290183399,0.8188211737492306,0.17748823611563078,-4.692601249833534,33.1
,,0.04227159767543933,0.009162820344336967,0.0001905265110124047,0.051624944530788704,3.8929217506755265,0.8188211737492306,0.17748823611563078,-4.692601249833534,33.2
,,0.04227159767543933,0.009162820344336967,0.0001905265110124047,0.051624944530788704,3.8998852111676543,0.8188211737492306,0.17748823611563078,-4.692601249833534,33.3
,,0.04227159767543933,0.009162820344336967,0.0001905265110124047,0.051624944530788704,3.9068486716597826,0.8188211737492306,0.17748823611563078,-4.692601249833534,33.4
,,0.04227159767543933,0.009162820344336967,0.0001905265110124047,0.051624944530788704,3.91381213215191,0.8188211737492306,0.17748823611563078,-4.692601249833534,33.5
,,0.04227159767543933,0.009162820344336967,0.0001905265110124047,0.051624944530788704,3.922340264837988,0.8188211737492306,0.17748823611563078,-4.692601249833534,33.6
,,0.03912457652985358,0.006362265859314675,0.00023229235892842828,0.04571913474809668,3.9479360567711046,0.8557593389599824,0.13915980462818228,-5.05737069789035,33.7
,,0.039139433686005615,0.006201480686591315,0.00018796522505985458,0.045528879597656786,3.975329987539561,0.8596616923562509,0.13620982421255284,-5.082967195026193,33.8
,,0.039139433686005615,0.006201480686591315,0.00018796522505985458,0.045528879597656786,4.002723918308018,0.8596616923562509,0.13620982421255284,-5.082967195026193,33.9
,,0.039139433686005615,0.006201480686591315,0.00018796522505985458,0.045528879597656786,4.030717730076185,0.8596616923562509,0.13620982421255284,-5.082967195026193,34.0
,,0.039139433686005615,0.006201480686591315,0.00018796522505985458,0.045528879597656786,4.058711541844352,0.8596616923562509,0.13620982421255284,-5.082967195026193,34.1
,,0.039139433686005615,0.006201480686591315,0.00018796522505985458,0.045528879597656786,4.086705353612519,0.8596616923562509,0.13620982421255284,-5.082967195026193,34.2
,,0.039139433686005615,0.006201480686591315,0.00018796522505985458,0.045528879597656786,4.114699165380686,0.8596616923562509,0.13620982421255284,-5.082967195026193,34.3
,,0.039872602386600495,0.0064368714730027084,0.0001923739754005725,0.04650184783500378,4.142423986972813,0.8574412468096979,0.13842184284464973,-5.04571265302063,34.4
,,0.0401601096695098,0.00641858646911562,0.0001590502945141664,0.04673774643313958,4.170842578555906,0.8592649995857335,0.13733196311246398,-5.048557361672809,34.5
,,0.0401601096695098,0.00641858646911562,0.0001590502945141664,0.04673774643313958,4.199261170139001,0.8592649995857335,0.13733196311246398,-5.048557361672809,34.6
,,0.0401601096695098,0.00641858646911562,0.0001590502945141664,0.04673774643313958,4.227679761722095,0.8592649995857335,0.13733196311246398,-5.048557361672809,34.7
,,0.0401601096695098,0.00641858646911562,0.0001590502945141664,0.04673774643313958,4.256374248457804,0.8592649995857335,0.13733196311246398,-5.048557361672809,34.8
,,0.0401601096695098,0.00641858646911562,0.0001590502945141664,0.04673774643313958,4.285068735193514,0.8592649995857335,0.13733196311246398,-5.048557361672809,34.9
,,0.0401601096695098,0.00641858646911562,0.0001590502945141664,0.04673774643313958,4.313763221929223,0.8592649995857335,0.13733196311246398,-5.048557361672809,35.0
,,0.0401601096695098,0.00641858646911562,0.0001590502945141664,0.04673774643313958,4.3516777300161396,0.8592649995857335,0.13733196311246398,-5.048557361672809,35.1
,,0.044424595523538016,0.010888529684415614,0.00016814206861642003,0.05548126727657005,4.3654044378656405,0.8007134246246514,0.19625596564218858,-4.520045366357819,35.2
,,0.04492645724194552,0.010922945462921888,0.00014752973028245113,0.05599693243514986,4.379498819493079,0.802302113494787,0.19506328271770546,-4.516889613999451,35.3
,,0.04492645724194552,0.010922945462921888,0.00014752973028245113,0.05599693243514986,4.393593201120516,0.802302113494787,0.19506328271770546,-4.516889613999451,35.4
,,0.04492645724194552,0.010922945462921888,0.00014752973028245113,0.05599693243514986,4.407687582747954,0.802302113494787,0.19506328271770546,-4.516889613999451,35.5
,,0.04492645724194552,0.010922945462921888,0.00014752973028245113,0.05599693243514986,4.413014448651343,0.802302113494787,0.19506328271770546,-4.516889613999451,35.6
,,0.04492645724194552,0.010922945462921888,0.00014752973028245113,0.05599693243514986,4.418341314554733,0.802302113494787,0.19506328271770546,-4.516889613999451,35.7
,,0.04492645724194552,0.010922945462921888,0.00014752973028245113,0.05599693243514986,4.4237735672555525,0.802302113494787,0.19506328271770546,-4.516889613999451,35.8
,,0.045081109408927345,0.01169763821363091,0.00014863983518509111,0.056927387457743346,4.426326144405838,0.7919054680383958,0.20548348933655095,-4.448368319638147,35.9
,,0.045081109408927345,0.01169763821363091,0.00014863983518509111,0.056927387457743346,4.428878721556123,0.7919054680383958,0.20548348933655095,-4.448368319638147,36.0
,,0.04584311751957363,0.011913578613858389,9.882042182596085e-05,0.05785551655525798,4.431365830112,0.7923724520856836,0.20591949261190493,-4.430076469390698,36.1
,,0.04584311751957363,0.011913578613858389,9.882042182596085e-05,0.05785551655525798,4.433852938667876,0.7923724520856836,0.20591949261190493,-4.430076469390698,36.2
,,0.04584311751957363,0.011913578613858389,9.882042182596085e-05,0.05785551655525798,4.4363400472237515,0.7923724520856836,0.20591949261190493,-4.430076469390698,36.3
,,0.04584311751957363,0.011913578613858389,9.882042182596085e-05,0.05785551655525798,4.4382087524835985,0.7923724520856836,0.20591949261190493,-4.430076469390698,36.4
,,0.04584311751957363,0.011913578613858389,9.882042182596085e-05,0.05785551655525798,4.4554527420339705,0.7923724520856836,0.20591949261190493,-4.430076469390698,36.5
,,0.04598789446455648,0.012703992639083509,0.00013635789421708898,0.05882824499785707,4.470163219995445,0.7817315384171613,0.21595056319538813,-4.365838953894755,36.6
,,0.04598789446455648,0.012703992639083509,0.00013635789421708898,0.05882824499785707,4.484873697956919,0.7817315384171613,0.21595056319538813,-4.365838953894755,36.7
,,0.04412438202884103,0.008411180471161206,8.4945615638955e-05,0.05262050811564119,4.517650445377812,0.8385396418421371,0.15984605189817663,-4.778193449667859,36.8
,,0.04412438202884103,0.008411180471161206,8.4945615638955e-05,0.05262050811564119,4.550427192798704,0.8385396418421371,0.15984605189817663,-4.778193449667859,36.9
,,0.04412438202884103,0.008411180471161206,8.4945615638955e-05,0.05262050811564119,4.5832039402195965,0.8385396418421371,0.15984605189817663,-4.778193449667859,37.0
,,0.04412438202884103,0.008411180471161206,8.4945615638955e-05,0.05262050811564119,4.615980687640489,0.8385396418421371,0.15984605189817663,-4.778193449667859,37.1
,,0.04412438202884103,0.008411180471161206,8.4945615638955e-05,0.05262050811564119,4.655667744906036,0.8385396418421371,0.15984605189817663,-4.778193449667859,37.2
,,0.04707326664718989,0.013856903513596669,0.00013182216819230993,0.06106199232897887,4.6511743300176,0.7709094454956034,0.22693172929800465,-4.278971721897907,37.3
,,0.04707326664718989,0.013856903513596669,0.00013182216819230993,0.06106199232897887,4.646680915129166,0.7709094454956034,0.22693172929800465,-4.278971721897907,37.4
,,0.04707326664718989,0.013856903513596669,0.00013182216819230993,0.06106199232897887,4.642187500240732,0.7709094454956034,0.22693172929800465,-4.278971721897907,37.5
,,0.045739528878417285,0.009411294462654601,8.215526192766435e-05,0.055232978602999555,4.653949299041319,0.8281199029149099,0.17039266577130605,-4.665844772395684,37.6
,,0.045739528878417285,0.009411294462654601,8.215526192766435e-05,0.055232978602999555,4.665711097841905,0.8281199029149099,0.17039266577130605,-4.665844772395684,37.7
,,0.045739528878417285,0.009411294462654601,8.215526192766435e-05,0.055232978602999555,4.6774728966424926,0.8281199029149099,0.17039266577130605,-4.665844772395684,37.8
,,0.045739528878417285,0.009411294462654601,8.215526192766435e-05,0.055232978602999555,4.689234695443079,0.8281199029149099,0.17039266577130605,-4.665844772395684,37.9
,,0.03355408477570506,0.015037222925179809,0.00013357170547193795,0.04872487940635681,4.669719254714489,0.6886437726375878,0.3086148823432081,-4.197226623441796,38.0
,,0.03355408477570506,0.015037222925179809,0.00013357170547193795,0.04872487940635681,4.650203813985899,0.6886437726375878,0.3086148823432081,-4.197226623441796,38.1
,,0.03355408477570506,0.015037222925179809,0.00013357170547193795,0.04872487940635681,4.63068837325731,0.6886437726375878,0.3086148823432081,-4.197226623441796,38.2
,,0.04866133512001272,0.015342616200611097,9.22814110706235e-05,0.06409623273169444,4.6216200826121385,0.7591918127810741,0.23936845500475798,-4.1771209499567785,38.3
,,0.04866133512001272,0.015342616200611097,9.22814110706235e-05,0.06409623273169444,4.6125517919669665,0.7591918127810741,0.23936845500475798,-4.1771209499567785,38.4
,,0.04866133512001272,0.015342616200611097,9.22814110706235e-05,0.06409623273169444,4.603483501321794,0.7591918127810741,0.23936845500475798,-4.1771209499567785,38.5
,,0.04866133512001272,0.015342616200611097,9.22814110706235e-05,0.06409623273169444,4.594415210676622,0.7591918127810741,0.23936845500475798,-4.1771209499567785,38.6
,,0.04864403871102548,0.01592835598487273,0.000136998604286742,0.06470939330018495,4.58403894157154,0.7517307183729453,0.2461521453459092,-4.13965436284212,38.7
,,0.04864403871102548,0.01592835598487273,0.000136998604286742,0.06470939330018495,4.573780528787244,0.7517307183729453,0.2461521453459092,-4.13965436284212,38.8
,,0.04864403871102548,0.01592835598487273,0.000136998604286742,0.06470939330018495,4.558679795248927,0.7517307183729453,0.2461521453459092,-4.13965436284212,38.9
,,0.04864403871102548,0.01592835598487273,0.000136998604286742,0.06470939330018495,4.543579061710609,0.7517307183729453,0.2461521453459092,-4.13965436284212,39.0
,,0.04870718333362668,0.016045896255997262,9.468838898181015e-05,0.06484776797860577,4.528273488811464,0.7511003825096324,0.24743945329453806,-4.132302147083685,39.1
,,0.04870718333362668,0.016045896255997262,9.468838898181015e-05,0.06484776797860577,4.512967915912318,0.7511003825096324,0.24743945329453806,-4.132302147083685,39.2
,,0.04870718333362668,0.016045896255997262,9.468838898181015e-05,0.06484776797860577,4.497662343013172,0.7511003825096324,0.24743945329453806,-4.132302147083685,39.3
,,0.048710256358471204,0.016053180417666204,9.401605733082015e-05,0.06485745283346823,4.4823435930873945,0.7510356054768677,0.24751481466417258,-4.131848292172652,39.4
,,0.04870718333362668,0.016045896255997262,9.468838898181015e-05,0.06484776797860577,4.467038020188249,0.7511003825096324,0.24743945329453806,-4.132302147083685,39.5
,,0.04870156848135747,0.01647819025577719,0.00014125106032490762,0.06532100979745957,4.453925593473915,0.7455728047126966,0.2522647813754106,-4.105717575107501,39.6
,,0.04870156848135747,0.01647819025577719,0.00014125106032490762,0.06532100979745957,4.432385539449218,0.7455728047126966,0.2522647813754106,-4.105717575107501,39.7
,,0.04870156848135747,0.01647819025577719,0.00014125106032490762,0.06532100979745957,4.41084548542452,0.7455728047126966,0.2522647813754106,-4.105717575107501,39.8
,,0.04835838767390886,0.016333944260553193,9.831504713158438e-05,0.06479064698159363,4.389361987555029,0.7463791446263377,0.25210342883585496,-4.114509866531783,39.9
,,0.04835838767390886,0.016333944260553193,9.831504713158438e-05,0.06479064698159363,4.367878489685537,0.7463791446263377,0.25210342883585496,-4.114509866531783,40.0
,,0.04835838767390886,0.016333944260553193,9.831504713158438e-05,0.06479064698159363,4.3463949918160445,0.7463791446263377,0.25210342883585496,-4.114509866531783,40.1
,,0.04835838767390886,0.016333944260553193,9.831504713158438e-05,0.06479064698159363,4.324911493946553,0.7463791446263377,0.25210342883585496,-4.114509866531783,40.2
,,0.04835838767390886,0.016333944260553193,9.831504713158438e-05,0.06479064698159363,4.31017083033313,0.7463791446263377,0.25210342883585496,-4.114509866531783,40.3
,,0.04723235857514312,0.011640608708692315,0.00011091407530713851,0.05898388135914258,4.307618430067989,0.8007672178701418,0.1973523688245383,-4.453255543484962,40.4
,,0.04776296891023574,0.016294874641862557,0.00014422959287230066,0.06420207314497059,4.2901589187142815,0.7439474548179346,0.2538060508586404,-4.116904659765312,40.5
,,0.04776296891023574,0.016294874641862557,0.00014422959287230066,0.06420207314497059,4.272699407360572,0.7439474548179346,0.2538060508586404,-4.116904659765312,40.6
,,0.030507744674363957,0.015644360797621364,0.00010025463732085438,0.04625236010930618,4.244338942326952,0.6595932532365124,0.3382391895386469,-4.157644759351661,40.7
,,0.030492282386083362,0.015639321607989632,0.00010007030594072856,0.04623167430001373,4.215974473518699,0.6595539280755468,0.3382815319752542,-4.157966920253947,40.8
,,0.030507744674363957,0.015644360797621364,0.00010025463732085438,0.04625236010930618,4.187614008485079,0.6595932532365124,0.3382391895386469,-4.157644759351661,40.9
,,0.030492282386083362,0.015639321607989632,0.00010007030594072856,0.04623167430001373,4.159249539676826,0.6595539280755468,0.3382815319752542,-4.157966920253947,41.0
,,0.045791384116979736,0.015387771908151757,0.00014477236918921478,0.06132392839432071,4.1434198788521055,0.7467131561196679,0.25092606281199753,-4.174182116911085,41.1
,,0.04514212367533234,0.01118235021535183,0.00010488482814823851,0.0564293587188324,4.13711999623501,0.7999758405949574,0.1981654668639695,-4.493418617305277,41.2
,,0.04514212367533234,0.01118235021535183,0.00010488482814823851,0.0564293587188324,4.130820113617915,0.7999758405949574,0.1981654668639695,-4.493418617305277,41.3
,,0.04514212367533234,0.01118235021535183,0.00010488482814823851,0.0564293587188324,4.12452023100082,0.7999758405949574,0.1981654668639695,-4.493418617305277,41.4
,,0.028450498557884417,0.01449334400926411,0.00010278333945397478,0.0430466259066025,4.095176970828731,0.6609228472311154,0.33668943161097137,-4.23406576878775,41.5
,,0.028450498557884417,0.01449334400926411,0.00010278333945397478,0.0430466259066025,4.0658337106566425,0.6609228472311154,0.33668943161097137,-4.23406576878775,41.6
,,0.028450498557884417,0.01449334400926411,0.00010278333945397478,0.0430466259066025,4.036490450484553,0.6609228472311154,0.33668943161097137,-4.23406576878775,41.7
,,0.028450498557884417,0.01449334400926411,0.00010278333945397478,0.0430466259066025,4.007147190312464,0.6609228472311154,0.33668943161097137,-4.23406576878775,41.8
,,0.028450498557884417,0.01449334400926411,0.00010278333945397478,0.0430466259066025,3.9797060030476126,0.6609228472311154,0.33668943161097137,-4.23406576878775,41.9
,,0.028450498557884417,0.01449334400926411,0.00010278333945397478,0.0430466259066025,3.950257354661739,0.6609228472311154,0.33668943161097137,-4.23406576878775,42.0
,,0.04402141807173436,0.014183774016163357,0.00014945824589493296,0.058354650333792654,3.9334825050394646,0.7543772059283843,0.24306158866570504,-4.255656642643738,42.1
,,0.04402141807173436,0.014183774016163357,0.00014945824589493296,0.058354650333792654,3.9167076554171905,0.7543772059283843,0.24306158866570504,-4.255656642643738,42.2
,,0.04294926925913795,0.013352914813023116,0.00010635768756359902,0.056408541759724665,3.9011864183076295,0.7613965530625266,0.23671795789192004,-4.316020579913997,42.3
,,0.04294969291875211,0.013352885793409403,0.00010635470149332765,0.056408933413654834,3.885665611400849,0.761398777101418,0.2367157998803269,-4.316022753195685,42.4
,,0.04294926925913795,0.013352914813023116,0.00010635768756359902,0.056408541759724665,3.8701443742912884,0.7613965530625266,0.23671795789192004,-4.316020579913997,42.5
,,0.04294969291875211,0.013352885793409403,0.00010635470149332765,0.056408933413654834,3.854623567384508,0.761398777101418,0.2367157998803269,-4.316022753195685,42.6
,,0.04294926925913795,0.013352914813023116,0.00010635768756359902,0.056408541759724665,3.8220346710279083,0.7613965530625266,0.23671795789192004,-4.316020579913997,42.7
,,0.04301790300030338,0.013132953356307441,0.00015197190956398423,0.05630282826617481,3.7883042821494657,0.7640451523488981,0.233255659808432,-4.33263068402576,42.8
,,0.04304649652568936,0.013109059725685006,0.00015567492310851756,0.056311231174482876,3.7546644657267967,0.764438916142818,0.23279653902550979,-4.334451705694381,42.9
,,0.0430469502403095,0.01310902443605002,0.00015567400041024387,0.056311648676769764,3.7210251320893892,0.7644413056950267,0.2327941863555823,-4.334454397701529,43.0
,,0.04232951785991625,0.012325165052525079,0.00011360719887536266,0.054768290111316696,3.689059499099866,0.7728836845897762,0.22504199104032913,-4.396112167457447,43.1
,,0.04232951785991625,0.012325165052525079,0.00011360719887536266,0.054768290111316696,3.6570938661103436,0.7728836845897762,0.22504199104032913,-4.396112167457447,43.2
,,0.04232951785991625,0.012325165052525079,0.00011360719887536266,0.054768290111316696,3.6251282331208214,0.7728836845897762,0.22504199104032913,-4.396112167457447,43.3
,,0.04232951785991625,0.012325165052525079,0.00011360719887536266,0.054768290111316696,3.5944614613689962,0.7728836845897762,0.22504199104032913,-4.396112167457447,43.4
,,0.04232951785991625,0.012325165052525079,0.00011360719887536266,0.054768290111316696,3.5631009196262045,0.7728836845897762,0.22504199104032913,-4.396112167457447,43.5
,,0.04232951785991625,0.012325165052525079,0.00011360719887536266,0.054768290111316696,3.5317403778834118,0.7728836845897762,0.22504199104032913,-4.396112167457447,43.6
,,0.04102756577798919,0.00917318416868333,8.360901498757666e-05,0.0502843589616601,3.5119149118509045,0.8159110829924497,0.1824261929177129,-4.691470815398633,43.7
,,0.042403712141481434,0.011523208799915237,0.00014163166438896894,0.05406855260578564,3.4832816495567647,0.784258318336119,0.21312219847886565,-4.463392120840609,43.8
,,0.042403712141481434,0.011523208799915237,0.00014163166438896894,0.05406855260578564,3.454648387262623,0.784258318336119,0.21312219847886565,-4.463392120840609,43.9
,,0.042403712141481434,0.011523208799915237,0.00014163166438896894,0.05406855260578564,3.4260151249684814,0.784258318336119,0.21312219847886565,-4.463392120840609,44.0
,,0.042403712141481434,0.011523208799915237,0.00014163166438896894,0.05406855260578564,3.3973818626743406,0.784258318336119,0.21312219847886565,-4.463392120840609,44.1
,,0.042403712141481434,0.011523208799915237,0.00014163166438896894,0.05406855260578564,3.392936400617614,0.784258318336119,0.21312219847886565,-4.463392120840609,44.2
,,0.042403712141481434,0.011523208799915237,0.00014163166438896894,0.05406855260578564,3.3881232647829513,0.784258318336119,0.21312219847886565,-4.463392120840609,44.3
,,0.042403712141481434,0.011523208799915237,0.00014163166438896894,0.05406855260578564,3.383310128948289,0.784258318336119,0.21312219847886565,-4.463392120840609,44.4
,,0.040812887264067066,0.008659889546534676,7.851847171037814e-05,0.04955129528231212,3.389974902515399,0.8236492513776058,0.17476615893078215,-4.749053310930855,44.5
,,0.0431619809218449,0.010922012411552696,0.0001557211947224194,0.054239714528120014,3.388183780980488,0.7957634234868257,0.2013655954234474,-4.516975038871874,44.6
,,0.0431619809218449,0.010922012411552696,0.0001557211947224194,0.054239714528120014,3.3863926594455767,0.7957634234868257,0.2013655954234474,-4.516975038871874,44.7
,,0.0431619809218449,0.010922012411552696,0.0001557211947224194,0.054239714528120014,3.3846015379106658,0.7957634234868257,0.2013655954234474,-4.516975038871874,44.8
,,0.0431619809218449,0.010922012411552696,0.0001557211947224194,0.054239714528120014,3.385690091926289,0.7957634234868257,0.2013655954234474,-4.516975038871874,44.9
,,0.0431619809218449,0.010922012411552696,0.0001557211947224194,0.054239714528120014,3.3867786459419125,0.7957634234868257,0.2013655954234474,-4.516975038871874,45.0
,,0.0431619809218449,0.010922012411552696,0.0001557211947224194,0.054239714528120014,3.387932668551945,0.7957634234868257,0.2013655954234474,-4.516975038871874,45.1
,,0.0441226427987364,0.011029971184421065,0.00018985797947680214,0.05534247196263426,3.3896246463484982,0.7972654858736128,0.1993039124068799,-4.507139058193297,45.2
,,0.0445297158143337,0.01051516863771453,0.00017275570349805172,0.05521764015554629,3.3939228188661774,0.8064400378012343,0.190431329699959,-4.554936432132537,45.3
,,0.0445297158143337,0.01051516863771453,0.00017275570349805172,0.05521764015554629,3.3982209913838557,0.8064400378012343,0.190431329699959,-4.554936432132537,45.4
,,0.0445297158143337,0.01051516863771453,0.00017275570349805172,0.05521764015554629,3.402519163901535,0.8064400378012343,0.190431329699959,-4.554936432132537,45.5
,,0.0445297158143337,0.01051516863771453,0.00017275570349805172,0.05521764015554629,3.409350848008112,0.8064400378012343,0.190431329699959,-4.554936432132537,45.6
,,0.0445297158143337,0.01051516863771453,0.00017275570349805172,0.05521764015554629,3.41618253211469,0.8064400378012343,0.190431329699959,-4.554936432132537,45.7
,,0.02918454416065006,0.010705661885868214,0.00020230443972843904,0.040092510486246714,3.388184362453311,0.727930074886717,0.2670239841813017,-4.5369825292518415,45.8
,,0.04570095968801869,0.010733805815202958,0.000206329027046924,0.056641094530268575,3.3772037591892854,0.8068516342599354,0.1895056213906123,-4.534357096018773,45.9
,,0.046540364084238436,0.010294352138406118,0.0001928136858161721,0.05702752990846073,3.3691486558308963,0.8161034531732998,0.1805154835731159,-4.576159870214829,46.0
,,0.046540364084238436,0.010294352138406118,0.0001928136858161721,0.05702752990846073,3.3610935524725076,0.8161034531732998,0.1805154835731159,-4.576159870214829,46.1
,,0.046540364084238436,0.010294352138406118,0.0001928136858161721,0.05702752990846073,3.3530384491141185,0.8161034531732998,0.1805154835731159,-4.576159870214829,46.2
,,0.046540364084238436,0.010294352138406118,0.0001928136858161721,0.05702752990846073,3.365525809329326,0.8161034531732998,0.1805154835731159,-4.576159870214829,46.3
,,0.046540364084238436,0.010294352138406118,0.0001928136858161721,0.05702752990846073,3.378013169544533,0.8161034531732998,0.1805154835731159,-4.576159870214829,46.4
,,0.046540364084238436,0.010294352138406118,0.0001928136858161721,0.05702752990846073,3.3905005297597404,0.8161034531732998,0.1805154835731159,-4.576159870214829,46.5
,,0.046540364084238436,0.010294352138406118,0.0001928136858161721,0.05702752990846073,3.386732676285926,0.8161034531732998,0.1805154835731159,-4.576159870214829,46.6
,,0.04935320741633199,0.010306341561663027,0.0002187357038281155,0.059878284681823137,3.385938870501488,0.8242254713638085,0.1721215231269251,-4.574995887604813,46.7
,,0.04935320741633199,0.010306341561663027,0.0002187357038281155,0.059878284681823137,3.385145064717051,0.8242254713638085,0.1721215231269251,-4.574995887604813,46.8
,,0.04935320741633199,0.010306341561663027,0.0002187357038281155,0.059878284681823137,3.3843512589326137,0.8242254713638085,0.1721215231269251,-4.574995887604813,46.9
,,0.04935320741633199,0.010306341561663027,0.0002187357038281155,0.059878284681823137,3.4127648539268653,0.8242254713638085,0.1721215231269251,-4.574995887604813,47.0
,,0.04935320741633199,0.010306341561663027,0.0002187357038281155,0.059878284681823137,3.441178448921118,0.8242254713638085,0.1721215231269251,-4.574995887604813,47.1
,,0.04935320741633199,0.010306341561663027,0.0002187357038281155,0.059878284681823137,3.4695920439153705,0.8242254713638085,0.1721215231269251,-4.574995887604813,47.2
,,0.05085162181558016,0.010732866976796856,0.00024760793871481823,0.061832096731091836,3.4869952594137046,0.8224146439143762,0.17358083494199072,-4.534444565410587,47.3
,,0.05245870757332076,0.010509281296248138,0.00024864760248160113,0.06321663647205049,3.507217591562572,0.8298244022602175,0.16624233560566815,-4.555496479281335,47.4
,,0.05245870757332076,0.010509281296248138,0.00024864760248160113,0.06321663647205049,3.52743992371144,0.8298244022602175,0.16624233560566815,-4.555496479281335,47.5
,,0.05245870757332076,0.010509281296248138,0.00024864760248160113,0.06321663647205049,3.5476622558603075,0.8298244022602175,0.16624233560566815,-4.555496479281335,47.6
,,0.05245870757332076,0.010509281296248138,0.00024864760248160113,0.06321663647205049,3.5691925664690847,0.8298244022602175,0.16624233560566815,-4.555496479281335,47.7
,,0.05245870757332076,0.010509281296248138,0.00024864760248160113,0.06321663647205049,3.5907228770778614,0.8298244022602175,0.16624233560566815,-4.555496479281335,47.8
,,0.05245870757332076,0.010509281296248138,0.00024864760248160113,0.06321663647205049,3.612253187686638,0.8298244022602175,0.16624233560566815,-4.555496479281335,47.9
,,0.05245870757332076,0.010509281296248138,0.00024864760248160113,0.06321663647205049,3.6337834982954154,0.8298244022602175,0.16624233560566815,-4.555496479281335,48.0
,,0.05245870757332076,0.010509281296248138,0.00024864760248160113,0.06321663647205049,3.6555186482650197,0.8298244022602175,0.16624233560566815,-4.555496479281335,48.1
,,0.05377550177668056,0.010025388897210979,0.00031289026425692425,0.06411378093814846,3.6813902054246705,0.8387510608453836,0.1563687049884427,-4.602634513802673,48.2
,,0.05438224042442609,0.01066809420778265,0.00027528017945860464,0.06532561481166735,3.704303107743551,0.8324795806546815,0.16330644936964753,-4.540497841825597,48.3
,,0.05438224042442609,0.01066809420778265,0.00027528017945860464,0.06532561481166735,3.727229187089063,0.8324795806546815,0.16330644936964753,-4.540497841825597,48.4
,,0.05438224042442609,0.01066809420778265,0.00027528017945860464,0.06532561481166735,3.750142089407943,0.8324795806546815,0.16330644936964753,-4.540497841825597,48.5
,,0.05438224042442609,0.01066809420778265,0.00027528017945860464,0.06532561481166735,3.773943600405455,0.8324795806546815,0.16330644936964753,-4.540497841825597,48.6
,,0.05438224042442609,0.01066809420778265,0.00027528017945860464,0.06532561481166735,3.7977451114029686,0.8324795806546815,0.16330644936964753,-4.540497841825597,48.7
,,0.05438224042442609,0.01066809420778265,0.00027528017945860464,0.06532561481166735,3.8215466224004806,0.8324795806546815,0.16330644936964753,-4.540497841825597,48.8
,,0.055926325773360555,0.010524648656245692,0.0002340961101891559,0.0666850705397954,3.847693685371411,0.8386633667874073,0.15782616065412927,-4.554035281800266,48.9
,,0.055926325773360555,0.010524648656245692,0.0002340961101891559,0.0666850705397954,3.8738407483423423,0.8386633667874073,0.15782616065412927,-4.554035281800266,49.0
,,0.056850284367579336,0.011106975279502518,0.0003010150231022796,0.06825827467018414,3.8978165697331986,0.8328702218488988,0.16271983628607814,-4.5001819644679015,49.1
,,0.056850284367579336,0.011106975279502518,0.0003010150231022796,0.06825827467018414,3.9217923911240535,0.8328702218488988,0.16271983628607814,-4.5001819644679015,49.2
,,0.056850284367579336,0.011106975279502518,0.0003010150231022796,0.06825827467018414,3.9457682125149103,0.8328702218488988,0.16271983628607814,-4.5001819644679015,49.3
,,0.056850284367579336,0.011106975279502518,0.0003010150231022796,0.06825827467018414,3.9575557705574833,0.8328702218488988,0.16271983628607814,-4.5001819644679015,49.4
,,0.056850284367579336,0.011106975279502518,0.0003010150231022796,0.06825827467018414,3.9818587220650965,0.8328702218488988,0.16271983628607814,-4.5001819644679015,49.5
,,0.05530054103944829,0.008663334916274872,4.81716117776452e-05,0.0640120475675008,4.020215615818978,0.8639083288365957,0.1353391313899055,-4.748655536279488,49.6
,,0.05530054103944829,0.008663334916274872,4.81716117776452e-05,0.0640120475675008,4.0694734632527725,0.8639083288365957,0.1353391313899055,-4.748655536279488,49.7
,,0.05530054103944829,0.008663334916274872,4.81716117776452e-05,0.0640120475675008,4.1187353144611984,0.8639083288365957,0.1353391313899055,-4.748655536279488,49.8
,,0.05784138175129706,0.011438252027302974,0.00031534813066884154,0.06959498190926887,4.153254849612765,0.8311142580179846,0.16435455134128849,-4.470792099520976,49.9
,,0.05784138175129706,0.011438252027302974,0.00031534813066884154,0.06959498190926887,4.187778388538964,0.8311142580179846,0.16435455134128849,-4.470792099520976,50.0
,,0.05784138175129706,0.011438252027302974,0.00031534813066884154,0.06959498190926887,4.210900700675223,0.8311142580179846,0.16435455134128849,-4.470792099520976,50.1
,,0.05784138175129706,0.011438252027302974,0.00031534813066884154,0.06959498190926887,4.222233246038733,0.8311142580179846,0.16435455134128849,-4.470792099520976,50.2
,,0.05881950246426469,0.00978564086973792,5.21226554807882e-05,0.0686572659894834,4.244165343345174,0.8567119825784265,0.14252884569037225,-4.6268391851599615,50.3
,,0.05881950246426469,0.00978564086973792,5.21226554807882e-05,0.0686572659894834,4.266097440651616,0.8567119825784265,0.14252884569037225,-4.6268391851599615,50.4
,,0.05881950246426469,0.00978564086973792,5.21226554807882e-05,0.0686572659894834,4.311072915513052,0.8567119825784265,0.14252884569037225,-4.6268391851599615,50.5
,,0.05881950246426469,0.00978564086973792,5.21226554807882e-05,0.0686572659894834,4.356048390374487,0.8567119825784265,0.14252884569037225,-4.6268391851599615,50.6
,,0.05839977223611793,0.010546788323236031,8.612872471848759e-05,0.06903268928407245,4.395761775503653,0.8459727245421425,0.15277962415509483,-4.551933889744373,50.7
,,0.05839977223611793,0.010546788323236031,8.612872471848759e-05,0.06903268928407245,4.435475160632818,0.8459727245421425,0.15277962415509483,-4.551933889744373,50.8
,,0.05839977223611793,0.010546788323236031,8.612872471848759e-05,0.06903268928407245,4.475188545761984,0.8459727245421425,0.15277962415509483,-4.551933889744373,50.9
,,0.056502650388690095,0.011341819366901769,0.000253799900771928,0.06809826965636379,4.508730693896284,0.8297222627507675,0.16655077176167096,-4.479258555552938,51.0
,,0.056502650388690095,0.011341819366901769,0.000253799900771928,0.06809826965636379,4.529599043266986,0.8297222627507675,0.16655077176167096,-4.479258555552938,51.1
,,0.056502650388690095,0.011341819366901769,0.000253799900771928,0.06809826965636379,4.550467392637687,0.8297222627507675,0.16655077176167096,-4.479258555552938,51.2
,,0.056502650388690095,0.011341819366901769,0.000253799900771928,0.06809826965636379,4.570082129495676,0.8297222627507675,0.16655077176167096,-4.479258555552938,51.3
,,0.056502650388690095,0.011341819366901769,0.000253799900771928,0.06809826965636379,4.589696436150883,0.8297222627507675,0.16655077176167096,-4.479258555552938,51.4
,,0.05608958003500935,0.011882417075858022,0.00031033431527090373,0.06828233142613828,4.606406583635964,0.8214362172984975,0.1740189127653229,-4.432695528178515,51.5
,,0.05608958003500935,0.011882417075858022,0.00031033431527090373,0.06828233142613828,4.623116300918266,0.8214362172984975,0.1740189127653229,-4.432695528178515,51.6
,,0.055828816188862124,0.0117555888023734,0.00032824221446521606,0.06791264720570074,4.640145837290636,0.8220680313014764,0.17309866845223798,-4.443426508718945,51.7
,,0.055828816188862124,0.0117555888023734,0.00032824221446521606,0.06791264720570074,4.656518727349509,0.8220680313014764,0.17309866845223798,-4.443426508718945,51.8
,,0.055828816188862124,0.0117555888023734,0.00032824221446521606,0.06791264720570074,4.6728010449526085,0.8220680313014764,0.17309866845223798,-4.443426508718945,51.9
,,0.055828816188862124,0.0117555888023734,0.00032824221446521606,0.06791264720570074,4.689082879770447,0.8220680313014764,0.17309866845223798,-4.443426508718945,52.0
,,0.055828816188862124,0.0117555888023734,0.00032824221446521606,0.06791264720570074,4.7036910139404,0.8220680313014764,0.17309866845223798,-4.443426508718945,52.1
,,0.055828816188862124,0.0117555888023734,0.00032824221446521606,0.06791264720570074,4.718299148110353,0.8220680313014764,0.17309866845223798,-4.443426508718945,52.2
,,0.05568883096178275,0.012397798297910066,0.00030661464049815904,0.06839324390019098,4.730048422134458,0.8142446210484139,0.1812722659566005,-4.390236378756344,52.3
,,0.055460084598002606,0.012318559710642317,0.0003250398375414104,0.06810368414618634,4.741912410221154,0.8143477888649325,0.18087949080992752,-4.396648234314581,52.4
,,0.055460084598002606,0.012318559710642317,0.0003250398375414104,0.06810368414618634,4.75377639830785,0.8143477888649325,0.18087949080992752,-4.396648234314581,52.5
,,0.055460084598002606,0.012318559710642317,0.0003250398375414104,0.06810368414618634,4.765640386394547,0.8143477888649325,0.18087949080992752,-4.396648234314581,52.6
,,0.055460084598002606,0.012318559710642317,0.0003250398375414104,0.06810368414618634,4.765969298770958,0.8143477888649325,0.18087949080992752,-4.396648234314581,52.7
,,0.055460084598002606,0.012318559710642317,0.0003250398375414104,0.06810368414618634,4.775106007409003,0.8143477888649325,0.18087949080992752,-4.396648234314581,52.8
,,0.05552854815258064,0.01294708196018391,0.00030562994445208677,0.06878126005721664,4.781873034058015,0.8073208909867085,0.18823560297403247,-4.346884847487423,52.9
,,0.05554211157954674,0.01305286253004433,0.0003034553773543485,0.06889842948694543,4.788265415518292,0.8061448133599419,0.18945079920170793,-4.338747818306088,53.0
,,0.05517049401718016,0.01295728938855467,0.0003194188741507451,0.06844720227988557,4.7946878633902505,0.8060299351839687,0.1893034186491856,-4.346096762051058,53.1
,,0.05517049401718016,0.01295728938855467,0.0003194188741507451,0.06844720227988557,4.801110311262208,0.8060299351839687,0.1893034186491856,-4.346096762051058,53.2
,,0.05517049401718016,0.01295728938855467,0.0003194188741507451,0.06844720227988557,4.807532759134166,0.8060299351839687,0.1893034186491856,-4.346096762051058,53.3
,,0.05517049401718016,0.01295728938855467,0.0003194188741507451,0.06844720227988557,4.813955207006124,0.8060299351839687,0.1893034186491856,-4.346096762051058,53.4
,,0.05517049401718016,0.01295728938855467,0.0003194188741507451,0.06844720227988557,4.808899745476309,0.8060299351839687,0.1893034186491856,-4.346096762051058,53.5
,,0.05517049401718016,0.01295728938855467,0.0003194188741507451,0.06844720227988557,4.812300179048517,0.8060299351839687,0.1893034186491856,-4.346096762051058,53.6
,,0.05517049401718016,0.01295728938855467,0.0003194188741507451,0.06844720227988557,4.815700612620723,0.8060299351839687,0.1893034186491856,-4.346096762051058,53.7
,,0.052201646421272535,0.012959308292430385,0.0003003224586530741,0.065461277172356,4.816548231760042,0.7974431400693333,0.19796907197990082,-4.345940961980026,53.8
,,0.052201646421272535,0.012959308292430385,0.0003003224586530741,0.065461277172356,4.817395850899361,0.7974431400693333,0.19796907197990082,-4.345940961980026,53.9
,,0.052201646421272535,0.012959308292430385,0.0003003224586530741,0.065461277172356,4.818243470038681,0.7974431400693333,0.19796907197990082,-4.345940961980026,54.0
,,0.052201646421272535,0.012959308292430385,0.0003003224586530741,0.065461277172356,4.819091089178,0.7974431400693333,0.19796907197990082,-4.345940961980026,54.1
,,0.052201646421272535,0.012959308292430385,0.0003003224586530741,0.065461277172356,4.8194007531307985,0.7974431400693333,0.19796907197990082,-4.345940961980026,54.2
,,0.052201646421272535,0.012959308292430385,0.0003003224586530741,0.065461277172356,4.817104222362472,0.7974431400693333,0.19796907197990082,-4.345940961980026,54.3
,,0.052201646421272535,0.012959308292430385,0.0003003224586530741,0.065461277172356,4.814807691594146,0.7974431400693333,0.19796907197990082,-4.345940961980026,54.4
,,0.04981473746056326,0.013017305196704163,0.0002904622358769046,0.06312250489314433,4.8102743713282345,0.7891755491150286,0.20622288704702463,-4.341475637763282,54.5
,,0.04981473746056326,0.013017305196704163,0.0002904622358769046,0.06312250489314433,4.805741051062324,0.7891755491150286,0.20622288704702463,-4.341475637763282,54.6
,,0.04981473746056326,0.013017305196704163,0.0002904622358769046,0.06312250489314433,4.8012077307964125,0.7891755491150286,0.20622288704702463,-4.341475637763282,54.7
,,0.04981473746056326,0.013017305196704163,0.0002904622358769046,0.06312250489314433,4.813437994839042,0.7891755491150286,0.20622288704702463,-4.341475637763282,54.8
,,0.04981473746056326,0.013017305196704163,0.0002904622358769046,0.06312250489314433,4.808650692484315,0.7891755491150286,0.20622288704702463,-4.341475637763282,54.9
,,0.04981473746056326,0.013017305196704163,0.0002904622358769046,0.06312250489314433,4.8009378902239535,0.7891755491150286,0.20622288704702463,-4.341475637763282,55.0
,,0.04981473746056326,0.013017305196704163,0.0002904622358769046,0.06312250489314433,4.793225087963591,0.7891755491150286,0.20622288704702463,-4.341475637763282,55.1
,,0.04807054834808933,0.013150059050583756,0.0002076549505874764,0.06142826234926057,4.783609283921375,0.7825477477252452,0.21407180583779037,-4.3313290298297575,55.2
,,0.04807054834808933,0.013150059050583756,0.0002076549505874764,0.06142826234926057,4.773993479879159,0.7825477477252452,0.21407180583779037,-4.3313290298297575,55.3
,,0.04807054834808933,0.013150059050583756,0.0002076549505874764,0.06142826234926057,4.7643776758369425,0.7825477477252452,0.21407180583779037,-4.3313290298297575,55.4
,,0.04807054834808933,0.013150059050583756,0.0002076549505874764,0.06142826234926057,4.754761871794726,0.7825477477252452,0.21407180583779037,-4.3313290298297575,55.5
,,0.04807054834808933,0.013150059050583756,0.0002076549505874764,0.06142826234926057,4.74514606775251,0.7825477477252452,0.21407180583779037,-4.3313290298297575,55.6
,,0.04685353807745732,0.013285229524865041,0.0002785346955795467,0.06041730229790191,4.731125110268239,0.7754986782831643,0.21989114077551908,-4.321102422925624,55.7
,,0.04685353807745732,0.013285229524865041,0.0002785346955795467,0.06041730229790191,4.717104152783966,0.7754986782831643,0.21989114077551908,-4.321102422925624,55.8
,,0.04685353807745732,0.013285229524865041,0.0002785346955795467,0.06041730229790191,4.703083195299695,0.7754986782831643,0.21989114077551908,-4.321102422925624,55.9
,,0.04685353807745732,0.013285229524865041,0.0002785346955795467,0.06041730229790191,4.689062237815423,0.7754986782831643,0.21989114077551908,-4.321102422925624,56.0
,,0.04772147116634963,0.013247888320624485,0.0002200161290087232,0.06118937561598284,4.675879674554004,0.7798979918645329,0.21650634913757968,-4.323917111279318,56.1
,,0.04772147116634963,0.013247888320624485,0.0002200161290087232,0.06118937561598284,4.662697111292586,0.7798979918645329,0.21650634913757968,-4.323917111279318,56.2
,,0.04772147116634963,0.013247888320624485,0.0002200161290087232,0.06118937561598284,4.650077777443669,0.7798979918645329,0.21650634913757968,-4.323917111279318,56.3
,,0.04772147116634963,0.013247888320624485,0.0002200161290087232,0.06118937561598284,4.634639326944217,0.7798979918645329,0.21650634913757968,-4.323917111279318,56.4
,,0.04772147116634963,0.013247888320624485,0.0002200161290087232,0.06118937561598284,4.619200876444767,0.7798979918645329,0.21650634913757968,-4.323917111279318,56.5
,,0.04772147116634963,0.013247888320624485,0.0002200161290087232,0.06118937561598284,4.603762425945316,0.7798979918645329,0.21650634913757968,-4.323917111279318,56.6
,,0.04772147116634963,0.013247888320624485,0.0002200161290087232,0.06118937561598284,4.5883239754458645,0.7798979918645329,0.21650634913757968,-4.323917111279318,56.7
,,0.04466846218632659,0.013734842368541557,0.0003008590371082494,0.058704163591976395,4.568996702902363,0.7609079058990599,0.23396709071618246,-4.287819436126781,56.8
,,0.04019232710023085,0.017829799268943642,0.00014708821682543578,0.058169214585999926,4.53858078040627,0.6909552997455165,0.3065160737658454,-4.026884105221854,56.9
,,0.04019232710023085,0.017829799268943642,0.00014708821682543578,0.058169214585999926,4.508164857910177,0.6909552997455165,0.3065160737658454,-4.026884105221854,57.0
,,0.04019232710023085,0.017829799268943642,0.00014708821682543578,0.058169214585999926,4.477748935414084,0.6909552997455165,0.3065160737658454,-4.026884105221854,57.1
,,0.04019232710023085,0.017829799268943642,0.00014708821682543578,0.058169214585999926,4.4431966057279455,0.6909552997455165,0.3065160737658454,-4.026884105221854,57.2
,,0.04019232710023085,0.017829799268943642,0.00014708821682543578,0.058169214585999926,4.411602930882578,0.6909552997455165,0.3065160737658454,-4.026884105221854,57.3
,,0.04019232710023085,0.017829799268943642,0.00014708821682543578,0.058169214585999926,4.3800092560372095,0.6909552997455165,0.3065160737658454,-4.026884105221854,57.4
,,0.039109394573037144,0.018111730968609883,0.00024249613915545276,0.05746362168080248,4.34736134169791,0.6805939728317343,0.31518603316053556,-4.0111954308365965,57.5
,,0.039109394573037144,0.018111730968609883,0.00024249613915545276,0.05746362168080248,4.314713427358612,0.6805939728317343,0.31518603316053556,-4.0111954308365965,57.6
,,0.04566334651254633,0.014149112696116909,0.00031642191611779783,0.060128881124781035,4.293931662796305,0.7594245171099152,0.23531308801097262,-4.25810336384726,57.7
,,0.04566334651254633,0.014149112696116909,0.00031642191611779783,0.060128881124781035,4.273149898233997,0.7594245171099152,0.23531308801097262,-4.25810336384726,57.8
,,0.04566334651254633,0.014149112696116909,0.00031642191611779783,0.060128881124781035,4.249966025543065,0.7594245171099152,0.23531308801097262,-4.25810336384726,57.9
,,0.04566334651254633,0.014149112696116909,0.00031642191611779783,0.060128881124781035,4.2267821528521345,0.7594245171099152,0.23531308801097262,-4.25810336384726,58.0
,,0.04566334651254633,0.014149112696116909,0.00031642191611779783,0.060128881124781035,4.205769521741278,0.7594245171099152,0.23531308801097262,-4.25810336384726,58.1
,,0.04566334651254633,0.014149112696116909,0.00031642191611779783,0.060128881124781035,4.184756890630422,0.7594245171099152,0.23531308801097262,-4.25810336384726,58.2
,,0.043486819856627924,0.014632345222390644,0.000516905331395922,0.05863607041041449,4.160907272137702,0.7416393962325301,0.24954511992317543,-4.224520774514802,58.3
,,0.043486819856627924,0.014632345222390644,0.000516905331395922,0.05863607041041449,4.137057653644981,0.7416393962325301,0.24954511992317543,-4.224520774514802,58.4
,,0.042365531024795434,0.01979204713806126,0.00025111826172824155,0.062408696424584936,4.103969900864291,0.6788401849731024,0.3171360446853444,-3.922475081662385,58.5
,,0.042365531024795434,0.01979204713806126,0.00025111826172824155,0.062408696424584936,4.056828205837333,0.6788401849731024,0.3171360446853444,-3.922475081662385,58.6
,,0.042365531024795434,0.01979204713806126,0.00025111826172824155,0.062408696424584936,4.009686510810376,0.6788401849731024,0.3171360446853444,-3.922475081662385,58.7
,,0.042365531024795434,0.01979204713806126,0.00025111826172824155,0.062408696424584936,3.9625448157834184,0.6788401849731024,0.3171360446853444,-3.922475081662385,58.8
,,0.042365531024795434,0.01979204713806126,0.00025111826172824155,0.062408696424584936,3.9301414330386875,0.6788401849731024,0.3171360446853444,-3.922475081662385,58.9
,,0.04351771556042518,0.015330053415751407,0.0008161283441851266,0.05966389732036171,3.9054956731631916,0.7293810413818497,0.2569401950636514,-4.177940101711046,59.0
,,0.04322924274908688,0.01543325539517044,0.000875995525130993,0.05953849366938831,3.8804313120072296,0.7260721607962544,0.2592147440086386,-4.171230656559766,59.1
,,0.04322924274908688,0.01543325539517044,0.000875995525130993,0.05953849366938831,3.855366950851268,0.7260721607962544,0.2592147440086386,-4.171230656559766,59.2
,,0.04322924274908688,0.01543325539517044,0.000875995525130993,0.05953849366938831,3.8197030377523737,0.7260721607962544,0.2592147440086386,-4.171230656559766,59.3
,,0.045398107236897224,0.01566580966064273,0.0008530193257107428,0.061916936223250695,3.7851154030512553,0.7332098454162463,0.25301332101054436,-4.1562746699485915,59.4
,,0.045398107236897224,0.01566580966064273,0.0008530193257107428,0.061916936223250695,3.7505277683501363,0.7332098454162463,0.25301332101054436,-4.1562746699485915,59.5
,,0.045398107236897224,0.01566580966064273,0.0008530193257107428,0.061916936223250695,3.715940133649018,0.7332098454162463,0.25301332101054436,-4.1562746699485915,59.6
,,0.045398107236897224,0.01566580966064273,0.0008530193257107428,0.061916936223250695,3.6866145886801682,0.7332098454162463,0.25301332101054436,-4.1562746699485915,59.7
,,0.045398107236897224,0.01566580966064273,0.0008530193257107428,0.061916936223250695,3.6572890437113195,0.7332098454162463,0.25301332101054436,-4.1562746699485915,59.8
,,0.045398107236897224,0.01566580966064273,0.0008530193257107428,0.061916936223250695,3.6279634987424703,0.7332098454162463,0.25301332101054436,-4.1562746699485915,59.9
,,0.04397974294376559,0.021380177299663704,0.0004588344176273226,0.06581875466105662,3.595466119045582,0.6681946987639884,0.32483412075728385,-3.845291080638346,60.0
,,0.04397974294376559,0.021380177299663704,0.0004588344176273226,0.06581875466105662,3.5629687393486935,0.6681946987639884,0.32483412075728385,-3.845291080638346,60.1
,,0.04397974294376559,0.021380177299663704,0.0004588344176273226,0.06581875466105662,3.530471359651805,0.6681946987639884,0.32483412075728385,-3.845291080638346,60.2
,,0.04524302507147862,0.017188300292757072,0.001534981131774114,0.0639663064960098,3.5043647055473364,0.7072946297798336,0.2687086567024043,-4.063526342151662,60.3
,,0.04524302507147862,0.017188300292757072,0.001534981131774114,0.0639663064960098,3.478258051442868,0.7072946297798336,0.2687086567024043,-4.063526342151662,60.4
,,0.04524302507147862,0.017188300292757072,0.001534981131774114,0.0639663064960098,3.4550559867113053,0.7072946297798336,0.2687086567024043,-4.063526342151662,60.5
,,0.04344350888365718,0.018573787921172317,0.002591018608618146,0.06460831541344764,3.4285958088568456,0.6724135833855035,0.287482931605834,-3.9860039437417294,60.6
,,0.04524302507147862,0.017188300292757072,0.001534981131774114,0.0639663064960098,3.405074355237995,0.7072946297798336,0.2687086567024043,-4.063526342151662,60.7
,,0.04318931408413007,0.018834129533519532,0.002751694608187773,0.06477513822583737,3.3777855913291686,0.666757575005881,0.29076170347726116,-3.97208465427538,60.8
,,0.04318931408413007,0.018834129533519532,0.002751694608187773,0.06477513822583737,3.3504968274203413,0.666757575005881,0.29076170347726116,-3.97208465427538,60.9
,,0.04318931408413007,0.018834129533519532,0.002751694608187773,0.06477513822583737,3.3232080635115153,0.666757575005881,0.29076170347726116,-3.97208465427538,61.0
,,0.04918321330193581,0.022972338535974305,0.00047859500614441024,0.07263414684405453,3.29422857181897,0.6771362429234853,0.3162746385015839,-3.7734644591927005,61.1
,,0.04918321330193581,0.022972338535974305,0.00047859500614441024,0.07263414684405453,3.2652490801264253,0.6771362429234853,0.3162746385015839,-3.7734644591927005,61.2
,,0.04918321330193581,0.022972338535974305,0.00047859500614441024,0.07263414684405453,3.239128448579728,0.6771362429234853,0.3162746385015839,-3.7734644591927005,61.3
,,0.04918321330193581,0.022972338535974305,0.00047859500614441024,0.07263414684405453,3.2128931029704404,0.6771362429234853,0.3162746385015839,-3.7734644591927005,61.4
,,0.04918321330193581,0.022972338535974305,0.00047859500614441024,0.07263414684405453,3.186657757361152,0.6771362429234853,0.3162746385015839,-3.7734644591927005,61.5
,,0.04337111503431553,0.021829102328988995,0.004474308336072377,0.0696745256993769,3.1587098877292945,0.6224816688591164,0.31330105386256274,-3.8245112302465816,61.6
,,0.04337111503431553,0.021829102328988995,0.004474308336072377,0.0696745256993769,3.1307620180974363,0.6224816688591164,0.31330105386256274,-3.8245112302465816,61.7
,,0.04337111503431553,0.021829102328988995,0.004474308336072377,0.0696745256993769,3.102814148465578,0.6224816688591164,0.31330105386256274,-3.8245112302465816,61.8
,,0.05163334237742946,0.024072043657922003,0.0005485762767280803,0.07625396231207954,3.0789926519787607,0.6771234020091061,0.3156825288554049,-3.726704126016872,61.9
,,0.05163334237742946,0.024072043657922003,0.0005485762767280803,0.07625396231207954,3.055545800680679,0.6771234020091061,0.3156825288554049,-3.726704126016872,62.0
,,0.05163334237742946,0.024072043657922003,0.0005485762767280803,0.07625396231207954,3.0320688829709157,0.6771234020091061,0.3156825288554049,-3.726704126016872,62.1
,,0.05163334237742946,0.024072043657922003,0.0005485762767280803,0.07625396231207954,3.0085919652611537,0.6771234020091061,0.3156825288554049,-3.726704126016872,62.2
,,0.05163334237742946,0.024072043657922003,0.0005485762767280803,0.07625396231207954,2.985115047551391,0.6771234020091061,0.3156825288554049,-3.726704126016872,62.3
,,0.05117425529324869,0.024620518078328175,0.0006812173827839491,0.07647599075436082,2.9609000202841895,0.6691545253414142,0.32193787665214735,-3.704175115460708,62.4
,,0.05117425529324869,0.024620518078328175,0.0006812173827839491,0.07647599075436082,2.9366849930169883,0.6691545253414142,0.32193787665214735,-3.704175115460708,62.5
,,0.04579680471825731,0.027186801756570542,0.00755018832804234,0.08053379480287019,2.9080922189071625,0.5686656742099173,0.33758252449320336,-3.6050236529799813,62.6
,,0.04579680471825731,0.027186801756570542,0.00755018832804234,0.08053379480287019,2.8794994447973377,0.5686656742099173,0.33758252449320336,-3.6050236529799813,62.7
,,0.04579680471825731,0.027186801756570542,0.00755018832804234,0.08053379480287019,2.8534594851204003,0.5686656742099173,0.33758252449320336,-3.6050236529799813,62.8
,,0.04579680471825731,0.027186801756570542,0.00755018832804234,0.08053379480287019,2.827419525443462,0.5686656742099173,0.33758252449320336,-3.6050236529799813,62.9
,,0.04579680471825731,0.027186801756570542,0.00755018832804234,0.08053379480287019,2.8013795657665246,0.5686656742099173,0.33758252449320336,-3.6050236529799813,63.0
,,0.04579680471825731,0.027186801756570542,0.00755018832804234,0.08053379480287019,2.7753396060895867,0.5686656742099173,0.33758252449320336,-3.6050236529799813,63.1
,,0.04459496366697573,0.03107302787892547,0.009779159965776572,0.08544715151167778,2.7465290119992343,0.5219011152277099,0.36365200394864916,-3.4714151068679304,63.2
,,0.04654191493262742,0.03256577118549273,0.010671931795130712,0.08977961791325087,2.7176517549769486,0.518401793351341,0.3627301156144288,-3.424493505842624,63.3
,,0.04654191493262742,0.03256577118549273,0.010671931795130712,0.08977961791325087,2.6887744979546633,0.518401793351341,0.3627301156144288,-3.424493505842624,63.4
,,0.04654191493262742,0.03256577118549273,0.010671931795130712,0.08977961791325087,2.6621340304299617,0.518401793351341,0.3627301156144288,-3.424493505842624,63.5
,,0.04654191493262742,0.03256577118549273,0.010671931795130712,0.08977961791325087,2.63549356290526,0.518401793351341,0.3627301156144288,-3.424493505842624,63.6
,,0.04654191493262742,0.03256577118549273,0.010671931795130712,0.08977961791325087,2.6088530953805584,0.518401793351341,0.3627301156144288,-3.424493505842624,63.7
,,0.04654191493262742,0.03256577118549273,0.010671931795130712,0.08977961791325087,2.582212627855857,0.518401793351341,0.3627301156144288,-3.424493505842624,63.8
,,0.04654191493262742,0.03256577118549273,0.010671931795130712,0.08977961791325087,2.555572160331155,0.518401793351341,0.3627301156144288,-3.424493505842624,63.9
,,0.047593307207552574,0.03872393755493345,0.014174327671084144,0.10049157243357018,2.52670807427018,0.47360496064497415,0.3853451251400396,-3.251297328693181,64.0
,,0.047593307207552574,0.03872393755493345,0.014174327671084144,0.10049157243357018,2.4978439882092043,0.47360496064497415,0.3853451251400396,-3.251297328693181,64.1
,,0.047593307207552574,0.03872393755493345,0.014174327671084144,0.10049157243357018,2.4708829039300824,0.47360496064497415,0.3853451251400396,-3.251297328693181,64.2
,,0.047593307207552574,0.03872393755493345,0.014174327671084144,0.10049157243357018,2.443921819650961,0.47360496064497415,0.3853451251400396,-3.251297328693181,64.3
,,0.047593307207552574,0.03872393755493345,0.014174327671084144,0.10049157243357018,2.416960735371839,0.47360496064497415,0.3853451251400396,-3.251297328693181,64.4
,,0.047593307207552574,0.03872393755493345,0.014174327671084144,0.10049157243357018,2.3899996510927175,0.47360496064497415,0.3853451251400396,-3.251297328693181,64.5
,,0.04956931601752485,0.04073524302586538,0.012606230730747011,0.10291078977413724,2.362903284533146,0.48167268103098587,0.39583063267971,-3.20066163921633,64.6
,,0.04956931601752485,0.04073524302586538,0.012606230730747011,0.10291078977413724,2.3372380237262536,0.48167268103098587,0.39583063267971,-3.20066163921633,64.7
,,0.048854215209538546,0.0457555693588414,0.018101674786078714,0.11271145935445866,2.309915608676156,0.4334449708072737,0.4059531268683852,-3.08444176005018,64.8
,,0.048854215209538546,0.0457555693588414,0.018101674786078714,0.11271145935445866,2.2825931936260577,0.4334449708072737,0.4059531268683852,-3.08444176005018,64.9
,,0.048854215209538546,0.0457555693588414,0.018101674786078714,0.11271145935445866,2.25527077857596,0.4334449708072737,0.4059531268683852,-3.08444176005018,65.0
,,0.048854215209538546,0.0457555693588414,0.018101674786078714,0.11271145935445866,2.2271099693030085,0.4334449708072737,0.4059531268683852,-3.08444176005018,65.1
,,0.050795964175366165,0.048220381366797294,0.015967641306308306,0.11498398684847176,2.198790171391526,0.44176554986135697,0.41936605860034315,-3.0319734973678676,65.2
,,0.050795964175366165,0.048220381366797294,0.015967641306308306,0.11498398684847176,2.170470373480043,0.44176554986135697,0.41936605860034315,-3.0319734973678676,65.3
,,0.05023819222061502,0.052702820689527224,0.02191039819239302,0.12485141110253525,2.141037493535021,0.40238385595302956,0.4221243494496398,-2.943086301346712,65.4
,,0.050195498061593374,0.053455445758813856,0.022297115395013174,0.1259480592154204,2.1114466163859453,0.39854125878779484,0.42442452937987835,-2.928906761596923,65.5
,,0.050195498061593374,0.053455445758813856,0.022297115395013174,0.1259480592154204,2.081855739236869,0.39854125878779484,0.42442452937987835,-2.928906761596923,65.6
,,0.050195498061593374,0.053455445758813856,0.022297115395013174,0.1259480592154204,2.052264862087793,0.39854125878779484,0.42442452937987835,-2.928906761596923,65.7
,,0.050195498061593374,0.053455445758813856,0.022297115395013174,0.1259480592154204,2.0265628069827675,0.39854125878779484,0.42442452937987835,-2.928906761596923,65.8
,,0.05220688683209857,0.056454086502507064,0.02406875717214705,0.13272973050675269,2.0117910860201866,0.39333227478709093,0.42533113181929455,-2.8743275994652953,65.9
,,0.05220688683209857,0.056454086502507064,0.02406875717214705,0.13272973050675269,1.9970193650576062,0.39333227478709093,0.42533113181929455,-2.8743275994652953,66.0
,,0.05220688683209857,0.056454086502507064,0.02406875717214705,0.13272973050675269,1.9822476440950254,0.39333227478709093,0.42533113181929455,-2.8743275994652953,66.1
,,0.05220688683209857,0.056454086502507064,0.02406875717214705,0.13272973050675269,1.9674759231324448,0.39333227478709093,0.42533113181929455,-2.8743275994652953,66.2
,,0.0516733515096106,0.06134193871507482,0.026519050809749183,0.1395343410344346,1.9517888123666205,0.3703271261148432,0.43961893724740286,-2.791291514746017,66.3
,,0.0516733515096106,0.06134193871507482,0.026519050809749183,0.1395343410344346,1.9361017016007958,0.3703271261148432,0.43961893724740286,-2.791291514746017,66.4
,,0.05365899992895231,0.06477751037167065,0.02851765780221369,0.14695416810283665,1.921313012247011,0.3651410546681631,0.4408007694367687,-2.7367967980294963,66.5
,,0.05365899992895231,0.06477751037167065,0.02851765780221369,0.14695416810283665,1.9065243228932258,0.3651410546681631,0.4408007694367687,-2.7367967980294963,66.6
,,0.05365899992895231,0.06477751037167065,0.02851765780221369,0.14695416810283665,1.87986948376245,0.3651410546681631,0.4408007694367687,-2.7367967980294963,66.7
,,0.05365899992895231,0.06477751037167065,0.02851765780221369,0.14695416810283665,1.8532146446316735,0.3651410546681631,0.4408007694367687,-2.7367967980294963,66.8
,,0.053201678592264066,0.0686760075904028,0.03039482120585469,0.15227250738852155,1.8259633373584523,0.3493846624362768,0.45100726827316734,-2.678355375242354,66.9
,,0.05310711174496388,0.0691463181175586,0.0306021149412711,0.15285554480379357,1.7986382886658623,0.34743333526521747,0.4523638197509635,-2.671530467154313,67.0
,,0.05310711174496388,0.0691463181175586,0.0306021149412711,0.15285554480379357,1.771313239973273,0.34743333526521747,0.4523638197509635,-2.671530467154313,67.1
,,0.055252605521659656,0.0731654135498054,0.03288557313932317,0.16130359221078822,1.743845238074054,0.34253797305057343,0.4535882465295276,-2.6150324621636183,67.2
,,0.055252605521659656,0.0731654135498054,0.03288557313932317,0.16130359221078822,1.719214223556699,0.34253797305057343,0.4535882465295276,-2.6150324621636183,67.3
,,0.055252605521659656,0.0731654135498054,0.03288557313932317,0.16130359221078822,1.6945832090393442,0.34253797305057343,0.4535882465295276,-2.6150324621636183,67.4
,,0.055252605521659656,0.0731654135498054,0.03288557313932317,0.16130359221078822,1.6791903288099586,0.34253797305057343,0.4535882465295276,-2.6150324621636183,67.5
,,0.055252605521659656,0.0731654135498054,0.03288557313932317,0.16130359221078822,1.663797448580573,0.34253797305057343,0.4535882465295276,-2.6150324621636183,67.6
,,0.05474589185162567,0.0771379314290029,0.034709150827892776,0.16659297410852134,1.6478994623037317,0.32862065248900185,0.46303232079135587,-2.562160142364005,67.7
,,0.05474589185162567,0.0771379314290029,0.034709150827892776,0.16659297410852134,1.63200147602689,0.32862065248900185,0.46303232079135587,-2.562160142364005,67.8
,,0.05679671562933317,0.08141035026994493,0.03703702934796536,0.17524409524724346,1.6159695492454842,0.32410059551051584,0.4645540276554653,-2.508252860863498,67.9
,,0.05679671562933317,0.08141035026994493,0.03703702934796536,0.17524409524724346,1.5921799995948445,0.32410059551051584,0.4645540276554653,-2.508252860863498,68.0
,,0.05679671562933317,0.08141035026994493,0.03703702934796536,0.17524409524724346,1.56880905122467,0.32410059551051584,0.4645540276554653,-2.508252860863498,68.1
,,0.05679671562933317,0.08141035026994493,0.03703702934796536,0.17524409524724346,1.545438102854496,0.32410059551051584,0.4645540276554653,-2.508252860863498,68.2
,,0.0562795865398567,0.08431212478598217,0.038309900763393315,0.17890161208923216,1.5217322112192417,0.31458401007468667,0.47127649550708994,-2.4732295953015186,68.3
,,0.0562160239070813,0.0846743684067175,0.03846076277339256,0.17935115508719135,1.4969099706066873,0.3134411031796921,0.4721149878602854,-2.468942339335143,68.4
,,0.0562160239070813,0.0846743684067175,0.03846076277339256,0.17935115508719135,1.4720877299941324,0.3134411031796921,0.4721149878602854,-2.468942339335143,68.5
,,0.05697289689407395,0.02225603008192665,0.0004087203797360612,0.07963764735573665,1.4683319057686965,0.7154015567483981,0.27946619244677434,-3.8051422921697453,68.6
,,0.05697289689407395,0.02225603008192665,0.0004087203797360612,0.07963764735573665,1.4645760815432605,0.7154015567483981,0.27946619244677434,-3.8051422921697453,68.7
,,0.05697289689407395,0.02225603008192665,0.0004087203797360612,0.07963764735573665,1.4608202573178244,0.7154015567483981,0.27946619244677434,-3.8051422921697453,68.8
,,0.05697289689407395,0.02225603008192665,0.0004087203797360612,0.07963764735573665,1.4570644330923885,0.7154015567483981,0.27946619244677434,-3.8051422921697453,68.9
,,0.05697289689407395,0.02225603008192665,0.0004087203797360612,0.07963764735573665,1.4626516805898573,0.7154015567483981,0.27946619244677434,-3.8051422921697453,69.0
,,0.05697289689407395,0.02225603008192665,0.0004087203797360612,0.07963764735573665,1.4682389280873263,0.7154015567483981,0.27946619244677434,-3.8051422921697453,69.1
,,0.05744238439821202,0.09192657188728201,0.0419172892455835,0.1912862455310775,1.4523260267573934,0.30029542499896883,0.48057073644820464,-2.3867651522697235,69.2
,,0.05744238439821202,0.09192657188728201,0.0419172892455835,0.1912862455310775,1.4300223998350405,0.30029542499896883,0.48057073644820464,-2.3867651522697235,69.3
,,0.05574958788819088,0.021182046533384107,0.00038117917006642664,0.07731281359164141,1.4300193723064332,0.7210911787877059,0.27397847199386083,-3.854601317726886,69.4
,,0.05574958788819088,0.021182046533384107,0.00038117917006642664,0.07731281359164141,1.4300163447778258,0.7210911787877059,0.27397847199386083,-3.854601317726886,69.5
,,0.05574958788819088,0.021182046533384107,0.00038117917006642664,0.07731281359164141,1.4332714303721152,0.7210911787877059,0.27397847199386083,-3.854601317726886,69.6
,,0.05574958788819088,0.021182046533384107,0.00038117917006642664,0.07731281359164141,1.4332684028435074,0.7210911787877059,0.27397847199386083,-3.854601317726886,69.7
,,0.05574958788819088,0.021182046533384107,0.00038117917006642664,0.07731281359164141,1.4370326856048763,0.7210911787877059,0.27397847199386083,-3.854601317726886,69.8
,,0.05574958788819088,0.021182046533384107,0.00038117917006642664,0.07731281359164141,1.440796968366245,0.7210911787877059,0.27397847199386083,-3.854601317726886,69.9
,,0.05362852880673159,0.02142179248810024,0.0004866934301555182,0.07553701472498735,1.4431338092181394,0.7099635721901449,0.2835933160198611,-3.8433465345459092,70.0
,,0.059445025132255365,0.10166704779319258,0.046312175546205786,0.20742424847165372,1.4258418925844316,0.28658667234066915,0.49014061057131536,-2.286052042264361,70.1
,,0.059445025132255365,0.10166704779319258,0.046312175546205786,0.20742424847165372,1.4085499759507236,0.28658667234066915,0.49014061057131536,-2.286052042264361,70.2
,,0.059445025132255365,0.10166704779319258,0.046312175546205786,0.20742424847165372,1.3912580593170156,0.28658667234066915,0.49014061057131536,-2.286052042264361,70.3
,,0.059445025132255365,0.10166704779319258,0.046312175546205786,0.20742424847165372,1.3739661426833079,0.28658667234066915,0.49014061057131536,-2.286052042264361,70.4
,,0.059445025132255365,0.10166704779319258,0.046312175546205786,0.20742424847165372,1.3566742260495999,0.28658667234066915,0.49014061057131536,-2.286052042264361,70.5
,,0.059445025132255365,0.10166704779319258,0.046312175546205786,0.20742424847165372,1.3410948334384614,0.28658667234066915,0.49014061057131536,-2.286052042264361,70.6
,,0.059445025132255365,0.10166704779319258,0.046312175546205786,0.20742424847165372,1.3255154408273229,0.28658667234066915,0.49014061057131536,-2.286052042264361,70.7
,,0.05211087776785954,0.020457589467589538,0.00048462549434043396,0.0730530927297895,1.3317422799941687,0.713328838254781,0.28003728114918486,-3.889401342232961,70.8
,,0.05254896752043775,0.019257097881122204,0.0004819568317512089,0.07228802223331117,1.3382296112417094,0.7269387914755063,0.26639403439437725,-3.949875565112005,70.9
,,0.05254896752043775,0.019257097881122204,0.0004819568317512089,0.07228802223331117,1.3447169424892502,0.7269387914755063,0.26639403439437725,-3.949875565112005,71.0
,,0.05254896752043775,0.019257097881122204,0.0004819568317512089,0.07228802223331117,1.351204273736791,0.7269387914755063,0.26639403439437725,-3.949875565112005,71.1
,,0.05254896752043775,0.019257097881122204,0.0004819568317512089,0.07228802223331117,1.3576916049843322,0.7269387914755063,0.26639403439437725,-3.949875565112005,71.2
,,0.05254896752043775,0.019257097881122204,0.0004819568317512089,0.07228802223331117,1.3641789362318728,0.7269387914755063,0.26639403439437725,-3.949875565112005,71.3
,,0.05863618888311957,0.1056379131086771,0.04749388869422395,0.2117679906860206,1.3472516807260027,0.2768888191891897,0.4988379630295588,-2.2477379464939116,71.4
,,0.05850306880011173,0.10548291736811478,0.047401911187371255,0.21138789735559776,1.3303194652847887,0.2767569455582293,0.4990016868878302,-2.249206259857961,71.5
,,0.05070592172634891,0.018441328375144575,0.0005137639128791218,0.06966101401437261,1.3421534355700213,0.7278952573944324,0.2647295425722589,-3.9931610257506347,71.6
,,0.05070592172634891,0.018441328375144575,0.0005137639128791218,0.06966101401437261,1.3539874058552537,0.7278952573944324,0.2647295425722589,-3.9931610257506347,71.7
,,0.05070592172634891,0.018441328375144575,0.0005137639128791218,0.06966101401437261,1.365821376140486,0.7278952573944324,0.2647295425722589,-3.9931610257506347,71.8
,,0.05070592172634891,0.018441328375144575,0.0005137639128791218,0.06966101401437261,1.3776553464257186,0.7278952573944324,0.2647295425722589,-3.9931610257506347,71.9
,,0.05070592172634891,0.018441328375144575,0.0005137639128791218,0.06966101401437261,1.389489316710951,0.7278952573944324,0.2647295425722589,-3.9931610257506347,72.0
,,0.05070592172634891,0.018441328375144575,0.0005137639128791218,0.06966101401437261,1.4013232869961834,0.7278952573944324,0.2647295425722589,-3.9931610257506347,72.1
