HRV_ULF,HRV_VLF,HRV_LF,HRV_HF,HRV_VHF,HRV_TP,HRV_LFHF,HRV_LFn,HRV_HFn,HRV_LnHF,time
,,0.04829658865991028,0.02133950225347273,0.0008292657366662622,0.07046535665004927,2.26324813419913,0.6853947947750366,0.30283678772039263,-3.8471953579600866,0.0
,,0.04829658865991028,0.02133950225347273,0.0008292657366662622,0.07046535665004927,2.26324813419913,0.6853947947750366,0.30283678772039263,-3.8471953579600866,0.1
,,0.03250663545395605,0.009373704669678204,0.00021679047206478436,0.04209713059569904,2.6647832883948515,0.7721817376616442,0.22266849395754046,-4.669846885239477,0.2
,,0.047733366748769254,0.021551168986714456,0.0007942333181181846,0.0700787690536019,2.5523087838983907,0.681138772746692,0.30752779019606324,-3.837325218580428,0.3
,,0.047733366748769254,0.021551168986714456,0.0007942333181181846,0.0700787690536019,2.4848240812005136,0.681138772746692,0.30752779019606324,-3.837325218580428,0.4
,,0.047733366748769254,0.021551168986714456,0.0007942333181181846,0.0700787690536019,2.4398342794019294,0.681138772746692,0.30752779019606324,-3.837325218580428,0.5
,,0.047733366748769254,0.021551168986714456,0.0007942333181181846,0.0700787690536019,2.407698706688655,0.681138772746692,0.30752779019606324,-3.837325218580428,0.6
,,0.047733366748769254,0.021551168986714456,0.0007942333181181846,0.0700787690536019,2.383597027153699,0.681138772746692,0.30752779019606324,-3.837325218580428,0.7
,,0.03144088923732105,0.02161875648785265,0.0006844245220241512,0.05374407024719785,2.280345562419708,0.585011315531323,0.40225380006420014,-3.834193985175798,0.8
,,0.03144088923732105,0.02161875648785265,0.0006844245220241512,0.05374407024719785,2.1977443906325154,0.585011315531323,0.40225380006420014,-3.834193985175798,0.9
,,0.040211226719439844,0.01273603103352025,0.0003199418288535634,0.05326719958181366,2.284974976650713,0.7548965786661825,0.2390970641127631,-4.363320213205923,1.0
,,0.040211226719439844,0.01273603103352025,0.0003199418288535634,0.05326719958181366,2.357667131665877,0.7548965786661825,0.2390970641127631,-4.363320213205923,1.1
,,0.040211226719439844,0.01273603103352025,0.0003199418288535634,0.05326719958181366,2.4191758782171697,0.7548965786661825,0.2390970641127631,-4.363320213205923,1.2
,,0.040211226719439844,0.01273603103352025,0.0003199418288535634,0.05326719958181366,2.471897660975421,0.7548965786661825,0.2390970641127631,-4.363320213205923,1.3
,,0.040211226719439844,0.01273603103352025,0.0003199418288535634,0.05326719958181366,2.5175898726992383,0.7548965786661825,0.2390970641127631,-4.363320213205923,1.4
,,0.047370972842537384,0.021818788932800766,0.0006651074491565365,0.06985486922449469,2.4959348291020453,0.678134156837369,0.3123445677448922,-3.824983802738953,1.5
,,0.047370972842537384,0.021818788932800766,0.0006651074491565365,0.06985486922449469,2.4768274376927573,0.678134156837369,0.3123445677448922,-3.824983802738953,1.6
,,0.04281433976358042,0.014307790916053276,0.00034215048978659376,0.05746428116942029,2.5054692171307624,0.7450600423827131,0.24898581562118607,-4.2469510707720035,1.7
,,0.04281433976358042,0.014307790916053276,0.00034215048978659376,0.05746428116942029,2.531096072417399,0.7450600423827131,0.24898581562118607,-4.2469510707720035,1.8
,,0.04281433976358042,0.014307790916053276,0.00034215048978659376,0.05746428116942029,2.5541602421753717,0.7450600423827131,0.24898581562118607,-4.2469510707720035,1.9
,,0.04281433976358042,0.014307790916053276,0.00034215048978659376,0.05746428116942029,2.575027824337347,0.7450600423827131,0.24898581562118607,-4.2469510707720035,2.0
,,0.04710133210831165,0.0219672330581918,0.0006484519866455558,0.069717017153149,2.555443067400912,0.675607391590536,0.31509140745272946,-3.818203342337993,2.1
,,0.04710133210831165,0.0219672330581918,0.0006484519866455558,0.069717017153149,2.5375613328067756,0.675607391590536,0.31509140745272946,-3.818203342337993,2.2
,,0.04710133210831165,0.0219672330581918,0.0006484519866455558,0.069717017153149,2.5211697427621513,0.675607391590536,0.31509140745272946,-3.818203342337993,2.3
,,0.04656743767565622,0.021875528662722573,0.0007182371433662843,0.06916120348174508,2.5054727812338937,0.6733173416791045,0.31629768658517576,-3.8223866795917405,2.4
,,0.04656743767565622,0.021875528662722573,0.0007182371433662843,0.06916120348174508,2.4909832782847334,0.6733173416791045,0.31629768658517576,-3.8223866795917405,2.5
,,0.04656743767565622,0.021875528662722573,0.0007182371433662843,0.06916120348174508,2.4775670718503253,0.6733173416791045,0.31629768658517576,-3.8223866795917405,2.6
,,0.04656743767565622,0.021875528662722573,0.0007182371433662843,0.06916120348174508,2.465109165875518,0.6733173416791045,0.31629768658517576,-3.8223866795917405,2.7
,,0.044746291160811046,0.0159864601899277,0.00038392351251250145,0.061116674863251244,2.4766230507792795,0.7321453803062915,0.261572806859952,-4.136013153133491,2.8
,,0.044746291160811046,0.0159864601899277,0.00038392351251250145,0.061116674863251244,2.487369343356123,0.7321453803062915,0.261572806859952,-4.136013153133491,2.9
,,0.044746291160811046,0.0159864601899277,0.00038392351251250145,0.061116674863251244,2.4974223267344606,0.7321453803062915,0.261572806859952,-4.136013153133491,3.0
,,0.04643265787237203,0.021889323149064586,0.0007048808856733263,0.06902686190710995,2.485666843220402,0.6726751961411321,0.31711311429050965,-3.8217562884797975,3.1
,,0.04643265787237203,0.021889323149064586,0.0007048808856733263,0.06902686190710995,2.47462381325265,0.6726751961411321,0.31711311429050965,-3.8217562884797975,3.2
,,0.04643265787237203,0.021889323149064586,0.0007048808856733263,0.06902686190710995,2.464230373283001,0.6726751961411321,0.31711311429050965,-3.8217562884797975,3.3
,,0.046897752825991144,0.022078622948091917,0.000712742144746074,0.06968911791882913,2.4545130741294727,0.6729566139811902,0.3168159334977972,-3.8131454259994566,3.4
,,0.046897752825991144,0.022078622948091917,0.000712742144746074,0.06968911791882913,2.4453356249289175,0.6729566139811902,0.3168159334977972,-3.8131454259994566,3.5
,,0.046897752825991144,0.022078622948091917,0.000712742144746074,0.06968911791882913,2.436654254063528,0.6729566139811902,0.3168159334977972,-3.8131454259994566,3.6
,,0.046897752825991144,0.022078622948091917,0.000712742144746074,0.06968911791882913,2.428429797454211,0.6729566139811902,0.3168159334977972,-3.8131454259994566,3.7
,,0.046395830715896265,0.021841478233295592,0.0007000462763740236,0.06893735522556588,2.420629224364751,0.673014370279904,0.3168308120006834,-3.8239444457212306,3.8
,,0.046395830715896265,0.021841478233295592,0.0007000462763740236,0.06893735522556588,2.4132186799297637,0.673014370279904,0.3168308120006834,-3.8239444457212306,3.9
,,0.046395830715896265,0.021841478233295592,0.0007000462763740236,0.06893735522556588,2.406169625467215,0.673014370279904,0.3168308120006834,-3.8239444457212306,4.0
,,0.046875584382076646,0.021998322555509847,0.0007100174202265331,0.06958392435781302,2.3996148928258427,0.6736553710456741,0.3161408724577034,-3.816789076007633,4.1
,,0.046875584382076646,0.021998322555509847,0.0007100174202265331,0.06958392435781302,2.393365031470116,0.6736553710456741,0.3161408724577034,-3.816789076007633,4.2
,,0.046875584382076646,0.021998322555509847,0.0007100174202265331,0.06958392435781302,2.3873992547214673,0.6736553710456741,0.3161408724577034,-3.816789076007633,4.3
,,0.046875584382076646,0.021998322555509847,0.0007100174202265331,0.06958392435781302,2.381698623606092,0.6736553710456741,0.3161408724577034,-3.816789076007633,4.4
,,0.030419731449142638,0.021716990170468485,0.0007033985499305198,0.05284012016954164,2.3603733106463496,0.5756938355086734,0.4109943372722816,-3.8296603676223415,4.5
,,0.030419731449142638,0.021716990170468485,0.0007033985499305198,0.05284012016954164,2.3399554578125534,0.5756938355086734,0.4109943372722816,-3.8296603676223415,4.6
,,0.05074818405616789,0.019570988870341435,0.0005682689864300119,0.07088744191293934,2.345227868363528,0.7158980869770198,0.2760854157267745,-3.9337069689406055,4.7
,,0.05074818405616789,0.019570988870341435,0.0005682689864300119,0.07088744191293934,2.3502850784838505,0.7158980869770198,0.2760854157267745,-3.9337069689406055,4.8
,,0.05074818405616789,0.019570988870341435,0.0005682689864300119,0.07088744191293934,2.35514000019936,0.7158980869770198,0.2760854157267745,-3.9337069689406055,4.9
,,0.05074818405616789,0.019570988870341435,0.0005682689864300119,0.07088744191293934,2.359804532827987,0.7158980869770198,0.2760854157267745,-3.9337069689406055,5.0
,,0.05074818405616789,0.019570988870341435,0.0005682689864300119,0.07088744191293934,2.364289660355513,0.7158980869770198,0.2760854157267745,-3.9337069689406055,5.1
,,0.046467657801519735,0.02150362521431059,0.0007160774488509392,0.06868736046468127,2.3604525355624895,0.6765095861474135,0.3130652432825346,-3.83953374344327,5.2
,,0.046467657801519735,0.02150362521431059,0.0007160774488509392,0.06868736046468127,2.356757526502541,0.6765095861474135,0.3130652432825346,-3.83953374344327,5.3
,,0.052844698389031795,0.020749539424287894,0.0006724151221668852,0.07426665293548658,2.360212643876695,0.7115535209986714,0.27939241374338564,-3.8752312289716344,5.4
,,0.052844698389031795,0.020749539424287894,0.0006724151221668852,0.07426665293548658,2.363544364201772,0.7115535209986714,0.27939241374338564,-3.8752312289716344,5.5
,,0.052844698389031795,0.020749539424287894,0.0006724151221668852,0.07426665293548658,2.3667591820593024,0.7115535209986714,0.27939241374338564,-3.8752312289716344,5.6
,,0.052844698389031795,0.020749539424287894,0.0006724151221668852,0.07426665293548658,2.369863144128642,0.7115535209986714,0.27939241374338564,-3.8752312289716344,5.7
,,0.052844698389031795,0.020749539424287894,0.0006724151221668852,0.07426665293548658,2.3728618871447837,0.7115535209986714,0.27939241374338564,-3.8752312289716344,5.8
,,0.04647713820305114,0.021193710069160612,0.000739074971647063,0.06840992324385882,2.369863663729428,0.6793917607154077,0.3098046169941168,-3.8540508361777097,5.9
,,0.046754617791759476,0.02120402763970449,0.000763646633069988,0.06872229206453395,2.36716077726572,0.6803413621282357,0.30854657204670594,-3.853564132343727,6.0
,,0.046754617791759476,0.02120402763970449,0.000763646633069988,0.06872229206453395,2.3645450806879373,0.6803413621282357,0.30854657204670594,-3.853564132343727,6.1
,,0.046754617791759476,0.02120402763970449,0.000763646633069988,0.06872229206453395,2.3620124220967513,0.6803413621282357,0.30854657204670594,-3.853564132343727,6.2
,,0.046754617791759476,0.02120402763970449,0.000763646633069988,0.06872229206453395,2.35955890908654,0.6803413621282357,0.30854657204670594,-3.853564132343727,6.3
,,0.046754617791759476,0.02120402763970449,0.000763646633069988,0.06872229206453395,2.3571808887843355,0.6803413621282357,0.30854657204670594,-3.853564132343727,6.4
,,0.046754617791759476,0.02120402763970449,0.000763646633069988,0.06872229206453395,2.3548749297034095,0.6803413621282357,0.30854657204670594,-3.853564132343727,6.5
,,0.046754617791759476,0.02120402763970449,0.000763646633069988,0.06872229206453395,2.352637805221914,0.6803413621282357,0.30854657204670594,-3.853564132343727,6.6
,,0.04667124638531299,0.02083020916386345,0.0008038288721820615,0.0683052844213585,2.3509895407414056,0.6832743144353158,0.30495750570873864,-3.8713509822875904,6.7
,,0.04667124638531299,0.02083020916386345,0.0008038288721820615,0.0683052844213585,2.349389052042941,0.6832743144353158,0.30495750570873864,-3.8713509822875904,6.8
,,0.04667124638531299,0.02083020916386345,0.0008038288721820615,0.0683052844213585,2.347834291593004,0.6832743144353158,0.30495750570873864,-3.8713509822875904,6.9
,,0.04667124638531299,0.02083020916386345,0.0008038288721820615,0.0683052844213585,2.3463233272120796,0.6832743144353158,0.30495750570873864,-3.8713509822875904,7.0
,,0.04667124638531299,0.02083020916386345,0.0008038288721820615,0.0683052844213585,2.3448543340639585,0.6832743144353158,0.30495750570873864,-3.8713509822875904,7.1
,,0.04667124638531299,0.02083020916386345,0.0008038288721820615,0.0683052844213585,2.343425587303457,0.6832743144353158,0.30495750570873864,-3.8713509822875904,7.2
,,0.04602660978436365,0.020437291324208098,0.0007502977323196899,0.06721419884089144,2.3421913162400068,0.6847751007687711,0.3040621130155398,-3.8903940408130926,7.3
,,0.04670178345182996,0.02055914616257132,0.0008555979628563919,0.06811652757725767,2.341249856805214,0.6856160334782313,0.30182316823553823,-3.884449368315343,7.4
,,0.04670178345182996,0.02055914616257132,0.0008555979628563919,0.06811652757725767,2.3403331726187044,0.6856160334782313,0.30182316823553823,-3.884449368315343,7.5
,,0.04670178345182996,0.02055914616257132,0.0008555979628563919,0.06811652757725767,2.3394402984110654,0.6856160334782313,0.30182316823553823,-3.884449368315343,7.6
,,0.04670178345182996,0.02055914616257132,0.0008555979628563919,0.06811652757725767,2.3385703184138786,0.6856160334782313,0.30182316823553823,-3.884449368315343,7.7
,,0.04670178345182996,0.02055914616257132,0.0008555979628563919,0.06811652757725767,2.337722363226747,0.6856160334782313,0.30182316823553823,-3.884449368315343,7.8
,,0.04670178345182996,0.02055914616257132,0.0008555979628563919,0.06811652757725767,2.3368956069192945,0.6856160334782313,0.30182316823553823,-3.884449368315343,7.9
,,0.04619139247920902,0.020264970912818574,0.0008030577141905334,0.06725942110621813,2.336185429916114,0.6867646453016918,0.3012956486915865,-3.898861454243701,8.0
,,0.046900990426838145,0.02046900011837383,0.0009152386396642789,0.06828522918487626,2.3356382673363254,0.6868394671394868,0.29975736133147934,-3.8888437266976625,8.1
,,0.046900990426838145,0.02046900011837383,0.0009152386396642789,0.06828522918487626,2.3351042893970138,0.6868394671394868,0.29975736133147934,-3.8888437266976625,8.2
,,0.046900990426838145,0.02046900011837383,0.0009152386396642789,0.06828522918487626,2.334583025218162,0.6868394671394868,0.29975736133147934,-3.8888437266976625,8.3
,,0.046900990426838145,0.02046900011837383,0.0009152386396642789,0.06828522918487626,2.334074026078812,0.6868394671394868,0.29975736133147934,-3.8888437266976625,8.4
,,0.046900990426838145,0.02046900011837383,0.0009152386396642789,0.06828522918487626,2.3335768641287498,0.6868394671394868,0.29975736133147934,-3.8888437266976625,8.5
,,0.046900990426838145,0.02046900011837383,0.0009152386396642789,0.06828522918487626,2.3330911311890334,0.6868394671394868,0.29975736133147934,-3.8888437266976625,8.6
,,0.046881697656416255,0.020434490785238103,0.0008658938385176781,0.06818208228017203,2.3326496808327075,0.6875955689321896,0.2997047039612141,-3.8905310810315434,8.7
,,0.05642255310966841,0.025150263144674383,0.0012003146139560467,0.08277313086829884,2.331647077706845,0.6816530016176735,0.3038457393219935,-3.682886919482204,8.8
,,0.05642255310966841,0.025150263144674383,0.0012003146139560467,0.08277313086829884,2.3306667546504465,0.6816530016176735,0.3038457393219935,-3.682886919482204,8.9
,,0.05642255310966841,0.025150263144674383,0.0012003146139560467,0.08277313086829884,2.3304464198552446,0.6816530016176735,0.3038457393219935,-3.682886919482204,9.0
,,0.05642255310966841,0.025150263144674383,0.0012003146139560467,0.08277313086829884,2.3302260850600427,0.6816530016176735,0.3038457393219935,-3.682886919482204,9.1
,,0.05642255310966841,0.025150263144674383,0.0012003146139560467,0.08277313086829884,2.3166212451249835,0.6816530016176735,0.3038457393219935,-3.682886919482204,9.2
,,0.05642255310966841,0.025150263144674383,0.0012003146139560467,0.08277313086829884,2.316938275483005,0.6816530016176735,0.3038457393219935,-3.682886919482204,9.3
,,0.04727080076439579,0.020640578593753393,0.0009189183665091454,0.06883029772465833,2.31777496997849,0.6867731555294597,0.29987635207277247,-3.8804963061185913,9.4
,,0.04793816705596395,0.021043057274627682,0.0010448984030118841,0.07002612273360352,2.3184773443935645,0.6845754867555991,0.3005029616544759,-3.861184593939321,9.5
,,0.04793816705596395,0.021043057274627682,0.0010448984030118841,0.07002612273360352,2.3191797188086394,0.6845754867555991,0.3005029616544759,-3.861184593939321,9.6
,,0.04793816705596395,0.021043057274627682,0.0010448984030118841,0.07002612273360352,2.3198820932237134,0.6845754867555991,0.3005029616544759,-3.861184593939321,9.7
,,0.04793816705596395,0.021043057274627682,0.0010448984030118841,0.07002612273360352,2.329035039037246,0.6845754867555991,0.3005029616544759,-3.861184593939321,9.8
,,0.04793816705596395,0.021043057274627682,0.0010448984030118841,0.07002612273360352,2.3381879848507783,0.6845754867555991,0.3005029616544759,-3.861184593939321,9.9
,,0.047905807558142804,0.021123113150666444,0.000966754476668683,0.06999567518547793,2.328306343366553,0.6844109644088677,0.30177740402808306,-3.857387428039665,10.0
,,0.047905807558142804,0.021123113150666444,0.000966754476668683,0.06999567518547793,2.3184247018823276,0.6844109644088677,0.30177740402808306,-3.857387428039665,10.1
,,0.0487461606612173,0.021734065044736732,0.001105411473244082,0.07158563717919811,2.3082643147102413,0.6809488967625243,0.3036092979144758,-3.8288744315817733,10.2
,,0.0487461606612173,0.021734065044736732,0.001105411473244082,0.07158563717919811,2.298103927538155,0.6809488967625243,0.3036092979144758,-3.8288744315817733,10.3
,,0.0487461606612173,0.021734065044736732,0.001105411473244082,0.07158563717919811,2.2879435403660686,0.6809488967625243,0.3036092979144758,-3.8288744315817733,10.4
,,0.0487461606612173,0.021734065044736732,0.001105411473244082,0.07158563717919811,2.2887406161016326,0.6809488967625243,0.3036092979144758,-3.8288744315817733,10.5
,,0.0487461606612173,0.021734065044736732,0.001105411473244082,0.07158563717919811,2.2895376918371966,0.6809488967625243,0.3036092979144758,-3.8288744315817733,10.6
,,0.0487461606612173,0.021734065044736732,0.001105411473244082,0.07158563717919811,2.281209542101286,0.6809488967625243,0.3036092979144758,-3.8288744315817733,10.7
,,0.054499030341175835,0.02646726227221469,0.0011504948350237586,0.08211678744841429,2.27083989223341,0.6636770876529003,0.3223124417627931,-3.631846695662407,10.8
,,0.049671690785326,0.022677450090658833,0.001160112125595302,0.07350925300158014,2.261928521309504,0.6757202495889636,0.30849789876345723,-3.7863842363084275,10.9
,,0.049671690785326,0.022677450090658833,0.001160112125595302,0.07350925300158014,2.253017150385598,0.6757202495889636,0.30849789876345723,-3.7863842363084275,11.0
,,0.049671690785326,0.022677450090658833,0.001160112125595302,0.07350925300158014,2.2535304049710376,0.6757202495889636,0.30849789876345723,-3.7863842363084275,11.1
,,0.049671690785326,0.022677450090658833,0.001160112125595302,0.07350925300158014,2.254043659556477,0.6757202495889636,0.30849789876345723,-3.7863842363084275,11.2
,,0.049671690785326,0.022677450090658833,0.001160112125595302,0.07350925300158014,2.2545569141419155,0.6757202495889636,0.30849789876345723,-3.7863842363084275,11.3
,,0.049671690785326,0.022677450090658833,0.001160112125595302,0.07350925300158014,2.255241473918245,0.6757202495889636,0.30849789876345723,-3.7863842363084275,11.4
,,0.05385923525311269,0.02699327924661031,0.0011545197324824034,0.0820070342322054,2.2537585566491516,0.6567636027491085,0.3291580960015945,-3.6121673607549454,11.5
,,0.05385923525311269,0.02699327924661031,0.0011545197324824034,0.0820070342322054,2.2522756393800587,0.6567636027491085,0.3291580960015945,-3.6121673607549454,11.6
,,0.053876726611821316,0.027332460490766878,0.0012885144712864423,0.08249770157387463,2.2505247171044527,0.6530694259836567,0.3313117816535936,-3.5996802541604977,11.7
,,0.053876726611821316,0.027332460490766878,0.0012885144712864423,0.08249770157387463,2.241326393456303,0.6530694259836567,0.3313117816535936,-3.5996802541604977,11.8
,,0.053876726611821316,0.027332460490766878,0.0012885144712864423,0.08249770157387463,2.2321280698081534,0.6530694259836567,0.3313117816535936,-3.5996802541604977,11.9
,,0.053876726611821316,0.027332460490766878,0.0012885144712864423,0.08249770157387463,2.2229297461600037,0.6530694259836567,0.3313117816535936,-3.5996802541604977,12.0
,,0.053876726611821316,0.027332460490766878,0.0012885144712864423,0.08249770157387463,2.2212621444429654,0.6530694259836567,0.3313117816535936,-3.5996802541604977,12.1
,,0.05328196583685112,0.02753534590810793,0.0011449894795490677,0.08196230122450811,2.2191931673263565,0.6500789392296725,0.33595135198417775,-3.592284793858569,12.2
,,0.05328196583685112,0.02753534590810793,0.0011449894795490677,0.08196230122450811,2.2171241902097476,0.6500789392296725,0.33595135198417775,-3.592284793858569,12.3
,,0.05174433480961389,0.02523606524691264,0.001241843639334249,0.07822224369586078,2.2163051596258936,0.6615040986398093,0.32262006373831537,-3.679481147007244,12.4
,,0.05174433480961389,0.02523606524691264,0.001241843639334249,0.07822224369586078,2.2154861290420396,0.6615040986398093,0.32262006373831537,-3.679481147007244,12.5
,,0.05174433480961389,0.02523606524691264,0.001241843639334249,0.07822224369586078,2.2146670984581855,0.6615040986398093,0.32262006373831537,-3.679481147007244,12.6
,,0.05174433480961389,0.02523606524691264,0.001241843639334249,0.07822224369586078,2.2138480678743315,0.6615040986398093,0.32262006373831537,-3.679481147007244,12.7
,,0.05174433480961389,0.02523606524691264,0.001241843639334249,0.07822224369586078,2.2130281201343025,0.6615040986398093,0.32262006373831537,-3.679481147007244,12.8
,,0.052792144745955796,0.028095999108029172,0.001126632850480364,0.08201477670446533,2.210303498990931,0.643690647798612,0.34257240264484523,-3.572128093276685,12.9
,,0.052792144745955796,0.028095999108029172,0.001126632850480364,0.08201477670446533,2.20757887784756,0.643690647798612,0.34257240264484523,-3.572128093276685,13.0
,,0.0526875946643506,0.026635224804845037,0.0012677945927105938,0.08059061406190623,2.205881614331984,0.6537683733725898,0.3305003332569846,-3.6255206984443613,13.1
,,0.0526875946643506,0.026635224804845037,0.0012677945927105938,0.08059061406190623,2.204184350816409,0.6537683733725898,0.3305003332569846,-3.6255206984443613,13.2
,,0.0526875946643506,0.026635224804845037,0.0012677945927105938,0.08059061406190623,2.2024870873008333,0.6537683733725898,0.3305003332569846,-3.6255206984443613,13.3
,,0.0526875946643506,0.026635224804845037,0.0012677945927105938,0.08059061406190623,2.200789823785258,0.6537683733725898,0.3305003332569846,-3.6255206984443613,13.4
,,0.0526875946643506,0.026635224804845037,0.0012677945927105938,0.08059061406190623,2.207205189459368,0.6537683733725898,0.3305003332569846,-3.6255206984443613,13.5
,,0.0526875946643506,0.026635224804845037,0.0012677945927105938,0.08059061406190623,2.2136205551334776,0.6537683733725898,0.3305003332569846,-3.6255206984443613,13.6
,,0.052923356422782265,0.02689003457771962,0.0011026914383130961,0.08091608243881498,2.2066773215324074,0.6540523815250259,0.33232002547889816,-3.6159995228070763,13.7
,,0.05356757572356748,0.028081501547811607,0.0012828214143133848,0.08293189868569247,2.1990611440695274,0.645922456527684,0.3386091720176216,-3.5726442273292913,13.8
,,0.05356757572356748,0.028081501547811607,0.0012828214143133848,0.08293189868569247,2.1914449666066473,0.645922456527684,0.3386091720176216,-3.5726442273292913,13.9
,,0.05356757572356748,0.028081501547811607,0.0012828214143133848,0.08293189868569247,2.1838287891437673,0.645922456527684,0.3386091720176216,-3.5726442273292913,14.0
,,0.05356757572356748,0.028081501547811607,0.0012828214143133848,0.08293189868569247,2.1762126116808873,0.645922456527684,0.3386091720176216,-3.5726442273292913,14.1
,,0.05356757572356748,0.028081501547811607,0.0012828214143133848,0.08293189868569247,2.1733976466394966,0.645922456527684,0.3386091720176216,-3.5726442273292913,14.2
,,0.05356757572356748,0.028081501547811607,0.0012828214143133848,0.08293189868569247,2.1705826815981064,0.645922456527684,0.3386091720176216,-3.5726442273292913,14.3
,,0.05356757572356748,0.028081501547811607,0.0012828214143133848,0.08293189868569247,2.16348030615943,0.645922456527684,0.3386091720176216,-3.5726442273292913,14.4
,,0.051993108109679664,0.029519265295400592,0.0012022896755856912,0.08271466308066595,2.1547529617655807,0.6285839314726379,0.35688068107842585,-3.5227121679267746,14.5
,,0.051993108109679664,0.029519265295400592,0.0012022896755856912,0.08271466308066595,2.1460256173717314,0.6285839314726379,0.35688068107842585,-3.5227121679267746,14.6
,,0.051993108109679664,0.029519265295400592,0.0012022896755856912,0.08271466308066595,2.137298272977882,0.6285839314726379,0.35688068107842585,-3.5227121679267746,14.7
,,0.051993108109679664,0.029519265295400592,0.0012022896755856912,0.08271466308066595,2.1285709285840326,0.6285839314726379,0.35688068107842585,-3.5227121679267746,14.8
,,0.051993108109679664,0.029519265295400592,0.0012022896755856912,0.08271466308066595,2.1237749230774896,0.6285839314726379,0.35688068107842585,-3.5227121679267746,14.9
,,0.051993108109679664,0.029519265295400592,0.0012022896755856912,0.08271466308066595,2.1188453719351714,0.6285839314726379,0.35688068107842585,-3.5227121679267746,15.0
,,0.051993108109679664,0.029519265295400592,0.0012022896755856912,0.08271466308066595,2.113915820792853,0.6285839314726379,0.35688068107842585,-3.5227121679267746,15.1
,,0.05471424669804686,0.029491957819745986,0.0012616520852428525,0.0854678566030357,2.110029580819712,0.6401733806449931,0.34506490500545056,-3.523637669082733,15.2
,,0.054840636334022766,0.030736550159308065,0.0012888688798863403,0.08686605537321718,2.1053543379564763,0.6313241242324377,0.353838447334226,-3.482302773607149,15.3
,,0.054840636334022766,0.030736550159308065,0.0012888688798863403,0.08686605537321718,2.100679095093241,0.6313241242324377,0.353838447334226,-3.482302773607149,15.4
,,0.054840636334022766,0.030736550159308065,0.0012888688798863403,0.08686605537321718,2.0960038522300053,0.6313241242324377,0.353838447334226,-3.482302773607149,15.5
,,0.054840636334022766,0.030736550159308065,0.0012888688798863403,0.08686605537321718,2.09132860936677,0.6313241242324377,0.353838447334226,-3.482302773607149,15.6
,,0.054840636334022766,0.030736550159308065,0.0012888688798863403,0.08686605537321718,2.0862581639357107,0.6313241242324377,0.353838447334226,-3.482302773607149,15.7
,,0.054840636334022766,0.030736550159308065,0.0012888688798863403,0.08686605537321718,2.0811877185046517,0.6313241242324377,0.353838447334226,-3.482302773607149,15.8
,,0.054840636334022766,0.030736550159308065,0.0012888688798863403,0.08686605537321718,2.0761172730735926,0.6313241242324377,0.353838447334226,-3.482302773607149,15.9
,,0.05498321755029914,0.031768998376669265,0.0012711072655703208,0.08802332319253874,2.070452422466907,0.6246437370926229,0.36091568943811647,-3.4492643585294918,16.0
,,0.05498321755029914,0.031768998376669265,0.0012711072655703208,0.08802332319253874,2.064787571860222,0.6246437370926229,0.36091568943811647,-3.4492643585294918,16.1
,,0.05498321755029914,0.031768998376669265,0.0012711072655703208,0.08802332319253874,2.0591227212535372,0.6246437370926229,0.36091568943811647,-3.4492643585294918,16.2
,,0.05498321755029914,0.031768998376669265,0.0012711072655703208,0.08802332319253874,2.053329718335066,0.6246437370926229,0.36091568943811647,-3.4492643585294918,16.3
,,0.05498321755029914,0.031768998376669265,0.0012711072655703208,0.08802332319253874,2.0473201339719007,0.6246437370926229,0.36091568943811647,-3.4492643585294918,16.4
,,0.05498321755029914,0.031768998376669265,0.0012711072655703208,0.08802332319253874,2.0413105496087365,0.6246437370926229,0.36091568943811647,-3.4492643585294918,16.5
,,0.05498321755029914,0.031768998376669265,0.0012711072655703208,0.08802332319253874,2.0353009652455722,0.6246437370926229,0.36091568943811647,-3.4492643585294918,16.6
,,0.05498321755029914,0.031768998376669265,0.0012711072655703208,0.08802332319253874,2.0292913808824076,0.6246437370926229,0.36091568943811647,-3.4492643585294918,16.7
,,0.054831429744535046,0.03250531726289772,0.0012427382496095543,0.08857948525704232,2.0227943039391816,0.6190082227891,0.36696213766170493,-3.426351594939628,16.8
,,0.054831429744535046,0.03250531726289772,0.0012427382496095543,0.08857948525704232,2.0162972269959547,0.6190082227891,0.36696213766170493,-3.426351594939628,16.9
,,0.054831429744535046,0.03250531726289772,0.0012427382496095543,0.08857948525704232,2.009713601041271,0.6190082227891,0.36696213766170493,-3.426351594939628,17.0
,,0.054831429744535046,0.03250531726289772,0.0012427382496095543,0.08857948525704232,2.0029972325453453,0.6190082227891,0.36696213766170493,-3.426351594939628,17.1
,,0.054831429744535046,0.03250531726289772,0.0012427382496095543,0.08857948525704232,1.9962808640494198,0.6190082227891,0.36696213766170493,-3.426351594939628,17.2
,,0.054831429744535046,0.03250531726289772,0.0012427382496095543,0.08857948525704232,1.9895644955534941,0.6190082227891,0.36696213766170493,-3.426351594939628,17.3
,,0.054831429744535046,0.03250531726289772,0.0012427382496095543,0.08857948525704232,1.9828481270575686,0.6190082227891,0.36696213766170493,-3.426351594939628,17.4
,,0.054831429744535046,0.03250531726289772,0.0012427382496095543,0.08857948525704232,1.976131758561643,0.6190082227891,0.36696213766170493,-3.426351594939628,17.5
,,0.05459274295671733,0.03299831984990279,0.0012164771012000493,0.08880753990782018,1.969054999426,0.614730945293419,0.37157115132514823,-3.4112986324511096,17.6
,,0.05459274295671733,0.03299831984990279,0.0012164771012000493,0.08880753990782018,1.9619457358297026,0.614730945293419,0.37157115132514823,-3.4112986324511096,17.7
,,0.05459274295671733,0.03299831984990279,0.0012164771012000493,0.08880753990782018,1.955401199980087,0.614730945293419,0.37157115132514823,-3.4112986324511096,17.8
,,0.05459274295671733,0.03299831984990279,0.0012164771012000493,0.08880753990782018,1.9488566641304714,0.614730945293419,0.37157115132514823,-3.4112986324511096,17.9
,,0.05459274295671733,0.03299831984990279,0.0012164771012000493,0.08880753990782018,1.9423121282808558,0.614730945293419,0.37157115132514823,-3.4112986324511096,18.0
,,0.05459274295671733,0.03299831984990279,0.0012164771012000493,0.08880753990782018,1.9357675924312405,0.614730945293419,0.37157115132514823,-3.4112986324511096,18.1
,,0.037791722134841645,0.03350759595607084,0.0011890060917801996,0.07248832418269269,1.9233724521018332,0.5213490939533238,0.4622481804327753,-3.3959831208965303,18.2
,,0.05459274295671733,0.03299831984990279,0.0012164771012000493,0.08880753990782018,1.9168279162522177,0.614730945293419,0.37157115132514823,-3.4112986324511096,18.3
,,0.05433989971317909,0.03328265392421832,0.0011961508732851853,0.08881870451068259,1.9095222663971119,0.611806938781047,0.374725730436828,-3.402718920889558,18.4
,,0.05433989971317909,0.03328265392421832,0.0011961508732851853,0.08881870451068259,1.9023509366224165,0.611806938781047,0.374725730436828,-3.402718920889558,18.5
,,0.05433989971317909,0.03328265392421832,0.0011961508732851853,0.08881870451068259,1.8951796068477214,0.611806938781047,0.374725730436828,-3.402718920889558,18.6
,,0.05433989971317909,0.03328265392421832,0.0011961508732851853,0.08881870451068259,1.8880082770730267,0.611806938781047,0.374725730436828,-3.402718920889558,18.7
,,0.05433989971317909,0.03328265392421832,0.0011961508732851853,0.08881870451068259,1.8808369472983313,0.611806938781047,0.374725730436828,-3.402718920889558,18.8
,,0.05433989971317909,0.03328265392421832,0.0011961508732851853,0.08881870451068259,1.873665617523636,0.611806938781047,0.374725730436828,-3.402718920889558,18.9
,,0.053759025394719016,0.033692780265738825,0.0011727555081896149,0.08862456116864746,1.8661948622883453,0.6065928528821561,0.38017429729918095,-3.390471700013528,19.0
,,0.05373582080256627,0.033121245635721615,0.0011771047287163865,0.08803417116700428,1.8590222426918495,0.610397304708274,0.3762316972677497,-3.4075803403981046,19.1
,,0.05373513425654109,0.03312126386618082,0.001177100689820826,0.08803349881254274,1.8521281285471212,0.6103941679174186,0.37623477781689396,-3.4075797899823868,19.2
,,0.05373582080256627,0.033121245635721615,0.0011771047287163865,0.08803417116700428,1.845234254638487,0.610397304708274,0.3762316972677497,-3.4075803403981046,19.3
,,0.05373582080256627,0.033121245635721615,0.0011771047287163865,0.08803417116700428,1.8383403807298522,0.610397304708274,0.3762316972677497,-3.4075803403981046,19.4
,,0.05373582080256627,0.033121245635721615,0.0011771047287163865,0.08803417116700428,1.8314465068212176,0.610397304708274,0.3762316972677497,-3.4075803403981046,19.5
,,0.05373582080256627,0.033121245635721615,0.0011771047287163865,0.08803417116700428,1.824552632912583,0.610397304708274,0.3762316972677497,-3.4075803403981046,19.6
,,0.05373582080256627,0.033121245635721615,0.0011771047287163865,0.08803417116700428,1.8176587590039484,0.610397304708274,0.3762316972677497,-3.4075803403981046,19.7
,,0.05223975809262321,0.031437769324378785,0.0009948623882623877,0.08467238980526438,1.8132429460214212,0.6169633125127086,0.37128713854281914,-3.459745264180624,19.8
,,0.04786255430265412,0.027395005288876517,0.0010171807481154618,0.0762747403396461,1.8083181787806362,0.6275020287125922,0.35916222286550525,-3.5973945709318564,19.9
,,0.04786255430265412,0.027395005288876517,0.0010171807481154618,0.0762747403396461,1.8033934115398518,0.6275020287125922,0.35916222286550525,-3.5973945709318564,20.0
,,0.04786255430265412,0.027395005288876517,0.0010171807481154618,0.0762747403396461,1.7984686442990672,0.6275020287125922,0.35916222286550525,-3.5973945709318564,20.1
,,0.04786255430265412,0.027395005288876517,0.0010171807481154618,0.0762747403396461,1.7935438770582826,0.6275020287125922,0.35916222286550525,-3.5973945709318564,20.2
,,0.04786255430265412,0.027395005288876517,0.0010171807481154618,0.0762747403396461,1.788619109817498,0.6275020287125922,0.35916222286550525,-3.5973945709318564,20.3
,,0.04786255430265412,0.027395005288876517,0.0010171807481154618,0.0762747403396461,1.7836943425767133,0.6275020287125922,0.35916222286550525,-3.5973945709318564,20.4
,,0.05021179994786189,0.03006341378485016,0.0009762559797347463,0.08125146971244679,1.780082265530133,0.6179802054727636,0.37000455365602813,-3.5044463354084594,20.5
,,0.05021179994786189,0.03006341378485016,0.0009762559797347463,0.08125146971244679,1.7764701884835523,0.6179802054727636,0.37000455365602813,-3.5044463354084594,20.6
,,0.05004003797222162,0.030409088168282212,0.0011256360275380816,0.08157476216804191,1.772852402210161,0.6134254840871056,0.3727756889519368,-3.4930137623434563,20.7
,,0.05004003797222162,0.030409088168282212,0.0011256360275380816,0.08157476216804191,1.7692346159367702,0.6134254840871056,0.3727756889519368,-3.4930137623434563,20.8
,,0.05004003797222162,0.030409088168282212,0.0011256360275380816,0.08157476216804191,1.765616829663379,0.6134254840871056,0.3727756889519368,-3.4930137623434563,20.9
,,0.05004003797222162,0.030409088168282212,0.0011256360275380816,0.08157476216804191,1.7619990433899877,0.6134254840871056,0.3727756889519368,-3.4930137623434563,21.0
,,0.05004003797222162,0.030409088168282212,0.0011256360275380816,0.08157476216804191,1.7583812571165964,0.6134254840871056,0.3727756889519368,-3.4930137623434563,21.1
,,0.04944739501212201,0.02920946137389899,0.0009922883357770238,0.07964914472179803,1.7556903294116388,0.6208151410141817,0.36672661678820356,-3.5332626025368574,21.2
,,0.04944739501212201,0.02920946137389899,0.0009922883357770238,0.07964914472179803,1.7529994017066814,0.6208151410141817,0.36672661678820356,-3.5332626025368574,21.3
,,0.05008753016179556,0.029840517279801384,0.001160382215842086,0.08108842965743902,1.7488671271077019,0.6176902225556978,0.36799969374007757,-3.511888168682841,21.4
,,0.05008753016179556,0.029840517279801384,0.001160382215842086,0.08108842965743902,1.7447348525087227,0.6176902225556978,0.36799969374007757,-3.511888168682841,21.5
,,0.05008753016179556,0.029840517279801384,0.001160382215842086,0.08108842965743902,1.7406025779097436,0.6176902225556978,0.36799969374007757,-3.511888168682841,21.6
,,0.05008753016179556,0.029840517279801384,0.001160382215842086,0.08108842965743902,1.7364703033107642,0.6176902225556978,0.36799969374007757,-3.511888168682841,21.7
,,0.05008753016179556,0.029840517279801384,0.001160382215842086,0.08108842965743902,1.7323380287117847,0.6176902225556978,0.36799969374007757,-3.511888168682841,21.8
,,0.04956288026093884,0.028676121671061004,0.0010335887507094943,0.07927259068270934,1.7306644295933191,0.6252208970855461,0.36174069024485334,-3.5516905000426036,21.9
,,0.04956288026093884,0.028676121671061004,0.0010335887507094943,0.07927259068270934,1.7289908304748534,0.6252208970855461,0.36174069024485334,-3.5516905000426036,22.0
,,0.04956288026093884,0.028676121671061004,0.0010335887507094943,0.07927259068270934,1.726215835866766,0.6252208970855461,0.36174069024485334,-3.5516905000426036,22.1
,,0.04967930134297345,0.028825040594741398,0.0011922365056513686,0.07969657844336622,1.7233865036406222,0.6233555105289298,0.3616847944761515,-3.5465108045108718,22.2
,,0.04972426487179734,0.028853652741402284,0.001192964392578146,0.07977088200577777,1.7205554967354395,0.6233385368384899,0.36170657783766796,-3.5455186825555054,22.3
,,0.04967930134297345,0.028825040594741398,0.0011922365056513686,0.07969657844336622,1.717726164509296,0.6233555105289298,0.3616847944761515,-3.5465108045108718,22.4
,,0.04967930134297345,0.028825040594741398,0.0011922365056513686,0.07969657844336622,1.7148968322831524,0.6233555105289298,0.3616847944761515,-3.5465108045108718,22.5
,,0.050302604793863906,0.02835028817578286,0.0010878082689503724,0.07974070123859714,1.7126324672471542,0.6308272188797329,0.35553096142149776,-3.5631180839294263,22.6
,,0.050302604793863906,0.02835028817578286,0.0010878082689503724,0.07974070123859714,1.7104789577440982,0.6308272188797329,0.35553096142149776,-3.5631180839294263,22.7
,,0.050302604793863906,0.02835028817578286,0.0010878082689503724,0.07974070123859714,1.7089983921028522,0.6308272188797329,0.35553096142149776,-3.5631180839294263,22.8
,,0.05120174232346859,0.028824308583946672,0.0012704294179646694,0.08129648032537992,1.707540211737059,0.6298149946779914,0.3545578906808838,-3.54653619979478,22.9
,,0.05120174232346859,0.028824308583946672,0.0012704294179646694,0.08129648032537992,1.7060820313712668,0.6298149946779914,0.3545578906808838,-3.54653619979478,23.0
,,0.05120174232346859,0.028824308583946672,0.0012704294179646694,0.08129648032537992,1.7046238510054745,0.6298149946779914,0.3545578906808838,-3.54653619979478,23.1
,,0.05120174232346859,0.028824308583946672,0.0012704294179646694,0.08129648032537992,1.703165670639682,0.6298149946779914,0.3545578906808838,-3.54653619979478,23.2
,,0.05120174232346859,0.028824308583946672,0.0012704294179646694,0.08129648032537992,1.7017074902738891,0.6298149946779914,0.3545578906808838,-3.54653619979478,23.3
,,0.052298505989922424,0.028645363109891825,0.001163513475170686,0.08210738257498493,1.7007980244604695,0.6369525412914068,0.3488768270469628,-3.552763694996952,23.4
,,0.052298505989922424,0.028645363109891825,0.001163513475170686,0.08210738257498493,1.7015135276022224,0.6369525412914068,0.3488768270469628,-3.552763694996952,23.5
,,0.052298505989922424,0.028645363109891825,0.001163513475170686,0.08210738257498493,1.7022290307439754,0.6369525412914068,0.3488768270469628,-3.552763694996952,23.6
,,0.05282953490979199,0.028848327245747655,0.0013452529465966259,0.08302311510213627,1.7030063408871143,0.6363232076368167,0.34747343809321074,-3.5457032687922667,23.7
,,0.05282953490979199,0.028848327245747655,0.0013452529465966259,0.08302311510213627,1.7037836510302535,0.6363232076368167,0.34747343809321074,-3.5457032687922667,23.8
,,0.05282953490979199,0.028848327245747655,0.0013452529465966259,0.08302311510213627,1.7045609611733925,0.6363232076368167,0.34747343809321074,-3.5457032687922667,23.9
,,0.05282953490979199,0.028848327245747655,0.0013452529465966259,0.08302311510213627,1.7053382713165313,0.6363232076368167,0.34747343809321074,-3.5457032687922667,24.0
,,0.052909609498880114,0.02819332758867142,0.0011940267661326503,0.08229696385368418,1.7066198639874564,0.6429108319591005,0.342580409634508,-3.5686699393655106,24.1
,,0.052909609498880114,0.02819332758867142,0.0011940267661326503,0.08229696385368418,1.706858145489204,0.6429108319591005,0.342580409634508,-3.5686699393655106,24.2
,,0.052909609498880114,0.02819332758867142,0.0011940267661326503,0.08229696385368418,1.7078854298810462,0.6429108319591005,0.342580409634508,-3.5686699393655106,24.3
,,0.051523644615902184,0.02522608151276522,0.0012655294348613093,0.07801525556352872,1.7107549789701377,0.6604303766453202,0.3233480596910092,-3.6798768390226964,24.4
,,0.051524163107166336,0.02522645934676034,0.0012655481545001178,0.07801617060842679,1.713624416524979,0.660429276460809,0.32334911019120877,-3.6798618612242073,24.5
,,0.051524163107166336,0.02522645934676034,0.0012655481545001178,0.07801617060842679,1.7164938540798198,0.660429276460809,0.32334911019120877,-3.6798618612242073,24.6
,,0.051524163107166336,0.02522645934676034,0.0012655481545001178,0.07801617060842679,1.7193632916346606,0.660429276460809,0.32334911019120877,-3.6798618612242073,24.7
,,0.051524163107166336,0.02522645934676034,0.0012655481545001178,0.07801617060842679,1.7222327291895014,0.660429276460809,0.32334911019120877,-3.6798618612242073,24.8
,,0.053086979457158255,0.02763498631015611,0.0012009917602828094,0.08192295752759716,1.723752623047317,0.6480110222982977,0.33732896301805004,-3.58867268907767,24.9
,,0.053086979457158255,0.02763498631015611,0.0012009917602828094,0.08192295752759716,1.7258669220807583,0.6480110222982977,0.33732896301805004,-3.58867268907767,25.0
,,0.05380233255027879,0.027977782397673567,0.0013975626150891157,0.08317767756304147,1.7280037944587159,0.6468361960395118,0.3363616683871563,-3.5763445695807916,25.1
,,0.05380233255027879,0.027977782397673567,0.0013975626150891157,0.08317767756304147,1.7301406668366732,0.6468361960395118,0.3363616683871563,-3.5763445695807916,25.2
,,0.05380233255027879,0.027977782397673567,0.0013975626150891157,0.08317767756304147,1.732277539214631,0.6468361960395118,0.3363616683871563,-3.5763445695807916,25.3
,,0.05380233255027879,0.027977782397673567,0.0013975626150891157,0.08317767756304147,1.7344144115925888,0.6468361960395118,0.3363616683871563,-3.5763445695807916,25.4
,,0.05380233255027879,0.027977782397673567,0.0013975626150891157,0.08317767756304147,1.7365512839705461,0.6468361960395118,0.3363616683871563,-3.5763445695807916,25.5
,,0.053248860713705624,0.02724381214111863,0.001196074584619711,0.08168874743944396,1.7390380750308354,0.651850620591032,0.3335075269860702,-3.6029288610490005,25.6
,,0.053248860713705624,0.02724381214111863,0.001196074584619711,0.08168874743944396,1.7415248660911251,0.651850620591032,0.3335075269860702,-3.6029288610490005,25.7
,,0.05393287447468169,0.027656452405320865,0.0013928349268771394,0.0829821618068797,1.744449933085272,0.6499333507386444,0.33328189821909393,-3.587896218190243,25.8
,,0.05393287447468169,0.027656452405320865,0.0013928349268771394,0.0829821618068797,1.7473750000794195,0.6499333507386444,0.33328189821909393,-3.587896218190243,25.9
,,0.05393287447468169,0.027656452405320865,0.0013928349268771394,0.0829821618068797,1.7503000670735664,0.6499333507386444,0.33328189821909393,-3.587896218190243,26.0
,,0.05393287447468169,0.027656452405320865,0.0013928349268771394,0.0829821618068797,1.7532251340677139,0.6499333507386444,0.33328189821909393,-3.587896218190243,26.1
,,0.05393287447468169,0.027656452405320865,0.0013928349268771394,0.0829821618068797,1.7561502010618613,0.6499333507386444,0.33328189821909393,-3.587896218190243,26.2
,,0.05393287447468169,0.027656452405320865,0.0013928349268771394,0.0829821618068797,1.7590752680560084,0.6499333507386444,0.33328189821909393,-3.587896218190243,26.3
,,0.053424989289462765,0.026842041926584292,0.001351611054086899,0.08161864227013396,1.7624475180661667,0.6545684638154307,0.328871458529596,-3.61778589203083,26.4
,,0.05404190352779488,0.027532596190133284,0.0013746601519831175,0.08294915986991128,1.7655140582497373,0.6515063396970928,0.3319213387249793,-3.5923846602371605,26.5
,,0.05404190352779488,0.027532596190133284,0.0013746601519831175,0.08294915986991128,1.768940989073025,0.6515063396970928,0.3319213387249793,-3.5923846602371605,26.6
,,0.05404190352779488,0.027532596190133284,0.0013746601519831175,0.08294915986991128,1.7723679198963131,0.6515063396970928,0.3319213387249793,-3.5923846602371605,26.7
,,0.05404190352779488,0.027532596190133284,0.0013746601519831175,0.08294915986991128,1.7757948507196009,0.6515063396970928,0.3319213387249793,-3.5923846602371605,26.8
,,0.05404190352779488,0.027532596190133284,0.0013746601519831175,0.08294915986991128,1.779221781542889,0.6515063396970928,0.3319213387249793,-3.5923846602371605,26.9
,,0.05404190352779488,0.027532596190133284,0.0013746601519831175,0.08294915986991128,1.782648712366177,0.6515063396970928,0.3319213387249793,-3.5923846602371605,27.0
,,0.05404190352779488,0.027532596190133284,0.0013746601519831175,0.08294915986991128,1.7860756431894649,0.6515063396970928,0.3319213387249793,-3.5923846602371605,27.1
,,0.05362931946501959,0.02686231306510632,0.0013370751784176004,0.08182870770854352,1.7957267171627969,0.6553851449791415,0.32827492719039597,-3.6170309759914185,27.2
,,0.05406948623196778,0.027546201429672026,0.0013458477919026932,0.0829615354535425,1.7991540020915917,0.6517416286520645,0.33203581972150914,-3.5918906320301773,27.3
,,0.05406948623196778,0.027546201429672026,0.0013458477919026932,0.0829615354535425,1.802822736888414,0.6517416286520645,0.33203581972150914,-3.5918906320301773,27.4
,,0.05406948623196778,0.027546201429672026,0.0013458477919026932,0.0829615354535425,1.8064914716852363,0.6517416286520645,0.33203581972150914,-3.5918906320301773,27.5
,,0.05406948623196778,0.027546201429672026,0.0013458477919026932,0.0829615354535425,1.8101602064820586,0.6517416286520645,0.33203581972150914,-3.5918906320301773,27.6
,,0.05406948623196778,0.027546201429672026,0.0013458477919026932,0.0829615354535425,1.8138289412788804,0.6517416286520645,0.33203581972150914,-3.5918906320301773,27.7
,,0.05406948623196778,0.027546201429672026,0.0013458477919026932,0.0829615354535425,1.8174976760757025,0.6517416286520645,0.33203581972150914,-3.5918906320301773,27.8
,,0.05406948623196778,0.027546201429672026,0.0013458477919026932,0.0829615354535425,1.8211664108725247,0.6517416286520645,0.33203581972150914,-3.5918906320301773,27.9
,,0.05375522929098821,0.026972081716827065,0.0013161397656580162,0.08204345077347329,1.8255823004730092,0.6552043921142409,0.3287536233854734,-3.612952958423339,28.0
,,0.05393204406067618,0.02756445426640562,0.001308897006346134,0.08280539533342793,1.8292954347482018,0.6513107490582103,0.3328823460767665,-3.5912282251990315,28.1
,,0.05393204406067618,0.02756445426640562,0.001308897006346134,0.08280539533342793,1.8330088092594883,0.6513107490582103,0.3328823460767665,-3.5912282251990315,28.2
,,0.05393204406067618,0.02756445426640562,0.001308897006346134,0.08280539533342793,1.8367219435346809,0.6513107490582103,0.3328823460767665,-3.5912282251990315,28.3
,,0.05393204406067618,0.02756445426640562,0.001308897006346134,0.08280539533342793,1.8404350778098737,0.6513107490582103,0.3328823460767665,-3.5912282251990315,28.4
,,0.05393204406067618,0.02756445426640562,0.001308897006346134,0.08280539533342793,1.844148212085066,0.6513107490582103,0.3328823460767665,-3.5912282251990315,28.5
,,0.05393204406067618,0.02756445426640562,0.001308897006346134,0.08280539533342793,1.847861346360259,0.6513107490582103,0.3328823460767665,-3.5912282251990315,28.6
,,0.05373458411314749,0.027054046783570453,0.0012898954069909057,0.08207852630370886,1.851903530948792,0.654672866741266,0.32961175111093544,-3.609918681050331,28.7
,,0.05373458411314749,0.027054046783570453,0.0012898954069909057,0.08207852630370886,1.855509154743184,0.654672866741266,0.32961175111093544,-3.609918681050331,28.8
,,0.05517151010196987,0.028788004404637788,0.0012823672050963962,0.08524188171170405,1.8573908062961635,0.6472347746682204,0.33772136215858645,-3.5477964923340277,28.9
,,0.05517151010196987,0.028788004404637788,0.0012823672050963962,0.08524188171170405,1.8592724578491435,0.6472347746682204,0.33772136215858645,-3.5477964923340277,29.0
,,0.05366341964274544,0.027555294300647765,0.0012664032280718515,0.08248511717146505,1.8614986160822486,0.6505830564705773,0.3340638317015116,-3.591560591223199,29.1
,,0.05517151010196987,0.028788004404637788,0.0012823672050963962,0.08524188171170405,1.8633802676352285,0.6472347746682204,0.33772136215858645,-3.5477964923340277,29.2
,,0.05517151010196987,0.028788004404637788,0.0012823672050963962,0.08524188171170405,1.8652619191882085,0.6472347746682204,0.33772136215858645,-3.5477964923340277,29.3
,,0.05517151010196987,0.028788004404637788,0.0012823672050963962,0.08524188171170405,1.8671435707411879,0.6472347746682204,0.33772136215858645,-3.5477964923340277,29.4
,,0.053578274876651004,0.027102978936801945,0.0012561605375093403,0.08193741435096229,1.870550732912272,0.6538926728534457,0.3307765951792405,-3.608111633270437,29.5
,,0.05509055761637435,0.02932658142326335,0.0012567204915756125,0.08567385953121331,1.8728654370302384,0.6430264484151478,0.34230489420847066,-3.529260958419621,29.6
,,0.05508578459588204,0.029323357867289034,0.001256579472449073,0.08566572193562015,1.875454341339421,0.6430318142568194,0.34229978111112214,-3.5293708837159317,29.7
,,0.05509055761637435,0.02932658142326335,0.0012567204915756125,0.08567385953121331,1.8780427596907117,0.6430264484151478,0.34230489420847066,-3.529260958419621,29.8
,,0.05509055761637435,0.02932658142326335,0.0012567204915756125,0.08567385953121331,1.8806311780420029,0.6430264484151478,0.34230489420847066,-3.529260958419621,29.9
,,0.05509055761637435,0.02932658142326335,0.0012567204915756125,0.08567385953121331,1.883219596393294,0.6430264484151478,0.34230489420847066,-3.529260958419621,30.0
,,0.05509055761637435,0.02932658142326335,0.0012567204915756125,0.08567385953121331,1.8858080147445853,0.6430264484151478,0.34230489420847066,-3.529260958419621,30.1
,,0.05509055761637435,0.02932658142326335,0.0012567204915756125,0.08567385953121331,1.8878709499270132,0.6430264484151478,0.34230489420847066,-3.529260958419621,30.2
,,0.05258789745923911,0.02732935364820958,0.001159996485355394,0.08107724759280407,1.890441752280643,0.6486147349667367,0.3370779652692005,-3.5997939292226806,30.3
,,0.05258471179340997,0.027323547003011456,0.00116065654489825,0.08106891534131967,1.8931752248491125,0.648642103721453,0.3370409840562531,-3.600006420971546,30.4
,,0.05258471179340997,0.027323547003011456,0.00116065654489825,0.08106891534131967,1.8959086974175816,0.648642103721453,0.3370409840562531,-3.600006420971546,30.5
,,0.05258789745923911,0.02732935364820958,0.001159996485355394,0.08107724759280407,1.8986389218144237,0.6486147349667367,0.3370779652692005,-3.5997939292226806,30.6
,,0.05258789745923911,0.02732935364820958,0.001159996485355394,0.08107724759280407,1.901369146211266,0.6486147349667367,0.3370779652692005,-3.5997939292226806,30.7
,,0.05258789745923911,0.02732935364820958,0.001159996485355394,0.08107724759280407,1.9040993706081082,0.6486147349667367,0.3370779652692005,-3.5997939292226806,30.8
,,0.05258789745923911,0.02732935364820958,0.001159996485355394,0.08107724759280407,1.906275592927779,0.6486147349667367,0.3370779652692005,-3.5997939292226806,30.9
,,0.05196847990309759,0.027437614280726375,0.0011174022526251985,0.08052349643644917,1.9081166161751768,0.6453828038144395,0.3407404732155504,-3.5958404230264414,31.0
,,0.05166104998468664,0.02701937409968476,0.0010941806702807956,0.07977460475465219,1.910156978672906,0.6475876645653195,0.3386964333171338,-3.6112011110527726,31.1
,,0.05166104998468664,0.02701937409968476,0.0010941806702807956,0.07977460475465219,1.912251678788692,0.6475876645653195,0.3386964333171338,-3.6112011110527726,31.2
,,0.05166104998468664,0.02701937409968476,0.0010941806702807956,0.07977460475465219,1.9143480535835165,0.6475876645653195,0.3386964333171338,-3.6112011110527726,31.3
,,0.05166104998468664,0.02701937409968476,0.0010941806702807956,0.07977460475465219,1.9164427536993023,0.6475876645653195,0.3386964333171338,-3.6112011110527726,31.4
,,0.05166104998468664,0.02701937409968476,0.0010941806702807956,0.07977460475465219,1.9185374538150881,0.6475876645653195,0.3386964333171338,-3.6112011110527726,31.5
,,0.05166104998468664,0.02701937409968476,0.0010941806702807956,0.07977460475465219,1.9200671867407282,0.6475876645653195,0.3386964333171338,-3.6112011110527726,31.6
,,0.05166104998468664,0.02701937409968476,0.0010941806702807956,0.07977460475465219,1.9215969196663683,0.6475876645653195,0.3386964333171338,-3.6112011110527726,31.7
,,0.05059764541033393,0.026603817569752747,0.001028176767037877,0.07822963974712456,1.9230143627819385,0.6467835666109368,0.34007337443645336,-3.6267005558322802,31.8
,,0.050564714803938746,0.026604552433768948,0.0010238049957971096,0.07819307223350482,1.9243950837941906,0.6466648944671132,0.34024181009694626,-3.626672933711317,31.9
,,0.050564714803938746,0.026604552433768948,0.0010238049957971096,0.07819307223350482,1.9257758048064426,0.6466648944671132,0.34024181009694626,-3.626672933711317,32.0
,,0.050564714803938746,0.026604552433768948,0.0010238049957971096,0.07819307223350482,1.9271565258186942,0.6466648944671132,0.34024181009694626,-3.626672933711317,32.1
,,0.050564714803938746,0.026604552433768948,0.0010238049957971096,0.07819307223350482,1.9285372468309459,0.6466648944671132,0.34024181009694626,-3.626672933711317,32.2
,,0.050564714803938746,0.026604552433768948,0.0010238049957971096,0.07819307223350482,1.929917967843198,0.6466648944671132,0.34024181009694626,-3.626672933711317,32.3
,,0.050564714803938746,0.026604552433768948,0.0010238049957971096,0.07819307223350482,1.9307499743030772,0.6466648944671132,0.34024181009694626,-3.626672933711317,32.4
,,0.0517939561087463,0.029792968374582156,0.0010722062585266643,0.08265913074185512,1.9297804093878812,0.6265969124511978,0.36043166807095695,-3.5134828738983486,32.5
,,0.04757469407924345,0.025176363318485367,0.0009198047234594494,0.07367086212118827,1.9304907854522375,0.6457735488554929,0.34174112523714395,-3.6818496881799994,32.6
,,0.04757469407924345,0.025176363318485367,0.0009198047234594494,0.07367086212118827,1.9311393545152078,0.6457735488554929,0.34174112523714395,-3.6818496881799994,32.7
,,0.04757469407924345,0.025176363318485367,0.0009198047234594494,0.07367086212118827,1.9317879235781779,0.6457735488554929,0.34174112523714395,-3.6818496881799994,32.8
,,0.04757469407924345,0.025176363318485367,0.0009198047234594494,0.07367086212118827,1.9324364926411484,0.6457735488554929,0.34174112523714395,-3.6818496881799994,32.9
,,0.04757469407924345,0.025176363318485367,0.0009198047234594494,0.07367086212118827,1.9330850617041186,0.6457735488554929,0.34174112523714395,-3.6818496881799994,33.0
,,0.04757469407924345,0.025176363318485367,0.0009198047234594494,0.07367086212118827,1.9332293482393026,0.6457735488554929,0.34174112523714395,-3.6818496881799994,33.1
,,0.04788133671085601,0.025862664394947135,0.0009069333093959865,0.07465093441519913,1.9329482119566708,0.6414030458687365,0.3464479660911174,-3.654954879431997,33.2
,,0.04519980218848742,0.024058225893147434,0.0008352891052280535,0.0700933171868629,1.9329714978132997,0.644851806171315,0.34323137866353537,-3.7272783079312086,33.3
,,0.04519980218848742,0.024058225893147434,0.0008352891052280535,0.0700933171868629,1.9311525189726788,0.644851806171315,0.34323137866353537,-3.7272783079312086,33.4
,,0.04519980218848742,0.024058225893147434,0.0008352891052280535,0.0700933171868629,1.9293336516663082,0.644851806171315,0.34323137866353537,-3.7272783079312086,33.5
,,0.04519980218848742,0.024058225893147434,0.0008352891052280535,0.0700933171868629,1.9275147843599383,0.644851806171315,0.34323137866353537,-3.7272783079312086,33.6
,,0.04519980218848742,0.024058225893147434,0.0008352891052280535,0.0700933171868629,1.9256959170535684,0.644851806171315,0.34323137866353537,-3.7272783079312086,33.7
,,0.04519980218848742,0.024058225893147434,0.0008352891052280535,0.0700933171868629,1.9238770497471984,0.644851806171315,0.34323137866353537,-3.7272783079312086,33.8
,,0.04583339887440675,0.024973245654612366,0.0008343053981584047,0.07164094992717752,1.9229247593702274,0.6397653705177841,0.3485889799060102,-3.689950200974314,33.9
,,0.04351428926392065,0.023340457486481114,0.0007708975284328396,0.0676256442788346,1.9222950117466135,0.6434584058748805,0.34514210896451575,-3.7575670513526225,34.0
,,0.04351428926392065,0.023340457486481114,0.0007708975284328396,0.0676256442788346,1.9216426907784834,0.6434584058748805,0.34514210896451575,-3.7575670513526225,34.1
,,0.04351428926392065,0.023340457486481114,0.0007708975284328396,0.0676256442788346,1.920990369810353,0.6434584058748805,0.34514210896451575,-3.7575670513526225,34.2
,,0.04351428926392065,0.023340457486481114,0.0007708975284328396,0.0676256442788346,1.9203380488422226,0.6434584058748805,0.34514210896451575,-3.7575670513526225,34.3
,,0.04351428926392065,0.023340457486481114,0.0007708975284328396,0.0676256442788346,1.9196857278740924,0.6434584058748805,0.34514210896451575,-3.7575670513526225,34.4
,,0.04351428926392065,0.023340457486481114,0.0007708975284328396,0.0676256442788346,1.9190334069059622,0.6434584058748805,0.34514210896451575,-3.7575670513526225,34.5
,,0.04351428926392065,0.023340457486481114,0.0007708975284328396,0.0676256442788346,1.9180311672555002,0.6434584058748805,0.34514210896451575,-3.7575670513526225,34.6
,,0.044506129171684825,0.024478205312072565,0.0007848593235282588,0.06976919380728565,1.9165163191111447,0.6379051662058516,0.3508454659757933,-3.7099721364408347,34.7
,,0.04257807394310063,0.023026041537545425,0.0007297273671311066,0.06633384284777716,1.9153943856233746,0.6418755813802128,0.3471235880361336,-3.771129462791293,34.8
,,0.04257807394310063,0.023026041537545425,0.0007297273671311066,0.06633384284777716,1.9142724521356043,0.6418755813802128,0.3471235880361336,-3.771129462791293,34.9
,,0.04257807394310063,0.023026041537545425,0.0007297273671311066,0.06633384284777716,1.9131505186478341,0.6418755813802128,0.3471235880361336,-3.771129462791293,35.0
,,0.04257807394310063,0.023026041537545425,0.0007297273671311066,0.06633384284777716,1.9120285851600642,0.6418755813802128,0.3471235880361336,-3.771129462791293,35.1
,,0.04257807394310063,0.023026041537545425,0.0007297273671311066,0.06633384284777716,1.910906651672294,0.6418755813802128,0.3471235880361336,-3.771129462791293,35.2
,,0.04257807394310063,0.023026041537545425,0.0007297273671311066,0.06633384284777716,1.9097847181845233,0.6418755813802128,0.3471235880361336,-3.771129462791293,35.3
,,0.04395418388874558,0.024406183604736953,0.0007616994266889295,0.06912206692017146,1.9076802419339733,0.6358922099292534,0.3530881626112753,-3.712918752366387,35.4
,,0.038351038681815115,0.021787495006836393,0.0007712372172367751,0.06090977090588828,1.9054291099110843,0.6296368893107696,0.3577011484824046,-3.8264190973116343,35.5
,,0.038351038681815115,0.021787495006836393,0.0007712372172367751,0.06090977090588828,1.9031779778881956,0.6296368893107696,0.3577011484824046,-3.8264190973116343,35.6
,,0.038351038681815115,0.021787495006836393,0.0007712372172367751,0.06090977090588828,1.9009268458653066,0.6296368893107696,0.3577011484824046,-3.8264190973116343,35.7
,,0.038351038681815115,0.021787495006836393,0.0007712372172367751,0.06090977090588828,1.898675713842418,0.6296368893107696,0.3577011484824046,-3.8264190973116343,35.8
,,0.038351038681815115,0.021787495006836393,0.0007712372172367751,0.06090977090588828,1.8964245818195289,0.6296368893107696,0.3577011484824046,-3.8264190973116343,35.9
,,0.038351038681815115,0.021787495006836393,0.0007712372172367751,0.06090977090588828,1.8941734497966403,0.6296368893107696,0.3577011484824046,-3.8264190973116343,36.0
,,0.038351038681815115,0.021787495006836393,0.0007712372172367751,0.06090977090588828,1.8919223177737514,0.6296368893107696,0.3577011484824046,-3.8264190973116343,36.1
,,0.04441897415610549,0.024884792751372613,0.0007746135831816691,0.07007838049065977,1.8895726806923527,0.6338470416282774,0.3550994269151143,-3.6934983949613684,36.2
,,0.037371914474341,0.020824696099352717,0.0007756269361835304,0.05897223750987725,1.887703019487475,0.6337204768274494,0.353127115040612,-3.8716156841040075,36.3
,,0.037371914474341,0.020824696099352717,0.0007756269361835304,0.05897223750987725,1.8858333582825972,0.6337204768274494,0.353127115040612,-3.8716156841040075,36.4
,,0.037371914474341,0.020824696099352717,0.0007756269361835304,0.05897223750987725,1.8839636970777194,0.6337204768274494,0.353127115040612,-3.8716156841040075,36.5
,,0.037371914474341,0.020824696099352717,0.0007756269361835304,0.05897223750987725,1.8820940358728415,0.6337204768274494,0.353127115040612,-3.8716156841040075,36.6
,,0.037371914474341,0.020824696099352717,0.0007756269361835304,0.05897223750987725,1.8802243746679639,0.6337204768274494,0.353127115040612,-3.8716156841040075,36.7
,,0.037371914474341,0.020824696099352717,0.0007756269361835304,0.05897223750987725,1.878354713463086,0.6337204768274494,0.353127115040612,-3.8716156841040075,36.8
,,0.04595950814998378,0.02588314946752956,0.0008291447032346392,0.07267180232074798,1.876274582398015,0.6324255995074203,0.35616495863540537,-3.6541631217177595,36.9
,,0.04595950814998378,0.02588314946752956,0.0008291447032346392,0.07267180232074798,1.873859676040025,0.6324255995074203,0.35616495863540537,-3.6541631217177595,37.0
,,0.04593030601552075,0.02538906597209548,0.0007106462965439716,0.0720300182841602,1.8722205548386717,0.6376550653412937,0.3524789605346897,-3.673436671177527,37.1
,,0.04593030601552075,0.02538906597209548,0.0007106462965439716,0.0720300182841602,1.8705814336373177,0.6376550653412937,0.3524789605346897,-3.673436671177527,37.2
,,0.04593030601552075,0.02538906597209548,0.0007106462965439716,0.0720300182841602,1.868942312435964,0.6376550653412937,0.3524789605346897,-3.673436671177527,37.3
,,0.04593030601552075,0.02538906597209548,0.0007106462965439716,0.0720300182841602,1.8673031912346103,0.6376550653412937,0.3524789605346897,-3.673436671177527,37.4
,,0.04593030601552075,0.02538906597209548,0.0007106462965439716,0.0720300182841602,1.865664070033257,0.6376550653412937,0.3524789605346897,-3.673436671177527,37.5
,,0.04593030601552075,0.02538906597209548,0.0007106462965439716,0.0720300182841602,1.864024948831903,0.6376550653412937,0.3524789605346897,-3.673436671177527,37.6
,,0.047232328964436306,0.02667437083713076,0.0009052196053473058,0.07481191940691437,1.8616305801303392,0.6313476427136147,0.35655241903425117,-3.624052068309377,37.7
,,0.047232328964436306,0.02667437083713076,0.0009052196053473058,0.07481191940691437,1.8592362114287757,0.6313476427136147,0.35655241903425117,-3.624052068309377,37.8
,,0.03619122175943761,0.018888791359651717,0.0007012558653120442,0.055781268984401375,1.8592311011878633,0.6488059956032569,0.3386224749554149,-3.9691865825939807,37.9
,,0.03619122175943761,0.018888791359651717,0.0007012558653120442,0.055781268984401375,1.8592259909469508,0.6488059956032569,0.3386224749554149,-3.9691865825939807,38.0
,,0.03619122175943761,0.018888791359651717,0.0007012558653120442,0.055781268984401375,1.858876374025913,0.6488059956032569,0.3386224749554149,-3.9691865825939807,38.1
,,0.03619122175943761,0.018888791359651717,0.0007012558653120442,0.055781268984401375,1.8588712637850007,0.6488059956032569,0.3386224749554149,-3.9691865825939807,38.2
,,0.03619122175943761,0.018888791359651717,0.0007012558653120442,0.055781268984401375,1.858866153544088,0.6488059956032569,0.3386224749554149,-3.9691865825939807,38.3
,,0.045497268805074924,0.02572346784296237,0.0009507360038605409,0.07217147265189784,1.8572242755895587,0.6304051605614357,0.35642154576827717,-3.660351558104254,38.4
,,0.045497268805074924,0.02572346784296237,0.0009507360038605409,0.07217147265189784,1.8549116738681424,0.6304051605614357,0.35642154576827717,-3.660351558104254,38.5
,,0.044003775083525334,0.024408523567359373,0.0007895051083300354,0.06920180375921474,1.8540703855476899,0.635876128845354,0.3527151351760711,-3.712822881152166,38.6
,,0.044003775083525334,0.024408523567359373,0.0007895051083300354,0.06920180375921474,1.8532286112693457,0.635876128845354,0.3527151351760711,-3.712822881152166,38.7
,,0.044003775083525334,0.024408523567359373,0.0007895051083300354,0.06920180375921474,1.8523873229488932,0.635876128845354,0.3527151351760711,-3.712822881152166,38.8
,,0.044003775083525334,0.024408523567359373,0.0007895051083300354,0.06920180375921474,1.8515460346284405,0.635876128845354,0.3527151351760711,-3.712822881152166,38.9
,,0.044003775083525334,0.024408523567359373,0.0007895051083300354,0.06920180375921474,1.850704746307988,0.635876128845354,0.3527151351760711,-3.712822881152166,39.0
,,0.04515843739285631,0.02549633643688455,0.0010447795935231968,0.07169955342326406,1.8495120128598868,0.6298287121298016,0.3555996546641232,-3.6692205062809387,39.1
,,0.04515843739285631,0.02549633643688455,0.0010447795935231968,0.07169955342326406,1.8483192794117858,0.6298287121298016,0.3555996546641232,-3.6692205062809387,39.2
,,0.04472545726879222,0.024756858148248746,0.0008789739740536996,0.07036128939109468,1.8470121788597111,0.6356543158297058,0.35185338930673593,-3.6986527314527535,39.3
,,0.04472545726879222,0.024756858148248746,0.0008789739740536996,0.07036128939109468,1.84570183013601,0.6356543158297058,0.35185338930673593,-3.6986527314527535,39.4
,,0.04472545726879222,0.024756858148248746,0.0008789739740536996,0.07036128939109468,1.8443914814123081,0.6356543158297058,0.35185338930673593,-3.6986527314527535,39.5
,,0.04472545726879222,0.024756858148248746,0.0008789739740536996,0.07036128939109468,1.843084380860234,0.6356543158297058,0.35185338930673593,-3.6986527314527535,39.6
,,0.04472545726879222,0.024756858148248746,0.0008789739740536996,0.07036128939109468,1.8417772803081593,0.6356543158297058,0.35185338930673593,-3.6986527314527535,39.7
,,0.04615634576620531,0.02600687673039418,0.0011911820839142291,0.07335440458051372,1.8401166917111254,0.6292239168207568,0.35453735708329637,-3.649394286301326,39.8
,,0.04615634576620531,0.02600687673039418,0.0011911820839142291,0.07335440458051372,1.8384561031140918,0.6292239168207568,0.35453735708329637,-3.649394286301326,39.9
,,0.04615634576620531,0.02600687673039418,0.0011911820839142291,0.07335440458051372,1.837130713589331,0.6292239168207568,0.35453735708329637,-3.649394286301326,40.0
,,0.0465887180354246,0.02571047399005867,0.0010085308811725508,0.07330772290665581,1.8360201784580126,0.6355226460211695,0.3507198555709653,-3.660856821854884,40.1
,,0.0465887180354246,0.02571047399005867,0.0010085308811725508,0.07330772290665581,1.8349096433266936,0.6355226460211695,0.3507198555709653,-3.660856821854884,40.2
,,0.0465887180354246,0.02571047399005867,0.0010085308811725508,0.07330772290665581,1.833799108195375,0.6355226460211695,0.3507198555709653,-3.660856821854884,40.3
,,0.0465887180354246,0.02571047399005867,0.0010085308811725508,0.07330772290665581,1.832688573064056,0.6355226460211695,0.3507198555709653,-3.660856821854884,40.4
,,0.04799462221971938,0.026981140341245997,0.0013783289198216642,0.07635409148078705,1.8312088049478843,0.6285795729989958,0.3533686252823171,-3.61261716292648,40.5
,,0.04799462221971938,0.026981140341245997,0.0013783289198216642,0.07635409148078705,1.8297290368317132,0.6285795729989958,0.3533686252823171,-3.61261716292648,40.6
,,0.04799462221971938,0.026981140341245997,0.0013783289198216642,0.07635409148078705,1.8282492687155418,0.6285795729989958,0.3533686252823171,-3.61261716292648,40.7
,,0.04969748276414811,0.027332325772768656,0.0011833267240144293,0.0782131352609312,1.827320084810793,0.635410952371997,0.3494595336395065,-3.599685183037291,40.8
,,0.04969748276414811,0.027332325772768656,0.0011833267240144293,0.0782131352609312,1.8264052377339086,0.635410952371997,0.3494595336395065,-3.599685183037291,40.9
,,0.04969748276414811,0.027332325772768656,0.0011833267240144293,0.0782131352609312,1.8254903906570243,0.635410952371997,0.3494595336395065,-3.599685183037291,41.0
,,0.04969748276414811,0.027332325772768656,0.0011833267240144293,0.0782131352609312,1.8245755435801405,0.635410952371997,0.3494595336395065,-3.599685183037291,41.1
,,0.051017796191066146,0.028646086829511988,0.0016274138759089151,0.08129129689648705,1.8232462688475428,0.6275923516883989,0.35238811438804724,-3.5527384305073655,41.2
,,0.051017796191066146,0.028646086829511988,0.0016274138759089151,0.08129129689648705,1.8219169941149447,0.6275923516883989,0.35238811438804724,-3.5527384305073655,41.3
,,0.051017796191066146,0.028646086829511988,0.0016274138759089151,0.08129129689648705,1.820587719382347,0.6275923516883989,0.35238811438804724,-3.5527384305073655,41.4
,,0.053868314475097434,0.02954590792227591,0.0014067859058372121,0.08482100830321056,1.8215293288812837,0.6350822225849261,0.3483324298227845,-3.521810024506858,41.5
,,0.053868314475097434,0.02954590792227591,0.0014067859058372121,0.08482100830321056,1.8207909974006684,0.6350822225849261,0.3483324298227845,-3.521810024506858,41.6
,,0.053868314475097434,0.02954590792227591,0.0014067859058372121,0.08482100830321056,1.8200526659200529,0.6350822225849261,0.3483324298227845,-3.521810024506858,41.7
,,0.053868314475097434,0.02954590792227591,0.0014067859058372121,0.08482100830321056,1.8193143344394371,0.6350822225849261,0.3483324298227845,-3.521810024506858,41.8
,,0.054680083045584464,0.030684916599829186,0.0019100546115391422,0.0872750542569528,1.818117985548037,0.6265259129441143,0.3515886281718887,-3.4839840610906987,41.9
,,0.054680083045584464,0.030684916599829186,0.0019100546115391422,0.0872750542569528,1.8169216366566363,0.6265259129441143,0.3515886281718887,-3.4839840610906987,42.0
,,0.054680083045584464,0.030684916599829186,0.0019100546115391422,0.0872750542569528,1.8157252877652363,0.6265259129441143,0.3515886281718887,-3.4839840610906987,42.1
,,0.05787247863480273,0.03168498364083622,0.001643116616316851,0.09120057889195579,1.81544891436687,0.6345626238114513,0.34742086098349256,-3.451912412513048,42.2
,,0.05787247863480273,0.03168498364083622,0.001643116616316851,0.09120057889195579,1.814868118829243,0.6345626238114513,0.34742086098349256,-3.451912412513048,42.3
,,0.05787247863480273,0.03168498364083622,0.001643116616316851,0.09120057889195579,1.8142873232916161,0.6345626238114513,0.34742086098349256,-3.451912412513048,42.4
,,0.04571925658128319,0.03288505084919986,0.002189335956302587,0.08079364338678564,1.8088596312714016,0.5658769015083294,0.4070252246425916,-3.4147371059566454,42.5
,,0.05805296091892906,0.03263760284855424,0.002194652212060665,0.09288521597954397,1.8077479306040054,0.6249967802380307,0.3513756468601203,-3.422290193723119,42.6
,,0.05805296091892906,0.03263760284855424,0.002194652212060665,0.09288521597954397,1.8066362299366094,0.6249967802380307,0.3513756468601203,-3.422290193723119,42.7
,,0.05805296091892906,0.03263760284855424,0.002194652212060665,0.09288521597954397,1.8055245292692133,0.6249967802380307,0.3513756468601203,-3.422290193723119,42.8
,,0.06184397698961418,0.03386390862786168,0.00189127587541794,0.0975991614928938,1.8054239777602985,0.6336527490978192,0.3469692578283812,-3.385405473975822,42.9
,,0.06184397698961418,0.03386390862786168,0.00189127587541794,0.0975991614928938,1.8050008834980262,0.6336527490978192,0.3469692578283812,-3.385405473975822,43.0
,,0.06184397698961418,0.03386390862786168,0.00189127587541794,0.0975991614928938,1.8045777892357546,0.6336527490978192,0.3469692578283812,-3.385405473975822,43.1
,,0.06184397698961418,0.03386390862786168,0.00189127587541794,0.0975991614928938,1.8041546949734832,0.6336527490978192,0.3469692578283812,-3.385405473975822,43.2
,,0.06184397698961418,0.03386390862786168,0.00189127587541794,0.0975991614928938,1.8037316007112114,0.6336527490978192,0.3469692578283812,-3.385405473975822,43.3
,,0.0604587567624306,0.03408304560764647,0.0024359877383054746,0.09697779010838253,1.8027264577778643,0.6234288974296258,0.3514520754654772,-3.3789552145924118,43.4
,,0.0604587567624306,0.03408304560764647,0.0024359877383054746,0.09697779010838253,1.8017213148445168,0.6234288974296258,0.3514520754654772,-3.3789552145924118,43.5
,,0.05939536449827039,0.03255367317224197,0.0019309507732889648,0.09387998844380131,1.8012791770052508,0.6326733256238714,0.3467583849536724,-3.4248650696208247,43.6
,,0.05939536449827039,0.03255367317224197,0.0019309507732889648,0.09387998844380131,1.8013496476598776,0.6326733256238714,0.3467583849536724,-3.4248650696208247,43.7
,,0.05939536449827039,0.03255367317224197,0.0019309507732889648,0.09387998844380131,1.8010764203041232,0.6326733256238714,0.3467583849536724,-3.4248650696208247,43.8
,,0.05939536449827039,0.03255367317224197,0.0019309507732889648,0.09387998844380131,1.8008031929483688,0.6326733256238714,0.3467583849536724,-3.4248650696208247,43.9
,,0.05939536449827039,0.03255367317224197,0.0019309507732889648,0.09387998844380131,1.8005299655926146,0.6326733256238714,0.3467583849536724,-3.4248650696208247,44.0
,,0.058347765147196196,0.033064185074515064,0.002470812565977552,0.0938827627876888,1.7995916859925962,0.6214960384063981,0.3521858975250662,-3.409304604325419,44.1
,,0.058347765147196196,0.033064185074515064,0.002470812565977552,0.0938827627876888,1.798653406392578,0.6214960384063981,0.3521858975250662,-3.409304604325419,44.2
,,0.047441126018388596,0.020928830890103105,0.0008646344900393685,0.06923459139853108,1.8032940333969463,0.685222878622999,0.3022886459982364,-3.8666276021778474,44.3
,,0.047441126018388596,0.020928830890103105,0.0008646344900393685,0.06923459139853108,1.8084700201480837,0.685222878622999,0.3022886459982364,-3.8666276021778474,44.4
,,0.047441126018388596,0.020928830890103105,0.0008646344900393685,0.06923459139853108,1.8140983724981472,0.685222878622999,0.3022886459982364,-3.8666276021778474,44.5
,,0.047441126018388596,0.020928830890103105,0.0008646344900393685,0.06923459139853108,1.8197267248482107,0.685222878622999,0.3022886459982364,-3.8666276021778474,44.6
,,0.047441126018388596,0.020928830890103105,0.0008646344900393685,0.06923459139853108,1.8253550771982747,0.685222878622999,0.3022886459982364,-3.8666276021778474,44.7
,,0.04679092849929675,0.021091061737818502,0.001124564821109291,0.06900655505822453,1.830447162510448,0.6780649817950879,0.30563852549982884,-3.858905942571408,44.8
,,0.04679092849929675,0.021091061737818502,0.001124564821109291,0.06900655505822453,1.8355392478226213,0.6780649817950879,0.30563852549982884,-3.858905942571408,44.9
,,0.04679092849929675,0.021091061737818502,0.001124564821109291,0.06900655505822453,1.8406313331347945,0.6780649817950879,0.30563852549982884,-3.858905942571408,45.0
,,0.05715219195031215,0.0315455481645657,0.002026206530890227,0.09072394664576808,1.8412035988038213,0.6299570737752741,0.3477091697491445,-3.456322804085249,45.1
,,0.05715219195031215,0.0315455481645657,0.002026206530890227,0.09072394664576808,1.8415008308611054,0.6299570737752741,0.3477091697491445,-3.456322804085249,45.2
,,0.05715219195031215,0.0315455481645657,0.002026206530890227,0.09072394664576808,1.8416912716066134,0.6299570737752741,0.3477091697491445,-3.456322804085249,45.3
,,0.05715219195031215,0.0315455481645657,0.002026206530890227,0.09072394664576808,1.8418817123521216,0.6299570737752741,0.3477091697491445,-3.456322804085249,45.4
,,0.056824700474970125,0.03280485875295888,0.002547477363916062,0.09217703659184506,1.8411884664962523,0.6164735011669644,0.35588970925825075,-3.4171786418504446,45.5
,,0.056824700474970125,0.03280485875295888,0.002547477363916062,0.09217703659184506,1.8404952206403828,0.6164735011669644,0.35588970925825075,-3.4171786418504446,45.6
,,0.056824700474970125,0.03280485875295888,0.002547477363916062,0.09217703659184506,1.8398019747845131,0.6164735011669644,0.35588970925825075,-3.4171786418504446,45.7
,,0.056824700474970125,0.03280485875295888,0.002547477363916062,0.09217703659184506,1.8391087289286436,0.6164735011669644,0.35588970925825075,-3.4171786418504446,45.8
,,0.05726573278011829,0.03212769538299561,0.002089212666063997,0.09148264082917791,1.8391841481245614,0.6259737613723727,0.35118898068308335,-3.4380368363137848,45.9
,,0.05726573278011829,0.03212769538299561,0.002089212666063997,0.09148264082917791,1.8392595673204792,0.6259737613723727,0.35118898068308335,-3.4380368363137848,46.0
,,0.05726573278011829,0.03212769538299561,0.002089212666063997,0.09148264082917791,1.8389638210462573,0.6259737613723727,0.35118898068308335,-3.4380368363137848,46.1
,,0.05700021396799866,0.03351066090915591,0.002584381464225711,0.09309525634138027,1.8377626999584316,0.6122783932081233,0.35996099292398237,-3.3958916546832754,46.2
,,0.05700021396799866,0.03351066090915591,0.002584381464225711,0.09309525634138027,1.8365615788706062,0.6122783932081233,0.35996099292398237,-3.3958916546832754,46.3
,,0.05700021396799866,0.03351066090915591,0.002584381464225711,0.09309525634138027,1.835360457782781,0.6122783932081233,0.35996099292398237,-3.3958916546832754,46.4
,,0.05700021396799866,0.03351066090915591,0.002584381464225711,0.09309525634138027,1.8341593366949553,0.6122783932081233,0.35996099292398237,-3.3958916546832754,46.5
,,0.05700021396799866,0.03351066090915591,0.002584381464225711,0.09309525634138027,1.8329582156071296,0.6122783932081233,0.35996099292398237,-3.3958916546832754,46.6
,,0.05700021396799866,0.03351066090915591,0.002584381464225711,0.09309525634138027,1.832183291706174,0.6122783932081233,0.35996099292398237,-3.3958916546832754,46.7
,,0.03892617385294441,0.01887368589373253,0.0005639225130466342,0.05836378225972357,1.835425032467827,0.6669576978359588,0.32338010257359767,-3.969986607794844,46.8
,,0.03892617385294441,0.01887368589373253,0.0005639225130466342,0.05836378225972357,1.8370521623245277,0.6669576978359588,0.32338010257359767,-3.969986607794844,46.9
,,0.05286844122120052,0.03182110870912565,0.0024023017067528038,0.08709185163707897,1.8342233956475424,0.6070423378011177,0.36537412066662217,-3.4476254135265934,47.0
,,0.05286844122120052,0.03182110870912565,0.0024023017067528038,0.08709185163707897,1.8313946289705563,0.6070423378011177,0.36537412066662217,-3.4476254135265934,47.1
,,0.05286844122120052,0.03182110870912565,0.0024023017067528038,0.08709185163707897,1.8285658622935705,0.6070423378011177,0.36537412066662217,-3.4476254135265934,47.2
,,0.05286844122120052,0.03182110870912565,0.0024023017067528038,0.08709185163707897,1.8257370956165848,0.6070423378011177,0.36537412066662217,-3.4476254135265934,47.3
,,0.05286844122120052,0.03182110870912565,0.0024023017067528038,0.08709185163707897,1.8245450966532164,0.6070423378011177,0.36537412066662217,-3.4476254135265934,47.4
,,0.05286844122120052,0.03182110870912565,0.0024023017067528038,0.08709185163707897,1.823353097689848,0.6070423378011177,0.36537412066662217,-3.4476254135265934,47.5
,,0.0503420233799429,0.029607848729044522,0.0018743969558846648,0.08182426906487208,1.822214092643667,0.6152456227874231,0.3618467854026385,-3.519715793035742,47.6
,,0.04851567288244296,0.030086925475720342,0.0021934690970837655,0.08079606745524706,1.8200997944786994,0.60047072104488,0.3723810628826148,-3.503664571170497,47.7
,,0.04851567288244296,0.030086925475720342,0.0021934690970837655,0.08079606745524706,1.8179854963137319,0.60047072104488,0.3723810628826148,-3.503664571170497,47.8
,,0.04851567288244296,0.030086925475720342,0.0021934690970837655,0.08079606745524706,1.8158711981487639,0.60047072104488,0.3723810628826148,-3.503664571170497,47.9
,,0.04851567288244296,0.030086925475720342,0.0021934690970837655,0.08079606745524706,1.8137568999837963,0.60047072104488,0.3723810628826148,-3.503664571170497,48.0
,,0.04851567288244296,0.030086925475720342,0.0021934690970837655,0.08079606745524706,1.8119940469464768,0.60047072104488,0.3723810628826148,-3.503664571170497,48.1
,,0.04851567288244296,0.030086925475720342,0.0021934690970837655,0.08079606745524706,1.8102311939091575,0.60047072104488,0.3723810628826148,-3.503664571170497,48.2
,,0.046235051287460596,0.027652634180347375,0.002121018586472086,0.07600870405428005,1.808735703712987,0.6082862727726918,0.36380878380191584,-3.588034286822913,48.3
,,0.02979989075503362,0.01672366401603291,0.0004947116830049006,0.04701826645407143,1.8084613820403974,0.6337939061224827,0.35568440262188283,-4.090930555618295,48.4
,,0.02979989075503362,0.01672366401603291,0.0004947116830049006,0.04701826645407143,1.8081870603678079,0.6337939061224827,0.35568440262188283,-4.090930555618295,48.5
,,0.02979989075503362,0.01672366401603291,0.0004947116830049006,0.04701826645407143,1.8079127386952183,0.6337939061224827,0.35568440262188283,-4.090930555618295,48.6
,,0.02979989075503362,0.01672366401603291,0.0004947116830049006,0.04701826645407143,1.807638417022629,0.6337939061224827,0.35568440262188283,-4.090930555618295,48.7
,,0.02979989075503362,0.01672366401603291,0.0004947116830049006,0.04701826645407143,1.807717583394999,0.6337939061224827,0.35568440262188283,-4.090930555618295,48.8
,,0.02979989075503362,0.01672366401603291,0.0004947116830049006,0.04701826645407143,1.8077967497673686,0.6337939061224827,0.35568440262188283,-4.090930555618295,48.9
,,0.02979989075503362,0.01672366401603291,0.0004947116830049006,0.04701826645407143,1.8078759161397382,0.6337939061224827,0.35568440262188283,-4.090930555618295,49.0
,,0.04259700700356579,0.028220316081372453,0.0018769483045788485,0.07269427138951709,1.804513612028648,0.5859747431172205,0.38820550150588584,-3.5677131320045876,49.1
,,0.04259700700356579,0.028220316081372453,0.0018769483045788485,0.07269427138951709,1.8011513079175574,0.5859747431172205,0.38820550150588584,-3.5677131320045876,49.2
,,0.04259700700356579,0.028220316081372453,0.0018769483045788485,0.07269427138951709,1.7977890038064668,0.5859747431172205,0.38820550150588584,-3.5677131320045876,49.3
,,0.04259700700356579,0.028220316081372453,0.0018769483045788485,0.07269427138951709,1.7944266996953762,0.5859747431172205,0.38820550150588584,-3.5677131320045876,49.4
,,0.04259700700356579,0.028220316081372453,0.0018769483045788485,0.07269427138951709,1.7914336285691386,0.5859747431172205,0.38820550150588584,-3.5677131320045876,49.5
,,0.04259700700356579,0.028220316081372453,0.0018769483045788485,0.07269427138951709,1.7884405574429005,0.5859747431172205,0.38820550150588584,-3.5677131320045876,49.6
,,0.04259700700356579,0.028220316081372453,0.0018769483045788485,0.07269427138951709,1.7854474863166625,0.5859747431172205,0.38820550150588584,-3.5677131320045876,49.7
,,0.0409859305783783,0.028619147450643572,0.001792927980439832,0.0713980060094617,1.7811569095711757,0.574048672633054,0.4008395899298777,-3.5536792938843984,49.8
,,0.04085040808311505,0.02801220445128112,0.0017709261283451276,0.0706335386627413,1.7771573528457947,0.578342935332268,0.39658503568726566,-3.5751149905120485,49.9
,,0.04085040808311505,0.02801220445128112,0.0017709261283451276,0.0706335386627413,1.7731577961204144,0.578342935332268,0.39658503568726566,-3.5751149905120485,50.0
,,0.04077859396633048,0.027962961559287444,0.001767782506583385,0.0705093380322013,1.7691582382674917,0.5783431684992856,0.3965852231730907,-3.5768744459351103,50.1
,,0.04085040808311505,0.02801220445128112,0.0017709261283451276,0.0706335386627413,1.7655731091978248,0.578342935332268,0.39658503568726566,-3.5751149905120485,50.2
,,0.04085040808311505,0.02801220445128112,0.0017709261283451276,0.0706335386627413,1.761987980128158,0.578342935332268,0.39658503568726566,-3.5751149905120485,50.3
,,0.04085040808311505,0.02801220445128112,0.0017709261283451276,0.0706335386627413,1.7584028510584908,0.578342935332268,0.39658503568726566,-3.5751149905120485,50.4
,,0.039624102718651695,0.028534762484140122,0.0017004663811982022,0.06985933158399002,1.7535741661099558,0.5671984231771913,0.4084602849346409,-3.5566321986958798,50.5
,,0.02487557005578831,0.01679959986746832,0.00037039172964115546,0.042045561652897794,1.749768795875305,0.5916336725656245,0.3995570330622635,-4.086400210269163,50.6
,,0.02487557005578831,0.01679959986746832,0.00037039172964115546,0.042045561652897794,1.7459634256406544,0.5916336725656245,0.3995570330622635,-4.086400210269163,50.7
,,0.02487557005578831,0.01679959986746832,0.00037039172964115546,0.042045561652897794,1.7421580554060039,0.5916336725656245,0.3995570330622635,-4.086400210269163,50.8
,,0.02487557005578831,0.01679959986746832,0.00037039172964115546,0.042045561652897794,1.7388107025821375,0.5916336725656245,0.3995570330622635,-4.086400210269163,50.9
,,0.024044576803909045,0.01674714589575897,0.000381856934409841,0.041173579634077855,1.7349635475804903,0.5839807230170543,0.40674495743619954,-4.089527429512864,51.0
,,0.02443592742881013,0.01713497261231484,0.00039596992151495465,0.04196686996263993,1.731009095199182,0.5822670942713543,0.4082976077932156,-4.0666337220043856,51.1
,,0.02443592742881013,0.01713497261231484,0.00039596992151495465,0.04196686996263993,1.7265600901426559,0.5822670942713543,0.4082976077932156,-4.0666337220043856,51.2
,,0.040256185566702865,0.029215327537842277,0.0016816325858020238,0.07115314569034716,1.7215758428986192,0.5657681775854941,0.4105978344932923,-3.533061791748414,51.3
,,0.040256185566702865,0.029215327537842277,0.0016816325858020238,0.07115314569034716,1.7165915956545827,0.5657681775854941,0.4105978344932923,-3.533061791748414,51.4
,,0.040256185566702865,0.029215327537842277,0.0016816325858020238,0.07115314569034716,1.716454244893134,0.5657681775854941,0.4105978344932923,-3.533061791748414,51.5
,,0.040256185566702865,0.029215327537842277,0.0016816325858020238,0.07115314569034716,1.7120009027788663,0.5657681775854941,0.4105978344932923,-3.533061791748414,51.6
,,0.040256185566702865,0.029215327537842277,0.0016816325858020238,0.07115314569034716,1.707547560664599,0.5657681775854941,0.4105978344932923,-3.533061791748414,51.7
,,0.038824576827785645,0.02939220923233684,0.0016084242872516326,0.06982521034737413,1.7024608926131293,0.5560252040006306,0.42093978788052694,-3.5270256318514974,51.8
,,0.038824576827785645,0.02939220923233684,0.0016084242872516326,0.06982521034737413,1.6968460421708051,0.5560252040006306,0.42093978788052694,-3.5270256318514974,51.9
,,0.04030874218476584,0.02982574980113319,0.0016528938267703734,0.07178738581266941,1.691570754992804,0.5615017419627495,0.41547340752822604,-3.512383171292932,52.0
,,0.04030874218476584,0.02982574980113319,0.0016528938267703734,0.07178738581266941,1.6862954678148028,0.5615017419627495,0.41547340752822604,-3.512383171292932,52.1
,,0.04030874218476584,0.02982574980113319,0.0016528938267703734,0.07178738581266941,1.6810201806368017,0.5615017419627495,0.41547340752822604,-3.512383171292932,52.2
,,0.04030874218476584,0.02982574980113319,0.0016528938267703734,0.07178738581266941,1.6757448934588004,0.5615017419627495,0.41547340752822604,-3.512383171292932,52.3
,,0.04030874218476584,0.02982574980113319,0.0016528938267703734,0.07178738581266941,1.6710516549518748,0.5615017419627495,0.41547340752822604,-3.512383171292932,52.4
,,0.039206587093783954,0.030087402397596573,0.0016077075767494797,0.07090169706813,1.6658208079357053,0.5529710671961777,0.42435376925724855,-3.5036487198301294,52.5
,,0.039206587093783954,0.030087402397596573,0.0016077075767494797,0.07090169706813,1.660026955825455,0.5529710671961777,0.42435376925724855,-3.5036487198301294,52.6
,,0.04126817459598386,0.030833200154444098,0.0016710094999442308,0.07377238425037218,1.6546258066922588,0.5593986830617537,0.4179504358948321,-3.479163242456522,52.7
,,0.04126817459598386,0.030833200154444098,0.0016710094999442308,0.07377238425037218,1.6492246575590623,0.5593986830617537,0.4179504358948321,-3.479163242456522,52.8
,,0.04126817459598386,0.030833200154444098,0.0016710094999442308,0.07377238425037218,1.6438235084258663,0.5593986830617537,0.4179504358948321,-3.479163242456522,52.9
,,0.04126817459598386,0.030833200154444098,0.0016710094999442308,0.07377238425037218,1.6384223592926699,0.5593986830617537,0.4179504358948321,-3.479163242456522,53.0
,,0.04126817459598386,0.030833200154444098,0.0016710094999442308,0.07377238425037218,1.6336862624037376,0.5593986830617537,0.4179504358948321,-3.479163242456522,53.1
,,0.040246626345477356,0.031009268641718383,0.0016474337645999253,0.07290332875179567,1.6284996894006547,0.5520547145727698,0.425347774548012,-3.4734691307425996,53.2
,,0.040246626345477356,0.031009268641718383,0.0016474337645999253,0.07290332875179567,1.6177342097931855,0.5520547145727698,0.425347774548012,-3.4734691307425996,53.3
,,0.04302004242966408,0.03212386215192678,0.0017344430572335038,0.07687834763882435,1.6074276469412803,0.5595859400070992,0.41785318153357265,-3.43815615578931,53.4
,,0.04302004242966408,0.03212386215192678,0.0017344430572335038,0.07687834763882435,1.5971210840893753,0.5595859400070992,0.41785318153357265,-3.43815615578931,53.5
,,0.04302004242966408,0.03212386215192678,0.0017344430572335038,0.07687834763882435,1.5868145212374705,0.5595859400070992,0.41785318153357265,-3.43815615578931,53.6
,,0.04302004242966408,0.03212386215192678,0.0017344430572335038,0.07687834763882435,1.5765079583855652,0.5595859400070992,0.41785318153357265,-3.43815615578931,53.7
,,0.04302004242966408,0.03212386215192678,0.0017344430572335038,0.07687834763882435,1.5667376625715503,0.5595859400070992,0.41785318153357265,-3.43815615578931,53.8
,,0.0415055689581551,0.031764295909174935,0.0017114781693151275,0.07498134303664516,1.5566060438926994,0.5535452857635578,0.4236293272801338,-3.449412390126335,53.9
,,0.0415055689581551,0.031764295909174935,0.0017114781693151275,0.07498134303664516,1.5464744252138485,0.5535452857635578,0.4236293272801338,-3.449412390126335,54.0
,,0.044600124853716325,0.03290449620586676,0.0018031143079899,0.07930773536757299,1.5414044927515624,0.5623679032947426,0.41489642912336405,-3.4141459677560166,54.1
,,0.044600124853716325,0.03290449620586676,0.0018031143079899,0.07930773536757299,1.5363345602892762,0.5623679032947426,0.41489642912336405,-3.4141459677560166,54.2
,,0.044600124853716325,0.03290449620586676,0.0018031143079899,0.07930773536757299,1.53126462782699,0.5623679032947426,0.41489642912336405,-3.4141459677560166,54.3
,,0.044600124853716325,0.03290449620586676,0.0018031143079899,0.07930773536757299,1.5261946953647036,0.5623679032947426,0.41489642912336405,-3.4141459677560166,54.4
,,0.044600124853716325,0.03290449620586676,0.0018031143079899,0.07930773536757299,1.522008449503795,0.5623679032947426,0.41489642912336405,-3.4141459677560166,54.5
,,0.04232845674721211,0.03182818251598692,0.0017750213553557775,0.07593166061855482,1.5175384622011838,0.557454642798483,0.4191687927895696,-3.4474031390360453,54.6
,,0.04232845674721211,0.03182818251598692,0.0017750213553557775,0.07593166061855482,1.5130684748985723,0.557454642798483,0.4191687927895696,-3.4474031390360453,54.7
,,0.04526536342436462,0.03263277245723721,0.001854708916971406,0.07975284479857324,1.5092341398387323,0.5675705178754252,0.4091737735457056,-3.4224382054758697,54.8
,,0.04526536342436462,0.03263277245723721,0.001854708916971406,0.07975284479857324,1.5048416095872976,0.5675705178754252,0.4091737735457056,-3.4224382054758697,54.9
,,0.04526536342436462,0.03263277245723721,0.001854708916971406,0.07975284479857324,1.5004490793358631,0.5675705178754252,0.4091737735457056,-3.4224382054758697,55.0
,,0.04526536342436462,0.03263277245723721,0.001854708916971406,0.07975284479857324,1.4960565490844286,0.5675705178754252,0.4091737735457056,-3.4224382054758697,55.1
,,0.04526536342436462,0.03263277245723721,0.001854708916971406,0.07975284479857324,1.492569393646598,0.5675705178754252,0.4091737735457056,-3.4224382054758697,55.2
,,0.042448368215947184,0.031074872909268025,0.0018373399271942174,0.07536058105240943,1.4888476751638267,0.5632701821450463,0.4123491681633537,-3.471355731400064,55.3
,,0.042448368215947184,0.031074872909268025,0.0018373399271942174,0.07536058105240943,1.4851259566810557,0.5632701821450463,0.4123491681633537,-3.471355731400064,55.4
,,0.044789896968750006,0.031239534149968915,0.0015373075528574837,0.0775667386715764,1.4821570595721008,0.5774368980291141,0.4027439426355094,-3.4660708660946624,55.5
,,0.044789896968750006,0.031239534149968915,0.0015373075528574837,0.0775667386715764,1.4791881624631464,0.5774368980291141,0.4027439426355094,-3.4660708660946624,55.6
,,0.044789896968750006,0.031239534149968915,0.0015373075528574837,0.0775667386715764,1.4762192653541917,0.5774368980291141,0.4027439426355094,-3.4660708660946624,55.7
,,0.044789896968750006,0.031239534149968915,0.0015373075528574837,0.0775667386715764,1.4692337035826277,0.5774368980291141,0.4027439426355094,-3.4660708660946624,55.8
,,0.041716215342697774,0.029429232848987626,0.0018737848682573647,0.07301923305994276,1.4620676147042388,0.5713044850587817,0.4030339900287457,-3.5257667840494027,55.9
,,0.041716215342697774,0.029429232848987626,0.0018737848682573647,0.07301923305994276,1.4593574223595365,0.5713044850587817,0.4030339900287457,-3.5257667840494027,56.0
,,0.041716215342697774,0.029429232848987626,0.0018737848682573647,0.07301923305994276,1.4566472300148345,0.5713044850587817,0.4030339900287457,-3.5257667840494027,56.1
,,0.04303221720766097,0.028758491549907384,0.0015378770083139901,0.07332858576588235,1.4548128307799997,0.5868409537455256,0.3921866383967257,-3.548822197090793,56.2
,,0.04303221720766097,0.028758491549907384,0.0015378770083139901,0.07332858576588235,1.4529784315451644,0.5868409537455256,0.3921866383967257,-3.548822197090793,56.3
,,0.04303221720766097,0.028758491549907384,0.0015378770083139901,0.07332858576588235,1.4511440323103288,0.5868409537455256,0.3921866383967257,-3.548822197090793,56.4
,,0.04303221720766097,0.028758491549907384,0.0015378770083139901,0.07332858576588235,1.449309633075494,0.5868409537455256,0.3921866383967257,-3.548822197090793,56.5
,,0.03937734446523612,0.026580501060572546,0.0018500353175805867,0.06780788084338925,1.4468779005075487,0.5807192906704016,0.39199722406844606,-3.6275773748373745,56.6
,,0.03937734446523612,0.026580501060572546,0.0018500353175805867,0.06780788084338925,1.4454214610583904,0.5807192906704016,0.39199722406844606,-3.6275773748373745,56.7
,,0.03937734446523612,0.026580501060572546,0.0018500353175805867,0.06780788084338925,1.443965021609232,0.5807192906704016,0.39199722406844606,-3.6275773748373745,56.8
,,0.03972487039870432,0.025278705850865012,0.0014840257521862468,0.06648760200175557,1.4435090086612818,0.5974778635820767,0.3802017983773507,-3.6777929036220547,56.9
,,0.03972487039870432,0.025278705850865012,0.0014840257521862468,0.06648760200175557,1.4430529957133316,0.5974778635820767,0.3802017983773507,-3.6777929036220547,57.0
,,0.03972487039870432,0.025278705850865012,0.0014840257521862468,0.06648760200175557,1.4425969827653815,0.5974778635820767,0.3802017983773507,-3.6777929036220547,57.1
,,0.03972487039870432,0.025278705850865012,0.0014840257521862468,0.06648760200175557,1.442140969817431,0.5974778635820767,0.3802017983773507,-3.6777929036220547,57.2
,,0.03623201053363463,0.02329680231471573,0.0017777954927907366,0.0613066083411411,1.4408436463345191,0.5909968193317974,0.3800047489999853,-3.759439167540484,57.3
,,0.03623201053363463,0.02329680231471573,0.0017777954927907366,0.0613066083411411,1.438325154328026,0.5909968193317974,0.3800047489999853,-3.759439167540484,57.4
,,0.03623201053363463,0.02329680231471573,0.0017777954927907366,0.0613066083411411,1.4358066623215324,0.5909968193317974,0.3800047489999853,-3.759439167540484,57.5
,,0.03629311761353373,0.021976716386686947,0.0014187892220984665,0.059688623222319145,1.434357054787947,0.6080407899233096,0.36818936675472314,-3.8177717321271603,57.6
,,0.03629311761353373,0.021976716386686947,0.0014187892220984665,0.059688623222319145,1.4329074472543615,0.6080407899233096,0.36818936675472314,-3.8177717321271603,57.7
,,0.03629311761353373,0.021976716386686947,0.0014187892220984665,0.059688623222319145,1.431457839720776,0.6080407899233096,0.36818936675472314,-3.8177717321271603,57.8
,,0.03629311761353373,0.021976716386686947,0.0014187892220984665,0.059688623222319145,1.4300082321871905,0.6080407899233096,0.36818936675472314,-3.8177717321271603,57.9
,,0.029612137199341602,0.01962295788512058,0.0015461435417959666,0.05078123862625815,1.4269766333690668,0.5831314477632621,0.38642141105581207,-3.9310550775370925,58.0
,,0.029612137199341602,0.01962295788512058,0.0015461435417959666,0.05078123862625815,1.42697231139063,0.5831314477632621,0.38642141105581207,-3.9310550775370925,58.1
,,0.029612137199341602,0.01962295788512058,0.0015461435417959666,0.05078123862625815,1.426967989412193,0.5831314477632621,0.38642141105581207,-3.9310550775370925,58.2
,,0.029612137199341602,0.01962295788512058,0.0015461435417959666,0.05078123862625815,1.4269636674337562,0.5831314477632621,0.38642141105581207,-3.9310550775370925,58.3
,,0.031350208790613385,0.018074210830442358,0.0012788789761915824,0.05070329859724733,1.429464582988122,0.6183070856915684,0.35647011793082045,-4.013269172723535,58.4
,,0.031350208790613385,0.018074210830442358,0.0012788789761915824,0.05070329859724733,1.431965498542488,0.6183070856915684,0.35647011793082045,-4.013269172723535,58.5
,,0.031350208790613385,0.018074210830442358,0.0012788789761915824,0.05070329859724733,1.4344664140968537,0.6183070856915684,0.35647011793082045,-4.013269172723535,58.6
,,0.028720610389753706,0.016862666111003885,0.001521003651873679,0.047104280152631274,1.4366193279842754,0.6097240059011783,0.35798585725891674,-4.082653206584766,58.7
,,0.028720610389753706,0.016862666111003885,0.001521003651873679,0.047104280152631274,1.439631453089593,0.6097240059011783,0.35798585725891674,-4.082653206584766,58.8
,,0.028720610389753706,0.016862666111003885,0.001521003651873679,0.047104280152631274,1.4423525581748047,0.6097240059011783,0.35798585725891674,-4.082653206584766,58.9
,,0.028720610389753706,0.016862666111003885,0.001521003651873679,0.047104280152631274,1.4450736632600163,0.6097240059011783,0.35798585725891674,-4.082653206584766,59.0
,,0.027499622588454602,0.01530864972707626,0.0011760899799521899,0.04398436229548305,1.448829641010457,0.6252136248722802,0.34804755436111834,-4.179337268690156,59.1
,,0.027499622588454602,0.01530864972707626,0.0011760899799521899,0.04398436229548305,1.452585617633356,0.6252136248722802,0.34804755436111834,-4.179337268690156,59.2
,,0.027499622588454602,0.01530864972707626,0.0011760899799521899,0.04398436229548305,1.456341594256255,0.6252136248722802,0.34804755436111834,-4.179337268690156,59.3
,,0.025485060413784715,0.014523347242788203,0.0013951526638002242,0.041403560320373144,1.4596355656099276,0.6155282351707437,0.35077532295312797,-4.231997769789782,59.4
,,0.025485060413784715,0.014523347242788203,0.0013951526638002242,0.041403560320373144,1.4637037799860089,0.6155282351707437,0.35077532295312797,-4.231997769789782,59.5
,,0.025485060413784715,0.014523347242788203,0.0013951526638002242,0.041403560320373144,1.4667486796482054,0.6155282351707437,0.35077532295312797,-4.231997769789782,59.6
,,0.025485060413784715,0.014523347242788203,0.0013951526638002242,0.041403560320373144,1.4697935793104022,0.6155282351707437,0.35077532295312797,-4.231997769789782,59.7
,,0.025485060413784715,0.014523347242788203,0.0013951526638002242,0.041403560320373144,1.472838478972599,0.6155282351707437,0.35077532295312797,-4.231997769789782,59.8
,,0.024902886725711455,0.013543797718661122,0.0011050017132004566,0.039551686157573034,1.4768159132885623,0.6296289525179511,0.3424328779486906,-4.301826569388267,59.9
,,0.024902886725711455,0.013543797718661122,0.0011050017132004566,0.039551686157573034,1.4812931497823074,0.6296289525179511,0.3424328779486906,-4.301826569388267,60.0
,,0.022923622988575306,0.012826464013088523,0.0012815091661381214,0.03703159616780195,1.4853056829009232,0.6190287581637333,0.3463654106338741,-4.356244741372938,60.1
,,0.022923622988575306,0.012826464013088523,0.0012815091661381214,0.03703159616780195,1.4893182160195395,0.6190287581637333,0.3463654106338741,-4.356244741372938,60.2
,,0.022923622988575306,0.012826464013088523,0.0012815091661381214,0.03703159616780195,1.4938659913256664,0.6190287581637333,0.3463654106338741,-4.356244741372938,60.3
,,0.022923622988575306,0.012826464013088523,0.0012815091661381214,0.03703159616780195,1.498413766631793,0.6190287581637333,0.3463654106338741,-4.356244741372938,60.4
,,0.022923622988575306,0.012826464013088523,0.0012815091661381214,0.03703159616780195,1.5029615419379192,0.6190287581637333,0.3463654106338741,-4.356244741372938,60.5
,,0.02281598345125903,0.012279220857951429,0.0010394130227825038,0.03613461733199296,1.508296917463193,0.6314162190132883,0.3398187600863181,-4.399846806325611,60.6
,,0.021073130768067667,0.011735501051456343,0.0011949755343285062,0.034003607353852515,1.512938700919103,0.6197322110202563,0.34512517831808054,-4.445136753406469,60.7
,,0.021073130768067667,0.011735501051456343,0.0011949755343285062,0.034003607353852515,1.518213810312215,0.6197322110202563,0.34512517831808054,-4.445136753406469,60.8
,,0.021073130768067667,0.011735501051456343,0.0011949755343285062,0.034003607353852515,1.5234889197053263,0.6197322110202563,0.34512517831808054,-4.445136753406469,60.9
,,0.021073130768067667,0.011735501051456343,0.0011949755343285062,0.034003607353852515,1.528424465834115,0.6197322110202563,0.34512517831808054,-4.445136753406469,61.0
,,0.021073130768067667,0.011735501051456343,0.0011949755343285062,0.034003607353852515,1.533360011962904,0.6197322110202563,0.34512517831808054,-4.445136753406469,61.1
,,0.021073130768067667,0.011735501051456343,0.0011949755343285062,0.034003607353852515,1.5382955580916922,0.6197322110202563,0.34512517831808054,-4.445136753406469,61.2
,,0.021073130768067667,0.011735501051456343,0.0011949755343285062,0.034003607353852515,1.543231104220481,0.6197322110202563,0.34512517831808054,-4.445136753406469,61.3
,,0.01649403471258486,0.012476155631220176,0.0011552009100245753,0.03012539125382961,1.5429041051027177,0.5475127135647774,0.41414086629112834,-4.38393600586583,61.4
,,0.01649403471258486,0.012476155631220176,0.0011552009100245753,0.03012539125382961,1.5431147144941986,0.5475127135647774,0.41414086629112834,-4.38393600586583,61.5
,,0.01649403471258486,0.012476155631220176,0.0011552009100245753,0.03012539125382961,1.5433253238856792,0.5475127135647774,0.41414086629112834,-4.38393600586583,61.6
,,0.01649403471258486,0.012476155631220176,0.0011552009100245753,0.03012539125382961,1.543143230300106,0.5475127135647774,0.41414086629112834,-4.38393600586583,61.7
,,0.01649403471258486,0.012476155631220176,0.0011552009100245753,0.03012539125382961,1.5429611367145326,0.5475127135647774,0.41414086629112834,-4.38393600586583,61.8
,,0.01649403471258486,0.012476155631220176,0.0011552009100245753,0.03012539125382961,1.5427790431289594,0.5475127135647774,0.41414086629112834,-4.38393600586583,61.9
,,0.01649403471258486,0.012476155631220176,0.0011552009100245753,0.03012539125382961,1.5425969495433862,0.5475127135647774,0.41414086629112834,-4.38393600586583,62.0
,,0.02108477006897654,0.012100495952618223,0.0010874770867931077,0.03427274310838787,1.547086266159925,0.615205208474144,0.35306470551103225,-4.414508839399732,62.1
,,0.02108477006897654,0.012100495952618223,0.0010874770867931077,0.03427274310838787,1.5520260588906143,0.615205208474144,0.35306470551103225,-4.414508839399732,62.2
,,0.02108477006897654,0.012100495952618223,0.0010874770867931077,0.03427274310838787,1.5569658516213032,0.615205208474144,0.35306470551103225,-4.414508839399732,62.3
,,0.02108477006897654,0.012100495952618223,0.0010874770867931077,0.03427274310838787,1.5614467275964283,0.615205208474144,0.35306470551103225,-4.414508839399732,62.4
,,0.02108477006897654,0.012100495952618223,0.0010874770867931077,0.03427274310838787,1.5659276035715535,0.615205208474144,0.35306470551103225,-4.414508839399732,62.5
,,0.02108477006897654,0.012100495952618223,0.0010874770867931077,0.03427274310838787,1.5704084795466782,0.615205208474144,0.35306470551103225,-4.414508839399732,62.6
,,0.020682784695043616,0.011990241976239263,0.0010312525240923401,0.03370427919537522,1.5746948724153238,0.6136545622337959,0.3557483578490093,-4.4236621286418325,62.7
,,0.020682784695043616,0.011990241976239263,0.0010312525240923401,0.03370427919537522,1.5789812652839699,0.6136545622337959,0.3557483578490093,-4.4236621286418325,62.8
,,0.020682784695043616,0.011990241976239263,0.0010312525240923401,0.03370427919537522,1.583628981017452,0.6136545622337959,0.3557483578490093,-4.4236621286418325,62.9
,,0.020682784695043616,0.011990241976239263,0.0010312525240923401,0.03370427919537522,1.5882766967509339,0.6136545622337959,0.3557483578490093,-4.4236621286418325,63.0
,,0.020682784695043616,0.011990241976239263,0.0010312525240923401,0.03370427919537522,1.592382545910998,0.6136545622337959,0.3557483578490093,-4.4236621286418325,63.1
,,0.020682784695043616,0.011990241976239263,0.0010312525240923401,0.03370427919537522,1.5964883950710622,0.6136545622337959,0.3557483578490093,-4.4236621286418325,63.2
,,0.020682784695043616,0.011990241976239263,0.0010312525240923401,0.03370427919537522,1.6005942442311263,0.6136545622337959,0.3557483578490093,-4.4236621286418325,63.3
,,0.020237884971970592,0.01193969819693534,0.000971693700020722,0.03314927686892666,1.6043672045403727,0.6105075851878116,0.36017974823840965,-4.427886447975722,63.4
,,0.020237884971970592,0.01193969819693534,0.000971693700020722,0.03314927686892666,1.6081401648496192,0.6105075851878116,0.36017974823840965,-4.427886447975722,63.5
,,0.020237884971970592,0.01193969819693534,0.000971693700020722,0.03314927686892666,1.6121968666005686,0.6105075851878116,0.36017974823840965,-4.427886447975722,63.6
,,0.020237884971970592,0.01193969819693534,0.000971693700020722,0.03314927686892666,1.6162535683515178,0.6105075851878116,0.36017974823840965,-4.427886447975722,63.7
,,0.020237884971970592,0.01193969819693534,0.000971693700020722,0.03314927686892666,1.6196746178596966,0.6105075851878116,0.36017974823840965,-4.427886447975722,63.8
,,0.020237884971970592,0.01193969819693534,0.000971693700020722,0.03314927686892666,1.6230956673678751,0.6105075851878116,0.36017974823840965,-4.427886447975722,63.9
,,0.015171824503713524,0.009523255438916377,0.0008845381946094871,0.025579618137239385,1.6253847854879464,0.5931216182475391,0.372298577243114,-4.6540185307637625,64.0
,,0.01532783556461055,0.009544828053101615,0.0008398663514112619,0.02571252996912343,1.6278155079168761,0.596123196862261,0.37121310367215526,-4.651755836309105,64.1
,,0.01532783556461055,0.009544828053101615,0.0008398663514112619,0.02571252996912343,1.6302462303458058,0.596123196862261,0.37121310367215526,-4.651755836309105,64.2
,,0.01532783556461055,0.009544828053101615,0.0008398663514112619,0.02571252996912343,1.632911515819676,0.596123196862261,0.37121310367215526,-4.651755836309105,64.3
,,0.01532783556461055,0.009544828053101615,0.0008398663514112619,0.02571252996912343,1.635576801293546,0.596123196862261,0.37121310367215526,-4.651755836309105,64.4
,,0.01532783556461055,0.009544828053101615,0.0008398663514112619,0.02571252996912343,1.6374892653936002,0.596123196862261,0.37121310367215526,-4.651755836309105,64.5
,,0.01532783556461055,0.009544828053101615,0.0008398663514112619,0.02571252996912343,1.6394017294936538,0.596123196862261,0.37121310367215526,-4.651755836309105,64.6
,,0.014319878742361514,0.00931046134756256,0.0008159187326713906,0.024446258822595466,1.640560450858568,0.5857697427765828,0.3808542409342807,-4.676616634939978,64.7
,,0.014490922930873007,0.009365985838468757,0.0007764702900712378,0.024633379059413003,1.6418207753387646,0.5882637090072983,0.38021522812112085,-4.670670680236797,64.8
,,0.014490922930873007,0.009365985838468757,0.0007764702900712378,0.024633379059413003,1.6432616269257867,0.5882637090072983,0.38021522812112085,-4.670670680236797,64.9
,,0.014490922930873007,0.009365985838468757,0.0007764702900712378,0.024633379059413003,1.6447024785128084,0.5882637090072983,0.38021522812112085,-4.670670680236797,65.0
,,0.014490922930873007,0.009365985838468757,0.0007764702900712378,0.024633379059413003,1.64614333009983,0.5882637090072983,0.38021522812112085,-4.670670680236797,65.1
,,0.014490922930873007,0.009365985838468757,0.0007764702900712378,0.024633379059413003,1.6467083885769846,0.5882637090072983,0.38021522812112085,-4.670670680236797,65.2
,,0.014490922930873007,0.009365985838468757,0.0007764702900712378,0.024633379059413003,1.6472734470541393,0.5882637090072983,0.38021522812112085,-4.670670680236797,65.3
,,0.013518754733231518,0.009134283136881962,0.0007518448247865077,0.02340488269489999,1.6470920125985666,0.5776040371344098,0.3902725450904463,-4.695720566573863,65.4
,,0.013518754733231518,0.009134283136881962,0.0007518448247865077,0.02340488269489999,1.6469105781429938,0.5776040371344098,0.3902725450904463,-4.695720566573863,65.5
,,0.013773814663300877,0.00927007585803635,0.0007230789958832764,0.023766969517220505,1.6469594557872647,0.5795360091374281,0.3900402973681461,-4.680963716262413,65.6
,,0.013773814663300877,0.00927007585803635,0.0007230789958832764,0.023766969517220505,1.647008333431536,0.5795360091374281,0.3900402973681461,-4.680963716262413,65.7
,,0.013773814663300877,0.00927007585803635,0.0007230789958832764,0.023766969517220505,1.6470572110758073,0.5795360091374281,0.3900402973681461,-4.680963716262413,65.8
,,0.013773814663300877,0.00927007585803635,0.0007230789958832764,0.023766969517220505,1.6461056622188701,0.5795360091374281,0.3900402973681461,-4.680963716262413,65.9
,,0.013773814663300877,0.00927007585803635,0.0007230789958832764,0.023766969517220505,1.6451541133619334,0.5795360091374281,0.3900402973681461,-4.680963716262413,66.0
,,0.01289130081152191,0.009038593327605655,0.0006989347273835787,0.022628828866511144,1.6435405038656046,0.5696848426212637,0.399428241776226,-4.706251722039178,66.1
,,0.01289130081152191,0.009038593327605655,0.0006989347273835787,0.022628828866511144,1.641926894369275,0.5696848426212637,0.399428241776226,-4.706251722039178,66.2
,,0.013181281829449748,0.009205756152981664,0.0005869685138766624,0.022974006496308076,1.6405559700175878,0.5737476322019835,0.4007031230909171,-4.687926321773909,66.3
,,0.013181281829449748,0.009205756152981664,0.0005869685138766624,0.022974006496308076,1.6391850456659003,0.5737476322019835,0.4007031230909171,-4.687926321773909,66.4
,,0.013181281829449748,0.009205756152981664,0.0005869685138766624,0.022974006496308076,1.6378141213142126,0.5737476322019835,0.4007031230909171,-4.687926321773909,66.5
,,0.013181281829449748,0.009205756152981664,0.0005869685138766624,0.022974006496308076,1.6353743124896176,0.5737476322019835,0.4007031230909171,-4.687926321773909,66.6
,,0.013181281829449748,0.009205756152981664,0.0005869685138766624,0.022974006496308076,1.6329345036650222,0.5737476322019835,0.4007031230909171,-4.687926321773909,66.7
,,0.018742657953871044,0.012757368882920934,0.0007791219790062701,0.03227914881579825,1.6309092628798934,0.5806428806666024,0.39522011425149933,-4.361646222725764,66.8
,,0.018742657953871044,0.012757368882920934,0.0007791219790062701,0.03227914881579825,1.628884022094765,0.5806428806666024,0.39522011425149933,-4.361646222725764,66.9
,,0.01986412255957212,0.013335617766067414,0.0006726757969882136,0.03387241612262775,1.6286673359248494,0.5864394936475261,0.3937014034602284,-4.317316795756983,67.0
,,0.01986412255957212,0.013335617766067414,0.0006726757969882136,0.03387241612262775,1.6284506497549347,0.5864394936475261,0.3937014034602284,-4.317316795756983,67.1
,,0.01986412255957212,0.013335617766067414,0.0006726757969882136,0.03387241612262775,1.6282339635850194,0.5864394936475261,0.3937014034602284,-4.317316795756983,67.2
,,0.01986412255957212,0.013335617766067414,0.0006726757969882136,0.03387241612262775,1.6280172774151043,0.5864394936475261,0.3937014034602284,-4.317316795756983,67.3
,,0.01986412255957212,0.013335617766067414,0.0006726757969882136,0.03387241612262775,1.6252953537123862,0.5864394936475261,0.3937014034602284,-4.317316795756983,67.4
,,0.011792573660939373,0.008796522709331,0.0006114519592228515,0.021200548329493224,1.620918329313341,0.5562390876718075,0.4149195847493097,-4.733398782255924,67.5
,,0.011792573660939373,0.008796522709331,0.0006114519592228515,0.021200548329493224,1.6165413049142956,0.5562390876718075,0.4149195847493097,-4.733398782255924,67.6
,,0.012100103412401217,0.008910774110579157,0.0005123832641066817,0.021523260787087054,1.6127047644032666,0.5621872787816942,0.41400669716018135,-4.720494160175814,67.7
,,0.012100103412401217,0.008910774110579157,0.0005123832641066817,0.021523260787087054,1.6088682238922378,0.5621872787816942,0.41400669716018135,-4.720494160175814,67.8
,,0.012100103412401217,0.008910774110579157,0.0005123832641066817,0.021523260787087054,1.6050316833812088,0.5621872787816942,0.41400669716018135,-4.720494160175814,67.9
,,0.012100103412401217,0.008910774110579157,0.0005123832641066817,0.021523260787087054,1.6011951428701798,0.5621872787816942,0.41400669716018135,-4.720494160175814,68.0
,,0.012100103412401217,0.008910774110579157,0.0005123832641066817,0.021523260787087054,1.5963237308214637,0.5621872787816942,0.41400669716018135,-4.720494160175814,68.1
,,0.01959034024889524,0.013822039662053536,0.0007940224713021974,0.03420640238225097,1.5921124073692456,0.5727097526941413,0.40407756149256785,-4.281490883829746,68.2
,,0.01959034024889524,0.013822039662053536,0.0007940224713021974,0.03420640238225097,1.587901083917028,0.5727097526941413,0.40407756149256785,-4.281490883829746,68.3
,,0.01959034024889524,0.013822039662053536,0.0007940224713021974,0.03420640238225097,1.5841517657340367,0.5727097526941413,0.40407756149256785,-4.281490883829746,68.4
,,0.01160470849327963,0.008657092490665371,0.0004827882039317188,0.020744589187876722,1.5795486629249083,0.5594089325259572,0.41731809737281444,-4.749376352889047,68.5
,,0.01160470849327963,0.008657092490665371,0.0004827882039317188,0.020744589187876722,1.57494556011578,0.5594089325259572,0.41731809737281444,-4.749376352889047,68.6
,,0.01160470849327963,0.008657092490665371,0.0004827882039317188,0.020744589187876722,1.570342457306652,0.5594089325259572,0.41731809737281444,-4.749376352889047,68.7
,,0.01160470849327963,0.008657092490665371,0.0004827882039317188,0.020744589187876722,1.5657393544975238,0.5594089325259572,0.41731809737281444,-4.749376352889047,68.8
,,0.010825946465352378,0.0083142918050199,0.0005495037605591036,0.019689742030931382,1.5597770853636073,0.5498267294891663,0.42226514659047615,-4.7897793407377955,68.9
,,0.010825946465352378,0.0083142918050199,0.0005495037605591036,0.019689742030931382,1.5538148162296905,0.5498267294891663,0.42226514659047615,-4.7897793407377955,69.0
,,0.010825946465352378,0.0083142918050199,0.0005495037605591036,0.019689742030931382,1.5484245478505636,0.5498267294891663,0.42226514659047615,-4.7897793407377955,69.1
,,0.011120157828126165,0.008308765793020709,0.00045816057274057745,0.01988708419388745,1.5434373433744213,0.5591648187190804,0.41779708437974605,-4.790444201840533,69.2
,,0.011120157828126165,0.008308765793020709,0.00045816057274057745,0.01988708419388745,1.5384501388982788,0.5591648187190804,0.41779708437974605,-4.790444201840533,69.3
,,0.011120157828126165,0.008308765793020709,0.00045816057274057745,0.01988708419388745,1.5334629344221364,0.5591648187190804,0.41779708437974605,-4.790444201840533,69.4
,,0.011120157828126165,0.008308765793020709,0.00045816057274057745,0.01988708419388745,1.5284757299459941,0.5591648187190804,0.41779708437974605,-4.790444201840533,69.5
,,0.010382957188235106,0.007968791546907845,0.0005294078258416481,0.0188811565609846,1.5223074581587055,0.5499110795834461,0.4220499692997776,-4.832222422907417,69.6
,,0.010382957188235106,0.007968791546907845,0.0005294078258416481,0.0188811565609846,1.5168327784407807,0.5499110795834461,0.4220499692997776,-4.832222422907417,69.7
,,0.010382957188235106,0.007968791546907845,0.0005294078258416481,0.0188811565609846,1.5113580987228556,0.5499110795834461,0.4220499692997776,-4.832222422907417,69.8
,,0.010673398471948729,0.007897602312025152,0.0004424196227902992,0.01901342040676418,1.5064225382956813,0.5613613039425341,0.4153698883771336,-4.841196070383009,69.9
,,0.010673398471948729,0.007897602312025152,0.0004424196227902992,0.01901342040676418,1.5014869778685067,0.5613613039425341,0.4153698883771336,-4.841196070383009,70.0
,,0.010080621903719248,0.007623388070807555,0.0005201475125521211,0.018224157487078924,1.4962275845395574,0.5531461144838378,0.4183122361740234,-4.876534379386737,70.1
,,0.009983257788897283,0.007576798225987804,0.000518255676646398,0.018078311691531485,1.4909157547493224,0.5522229043973056,0.41910983477163094,-4.882664566189803,70.2
,,0.009983257788897283,0.007576798225987804,0.000518255676646398,0.018078311691531485,1.4856039249590873,0.5522229043973056,0.41910983477163094,-4.882664566189803,70.3
,,0.009983257788897283,0.007576798225987804,0.000518255676646398,0.018078311691531485,1.4855546404154036,0.5522229043973056,0.41910983477163094,-4.882664566189803,70.4
,,0.009983257788897283,0.007576798225987804,0.000518255676646398,0.018078311691531485,1.48550535587172,0.5522229043973056,0.41910983477163094,-4.882664566189803,70.5
,,0.022426225896027427,0.015161512614470027,0.0008375357470611198,0.038425274257558574,1.4872510255602125,0.5836321621469234,0.394571357196953,-4.188995127065192,70.6
,,0.022426225896027427,0.015161512614470027,0.0008375357470611198,0.038425274257558574,1.488996695248705,0.5836321621469234,0.394571357196953,-4.188995127065192,70.7
,,0.022426225896027427,0.015161512614470027,0.0008375357470611198,0.038425274257558574,1.4907423649371976,0.5836321621469234,0.394571357196953,-4.188995127065192,70.8
,,0.009627386753713833,0.007161271481895098,0.0005156914378759283,0.01730434967348486,1.4909904061734267,0.5563564615471047,0.4138422776365982,-4.939067732505005,70.9
,,0.009627386753713833,0.007161271481895098,0.0005156914378759283,0.01730434967348486,1.4912384474096556,0.5563564615471047,0.4138422776365982,-4.939067732505005,71.0
,,0.009627386753713833,0.007161271481895098,0.0005156914378759283,0.01730434967348486,1.4868150784437726,0.5563564615471047,0.4138422776365982,-4.939067732505005,71.1
,,0.009627386753713833,0.007161271481895098,0.0005156914378759283,0.01730434967348486,1.4823917094778896,0.5563564615471047,0.4138422776365982,-4.939067732505005,71.2
,,0.009021908980258736,0.007001995164497827,0.0004371320647235117,0.016461036209480074,1.4773473242895165,0.5480766134918608,0.4253678246856239,-4.9615601470386155,71.3
,,0.009021908980258736,0.007001995164497827,0.0004371320647235117,0.016461036209480074,1.472302939101143,0.5480766134918608,0.4253678246856239,-4.9615601470386155,71.4
,,0.009021908980258736,0.007001995164497827,0.0004371320647235117,0.016461036209480074,1.4672585539127696,0.5480766134918608,0.4253678246856239,-4.9615601470386155,71.5
,,0.009332774508846675,0.0067697398348536796,0.000521845759902221,0.016624360103602576,1.4632155549079293,0.5613915032329105,0.4072180699085462,-4.99529262191695,71.6
,,0.009332774508846675,0.0067697398348536796,0.000521845759902221,0.016624360103602576,1.459367039009569,0.5613915032329105,0.4072180699085462,-4.99529262191695,71.7
,,0.009332774508846675,0.0067697398348536796,0.000521845759902221,0.016624360103602576,1.4555185231112082,0.5613915032329105,0.4072180699085462,-4.99529262191695,71.8
,,0.009332774508846675,0.0067697398348536796,0.000521845759902221,0.016624360103602576,1.4516700072128474,0.5613915032329105,0.4072180699085462,-4.99529262191695,71.9
,,0.008744055667122884,0.006585546603337467,0.0004451083866405188,0.015774710657100868,1.4472566352256144,0.5543084660755291,0.41747495383524086,-5.02287793989127,72.0
,,0.008744055667122884,0.006585546603337467,0.0004451083866405188,0.015774710657100868,1.4428432632383814,0.5543084660755291,0.41747495383524086,-5.02287793989127,72.1
