HRV_ULF,HRV_VLF,HRV_LF,HRV_HF,HRV_VHF,HRV_TP,HRV_LFHF,HRV_LFn,HRV_HFn,HRV_LnHF,time
,,0.027132095416624813,0.0075473975698018515,0.0002358173769964178,0.03491531036342308,3.5948941559914585,0.7770830370463531,0.21616298097434147,-4.886552467882878,0.0
,,0.027132095416624813,0.0075473975698018515,0.0002358173769964178,0.03491531036342308,3.5948941559914585,0.7770830370463531,0.21616298097434147,-4.886552467882878,0.1
,,0.027132095416624813,0.0075473975698018515,0.0002358173769964178,0.03491531036342308,3.5948941559914585,0.7770830370463531,0.21616298097434147,-4.886552467882878,0.2
,,0.027132095416624813,0.0075473975698018515,0.0002358173769964178,0.03491531036342308,3.5948941559914585,0.7770830370463531,0.21616298097434147,-4.886552467882878,0.3
,,0.027132095416624813,0.0075473975698018515,0.0002358173769964178,0.03491531036342308,3.5948941559914585,0.7770830370463531,0.21616298097434147,-4.886552467882878,0.4
,,0.02450810526603722,0.001336591889574474,0.00018523507659124326,0.026029932232202936,6.051789568738227,0.9415355002621563,0.051348266205661075,-6.617632270858375,0.5
,,0.028989017521703762,0.008842445275020065,0.00024045310202767403,0.0380719158987515,5.655590169249869,0.7614278619126285,0.2322563776022114,-4.728191825762137,0.6
,,0.028989017521703762,0.008842445275020065,0.00024045310202767403,0.0380719158987515,5.358440619633601,0.7614278619126285,0.2322563776022114,-4.728191825762137,0.7
,,0.028989017521703762,0.008842445275020065,0.00024045310202767403,0.0380719158987515,5.127324303265393,0.7614278619126285,0.2322563776022114,-4.728191825762137,0.8
,,0.028989017521703762,0.008842445275020065,0.00024045310202767403,0.0380719158987515,4.942431250170826,0.7614278619126285,0.2322563776022114,-4.728191825762137,0.9
,,0.028989017521703762,0.008842445275020065,0.00024045310202767403,0.0380719158987515,4.791155115820726,0.7614278619126285,0.2322563776022114,-4.728191825762137,1.0
,,0.028989017521703762,0.008842445275020065,0.00024045310202767403,0.0380719158987515,4.665091670528976,0.7614278619126285,0.2322563776022114,-4.728191825762137,1.1
,,0.025247859554091295,0.0014810782811232892,0.0001868688445815739,0.026915806679796157,5.6175419035346446,0.9380309442125369,0.055026338193870025,-6.514984888156629,1.2
,,0.025247859554091295,0.0014810782811232892,0.0001868688445815739,0.026915806679796157,6.433927817539504,0.9380309442125369,0.055026338193870025,-6.514984888156629,1.3
,,0.031175782580267323,0.010316434786614037,0.0002511232343705539,0.04174334060125191,6.206462839574872,0.7468444578518553,0.24713965480531377,-4.574017045029358,1.4
,,0.031175782580267323,0.010316434786614037,0.0002511232343705539,0.04174334060125191,6.007430983855818,0.7468444578518553,0.24713965480531377,-4.574017045029358,1.5
,,0.031175782580267323,0.010316434786614037,0.0002511232343705539,0.04174334060125191,5.831814640574301,0.7468444578518553,0.24713965480531377,-4.574017045029358,1.6
,,0.031175782580267323,0.010316434786614037,0.0002511232343705539,0.04174334060125191,5.675711224324063,0.7468444578518553,0.24713965480531377,-4.574017045029358,1.7
,,0.031175782580267323,0.010316434786614037,0.0002511232343705539,0.04174334060125191,5.536039746626482,0.7468444578518553,0.24713965480531377,-4.574017045029358,1.8
,,0.03268254029751809,0.011467721444579292,0.00025094436059429234,0.04440120610269167,5.4017357282921585,0.7360732549005424,0.25827499861279896,-4.4682190210555195,1.9
,,0.03268254029751809,0.011467721444579292,0.00025094436059429234,0.04440120610269167,5.280222568846819,0.7360732549005424,0.25827499861279896,-4.4682190210555195,2.0
,,0.02604084276381744,0.001796822530878267,0.0002049781006180802,0.02804264339531379,5.698972374522612,0.9286158368425828,0.06407464893907021,-6.321735434611771,2.1
,,0.02604084276381744,0.001796822530878267,0.0002049781006180802,0.02804264339531379,6.081309153617902,0.9286158368425828,0.06407464893907021,-6.321735434611771,2.2
,,0.02604084276381744,0.001796822530878267,0.0002049781006180802,0.02804264339531379,6.43178453445525,0.9286158368425828,0.06407464893907021,-6.321735434611771,2.3
,,0.02604084276381744,0.001796822530878267,0.0002049781006180802,0.02804264339531379,6.754221884825612,0.9286158368425828,0.06407464893907021,-6.321735434611771,2.4
,,0.02604084276381744,0.001796822530878267,0.0002049781006180802,0.02804264339531379,7.05185636209056,0.9286158368425828,0.06407464893907021,-6.321735434611771,2.5
,,0.03537726418522673,0.013124231260144475,0.0002675596843722711,0.04876905512974347,6.890512366672476,0.725403928600017,0.26910981205662554,-4.333295042875436,2.6
,,0.03537726418522673,0.013124231260144475,0.0002675596843722711,0.04876905512974347,6.740692942355684,0.725403928600017,0.26910981205662554,-4.333295042875436,2.7
,,0.03537726418522673,0.013124231260144475,0.0002675596843722711,0.04876905512974347,6.6012058921297045,0.725403928600017,0.26910981205662554,-4.333295042875436,2.8
,,0.03685329175601946,0.013782472650436146,0.00023698454964548948,0.050872748956101096,6.470296513517725,0.7244210802884026,0.27092054062832854,-4.2843575918712675,2.9
,,0.03685329175601946,0.013782472650436146,0.00023698454964548948,0.050872748956101096,6.347832901267808,0.7244210802884026,0.27092054062832854,-4.2843575918712675,3.0
,,0.03685329175601946,0.013782472650436146,0.00023698454964548948,0.050872748956101096,6.233023264783511,0.7244210802884026,0.27092054062832854,-4.2843575918712675,3.1
,,0.03685329175601946,0.013782472650436146,0.00023698454964548948,0.050872748956101096,6.125171788086141,0.7244210802884026,0.27092054062832854,-4.2843575918712675,3.2
,,0.03685329175601946,0.013782472650436146,0.00023698454964548948,0.050872748956101096,6.023664515900381,0.7244210802884026,0.27092054062832854,-4.2843575918712675,3.3
,,0.03843145663276507,0.014916352104840564,0.00028990817885055824,0.0536377169164562,5.925173096385107,0.7165006052107746,0.27809446341785266,-4.2052972110953855,3.4
,,0.03843145663276507,0.014916352104840564,0.00028990817885055824,0.0536377169164562,5.832153422398459,0.7165006052107746,0.27809446341785266,-4.2052972110953855,3.5
,,0.04009421536804995,0.01564525021668205,0.00025886470869664166,0.05599833029342864,5.743790045518208,0.7159894796498061,0.27938779843437594,-4.15758790859308,3.6
,,0.04009421536804995,0.01564525021668205,0.00025886470869664166,0.05599833029342864,5.660077372684286,0.7159894796498061,0.27938779843437594,-4.15758790859308,3.7
,,0.04009421536804995,0.01564525021668205,0.00025886470869664166,0.05599833029342864,5.580657657431591,0.7159894796498061,0.27938779843437594,-4.15758790859308,3.8
,,0.04009421536804995,0.01564525021668205,0.00025886470869664166,0.05599833029342864,5.505208927941531,0.7159894796498061,0.27938779843437594,-4.15758790859308,3.9
,,0.0411133442243987,0.016428799462767003,0.0003159038853685814,0.05785804757253429,5.431972530962085,0.7105898997517427,0.28395011847178014,-4.108719419428192,4.0
,,0.0413028474562159,0.016564528238567702,0.0003150137249952244,0.05818238941977883,5.362007744040536,0.709885720887482,0.2847000338720477,-4.100491723046165,4.1
,,0.0413028474562159,0.016564528238567702,0.0003150137249952244,0.05818238941977883,5.2952971332548735,0.709885720887482,0.2847000338720477,-4.100491723046165,4.2
,,0.028527195372986428,0.0026715847919774782,0.00029106884272231246,0.03148984900768622,5.417631399604634,0.9059171851228423,0.08483955548104986,-5.925083427606358,4.3
,,0.028527195372986428,0.0026715847919774782,0.00029106884272231246,0.03148984900768622,5.534528587449962,0.9059171851228423,0.08483955548104986,-5.925083427606358,4.4
,,0.028527195372986428,0.0026715847919774782,0.00029106884272231246,0.03148984900768622,5.646343288867232,0.9059171851228423,0.08483955548104986,-5.925083427606358,4.5
,,0.028527195372986428,0.0026715847919774782,0.00029106884272231246,0.03148984900768622,5.753399917883766,0.9059171851228423,0.08483955548104986,-5.925083427606358,4.6
,,0.028527195372986428,0.0026715847919774782,0.00029106884272231246,0.03148984900768622,5.855995854024613,0.9059171851228423,0.08483955548104986,-5.925083427606358,4.7
,,0.028527195372986428,0.0026715847919774782,0.00029106884272231246,0.03148984900768622,5.954404200935221,0.9059171851228423,0.08483955548104986,-5.925083427606358,4.8
,,0.0289530128325112,0.002731614269798909,0.0002891050648444291,0.03197373216715454,6.04730075290718,0.9055249690948992,0.08543307536068617,-5.902862536920085,4.9
,,0.047207432809156416,0.01924932642536427,0.0003983790347891554,0.06685513826930985,5.976812894698461,0.7061152520393066,0.28792590851914757,-3.950279209750707,5.0
,,0.047207432809156416,0.01924932642536427,0.0003983790347891554,0.06685513826930985,5.9090361079593094,0.7061152520393066,0.28792590851914757,-3.950279209750707,5.1
,,0.047207432809156416,0.01924932642536427,0.0003983790347891554,0.06685513826930985,5.843816935814087,0.7061152520393066,0.28792590851914757,-3.950279209750707,5.2
,,0.047207432809156416,0.01924932642536427,0.0003983790347891554,0.06685513826930985,5.781013288563132,0.7061152520393066,0.28792590851914757,-3.950279209750707,5.3
,,0.047207432809156416,0.01924932642536427,0.0003983790347891554,0.06685513826930985,5.7204934103031215,0.7061152520393066,0.28792590851914757,-3.950279209750707,5.4
,,0.047207432809156416,0.01924932642536427,0.0003983790347891554,0.06685513826930985,5.662134956266683,0.7061152520393066,0.28792590851914757,-3.950279209750707,5.5
,,0.047207432809156416,0.01924932642536427,0.0003983790347891554,0.06685513826930985,5.605824167284155,0.7061152520393066,0.28792590851914757,-3.950279209750707,5.6
,,0.04831600427000079,0.01983741594684404,0.0003914539076082263,0.06854487412445305,5.551165124693574,0.7048813625695213,0.28940772304616635,-3.920185430222692,5.7
,,0.0513638683327709,0.020995176754111115,0.0004478205085700667,0.07280686559545207,5.498543010564622,0.7054811096823179,0.28836808977287703,-3.863462546014493,5.8
,,0.0513638683327709,0.020995176754111115,0.0004478205085700667,0.07280686559545207,5.447674966906636,0.7054811096823179,0.28836808977287703,-3.863462546014493,5.9
,,0.0513638683327709,0.020995176754111115,0.0004478205085700667,0.07280686559545207,5.398474727958748,0.7054811096823179,0.28836808977287703,-3.863462546014493,6.0
,,0.0513638683327709,0.020995176754111115,0.0004478205085700667,0.07280686559545207,5.3508615934930495,0.7054811096823179,0.28836808977287703,-3.863462546014493,6.1
,,0.0513638683327709,0.020995176754111115,0.0004478205085700667,0.07280686559545207,5.304759987105627,0.7054811096823179,0.28836808977287703,-3.863462546014493,6.2
,,0.0513638683327709,0.020995176754111115,0.0004478205085700667,0.07280686559545207,5.260099055917812,0.7054811096823179,0.28836808977287703,-3.863462546014493,6.3
,,0.05241403496954995,0.021391226999798185,0.00044304342139125176,0.07424830539073939,5.216870739088833,0.7059290403156768,0.2881039087319857,-3.844774394288609,6.4
,,0.030465458331968134,0.004122192504780532,0.0004717725228331588,0.03505942335958183,5.249805966252885,0.8689663266706823,0.11757730475204539,-5.491370095813842,6.5
,,0.030465458331968134,0.004122192504780532,0.0004717725228331588,0.03505942335958183,5.281758052307562,0.8689663266706823,0.11757730475204539,-5.491370095813842,6.6
,,0.030465458331968134,0.004122192504780532,0.0004717725228331588,0.03505942335958183,5.312770371125337,0.8689663266706823,0.11757730475204539,-5.491370095813842,6.7
,,0.030465458331968134,0.004122192504780532,0.0004717725228331588,0.03505942335958183,5.342883782151292,0.8689663266706823,0.11757730475204539,-5.491370095813842,6.8
,,0.030465458331968134,0.004122192504780532,0.0004717725228331588,0.03505942335958183,5.3721368100050775,0.8689663266706823,0.11757730475204539,-5.491370095813842,6.9
,,0.030465458331968134,0.004122192504780532,0.0004717725228331588,0.03505942335958183,5.400565808905235,0.8689663266706823,0.11757730475204539,-5.491370095813842,7.0
,,0.030465458331968134,0.004122192504780532,0.0004717725228331588,0.03505942335958183,5.428205113391498,0.8689663266706823,0.11757730475204539,-5.491370095813842,7.1
,,0.031434063401306944,0.004995208673866648,0.0005669879047459322,0.036996259979919524,5.44004946653384,0.849655165640214,0.13501928780308875,-5.299276091204357,7.2
,,0.031434063401306944,0.004995208673866648,0.0005669879047459322,0.036996259979919524,5.451573702023686,0.849655165640214,0.13501928780308875,-5.299276091204357,7.3
,,0.031434063401306944,0.004995208673866648,0.0005669879047459322,0.036996259979919524,5.462790624567136,0.849655165640214,0.13501928780308875,-5.299276091204357,7.4
,,0.031434063401306944,0.004995208673866648,0.0005669879047459322,0.036996259979919524,5.4737123649383905,0.849655165640214,0.13501928780308875,-5.299276091204357,7.5
,,0.031434063401306944,0.004995208673866648,0.0005669879047459322,0.036996259979919524,5.48435042374156,0.849655165640214,0.13501928780308875,-5.299276091204357,7.6
,,0.031434063401306944,0.004995208673866648,0.0005669879047459322,0.036996259979919524,5.494715711806187,0.849655165640214,0.13501928780308875,-5.299276091204357,7.7
,,0.031434063401306944,0.004995208673866648,0.0005669879047459322,0.036996259979919524,5.504818587514746,0.849655165640214,0.13501928780308875,-5.299276091204357,7.8
,,0.06258258585625054,0.024363105713414615,0.0006088982012764655,0.08755458977094162,5.468117657342924,0.714783611230179,0.27826189097742143,-3.714685351926397,7.9
,,0.06258258585625054,0.024363105713414615,0.0006088982012764655,0.08755458977094162,5.432322922977813,0.714783611230179,0.27826189097742143,-3.714685351926397,8.0
,,0.06258258585625054,0.024363105713414615,0.0006088982012764655,0.08755458977094162,5.397401230914291,0.714783611230179,0.27826189097742143,-3.714685351926397,8.1
,,0.06258258585625054,0.024363105713414615,0.0006088982012764655,0.08755458977094162,5.363321025406515,0.714783611230179,0.27826189097742143,-3.714685351926397,8.2
,,0.06258258585625054,0.024363105713414615,0.0006088982012764655,0.08755458977094162,5.330052253363211,0.714783611230179,0.27826189097742143,-3.714685351926397,8.3
,,0.06258258585625054,0.024363105713414615,0.0006088982012764655,0.08755458977094162,5.2975662759562185,0.714783611230179,0.27826189097742143,-3.714685351926397,8.4
,,0.06258258585625054,0.024363105713414615,0.0006088982012764655,0.08755458977094162,5.265835786395902,0.714783611230179,0.27826189097742143,-3.714685351926397,8.5
,,0.033393896083989204,0.007368217807832995,0.0006584261584022494,0.04142054005022445,5.2574026597208015,0.8062158543441842,0.17788801881623628,-4.910579419142362,8.6
,,0.06230865955412709,0.02373217168685946,0.0006288530126036183,0.08666968425359017,5.227494599674777,0.7189210401622761,0.2738232161711884,-3.740923696208594,8.7
,,0.06230865955412709,0.02373217168685946,0.0006288530126036183,0.08666968425359017,5.19825863086574,0.7189210401622761,0.2738232161711884,-3.740923696208594,8.8
,,0.06230865955412709,0.02373217168685946,0.0006288530126036183,0.08666968425359017,5.169672350252461,0.7189210401622761,0.2738232161711884,-3.740923696208594,8.9
,,0.06230865955412709,0.02373217168685946,0.0006288530126036183,0.08666968425359017,5.158901230471119,0.7189210401622761,0.2738232161711884,-3.740923696208594,9.0
,,0.06230865955412709,0.02373217168685946,0.0006288530126036183,0.08666968425359017,5.1481301106897766,0.7189210401622761,0.2738232161711884,-3.740923696208594,9.1
,,0.06230865955412709,0.02373217168685946,0.0006288530126036183,0.08666968425359017,5.137358990908433,0.7189210401622761,0.2738232161711884,-3.740923696208594,9.2
,,0.0617145420534741,0.023121174888658187,0.0005266531679140686,0.08536237011004635,5.127073260986984,0.7229712808338585,0.2708591017195414,-3.767006419485614,9.3
,,0.03606577167206114,0.01091625311388549,0.0010123549158357636,0.04799437970178239,5.123839547795771,0.7514582310712049,0.22744857172266125,-4.517502488984066,9.4
,,0.03606577167206114,0.01091625311388549,0.0010123549158357636,0.04799437970178239,4.956812807088106,0.7514582310712049,0.22744857172266125,-4.517502488984066,9.5
,,0.03606577167206114,0.01091625311388549,0.0010123549158357636,0.04799437970178239,4.95709576482658,0.7514582310712049,0.22744857172266125,-4.517502488984066,9.6
,,0.03606577167206114,0.01091625311388549,0.0010123549158357636,0.04799437970178239,4.957378722565052,0.7514582310712049,0.22744857172266125,-4.517502488984066,9.7
,,0.03606577167206114,0.01091625311388549,0.0010123549158357636,0.04799437970178239,4.9576616803035245,0.7514582310712049,0.22744857172266125,-4.517502488984066,9.8
,,0.03606577167206114,0.01091625311388549,0.0010123549158357636,0.04799437970178239,4.957944638041997,0.7514582310712049,0.22744857172266125,-4.517502488984066,9.9
,,0.059471704961909885,0.021907746644300202,0.0005261152286391277,0.08190556683484922,4.951680737472006,0.7261008898433731,0.2674756733992699,-3.8209149766564616,10.0
,,0.03852669432332092,0.015049939285829083,0.0012334603352018865,0.054810093944351886,4.943697735237636,0.7029123935170896,0.27458335140073153,-4.19638132195957,10.1
,,0.03852669432332092,0.015049939285829083,0.0012334603352018865,0.054810093944351886,4.782730833811233,0.7029123935170896,0.27458335140073153,-4.19638132195957,10.2
,,0.03852669432332092,0.015049939285829083,0.0012334603352018865,0.054810093944351886,4.621763932384831,0.7029123935170896,0.27458335140073153,-4.19638132195957,10.3
,,0.03852669432332092,0.015049939285829083,0.0012334603352018865,0.054810093944351886,4.616630270419903,0.7029123935170896,0.27458335140073153,-4.19638132195957,10.4
,,0.03852669432332092,0.015049939285829083,0.0012334603352018865,0.054810093944351886,4.611496608454974,0.7029123935170896,0.27458335140073153,-4.19638132195957,10.5
,,0.05755921679072236,0.02100271154950551,0.0005278270038878916,0.07908975534411578,4.608370031478165,0.7277708287285115,0.26555539915534837,-3.8631037281891407,10.6
,,0.05609655596327093,0.02064096566152831,0.000631916299213625,0.07736943792401287,4.604989765856143,0.7250479965792855,0.26678448513223657,-3.8804775535364433,10.7
,,0.05609655596327093,0.02064096566152831,0.000631916299213625,0.07736943792401287,4.6016095002341215,0.7250479965792855,0.26678448513223657,-3.8804775535364433,10.8
,,0.05609655596327093,0.02064096566152831,0.000631916299213625,0.07736943792401287,4.600140276480211,0.7250479965792855,0.26678448513223657,-3.8804775535364433,10.9
,,0.05609655596327093,0.02064096566152831,0.000631916299213625,0.07736943792401287,4.598671052726299,0.7250479965792855,0.26678448513223657,-3.8804775535364433,11.0
,,0.05609655596327093,0.02064096566152831,0.000631916299213625,0.07736943792401287,4.467837841041565,0.7250479965792855,0.26678448513223657,-3.8804775535364433,11.1
,,0.05609655596327093,0.02064096566152831,0.000631916299213625,0.07736943792401287,4.337004629356828,0.7250479965792855,0.26678448513223657,-3.8804775535364433,11.2
,,0.05595856134030345,0.02045624690987688,0.0005315310505865178,0.07694633930076684,4.206369140989441,0.7272413716989623,0.26585081364193,-3.8894669707748926,11.3
,,0.05463762462587202,0.020313024864548418,0.0006346583821664607,0.0755853078725869,4.0752254131334,0.7228603833693964,0.2687430326908214,-3.896492979740554,11.4
,,0.05463762462587202,0.020313024864548418,0.0006346583821664607,0.0755853078725869,3.9440816852773577,0.7228603833693964,0.2687430326908214,-3.896492979740554,11.5
,,0.05463762462587202,0.020313024864548418,0.0006346583821664607,0.0755853078725869,3.9440173997314485,0.7228603833693964,0.2687430326908214,-3.896492979740554,11.6
,,0.05463762462587202,0.020313024864548418,0.0006346583821664607,0.0755853078725869,3.9439531141855397,0.7228603833693964,0.2687430326908214,-3.896492979740554,11.7
,,0.05463762462587202,0.020313024864548418,0.0006346583821664607,0.0755853078725869,3.943888828639631,0.7228603833693964,0.2687430326908214,-3.896492979740554,11.8
,,0.05467177225648568,0.02029589560456934,0.0005366549602691419,0.07550432282132416,3.9441089492615107,0.7240879755436349,0.26880441869001587,-3.897336600343963,11.9
,,0.05467177225648568,0.02029589560456934,0.0005366549602691419,0.07550432282132416,3.94432906988339,0.7240879755436349,0.26880441869001587,-3.897336600343963,12.0
,,0.05338849415753898,0.02031844907629642,0.0006384701576315002,0.07434541339146689,3.943814209219786,0.7181141609425327,0.2732979500606086,-3.8962259841701683,12.1
,,0.05338849415753898,0.02031844907629642,0.0006384701576315002,0.07434541339146689,3.9432993485561836,0.7181141609425327,0.2732979500606086,-3.8962259841701683,12.2
,,0.05338849415753898,0.02031844907629642,0.0006384701576315002,0.07434541339146689,3.94278448789258,0.7181141609425327,0.2732979500606086,-3.8962259841701683,12.3
,,0.05338849415753898,0.02031844907629642,0.0006384701576315002,0.07434541339146689,3.9433525127945837,0.7181141609425327,0.2732979500606086,-3.8962259841701683,12.4
,,0.05338849415753898,0.02031844907629642,0.0006384701576315002,0.07434541339146689,3.9439205376965862,0.7181141609425327,0.2732979500606086,-3.8962259841701683,12.5
,,0.05361636483219379,0.020466355311469613,0.0005427689444669824,0.07462548908813038,3.9445541317898436,0.7184725418532873,0.2742542201271135,-3.88897294540751,12.6
,,0.052350937614522766,0.02063074908510487,0.0006413870247402299,0.07362307372436787,3.944274259381,0.7110669925370907,0.280221240997664,-3.8809726420829134,12.7
,,0.052350937614522766,0.02063074908510487,0.0006413870247402299,0.07362307372436787,3.9439943869721565,0.7110669925370907,0.280221240997664,-3.8809726420829134,12.8
,,0.052350937614522766,0.02063074908510487,0.0006413870247402299,0.07362307372436787,3.9437145145633137,0.7110669925370907,0.280221240997664,-3.8809726420829134,12.9
,,0.052350937614522766,0.02063074908510487,0.0006413870247402299,0.07362307372436787,3.944103440221636,0.7110669925370907,0.280221240997664,-3.8809726420829134,13.0
,,0.052350937614522766,0.02063074908510487,0.0006413870247402299,0.07362307372436787,3.944593090008039,0.7110669925370907,0.280221240997664,-3.8809726420829134,13.1
,,0.052786024327955844,0.020945526156701248,0.0005479589068204069,0.07427950939147751,3.9448898232916267,0.7106404546879287,0.2819825592319332,-3.865830204024886,13.2
,,0.052786024327955844,0.020945526156701248,0.0005479589068204069,0.07427950939147751,3.854247074659801,0.7106404546879287,0.2819825592319332,-3.865830204024886,13.3
,,0.04833747155843519,0.05473581601447844,0.0019458781375697202,0.10501916571048334,3.7454148538225334,0.4602728581151735,0.5211983512169012,-2.9052370120782016,13.4
,,0.04833747155843519,0.05473581601447844,0.0019458781375697202,0.10501916571048334,3.6365826329852666,0.4602728581151735,0.5211983512169012,-2.9052370120782016,13.5
,,0.04833747155843519,0.05473581601447844,0.0019458781375697202,0.10501916571048334,3.5277504121480003,0.4602728581151735,0.5211983512169012,-2.9052370120782016,13.6
,,0.04833747155843519,0.05473581601447844,0.0019458781375697202,0.10501916571048334,3.4189181913107336,0.4602728581151735,0.5211983512169012,-2.9052370120782016,13.7
,,0.04457736402343539,0.05199494132417799,0.0014809123883723651,0.09805321773598574,3.309799697441738,0.45462418320082726,0.5302726674832593,-2.956608847360279,13.8
,,0.04457736402343539,0.05199494132417799,0.0014809123883723651,0.09805321773598574,3.201556459718423,0.45462418320082726,0.5302726674832593,-2.956608847360279,13.9
,,0.04457736402343539,0.05199494132417799,0.0014809123883723651,0.09805321773598574,3.183833353275893,0.45462418320082726,0.5302726674832593,-2.956608847360279,14.0
,,0.04457736402343539,0.05199494132417799,0.0014809123883723651,0.09805321773598574,3.166110246833362,0.45462418320082726,0.5302726674832593,-2.956608847360279,14.1
,,0.050797511060114306,0.022182524394520745,0.0006432242565247841,0.07362325971115984,3.1643053450195073,0.6899655252892097,0.30129777575113686,-3.8084504895362046,14.2
,,0.050797511060114306,0.022182524394520745,0.0006432242565247841,0.07362325971115984,3.1625004432056527,0.6899655252892097,0.30129777575113686,-3.8084504895362046,14.3
,,0.05170947199955851,0.02278472572199874,0.0006140415598170519,0.0751082392813743,3.16046777313835,0.688466039069853,0.30335853882343644,-3.7816648919951525,14.4
,,0.05170947199955851,0.02278472572199874,0.0006140415598170519,0.0751082392813743,3.158435103071048,0.688466039069853,0.30335853882343644,-3.7816648919951525,14.5
,,0.05170947199955851,0.02278472572199874,0.0006140415598170519,0.0751082392813743,3.1564024330037457,0.688466039069853,0.30335853882343644,-3.7816648919951525,14.6
,,0.05170947199955851,0.02278472572199874,0.0006140415598170519,0.0751082392813743,3.1545566550167994,0.688466039069853,0.30335853882343644,-3.7816648919951525,14.7
,,0.05170947199955851,0.02278472572199874,0.0006140415598170519,0.0751082392813743,3.152590202651465,0.688466039069853,0.30335853882343644,-3.7816648919951525,14.8
,,0.050457877163728904,0.02332502699292387,0.0006394961198091677,0.07442240027646194,3.149443426492934,0.6779931442185364,0.31341406493578294,-3.7582283749965,14.9
,,0.050457877163728904,0.02332502699292387,0.0006394961198091677,0.07442240027646194,3.1462966503344028,0.6779931442185364,0.31341406493578294,-3.7582283749965,15.0
,,0.051658774783364274,0.024036090109988396,0.0006101344857989966,0.07630499937915167,3.142993946592474,0.6770038032066176,0.3150002005839165,-3.7281988235580723,15.1
,,0.051658774783364274,0.024036090109988396,0.0006101344857989966,0.07630499937915167,3.139691242850546,0.6770038032066176,0.3150002005839165,-3.7281988235580723,15.2
,,0.051658774783364274,0.024036090109988396,0.0006101344857989966,0.07630499937915167,3.136388539108617,0.6770038032066176,0.3150002005839165,-3.7281988235580723,15.3
,,0.051658774783364274,0.024036090109988396,0.0006101344857989966,0.07630499937915167,3.133043634578369,0.6770038032066176,0.3150002005839165,-3.7281988235580723,15.4
,,0.051658774783364274,0.024036090109988396,0.0006101344857989966,0.07630499937915167,3.0748060937160986,0.6770038032066176,0.3150002005839165,-3.7281988235580723,15.5
,,0.051658774783364274,0.024036090109988396,0.0006101344857989966,0.07630499937915167,3.016568552853828,0.6770038032066176,0.3150002005839165,-3.7281988235580723,15.6
,,0.05042205891258325,0.024547514475666506,0.0006316896950332944,0.07560126308328305,2.957273707463139,0.666947308235285,0.3246971475678222,-3.7071446732207685,15.7
,,0.051893457587083164,0.025228716792825418,0.0006028138591457885,0.07772498823905437,2.898010646171738,0.6676547499431892,0.3245895221653926,-3.6797723779941682,15.8
,,0.051893457587083164,0.025228716792825418,0.0006028138591457885,0.07772498823905437,2.8387475848803363,0.6676547499431892,0.3245895221653926,-3.6797723779941682,15.9
,,0.051893457587083164,0.025228716792825418,0.0006028138591457885,0.07772498823905437,2.7794845235889345,0.6676547499431892,0.3245895221653926,-3.6797723779941682,16.0
,,0.051893457587083164,0.025228716792825418,0.0006028138591457885,0.07772498823905437,2.720221462297533,0.6676547499431892,0.3245895221653926,-3.6797723779941682,16.1
,,0.051893457587083164,0.025228716792825418,0.0006028138591457885,0.07772498823905437,2.673155654774285,0.6676547499431892,0.3245895221653926,-3.6797723779941682,16.2
,,0.051893457587083164,0.025228716792825418,0.0006028138591457885,0.07772498823905437,2.6260898472510372,0.6676547499431892,0.3245895221653926,-3.6797723779941682,16.3
,,0.051893457587083164,0.025228716792825418,0.0006028138591457885,0.07772498823905437,2.579024039727789,0.6676547499431892,0.3245895221653926,-3.6797723779941682,16.4
,,0.05230746793845069,0.02614544091634641,0.0005903287108322949,0.07904323756562939,2.5313328340136105,0.6617576601036861,0.33077391212167795,-3.6440804472139656,16.5
,,0.05230746793845069,0.02614544091634641,0.0005903287108322949,0.07904323756562939,2.4836416282994325,0.6617576601036861,0.33077391212167795,-3.6440804472139656,16.6
,,0.05230746793845069,0.02614544091634641,0.0005903287108322949,0.07904323756562939,2.4359504225852544,0.6617576601036861,0.33077391212167795,-3.6440804472139656,16.7
,,0.05230746793845069,0.02614544091634641,0.0005903287108322949,0.07904323756562939,2.3882592168710763,0.6617576601036861,0.33077391212167795,-3.6440804472139656,16.8
,,0.05230746793845069,0.02614544091634641,0.0005903287108322949,0.07904323756562939,2.381946885812604,0.6617576601036861,0.33077391212167795,-3.6440804472139656,16.9
,,0.05230746793845069,0.02614544091634641,0.0005903287108322949,0.07904323756562939,2.375634554754131,0.6617576601036861,0.33077391212167795,-3.6440804472139656,17.0
,,0.05230746793845069,0.02614544091634641,0.0005903287108322949,0.07904323756562939,2.369322223695659,0.6617576601036861,0.33077391212167795,-3.6440804472139656,17.1
,,0.03834153153974865,0.04214537182045549,0.0006997063442354713,0.08118660970443961,2.3508888969729793,0.47226422779977195,0.5191172777615175,-3.16663040316194,17.2
,,0.052794036695125474,0.02654108449766597,0.0005727171664889203,0.07990783835928036,2.3444488940848296,0.6606865831829133,0.3321461954499678,-3.6290613881523486,17.3
,,0.052794036695125474,0.02654108449766597,0.0005727171664889203,0.07990783835928036,2.3380088911966803,0.6606865831829133,0.3321461954499678,-3.6290613881523486,17.4
,,0.052794036695125474,0.02654108449766597,0.0005727171664889203,0.07990783835928036,2.331568888308531,0.6606865831829133,0.3321461954499678,-3.6290613881523486,17.5
,,0.052794036695125474,0.02654108449766597,0.0005727171664889203,0.07990783835928036,2.3033132232882347,0.6606865831829133,0.3321461954499678,-3.6290613881523486,17.6
,,0.052794036695125474,0.02654108449766597,0.0005727171664889203,0.07990783835928036,2.296242673712289,0.6606865831829133,0.3321461954499678,-3.6290613881523486,17.7
,,0.052794036695125474,0.02654108449766597,0.0005727171664889203,0.07990783835928036,2.2891721241363427,0.6606865831829133,0.3321461954499678,-3.6290613881523486,17.8
,,0.05483228249871297,0.02652620832828487,0.0006206534221115066,0.08197914424910935,2.282967735394317,0.6688564878415243,0.3235726424232961,-3.6296220412016598,17.9
,,0.05483228249871297,0.02652620832828487,0.0006206534221115066,0.08197914424910935,2.2767633466522916,0.6688564878415243,0.3235726424232961,-3.6296220412016598,18.0
,,0.05334205544556529,0.026263134006608353,0.0005543502365501424,0.08015953968872379,2.2701585544201217,0.6654486247389096,0.32763578868583304,-3.6395890719654913,18.1
,,0.05334205544556529,0.026263134006608353,0.0005543502365501424,0.08015953968872379,2.2635537621879527,0.6654486247389096,0.32763578868583304,-3.6395890719654913,18.2
,,0.05334205544556529,0.026263134006608353,0.0005543502365501424,0.08015953968872379,2.2564635800958897,0.6654486247389096,0.32763578868583304,-3.6395890719654913,18.3
,,0.05334205544556529,0.026263134006608353,0.0005543502365501424,0.08015953968872379,2.2423213812735905,0.6654486247389096,0.32763578868583304,-3.6395890719654913,18.4
,,0.05334205544556529,0.026263134006608353,0.0005543502365501424,0.08015953968872379,2.2281791824512913,0.6654486247389096,0.32763578868583304,-3.6395890719654913,18.5
,,0.05334205544556529,0.026263134006608353,0.0005543502365501424,0.08015953968872379,2.2140369836289926,0.6654486247389096,0.32763578868583304,-3.6395890719654913,18.6
,,0.05531948995861366,0.025990571184547163,0.0004908414114389813,0.0818009025545998,2.2009768124671427,0.6762699216147334,0.31772963833986045,-3.650021453481075,18.7
,,0.05531948995861366,0.025990571184547163,0.0004908414114389813,0.0818009025545998,2.1879166413052933,0.6762699216147334,0.31772963833986045,-3.650021453481075,18.8
,,0.05531948995861366,0.025990571184547163,0.0004908414114389813,0.0818009025545998,2.174856470143444,0.6762699216147334,0.31772963833986045,-3.650021453481075,18.9
,,0.05374194975556172,0.025302776869659947,0.0005356246685550094,0.07958035129377668,2.1682932689878043,0.675316819816105,0.3179525656559733,-3.6768411315775285,19.0
,,0.05374194975556172,0.025302776869659947,0.0005356246685550094,0.07958035129377668,2.163449169496543,0.675316819816105,0.3179525656559733,-3.6768411315775285,19.1
,,0.05374194975556172,0.025302776869659947,0.0005356246685550094,0.07958035129377668,2.1586050700052812,0.675316819816105,0.3179525656559733,-3.6768411315775285,19.2
,,0.05374194975556172,0.025302776869659947,0.0005356246685550094,0.07958035129377668,2.153760970514019,0.675316819816105,0.3179525656559733,-3.6768411315775285,19.3
,,0.05374194975556172,0.025302776869659947,0.0005356246685550094,0.07958035129377668,2.1489168710227577,0.675316819816105,0.3179525656559733,-3.6768411315775285,19.4
,,0.055591937726432686,0.024723821207573608,0.0004772187579297052,0.080792977691936,2.145456800452228,0.6880788320292515,0.30601448187546265,-3.6999880787444397,19.5
,,0.0543731102460892,0.024008097225753984,0.0005192846429142947,0.07890049211475748,2.140170366429033,0.6891352485736816,0.30428323806694646,-3.7293641211290964,19.6
,,0.055591937726432686,0.024723821207573608,0.0004772187579297052,0.080792977691936,2.134956899515596,0.6880788320292515,0.30601448187546265,-3.6999880787444397,19.7
,,0.05414522384452434,0.02386674078665975,0.0005188066806450091,0.0785307713118291,2.1299671033243546,0.6894778051972149,0.30391578215741655,-3.735269388102167,19.8
,,0.05414522384452434,0.02386674078665975,0.0005188066806450091,0.0785307713118291,2.1249773071331126,0.6894778051972149,0.30391578215741655,-3.735269388102167,19.9
,,0.05414522384452434,0.02386674078665975,0.0005188066806450091,0.0785307713118291,2.119987510941871,0.6894778051972149,0.30391578215741655,-3.735269388102167,20.0
,,0.05414522384452434,0.02386674078665975,0.0005188066806450091,0.0785307713118291,2.114997714750629,0.6894778051972149,0.30391578215741655,-3.735269388102167,20.1
,,0.05414522384452434,0.02386674078665975,0.0005188066806450091,0.0785307713118291,2.110007918559387,0.6894778051972149,0.30391578215741655,-3.735269388102167,20.2
,,0.055816774789111144,0.023061259258701543,0.00046395660193048686,0.07934199064974318,2.1065062011179494,0.7034960218671023,0.29065642379085166,-3.7696011577093054,20.3
,,0.055816774789111144,0.023061259258701543,0.00046395660193048686,0.07934199064974318,2.1035127231651667,0.7034960218671023,0.29065642379085166,-3.7696011577093054,20.4
,,0.055816774789111144,0.023061259258701543,0.00046395660193048686,0.07934199064974318,2.100519245212384,0.7034960218671023,0.29065642379085166,-3.7696011577093054,20.5
,,0.04732518494851949,0.03514786427439302,0.00036427112388312354,0.08283732034679564,2.085593433821723,0.5713027020960384,0.42429987024263555,-3.3481914229016594,20.6
,,0.04732518494851949,0.03514786427439302,0.00036427112388312354,0.08283732034679564,2.0706676224310616,0.5713027020960384,0.42429987024263555,-3.3481914229016594,20.7
,,0.04732518494851949,0.03514786427439302,0.00036427112388312354,0.08283732034679564,2.0557418110404004,0.5713027020960384,0.42429987024263555,-3.3481914229016594,20.8
,,0.04732518494851949,0.03514786427439302,0.00036427112388312354,0.08283732034679564,2.040772081837862,0.5713027020960384,0.42429987024263555,-3.3481914229016594,20.9
,,0.0561547392441908,0.021228955439686212,0.00045401958851853214,0.07783771427239554,2.0402327506955342,0.7214335591571397,0.2727335410363518,-3.852389206564754,21.0
,,0.0561547392441908,0.021228955439686212,0.00045401958851853214,0.07783771427239554,2.040428400838689,0.7214335591571397,0.2727335410363518,-3.852389206564754,21.1
,,0.0561547392441908,0.021228955439686212,0.00045401958851853214,0.07783771427239554,2.0406240509818434,0.7214335591571397,0.2727335410363518,-3.852389206564754,21.2
,,0.05510854074747621,0.020287433834307665,0.0004985224816867066,0.07589449706347058,2.0416107273504105,0.726120376045037,0.26731099907469286,-3.8977536075487094,21.3
,,0.05510854074747621,0.020287433834307665,0.0004985224816867066,0.07589449706347058,2.042597403718977,0.726120376045037,0.26731099907469286,-3.8977536075487094,21.4
,,0.05510854074747621,0.020287433834307665,0.0004985224816867066,0.07589449706347058,2.0435840800875438,0.726120376045037,0.26731099907469286,-3.8977536075487094,21.5
,,0.05510854074747621,0.020287433834307665,0.0004985224816867066,0.07589449706347058,2.0446580356541517,0.726120376045037,0.26731099907469286,-3.8977536075487094,21.6
,,0.05510854074747621,0.020287433834307665,0.0004985224816867066,0.07589449706347058,2.04664545772286,0.726120376045037,0.26731099907469286,-3.8977536075487094,21.7
,,0.056295405423258706,0.019323280226950283,0.00044592825434333546,0.07606461390455233,2.0508213050539537,0.7400997984936795,0.25403770866697084,-3.9464446806058,21.8
,,0.056295405423258706,0.019323280226950283,0.00044592825434333546,0.07606461390455233,2.054997152385048,0.7400997984936795,0.25403770866697084,-3.9464446806058,21.9
,,0.056295405423258706,0.019323280226950283,0.00044592825434333546,0.07606461390455233,2.059172999716142,0.7400997984936795,0.25403770866697084,-3.9464446806058,22.0
,,0.055190540597307616,0.018388398899836893,0.0004935085588348639,0.07407244805597937,2.064326980757239,0.745088653686699,0.2482488345186064,-3.996035307786568,22.1
,,0.055190540597307616,0.018388398899836893,0.0004935085588348639,0.07407244805597937,2.0696738783011495,0.745088653686699,0.2482488345186064,-3.996035307786568,22.2
,,0.055190540597307616,0.018388398899836893,0.0004935085588348639,0.07407244805597937,2.0750207758450605,0.745088653686699,0.2482488345186064,-3.996035307786568,22.3
,,0.055190540597307616,0.018388398899836893,0.0004935085588348639,0.07407244805597937,2.0985571455944116,0.745088653686699,0.2482488345186064,-3.996035307786568,22.4
,,0.055190540597307616,0.018388398899836893,0.0004935085588348639,0.07407244805597937,2.1220935153437632,0.745088653686699,0.2482488345186064,-3.996035307786568,22.5
,,0.0547316140698926,0.017021784012155726,0.0004297472811860398,0.07218314536323438,2.148007754192083,0.75823260117686,0.2358138305902304,-4.07326134275445,22.6
,,0.0547316140698926,0.017021784012155726,0.0004297472811860398,0.07218314536323438,2.173921993040403,0.75823260117686,0.2358138305902304,-4.07326134275445,22.7
,,0.0547316140698926,0.017021784012155726,0.0004297472811860398,0.07218314536323438,2.2001225049204507,0.75823260117686,0.2358138305902304,-4.07326134275445,22.8
,,0.05360364505867847,0.01611206463321296,0.0004814299786727213,0.07019713967056415,2.2275623437103897,0.7636158013024589,0.22952594235074297,-4.128186931518634,22.9
,,0.05360364505867847,0.01611206463321296,0.0004814299786727213,0.07019713967056415,2.255002182500329,0.7636158013024589,0.22952594235074297,-4.128186931518634,23.0
,,0.05360364505867847,0.01611206463321296,0.0004814299786727213,0.07019713967056415,2.282442021290268,0.7636158013024589,0.22952594235074297,-4.128186931518634,23.1
,,0.05360364505867847,0.01611206463321296,0.0004814299786727213,0.07019713967056415,2.2939636554515315,0.7636158013024589,0.22952594235074297,-4.128186931518634,23.2
,,0.05305648374264075,0.01496211943296504,0.0004190943164391308,0.06843769749204492,2.3079200465362493,0.7752523198023712,0.21862394530009152,-4.202233643143984,23.3
,,0.05305648374264075,0.01496211943296504,0.0004190943164391308,0.06843769749204492,2.3221042058744152,0.7752523198023712,0.21862394530009152,-4.202233643143984,23.4
,,0.05305648374264075,0.01496211943296504,0.0004190943164391308,0.06843769749204492,2.3362883652125808,0.7752523198023712,0.21862394530009152,-4.202233643143984,23.5
,,0.05305648374264075,0.01496211943296504,0.0004190943164391308,0.06843769749204492,2.3504725245507463,0.7752523198023712,0.21862394530009152,-4.202233643143984,23.6
,,0.05212654124008064,0.014243139396845118,0.00047542088328431505,0.06684510152021007,2.3659201378217682,0.7798109368465931,0.2130767860759224,-4.251479934035165,23.7
,,0.05212654124008064,0.014243139396845118,0.00047542088328431505,0.06684510152021007,2.3813677510927898,0.7798109368465931,0.2130767860759224,-4.251479934035165,23.8
,,0.05212654124008064,0.014243139396845118,0.00047542088328431505,0.06684510152021007,2.3979956881570086,0.7798109368465931,0.2130767860759224,-4.251479934035165,23.9
,,0.051553573291705984,0.013329784920791333,0.0004148327750477923,0.06529819098754511,2.4169323185353804,0.7895099774132984,0.20413712415607102,-4.317754279896083,24.0
,,0.051553573291705984,0.013329784920791333,0.0004148327750477923,0.06529819098754511,2.4360248764971506,0.7895099774132984,0.20413712415607102,-4.317754279896083,24.1
,,0.051553573291705984,0.013329784920791333,0.0004148327750477923,0.06529819098754511,2.45511743445892,0.7895099774132984,0.20413712415607102,-4.317754279896083,24.2
,,0.051553573291705984,0.013329784920791333,0.0004148327750477923,0.06529819098754511,2.4742099924206897,0.7895099774132984,0.20413712415607102,-4.317754279896083,24.3
,,0.056017676502698455,0.025616151048250657,0.0003249533027466987,0.08195878085369582,2.474627701025336,0.6834859659844783,0.31254919584489566,-3.6645322261082702,24.4
,,0.056017676502698455,0.025616151048250657,0.0003249533027466987,0.08195878085369582,2.4750454096299817,0.6834859659844783,0.31254919584489566,-3.6645322261082702,24.5
,,0.056017676502698455,0.025616151048250657,0.0003249533027466987,0.08195878085369582,2.475463118234628,0.6834859659844783,0.31254919584489566,-3.6645322261082702,24.6
,,0.056017676502698455,0.025616151048250657,0.0003249533027466987,0.08195878085369582,2.4769381313676915,0.6834859659844783,0.31254919584489566,-3.6645322261082702,24.7
,,0.0503502706571423,0.012114704047546531,0.0004183411998828642,0.0628833159045717,2.5002626714333385,0.8006936328477195,0.19265370906857307,-4.4133353536090985,24.8
,,0.0503502706571423,0.012114704047546531,0.0004183411998828642,0.0628833159045717,2.5235872114989855,0.8006936328477195,0.19265370906857307,-4.4133353536090985,24.9
,,0.0503502706571423,0.012114704047546531,0.0004183411998828642,0.0628833159045717,2.546911751564633,0.8006936328477195,0.19265370906857307,-4.4133353536090985,25.0
,,0.04994550167444616,0.011776986222844675,0.0004880457679069331,0.06221053366519777,2.571178647229784,0.8028463787698867,0.18930855482168987,-4.441607971959134,25.1
,,0.04994533435682921,0.01177685237394325,0.0004880390554778576,0.06221022578625032,2.5954459205922102,0.8028476625119099,0.18930734015349235,-4.441619337316919,25.2
,,0.04994533435682921,0.01177685237394325,0.0004880390554778576,0.06221022578625032,2.6197131939546363,0.8028476625119099,0.18930734015349235,-4.441619337316919,25.3
,,0.04994533435682921,0.01177685237394325,0.0004880390554778576,0.06221022578625032,2.6439804673170615,0.8028476625119099,0.18930734015349235,-4.441619337316919,25.4
,,0.04947505361627946,0.01129557605465875,0.0004275634687030767,0.06119819313964129,2.6704182865779833,0.8084397770272055,0.18457368551526745,-4.483344129507535,25.5
,,0.04947505361627946,0.01129557605465875,0.0004275634687030767,0.06119819313964129,2.6968561058389047,0.8084397770272055,0.18457368551526745,-4.483344129507535,25.6
,,0.04947505361627946,0.01129557605465875,0.0004275634687030767,0.06119819313964129,2.723293925099826,0.8084397770272055,0.18457368551526745,-4.483344129507535,25.7
,,0.04925875902857647,0.011111357805731106,0.0005043546149166296,0.0608744714492242,2.7503223196120152,0.8091858188808017,0.1825290231061663,-4.499787468060938,25.8
,,0.04925875902857647,0.011111357805731106,0.0005043546149166296,0.0608744714492242,2.777350714124204,0.8091858188808017,0.1825290231061663,-4.499787468060938,25.9
,,0.04925875902857647,0.011111357805731106,0.0005043546149166296,0.0608744714492242,2.8043791086363936,0.8091858188808017,0.1825290231061663,-4.499787468060938,26.0
,,0.04925875902857647,0.011111357805731106,0.0005043546149166296,0.0608744714492242,2.8314075031485824,0.8091858188808017,0.1825290231061663,-4.499787468060938,26.1
,,0.04888221843795481,0.010826263874994,0.0004444399484736672,0.06015292226142248,2.8714675747213487,0.8126324806883765,0.17997901794269344,-4.52578025671319,26.2
,,0.04888221843795481,0.010826263874994,0.0004444399484736672,0.06015292226142248,2.899534322459585,0.8126324806883765,0.17997901794269344,-4.52578025671319,26.3
,,0.04888221843795481,0.010826263874994,0.0004444399484736672,0.06015292226142248,2.927601070197822,0.8126324806883765,0.17997901794269344,-4.52578025671319,26.4
,,0.04879571391330683,0.010784792452324363,0.0005262103989247546,0.06010671676455595,2.955771611433611,0.8118179887356773,0.17942740899606077,-4.529618243431485,26.5
,,0.04879571391330683,0.010784792452324363,0.0005262103989247546,0.06010671676455595,2.9839421526694005,0.8118179887356773,0.17942740899606077,-4.529618243431485,26.6
,,0.04879571391330683,0.010784792452324363,0.0005262103989247546,0.06010671676455595,3.0121126939051894,0.8118179887356773,0.17942740899606077,-4.529618243431485,26.7
,,0.04879571391330683,0.010784792452324363,0.0005262103989247546,0.06010671676455595,3.0402832351409796,0.8118179887356773,0.17942740899606077,-4.529618243431485,26.8
,,0.04850411658383513,0.010665784630905685,0.00046601856989061886,0.05963591978463144,3.0678447750168143,0.8133372765776467,0.1788483294870607,-4.540714359122189,26.9
,,0.04850411658383513,0.010665784630905685,0.00046601856989061886,0.05963591978463144,3.0954063148926503,0.8133372765776467,0.1788483294870607,-4.540714359122189,27.0
,,0.04850411658383513,0.010665784630905685,0.00046601856989061886,0.05963591978463144,3.1233682582586297,0.8133372765776467,0.1788483294870607,-4.540714359122189,27.1
,,0.04847126939220343,0.010739340654858619,0.0005528476441908577,0.0597634576912529,3.150950131440601,0.8110519582486905,0.17969744505647053,-4.533841583326122,27.2
,,0.04847126939220343,0.010739340654858619,0.0005528476441908577,0.0597634576912529,3.178532004622572,0.8110519582486905,0.17969744505647053,-4.533841583326122,27.3
,,0.04847126939220343,0.010739340654858619,0.0005528476441908577,0.0597634576912529,3.2061138778045435,0.8110519582486905,0.17969744505647053,-4.533841583326122,27.4
,,0.04847126939220343,0.010739340654858619,0.0005528476441908577,0.0597634576912529,3.233695750986515,0.8110519582486905,0.17969744505647053,-4.533841583326122,27.5
,,0.04825778092404541,0.010772767962526417,0.0004895607594178776,0.0595201096459897,3.2609018203053735,0.8107811160139031,0.18099375197055365,-4.530733814100298,27.6
,,0.04825778092404541,0.010772767962526417,0.0004895607594178776,0.0595201096459897,3.2870258619637833,0.8107811160139031,0.18099375197055365,-4.530733814100298,27.7
,,0.04825778092404541,0.010772767962526417,0.0004895607594178776,0.0595201096459897,3.3131499036221927,0.8107811160139031,0.18099375197055365,-4.530733814100298,27.8
,,0.048219036577993556,0.01094228530914944,0.0005792858241629344,0.059740607711305925,3.3384635156910556,0.8071400413435715,0.1831632741673401,-4.515120609000361,27.9
,,0.048219036577993556,0.01094228530914944,0.0005792858241629344,0.059740607711305925,3.3638270160621717,0.8071400413435715,0.1831632741673401,-4.515120609000361,28.0
,,0.048219036577993556,0.01094228530914944,0.0005792858241629344,0.059740607711305925,3.389190516433289,0.8071400413435715,0.1831632741673401,-4.515120609000361,28.1
,,0.048219036577993556,0.01094228530914944,0.0005792858241629344,0.059740607711305925,3.414554016804406,0.8071400413435715,0.1831632741673401,-4.515120609000361,28.2
,,0.04808823636610048,0.011106243264950176,0.000513962878875518,0.05970844250992618,3.4390638344121864,0.8053842027131439,0.186007921126126,-4.500247872481289,28.3
,,0.04808823636610048,0.011106243264950176,0.000513962878875518,0.05970844250992618,3.4635736520199663,0.8053842027131439,0.186007921126126,-4.500247872481289,28.4
,,0.04808823636610048,0.011106243264950176,0.000513962878875518,0.05970844250992618,3.486699440707015,0.8053842027131439,0.186007921126126,-4.500247872481289,28.5
,,0.04802627102735833,0.011365398516965854,0.0006059696881230017,0.05999763923244719,3.5084869342838423,0.8004693458236162,0.18943076198270412,-4.4771817570072425,28.6
,,0.04802627102735833,0.011365398516965854,0.0006059696881230017,0.05999763923244719,3.5304551493961243,0.8004693458236162,0.18943076198270412,-4.4771817570072425,28.7
,,0.04802627102735833,0.011365398516965854,0.0006059696881230017,0.05999763923244719,3.552199693786211,0.8004693458236162,0.18943076198270412,-4.4771817570072425,28.8
,,0.04802627102735833,0.011365398516965854,0.0006059696881230017,0.05999763923244719,3.5739442381762974,0.8004693458236162,0.18943076198270412,-4.4771817570072425,28.9
,,0.04730105699689062,0.011460039456296199,0.000530567455757201,0.05929166390894402,3.594597905831161,0.7977690939746989,0.19328247346702437,-4.468889124743687,29.0
,,0.04730105699689062,0.011460039456296199,0.000530567455757201,0.05929166390894402,3.615251573486025,0.7977690939746989,0.19328247346702437,-4.468889124743687,29.1
,,0.046771206067182526,0.01168990323734265,0.0006158041431738278,0.059076913447699005,3.634499841660694,0.7917002317426288,0.1978759985098369,-4.449029780919702,29.2
,,0.046771206067182526,0.01168990323734265,0.0006158041431738278,0.059076913447699005,3.652062307768211,0.7917002317426288,0.1978759985098369,-4.449029780919702,29.3
,,0.046771206067182526,0.01168990323734265,0.0006158041431738278,0.059076913447699005,3.6696247738757277,0.7917002317426288,0.1978759985098369,-4.449029780919702,29.4
,,0.046771206067182526,0.01168990323734265,0.0006158041431738278,0.059076913447699005,3.687187239983244,0.7917002317426288,0.1978759985098369,-4.449029780919702,29.5
,,0.046771206067182526,0.01168990323734265,0.0006158041431738278,0.059076913447699005,3.7166820395286386,0.7917002317426288,0.1978759985098369,-4.449029780919702,29.6
,,0.04607030858864778,0.011801718034727252,0.0005382697432092191,0.05841029636658425,3.7450957652528496,0.7887360868623154,0.2020485902118938,-4.439510161945284,29.7
,,0.04607030858864778,0.011801718034727252,0.0005382697432092191,0.05841029636658425,3.7735094909770606,0.7887360868623154,0.2020485902118938,-4.439510161945284,29.8
,,0.0518754316127711,0.02501760927056403,0.00040095724856139485,0.07729399813189652,3.7815883459787636,0.6711443691171142,0.32366820031580357,-3.688175331244076,29.9
,,0.0518754316127711,0.02501760927056403,0.00040095724856139485,0.07729399813189652,3.775236802920255,0.6711443691171142,0.32366820031580357,-3.688175331244076,30.0
,,0.0518754316127711,0.02501760927056403,0.00040095724856139485,0.07729399813189652,3.7688852598617473,0.6711443691171142,0.32366820031580357,-3.688175331244076,30.1
,,0.0518754316127711,0.02501760927056403,0.00040095724856139485,0.07729399813189652,3.762533716803239,0.6711443691171142,0.32366820031580357,-3.688175331244076,30.2
,,0.0518754316127711,0.02501760927056403,0.00040095724856139485,0.07729399813189652,3.7553911475193185,0.6711443691171142,0.32366820031580357,-3.688175331244076,30.3
,,0.045175146671888884,0.012244232726997647,0.0005453497323151265,0.05796472913120165,3.766203549057446,0.7793557797818069,0.21123591726415464,-4.40270025064759,30.4
,,0.045175146671888884,0.012244232726997647,0.0005453497323151265,0.05796472913120165,3.7770159505955734,0.7793557797818069,0.21123591726415464,-4.40270025064759,30.5
,,0.04469768972855398,0.01261899581115117,0.000631046171411492,0.05794773171111664,3.786190480237758,0.771344941530804,0.21776513831567895,-4.372551996259182,30.6
,,0.04469768972855398,0.01261899581115117,0.000631046171411492,0.05794773171111664,3.7953650098799425,0.771344941530804,0.21776513831567895,-4.372551996259182,30.7
,,0.04469768972855398,0.01261899581115117,0.000631046171411492,0.05794773171111664,3.802351114259741,0.771344941530804,0.21776513831567895,-4.372551996259182,30.8
,,0.04469768972855398,0.01261899581115117,0.000631046171411492,0.05794773171111664,3.80933721863954,0.771344941530804,0.21776513831567895,-4.372551996259182,30.9
,,0.04469768972855398,0.01261899581115117,0.000631046171411492,0.05794773171111664,3.8163233230193385,0.771344941530804,0.21776513831567895,-4.372551996259182,31.0
,,0.04469768972855398,0.01261899581115117,0.000631046171411492,0.05794773171111664,3.822331293689135,0.771344941530804,0.21776513831567895,-4.372551996259182,31.1
,,0.044589303197494656,0.012764310911386365,0.0005573724295654295,0.05791098653844645,3.8277968609562607,0.7699627629015148,0.22041259654439288,-4.361102212402574,31.2
,,0.04120821845865294,0.02638857251643603,0.00041412498935595673,0.06801091596444493,3.8117992505251492,0.6059059472187666,0.3880049568841504,-3.6348242217663724,31.3
,,0.04120821845865294,0.02638857251643603,0.00041412498935595673,0.06801091596444493,3.7958016400940386,0.6059059472187666,0.3880049568841504,-3.6348242217663724,31.4
,,0.04120821845865294,0.02638857251643603,0.00041412498935595673,0.06801091596444493,3.779804029662928,0.6059059472187666,0.3880049568841504,-3.6348242217663724,31.5
,,0.04120821845865294,0.02638857251643603,0.00041412498935595673,0.06801091596444493,3.761428550132848,0.6059059472187666,0.3880049568841504,-3.6348242217663724,31.6
,,0.04120821845865294,0.02638857251643603,0.00041412498935595673,0.06801091596444493,3.743053070602769,0.6059059472187666,0.3880049568841504,-3.6348242217663724,31.7
,,0.04120821845865294,0.02638857251643603,0.00041412498935595673,0.06801091596444493,3.7246775910726893,0.6059059472187666,0.3880049568841504,-3.6348242217663724,31.8
,,0.04427995623205434,0.013330197529636111,0.0005717057866628693,0.05818185954835333,3.724620391685391,0.7610612066335641,0.22911260714446147,-4.317723326473996,31.9
,,0.04427995623205434,0.013330197529636111,0.0005717057866628693,0.05818185954835333,3.7245631922980924,0.7610612066335641,0.22911260714446147,-4.317723326473996,32.0
,,0.0437819092215979,0.013861315710631286,0.00066056813984129,0.05830379307207048,3.7226925498000734,0.7509272881693685,0.2377429491336359,-4.27865336110884,32.1
,,0.0437819092215979,0.013861315710631286,0.00066056813984129,0.05830379307207048,3.7208219073020548,0.7509272881693685,0.2377429491336359,-4.27865336110884,32.2
,,0.0437819092215979,0.013861315710631286,0.00066056813984129,0.05830379307207048,3.7165165078805815,0.7509272881693685,0.2377429491336359,-4.27865336110884,32.3
,,0.0437819092215979,0.013861315710631286,0.00066056813984129,0.05830379307207048,3.712211108459108,0.7509272881693685,0.2377429491336359,-4.27865336110884,32.4
,,0.0437819092215979,0.013861315710631286,0.00066056813984129,0.05830379307207048,3.7079057090376346,0.7509272881693685,0.2377429491336359,-4.27865336110884,32.5
,,0.04351934653955235,0.013691160113490733,0.0005797574235689695,0.05779026407661205,3.7038233938316174,0.7530567169905839,0.23691118793540172,-4.2910049016000755,32.6
,,0.04351934653955235,0.013691160113490733,0.0005797574235689695,0.05779026407661205,3.698477624692744,0.7530567169905839,0.23691118793540172,-4.2910049016000755,32.7
,,0.04351934653955235,0.013691160113490733,0.0005797574235689695,0.05779026407661205,3.6931318555538706,0.7530567169905839,0.23691118793540172,-4.2910049016000755,32.8
,,0.042189722489037455,0.01390363029272012,0.000647324424513793,0.056740677206271364,3.6861837938887643,0.7435533829753862,0.24503814507140562,-4.275605300806858,32.9
,,0.042189722489037455,0.01390363029272012,0.000647324424513793,0.056740677206271364,3.676927038909504,0.7435533829753862,0.24503814507140562,-4.275605300806858,33.0
,,0.042189722489037455,0.01390363029272012,0.000647324424513793,0.056740677206271364,3.6676702839302444,0.7435533829753862,0.24503814507140562,-4.275605300806858,33.1
,,0.042189722489037455,0.01390363029272012,0.000647324424513793,0.056740677206271364,3.658413528950984,0.7435533829753862,0.24503814507140562,-4.275605300806858,33.2
,,0.042126146874928015,0.013608207108687825,0.0005676138396692176,0.05630196782328506,3.649836811397925,0.7482180197883903,0.24170038161720908,-4.297082204377128,33.3
,,0.042126146874928015,0.013608207108687825,0.0005676138396692176,0.05630196782328506,3.659934943201989,0.7482180197883903,0.24170038161720908,-4.297082204377128,33.4
,,0.042126146874928015,0.013608207108687825,0.0005676138396692176,0.05630196782328506,3.670033075006054,0.7482180197883903,0.24170038161720908,-4.297082204377128,33.5
,,0.042126146874928015,0.013608207108687825,0.0005676138396692176,0.05630196782328506,3.680131206810119,0.7482180197883903,0.24170038161720908,-4.297082204377128,33.6
,,0.04138261656559385,0.01389552590844313,0.0006318082206806081,0.05590995069471759,3.6889235892651806,0.7401654991891042,0.24853403975110264,-4.276188367749462,33.7
,,0.04138261656559385,0.01389552590844313,0.0006318082206806081,0.05590995069471759,3.6758346606883707,0.7401654991891042,0.24853403975110264,-4.276188367749462,33.8
,,0.04138261656559385,0.01389552590844313,0.0006318082206806081,0.05590995069471759,3.662745732111562,0.7401654991891042,0.24853403975110264,-4.276188367749462,33.9
,,0.04138261656559385,0.01389552590844313,0.0006318082206806081,0.05590995069471759,3.6496568035347523,0.7401654991891042,0.24853403975110264,-4.276188367749462,34.0
,,0.0552065093319282,0.023604057142283887,0.0003864809934191121,0.07919704746763119,3.6285225364792337,0.6970778721831995,0.298042135370402,-3.746336668917247,34.1
,,0.0552065093319282,0.023604057142283887,0.0003864809934191121,0.07919704746763119,3.6073878917264413,0.6970778721831995,0.298042135370402,-3.746336668917247,34.2
,,0.0552065093319282,0.023604057142283887,0.0003864809934191121,0.07919704746763119,3.586253246973649,0.6970778721831995,0.298042135370402,-3.746336668917247,34.3
,,0.0552065093319282,0.023604057142283887,0.0003864809934191121,0.07919704746763119,3.5651186022208554,0.6970778721831995,0.298042135370402,-3.746336668917247,34.4
,,0.041605707225710546,0.013887386274616276,0.0006191591491775238,0.05611225264950435,3.549739679256016,0.7414727668410236,0.2474929381531245,-4.2767743130964515,34.5
,,0.041605707225710546,0.013887386274616276,0.0006191591491775238,0.05611225264950435,3.5343607562911767,0.7414727668410236,0.2474929381531245,-4.2767743130964515,34.6
,,0.041605707225710546,0.013887386274616276,0.0006191591491775238,0.05611225264950435,3.5189818333263374,0.7414727668410236,0.2474929381531245,-4.2767743130964515,34.7
,,0.04217128059354338,0.013442922420554382,0.0005465049860748952,0.056160708000172664,3.504580411972264,0.7509036494592221,0.23936525907958733,-4.309302525518685,34.8
,,0.04217128059354338,0.013442922420554382,0.0005465049860748952,0.056160708000172664,3.490178990618191,0.7509036494592221,0.23936525907958733,-4.309302525518685,34.9
,,0.04217128059354338,0.013442922420554382,0.0005465049860748952,0.056160708000172664,3.4757775692641184,0.7509036494592221,0.23936525907958733,-4.309302525518685,35.0
,,0.04217128059354338,0.013442922420554382,0.0005465049860748952,0.056160708000172664,3.4613761479100447,0.7509036494592221,0.23936525907958733,-4.309302525518685,35.1
,,0.04255130258774374,0.013773814882902927,0.0006046655449652489,0.05692978301561192,3.4455332407401014,0.7474348282001154,0.24194392026974207,-4.284985961553331,35.2
,,0.04255130258774374,0.013773814882902927,0.0006046655449652489,0.05692978301561192,3.429690333570157,0.7474348282001154,0.24194392026974207,-4.284985961553331,35.3
,,0.04255130258774374,0.013773814882902927,0.0006046655449652489,0.05692978301561192,3.413847426400214,0.7474348282001154,0.24194392026974207,-4.284985961553331,35.4
,,0.055412621714693716,0.020068373604245772,0.0003881902982538531,0.07586918561719333,3.394255191178971,0.7303705880577716,0.2645128379985921,-3.9086101556186446,35.5
,,0.055412621714693716,0.020068373604245772,0.0003881902982538531,0.07586918561719333,3.374662955957728,0.7303705880577716,0.2645128379985921,-3.9086101556186446,35.6
,,0.055412621714693716,0.020068373604245772,0.0003881902982538531,0.07586918561719333,3.355070720736485,0.7303705880577716,0.2645128379985921,-3.9086101556186446,35.7
,,0.055412621714693716,0.020068373604245772,0.0003881902982538531,0.07586918561719333,3.3354784855152415,0.7303705880577716,0.2645128379985921,-3.9086101556186446,35.8
,,0.055412621714693716,0.020068373604245772,0.0003881902982538531,0.07586918561719333,3.3156290908200328,0.7303705880577716,0.2645128379985921,-3.9086101556186446,35.9
,,0.044058672483490796,0.013529090818457618,0.0005876182717064068,0.058175381573654816,3.30128410026782,0.7573422174757701,0.23255697603510647,-4.3029130365105335,36.0
,,0.044058672483490796,0.013529090818457618,0.0005876182717064068,0.058175381573654816,3.286939109715608,0.7573422174757701,0.23255697603510647,-4.3029130365105335,36.1
,,0.0444539500977677,0.01277447815009455,0.0005533320757342148,0.05778176032359647,3.27545547361107,0.769342260409016,0.22108149835784438,-4.360305993034392,36.2
,,0.0444539500977677,0.01277447815009455,0.0005533320757342148,0.05778176032359647,3.2639718375065323,0.769342260409016,0.22108149835784438,-4.360305993034392,36.3
,,0.0444539500977677,0.01277447815009455,0.0005533320757342148,0.05778176032359647,3.2524882014019942,0.769342260409016,0.22108149835784438,-4.360305993034392,36.4
,,0.0444539500977677,0.01277447815009455,0.0005533320757342148,0.05778176032359647,3.2410045652974557,0.769342260409016,0.22108149835784438,-4.360305993034392,36.5
,,0.0444539500977677,0.01277447815009455,0.0005533320757342148,0.05778176032359647,3.22989673305603,0.769342260409016,0.22108149835784438,-4.360305993034392,36.6
,,0.044055573537170926,0.012599372381245982,0.0005450505932651734,0.05719999651168208,3.218974954704567,0.7702023815363933,0.22026876135687848,-4.374108277277538,36.7
,,0.044055573537170926,0.012599372381245982,0.0005450505932651734,0.05719999651168208,3.2080531763531037,0.7702023815363933,0.22026876135687848,-4.374108277277538,36.8
,,0.044202487259871,0.011715805111122928,0.0005092949590067509,0.056427587330000674,3.201011221315968,0.7833488786498232,0.20762548365937353,-4.446816484576058,36.9
,,0.044202487259871,0.011715805111122928,0.0005092949590067509,0.056427587330000674,3.1939692662788333,0.7833488786498232,0.20762548365937353,-4.446816484576058,37.0
,,0.044202487259871,0.011715805111122928,0.0005092949590067509,0.056427587330000674,3.1869273112416976,0.7833488786498232,0.20762548365937353,-4.446816484576058,37.1
,,0.044202487259871,0.011715805111122928,0.0005092949590067509,0.056427587330000674,3.179885356204563,0.7833488786498232,0.20762548365937353,-4.446816484576058,37.2
,,0.04400171549962374,0.011558595207537822,0.0005026845949716484,0.05606299530213322,3.174074258268284,0.7848620157109133,0.20617156013956345,-4.460325944961571,37.3
,,0.043994520884125504,0.011532156936982925,0.0005012665538635602,0.05602794437497199,3.1683531999921177,0.7852246120201782,0.20582866399314853,-4.462615890472451,37.4
,,0.043994520884125504,0.011532156936982925,0.0005012665538635602,0.05602794437497199,3.162632141715951,0.7852246120201782,0.20582866399314853,-4.462615890472451,37.5
,,0.043864573755506175,0.010624280373717057,0.00046601777294461667,0.05495487190216785,3.161554958679593,0.7981926303748843,0.19332736126890968,-4.544613295997917,37.6
,,0.043864573755506175,0.010624280373717057,0.00046601777294461667,0.05495487190216785,3.1604777756432347,0.7981926303748843,0.19332736126890968,-4.544613295997917,37.7
,,0.043864573755506175,0.010624280373717057,0.00046601777294461667,0.05495487190216785,3.1594005926068767,0.7981926303748843,0.19332736126890968,-4.544613295997917,37.8
,,0.043864573755506175,0.010624280373717057,0.00046601777294461667,0.05495487190216785,3.1583234095705177,0.7981926303748843,0.19332736126890968,-4.544613295997917,37.9
,,0.043864573755506175,0.010624280373717057,0.00046601777294461667,0.05495487190216785,3.1583371032693828,0.7981926303748843,0.19332736126890968,-4.544613295997917,38.0
,,0.043864573755506175,0.010624280373717057,0.00046601777294461667,0.05495487190216785,3.1583507969682474,0.7981926303748843,0.19332736126890968,-4.544613295997917,38.1
,,0.04391138387706084,0.010484595834214155,0.00046088836552684947,0.054856868076801846,3.160430676591016,0.8004719448362075,0.19112640224985675,-4.557848162418025,38.2
,,0.04353464365931327,0.009601882315964321,0.00042540334588594763,0.05356192932116354,3.166352654343335,0.8127908051682473,0.17926692405701672,-4.645796125148838,38.3
,,0.04353464365931327,0.009601882315964321,0.00042540334588594763,0.05356192932116354,3.1722746320956547,0.8127908051682473,0.17926692405701672,-4.645796125148838,38.4
,,0.04353464365931327,0.009601882315964321,0.00042540334588594763,0.05356192932116354,3.1781966098479746,0.8127908051682473,0.17926692405701672,-4.645796125148838,38.5
,,0.04353464365931327,0.009601882315964321,0.00042540334588594763,0.05356192932116354,3.184118587600294,0.8127908051682473,0.17926692405701672,-4.645796125148838,38.6
,,0.04353464365931327,0.009601882315964321,0.00042540334588594763,0.05356192932116354,3.1911216391737973,0.8127908051682473,0.17926692405701672,-4.645796125148838,38.7
,,0.043781972152654336,0.009543979383326344,0.0004274780971270501,0.05375342963310773,3.198718268722885,0.814496348446727,0.17755107810735912,-4.6518447543600265,38.8
,,0.04385030607619735,0.00954089187428671,0.00042811565512066005,0.05381931360560472,3.2267458437967145,0.8147689581762113,0.17727635740960335,-4.652168310020937,38.9
,,0.04325898812732427,0.008722016773428992,0.000392788842976646,0.052373793743729906,3.2588146140790664,0.8259662902976769,0.1665339886605632,-4.741904786446123,39.0
,,0.04325898812732427,0.008722016773428992,0.000392788842976646,0.052373793743729906,3.290883384361419,0.8259662902976769,0.1665339886605632,-4.741904786446123,39.1
,,0.04325898812732427,0.008722016773428992,0.000392788842976646,0.052373793743729906,3.3229521546437715,0.8259662902976769,0.1665339886605632,-4.741904786446123,39.2
,,0.04325898812732427,0.008722016773428992,0.000392788842976646,0.052373793743729906,3.3550209249261242,0.8259662902976769,0.1665339886605632,-4.741904786446123,39.3
,,0.04325898812732427,0.008722016773428992,0.000392788842976646,0.052373793743729906,3.369134724386429,0.8259662902976769,0.1665339886605632,-4.741904786446123,39.4
,,0.04325898812732427,0.008722016773428992,0.000392788842976646,0.052373793743729906,3.383248523846734,0.8259662902976769,0.1665339886605632,-4.741904786446123,39.5
,,0.04325898812732427,0.008722016773428992,0.000392788842976646,0.052373793743729906,3.399000195202981,0.8259662902976769,0.1665339886605632,-4.741904786446123,39.6
,,0.043790672512720584,0.008751515736758112,0.0004047755942215005,0.0529469638437002,3.415241149445276,0.8270667349688067,0.16528833952769506,-4.7385283665566185,39.7
,,0.04302304048093561,0.008018950997567722,0.0003694199562225216,0.05141141143472585,3.4354975386466897,0.8368383454237494,0.15597609117868566,-4.825947663966823,39.8
,,0.04302304048093561,0.008018950997567722,0.0003694199562225216,0.05141141143472585,3.4557539278481038,0.8368383454237494,0.15597609117868566,-4.825947663966823,39.9
,,0.04302304048093561,0.008018950997567722,0.0003694199562225216,0.05141141143472585,3.4760103170495174,0.8368383454237494,0.15597609117868566,-4.825947663966823,40.0
,,0.04302304048093561,0.008018950997567722,0.0003694199562225216,0.05141141143472585,3.496266706250931,0.8368383454237494,0.15597609117868566,-4.825947663966823,40.1
,,0.04302304048093561,0.008018950997567722,0.0003694199562225216,0.05141141143472585,3.517065498855016,0.8368383454237494,0.15597609117868566,-4.825947663966823,40.2
,,0.04302304048093561,0.008018950997567722,0.0003694199562225216,0.05141141143472585,3.5593274691573367,0.8368383454237494,0.15597609117868566,-4.825947663966823,40.3
,,0.048648721594325095,0.008743430158020602,0.00046475499137438325,0.05785690674372008,3.6037990055233404,0.8408455330980089,0.151121631800159,-4.739452699716815,40.4
,,0.042839014377894814,0.0074881514580050846,0.00035448175536601054,0.05068164759126591,3.650013596500177,0.8452569404092808,0.1477487771983075,-4.894433313247905,40.5
,,0.042839014377894814,0.0074881514580050846,0.00035448175536601054,0.05068164759126591,3.696228187477013,0.8452569404092808,0.1477487771983075,-4.894433313247905,40.6
,,0.042839014377894814,0.0074881514580050846,0.00035448175536601054,0.05068164759126591,3.74244277845385,0.8452569404092808,0.1477487771983075,-4.894433313247905,40.7
,,0.042839014377894814,0.0074881514580050846,0.00035448175536601054,0.05068164759126591,3.7886573694306866,0.8452569404092808,0.1477487771983075,-4.894433313247905,40.8
,,0.042839014377894814,0.0074881514580050846,0.00035448175536601054,0.05068164759126591,3.815314353354851,0.8452569404092808,0.1477487771983075,-4.894433313247905,40.9
,,0.042839014377894814,0.0074881514580050846,0.00035448175536601054,0.05068164759126591,3.841971337279015,0.8452569404092808,0.1477487771983075,-4.894433313247905,41.0
,,0.042839014377894814,0.0074881514580050846,0.00035448175536601054,0.05068164759126591,3.8704417643139006,0.8452569404092808,0.1477487771983075,-4.894433313247905,41.1
,,0.04273293170549914,0.0071459687787173536,0.0003483095927661732,0.050227210076982665,3.9017910676936634,0.8507924616956202,0.14227285902929526,-4.941206888447649,41.2
,,0.04273293170549914,0.0071459687787173536,0.0003483095927661732,0.050227210076982665,3.933140371073425,0.8507924616956202,0.14227285902929526,-4.941206888447649,41.3
,,0.04273293170549914,0.0071459687787173536,0.0003483095927661732,0.050227210076982665,3.9644896744531883,0.8507924616956202,0.14227285902929526,-4.941206888447649,41.4
,,0.04273293170549914,0.0071459687787173536,0.0003483095927661732,0.050227210076982665,3.995838977832951,0.8507924616956202,0.14227285902929526,-4.941206888447649,41.5
,,0.04273293170549914,0.0071459687787173536,0.0003483095927661732,0.050227210076982665,4.026965196997256,0.8507924616956202,0.14227285902929526,-4.941206888447649,41.6
,,0.04273293170549914,0.0071459687787173536,0.0003483095927661732,0.050227210076982665,4.058091416161563,0.8507924616956202,0.14227285902929526,-4.941206888447649,41.7
,,0.04273293170549914,0.0071459687787173536,0.0003483095927661732,0.050227210076982665,4.08921763532587,0.8507924616956202,0.14227285902929526,-4.941206888447649,41.8
,,0.043725583040453125,0.007417031992972043,0.00038533704214152294,0.051527952075566694,4.121004907771656,0.8485798732371267,0.14394191296589526,-4.9039763027717305,41.9
,,0.0427517382087754,0.006978025684275891,0.00035018788743069345,0.05007995178048198,4.155362513033934,0.8536697159009115,0.13933770772909343,-4.964989255473986,42.0
,,0.0427517382087754,0.006978025684275891,0.00035018788743069345,0.05007995178048198,4.189720118296211,0.8536697159009115,0.13933770772909343,-4.964989255473986,42.1
,,0.0427517382087754,0.006978025684275891,0.00035018788743069345,0.05007995178048198,4.224077723558489,0.8536697159009115,0.13933770772909343,-4.964989255473986,42.2
,,0.0427517382087754,0.006978025684275891,0.00035018788743069345,0.05007995178048198,4.257755291394566,0.8536697159009115,0.13933770772909343,-4.964989255473986,42.3
,,0.0427517382087754,0.006978025684275891,0.00035018788743069345,0.05007995178048198,4.2914328592306425,0.8536697159009115,0.13933770772909343,-4.964989255473986,42.4
,,0.0427517382087754,0.006978025684275891,0.00035018788743069345,0.05007995178048198,4.325110427066718,0.8536697159009115,0.13933770772909343,-4.964989255473986,42.5
,,0.04377225361138595,0.007301042199757467,0.00039464367426847636,0.051467939485411895,4.357329321467282,0.850476122592644,0.14185611999926437,-4.919738173927978,42.6
,,0.042803530963145466,0.006944711174149967,0.0003589608094943923,0.050107202946789824,4.3927220600866566,0.8542390803294224,0.13859706321114634,-4.969774891236015,42.7
,,0.042803530963145466,0.006944711174149967,0.0003589608094943923,0.050107202946789824,4.428114798706031,0.8542390803294224,0.13859706321114634,-4.969774891236015,42.8
,,0.042803530963145466,0.006944711174149967,0.0003589608094943923,0.050107202946789824,4.4635075373254045,0.8542390803294224,0.13859706321114634,-4.969774891236015,42.9
,,0.042803530963145466,0.006944711174149967,0.0003589608094943923,0.050107202946789824,4.498900275944779,0.8542390803294224,0.13859706321114634,-4.969774891236015,43.0
,,0.042803530963145466,0.006944711174149967,0.0003589608094943923,0.050107202946789824,4.541395997443358,0.8542390803294224,0.13859706321114634,-4.969774891236015,43.1
,,0.042803530963145466,0.006944711174149967,0.0003589608094943923,0.050107202946789824,4.583891718941937,0.8542390803294224,0.13859706321114634,-4.969774891236015,43.2
,,0.042803530963145466,0.006944711174149967,0.0003589608094943923,0.050107202946789824,4.626387440440515,0.8542390803294224,0.13859706321114634,-4.969774891236015,43.3
,,0.042909433652526266,0.0070382514298193,0.000375088476162487,0.050322773558508054,4.668140190105,0.8526841948136538,0.13986215250310552,-4.956395516108846,43.4
,,0.042909433652526266,0.0070382514298193,0.000375088476162487,0.050322773558508054,4.702592070273966,0.8526841948136538,0.13986215250310552,-4.956395516108846,43.5
,,0.042909433652526266,0.0070382514298193,0.000375088476162487,0.050322773558508054,4.737043950442932,0.8526841948136538,0.13986215250310552,-4.956395516108846,43.6
,,0.042909433652526266,0.0070382514298193,0.000375088476162487,0.050322773558508054,4.771495830611898,0.8526841948136538,0.13986215250310552,-4.956395516108846,43.7
,,0.042909433652526266,0.0070382514298193,0.000375088476162487,0.050322773558508054,4.80437963391883,0.8526841948136538,0.13986215250310552,-4.956395516108846,43.8
,,0.042909433652526266,0.0070382514298193,0.000375088476162487,0.050322773558508054,4.837263437225762,0.8526841948136538,0.13986215250310552,-4.956395516108846,43.9
,,0.042909433652526266,0.0070382514298193,0.000375088476162487,0.050322773558508054,4.870147240532694,0.8526841948136538,0.13986215250310552,-4.956395516108846,44.0
,,0.04301942954897288,0.007236919706936618,0.0003951272896548376,0.05065147654556433,4.901340321493012,0.849322319563065,0.14287677675944024,-4.928559617959111,44.1
,,0.04301942954897288,0.007236919706936618,0.0003951272896548376,0.05065147654556433,4.933064206872829,0.849322319563065,0.14287677675944024,-4.928559617959111,44.2
,,0.04301942954897288,0.007236919706936618,0.0003951272896548376,0.05065147654556433,4.964788092252647,0.849322319563065,0.14287677675944024,-4.928559617959111,44.3
,,0.04301942954897288,0.007236919706936618,0.0003951272896548376,0.05065147654556433,4.996511977632465,0.849322319563065,0.14287677675944024,-4.928559617959111,44.4
,,0.04301942954897288,0.007236919706936618,0.0003951272896548376,0.05065147654556433,5.031881397566029,0.849322319563065,0.14287677675944024,-4.928559617959111,44.5
,,0.04301942954897288,0.007236919706936618,0.0003951272896548376,0.05065147654556433,5.067250817499593,0.849322319563065,0.14287677675944024,-4.928559617959111,44.6
,,0.04301942954897288,0.007236919706936618,0.0003951272896548376,0.05065147654556433,5.1026202374331575,0.849322319563065,0.14287677675944024,-4.928559617959111,44.7
,,0.04303228368559596,0.00749868552638204,0.0004192183077624702,0.05095018751974047,5.135703039014822,0.8445951973959518,0.14717679936853426,-4.893027536949314,44.8
,,0.04303228368559596,0.00749868552638204,0.0004192183077624702,0.05095018751974047,5.168785840596485,0.8445951973959518,0.14717679936853426,-4.893027536949314,44.9
,,0.04303228368559596,0.00749868552638204,0.0004192183077624702,0.05095018751974047,5.196364238035151,0.8445951973959518,0.14717679936853426,-4.893027536949314,45.0
,,0.04303228368559596,0.00749868552638204,0.0004192183077624702,0.05095018751974047,5.223942635473818,0.8445951973959518,0.14717679936853426,-4.893027536949314,45.1
,,0.04303228368559596,0.00749868552638204,0.0004192183077624702,0.05095018751974047,5.249039748648817,0.8445951973959518,0.14717679936853426,-4.893027536949314,45.2
,,0.04303228368559596,0.00749868552638204,0.0004192183077624702,0.05095018751974047,5.274136861823817,0.8445951973959518,0.14717679936853426,-4.893027536949314,45.3
,,0.04303228368559596,0.00749868552638204,0.0004192183077624702,0.05095018751974047,5.299233974998818,0.8445951973959518,0.14717679936853426,-4.893027536949314,45.4
,,0.042295924447108016,0.007255892660571829,0.0005269013543443315,0.05007871846202418,5.325337078932169,0.8445887943235203,0.14488974325639215,-4.925941359474446,45.5
,,0.042879169633843035,0.007788541276021337,0.0004432609494353765,0.05111097185929975,5.347842788446555,0.838942561137019,0.15238491839798965,-4.8551016926005195,45.6
,,0.042879169633843035,0.007788541276021337,0.0004432609494353765,0.05111097185929975,5.370162444070978,0.838942561137019,0.15238491839798965,-4.8551016926005195,45.7
,,0.042879169633843035,0.007788541276021337,0.0004432609494353765,0.05111097185929975,5.3924820996954015,0.838942561137019,0.15238491839798965,-4.8551016926005195,45.8
,,0.042879169633843035,0.007788541276021337,0.0004432609494353765,0.05111097185929975,5.411732361595044,0.838942561137019,0.15238491839798965,-4.8551016926005195,45.9
,,0.042879169633843035,0.007788541276021337,0.0004432609494353765,0.05111097185929975,5.430982623494686,0.838942561137019,0.15238491839798965,-4.8551016926005195,46.0
,,0.042879169633843035,0.007788541276021337,0.0004432609494353765,0.05111097185929975,5.450232885394329,0.838942561137019,0.15238491839798965,-4.8551016926005195,46.1
,,0.042879169633843035,0.007788541276021337,0.0004432609494353765,0.05111097185929975,5.469483147293971,0.838942561137019,0.15238491839798965,-4.8551016926005195,46.2
,,0.03694286486119259,0.004616196477464437,0.0005957072349389556,0.042154768573595985,5.516105816905059,0.8763626538880368,0.10950591436423715,-5.378184186240143,46.3
,,0.03694286486119259,0.004616196477464437,0.0005957072349389556,0.042154768573595985,5.562638446856034,0.8763626538880368,0.10950591436423715,-5.378184186240143,46.4
,,0.03694286486119259,0.004616196477464437,0.0005957072349389556,0.042154768573595985,5.6091710768070095,0.8763626538880368,0.10950591436423715,-5.378184186240143,46.5
,,0.03694286486119259,0.004616196477464437,0.0005957072349389556,0.042154768573595985,5.652217405092943,0.8763626538880368,0.10950591436423715,-5.378184186240143,46.6
,,0.03694286486119259,0.004616196477464437,0.0005957072349389556,0.042154768573595985,5.6952637333788765,0.8763626538880368,0.10950591436423715,-5.378184186240143,46.7
,,0.03694286486119259,0.004616196477464437,0.0005957072349389556,0.042154768573595985,5.7383100616648095,0.8763626538880368,0.10950591436423715,-5.378184186240143,46.8
,,0.03694286486119259,0.004616196477464437,0.0005957072349389556,0.042154768573595985,5.781356389950743,0.8763626538880368,0.10950591436423715,-5.378184186240143,46.9
,,0.04201684764011589,0.008339991878211533,0.0004910589312169925,0.05084789844954442,5.791459569097664,0.826324173098492,0.16401841831255184,-4.786693036447503,47.0
,,0.04201684764011589,0.008339991878211533,0.0004910589312169925,0.05084789844954442,5.801562748244584,0.826324173098492,0.16401841831255184,-4.786693036447503,47.1
,,0.04201684764011589,0.008339991878211533,0.0004910589312169925,0.05084789844954442,5.811005140947795,0.826324173098492,0.16401841831255184,-4.786693036447503,47.2
,,0.04201684764011589,0.008339991878211533,0.0004910589312169925,0.05084789844954442,5.816605435521457,0.826324173098492,0.16401841831255184,-4.786693036447503,47.3
,,0.04201684764011589,0.008339991878211533,0.0004910589312169925,0.05084789844954442,5.822205730095116,0.826324173098492,0.16401841831255184,-4.786693036447503,47.4
,,0.04201684764011589,0.008339991878211533,0.0004910589312169925,0.05084789844954442,5.827806024668778,0.826324173098492,0.16401841831255184,-4.786693036447503,47.5
,,0.04201684764011589,0.008339991878211533,0.0004910589312169925,0.05084789844954442,5.833406319242437,0.826324173098492,0.16401841831255184,-4.786693036447503,47.6
,,0.0352090423839289,0.004508330502963301,0.0006460994965628376,0.040363472383455036,5.869804144689436,0.8722996388774784,0.11169332658335071,-5.401828370726409,47.7
,,0.04127962378899058,0.008541458122489793,0.0005143892637005526,0.050335471175180925,5.872531508036932,0.8200901436946211,0.16969063610755186,-4.762823545417748,47.8
,,0.04127962378899058,0.008541458122489793,0.0005143892637005526,0.050335471175180925,5.875162796582193,0.8200901436946211,0.16969063610755186,-4.762823545417748,47.9
,,0.04127962378899058,0.008541458122489793,0.0005143892637005526,0.050335471175180925,5.873752889918932,0.8200901436946211,0.16969063610755186,-4.762823545417748,48.0
,,0.04127962378899058,0.008541458122489793,0.0005143892637005526,0.050335471175180925,5.872342983255669,0.8200901436946211,0.16969063610755186,-4.762823545417748,48.1
,,0.04127962378899058,0.008541458122489793,0.0005143892637005526,0.050335471175180925,5.870933076592408,0.8200901436946211,0.16969063610755186,-4.762823545417748,48.2
,,0.04127962378899058,0.008541458122489793,0.0005143892637005526,0.050335471175180925,5.869523169929146,0.8200901436946211,0.16969063610755186,-4.762823545417748,48.3
,,0.033101332403693076,0.0043370442744502845,0.0006251170953214821,0.038063493773464845,5.899217469439751,0.8696346320885805,0.11394235905569348,-5.4405622056381775,48.4
,,0.033101332403693076,0.0043370442744502845,0.0006251170953214821,0.038063493773464845,5.928911768950357,0.8696346320885805,0.11394235905569348,-5.4405622056381775,48.5
,,0.03187298502868324,0.004288353473432837,0.0005853899122266747,0.036746728414342754,5.956386289180134,0.8673693252170656,0.11670027941205872,-5.451852425441092,48.6
,,0.03187298502868324,0.004288353473432837,0.0005853899122266747,0.036746728414342754,5.983371526523864,0.8673693252170656,0.11670027941205872,-5.451852425441092,48.7
,,0.03187298502868324,0.004288353473432837,0.0005853899122266747,0.036746728414342754,6.006341328908475,0.8673693252170656,0.11670027941205872,-5.451852425441092,48.8
,,0.03187298502868324,0.004288353473432837,0.0005853899122266747,0.036746728414342754,6.0293111312930865,0.8673693252170656,0.11670027941205872,-5.451852425441092,48.9
,,0.03187298502868324,0.004288353473432837,0.0005853899122266747,0.036746728414342754,6.0522809336776975,0.8673693252170656,0.11670027941205872,-5.451852425441092,49.0
,,0.039707070292280544,0.008750517687794418,0.0005705441678853702,0.049028132147960334,6.043086620105624,0.8098833986261179,0.1784795239881162,-4.738642416043391,49.1
,,0.039707070292280544,0.008750517687794418,0.0005705441678853702,0.049028132147960334,6.033892306533553,0.8098833986261179,0.1784795239881162,-4.738642416043391,49.2
,,0.031042410562646738,0.00421340725392888,0.0005754944205376395,0.035831312237113264,6.056140760227028,0.8663486940479314,0.11759009064604473,-5.469483634640292,49.3
,,0.031042410562646738,0.00421340725392888,0.0005754944205376395,0.035831312237113264,6.0761796478568195,0.8663486940479314,0.11759009064604473,-5.469483634640292,49.4
,,0.031042410562646738,0.00421340725392888,0.0005754944205376395,0.035831312237113264,6.094475480875778,0.8663486940479314,0.11759009064604473,-5.469483634640292,49.5
,,0.031042410562646738,0.00421340725392888,0.0005754944205376395,0.035831312237113264,6.112771313894736,0.8663486940479314,0.11759009064604473,-5.469483634640292,49.6
,,0.031042410562646738,0.00421340725392888,0.0005754944205376395,0.035831312237113264,6.131067146913695,0.8663486940479314,0.11759009064604473,-5.469483634640292,49.7
,,0.03849395628553253,0.00863569618944269,0.0005740330923088508,0.04770368556728407,6.11702973500212,0.8069388314082862,0.18102786161589968,-4.751850946494166,49.8
,,0.03849395628553253,0.00863569618944269,0.0005740330923088508,0.04770368556728407,6.102992323090542,0.8069388314082862,0.18102786161589968,-4.751850946494166,49.9
,,0.038000164338305734,0.008455618537624974,0.0005492120422394128,0.04700499491817012,6.089360836258595,0.8084282192660444,0.17988765986136496,-4.772924142876292,50.0
,,0.038000164338305734,0.008455618537624974,0.0005492120422394128,0.04700499491817012,6.075729349426647,0.8084282192660444,0.17988765986136496,-4.772924142876292,50.1
,,0.038000164338305734,0.008455618537624974,0.0005492120422394128,0.04700499491817012,6.059218986249822,0.8084282192660444,0.17988765986136496,-4.772924142876292,50.2
,,0.038000164338305734,0.008455618537624974,0.0005492120422394128,0.04700499491817012,6.042708623072998,0.8084282192660444,0.17988765986136496,-4.772924142876292,50.3
,,0.038000164338305734,0.008455618537624974,0.0005492120422394128,0.04700499491817012,6.026198259896172,0.8084282192660444,0.17988765986136496,-4.772924142876292,50.4
,,0.0372974314614952,0.008391657279779016,0.0005668889664278141,0.04625597770770203,6.009138030053593,0.8063267346154235,0.18141779064334274,-4.78051724764259,50.5
,,0.0372974314614952,0.008391657279779016,0.0005668889664278141,0.04625597770770203,5.992077800211013,0.8063267346154235,0.18141779064334274,-4.78051724764259,50.6
,,0.031020357876067512,0.004136034630944285,0.0005406627477474498,0.03569705525475925,6.008966893034552,0.86898926689287,0.11586486900464585,-5.48801776875877,50.7
,,0.031020357876067512,0.004136034630944285,0.0005406627477474498,0.03569705525475925,6.02585598585809,0.86898926689287,0.11586486900464585,-5.48801776875877,50.8
,,0.031020357876067512,0.004136034630944285,0.0005406627477474498,0.03569705525475925,6.043686317926381,0.86898926689287,0.11586486900464585,-5.48801776875877,50.9
,,0.031020357876067512,0.004136034630944285,0.0005406627477474498,0.03569705525475925,6.058946317178181,0.86898926689287,0.11586486900464585,-5.48801776875877,51.0
,,0.031020357876067512,0.004136034630944285,0.0005406627477474498,0.03569705525475925,6.074206316429983,0.86898926689287,0.11586486900464585,-5.48801776875877,51.1
,,0.031020357876067512,0.004136034630944285,0.0005406627477474498,0.03569705525475925,6.089466315681783,0.86898926689287,0.11586486900464585,-5.48801776875877,51.2
,,0.03557347944622508,0.007698175093132327,0.000517430119036747,0.04378908465839416,6.07273746886989,0.8123823487917055,0.17580123341666207,-4.866771979103554,51.3
,,0.03557347944622508,0.007698175093132327,0.000517430119036747,0.04378908465839416,6.056008622057998,0.8123823487917055,0.17580123341666207,-4.866771979103554,51.4
,,0.03557347944622508,0.007698175093132327,0.000517430119036747,0.04378908465839416,6.039279775246105,0.8123823487917055,0.17580123341666207,-4.866771979103554,51.5
,,0.03557347944622508,0.007698175093132327,0.000517430119036747,0.04378908465839416,6.024009601869725,0.8123823487917055,0.17580123341666207,-4.866771979103554,51.6
,,0.03557347944622508,0.007698175093132327,0.000517430119036747,0.04378908465839416,6.006871333623538,0.8123823487917055,0.17580123341666207,-4.866771979103554,51.7
,,0.03557347944622508,0.007698175093132327,0.000517430119036747,0.04378908465839416,5.989733065377352,0.8123823487917055,0.17580123341666207,-4.866771979103554,51.8
,,0.035247611292533336,0.007551038305687468,0.0005236087619118392,0.04332225836013264,5.973115777727581,0.8136143549933212,0.17429927689633834,-4.886070201244638,51.9
,,0.034603273088842396,0.007179605848162695,0.00045123548078425076,0.04223411441778935,5.958184557948677,0.81932043718353,0.169995415960198,-4.936510793227901,52.0
,,0.034603273088842396,0.007179605848162695,0.00045123548078425076,0.04223411441778935,5.943253338169772,0.81932043718353,0.169995415960198,-4.936510793227901,52.1
,,0.034603273088842396,0.007179605848162695,0.00045123548078425076,0.04223411441778935,5.928322118390867,0.81932043718353,0.169995415960198,-4.936510793227901,52.2
,,0.034603273088842396,0.007179605848162695,0.00045123548078425076,0.04223411441778935,5.913390898611962,0.81932043718353,0.169995415960198,-4.936510793227901,52.3
,,0.034603273088842396,0.007179605848162695,0.00045123548078425076,0.04223411441778935,5.899202650667151,0.81932043718353,0.169995415960198,-4.936510793227901,52.4
,,0.034603273088842396,0.007179605848162695,0.00045123548078425076,0.04223411441778935,5.88501440272234,0.81932043718353,0.169995415960198,-4.936510793227901,52.5
,,0.03454154652053821,0.007033797574334679,0.000491513826045696,0.042066857920918584,5.871838757798246,0.8211106849356994,0.16720520433348038,-4.957028523516939,52.6
,,0.03454154652053821,0.007033797574334679,0.000491513826045696,0.042066857920918584,5.85866311287415,0.8211106849356994,0.16720520433348038,-4.957028523516939,52.7
,,0.03393932548642087,0.006654341899580809,0.0004197001045700593,0.04101336749057173,5.847593375269399,0.8275186253414314,0.16224812315425033,-5.012485720141898,52.8
,,0.03393932548642087,0.006654341899580809,0.0004197001045700593,0.04101336749057173,5.836523637664646,0.8275186253414314,0.16224812315425033,-5.012485720141898,52.9
,,0.03393932548642087,0.006654341899580809,0.0004197001045700593,0.04101336749057173,5.825453900059894,0.8275186253414314,0.16224812315425033,-5.012485720141898,53.0
,,0.03393932548642087,0.006654341899580809,0.0004197001045700593,0.04101336749057173,5.816074884801755,0.8275186253414314,0.16224812315425033,-5.012485720141898,53.1
,,0.03393932548642087,0.006654341899580809,0.0004197001045700593,0.04101336749057173,5.806695869543617,0.8275186253414314,0.16224812315425033,-5.012485720141898,53.2
,,0.034149631497567,0.006538523392555924,0.0004570602824691261,0.04114521517259205,5.79867804909793,0.8299781968406135,0.15891333573366295,-5.030043919960138,53.3
,,0.03414240636741468,0.006539437589033904,0.0004567491998310339,0.041138593156279615,5.790639839831469,0.8299361681551087,0.15896113812622414,-5.029904112771425,53.4
,,0.034149631497567,0.006538523392555924,0.0004570602824691261,0.04114521517259205,5.782622019385782,0.8299781968406135,0.15891333573366295,-5.030043919960138,53.5
,,0.03361598249189154,0.006210194142836042,0.00038927287268729116,0.040215449507414874,5.776717499530889,0.8358972211834524,0.1544230940820645,-5.081563120588864,53.6
,,0.033627730410036485,0.006205850723625495,0.00038936666538256864,0.04022294779904455,5.770876108253096,0.8360334647286909,0.15428632318621133,-5.082262766802202,53.7
,,0.033627730410036485,0.006205850723625495,0.00038936666538256864,0.04022294779904455,5.767321335327204,0.8360334647286909,0.15428632318621133,-5.082262766802202,53.8
,,0.033627730410036485,0.006205850723625495,0.00038936666538256864,0.04022294779904455,5.76376656240131,0.8360334647286909,0.15428632318621133,-5.082262766802202,53.9
,,0.03407406631761174,0.0061400254415652665,0.000426712383827255,0.040640804143004264,5.761664958060106,0.8384200813968664,0.15108031376446532,-5.092926393254266,54.0
,,0.03407406631761174,0.0061400254415652665,0.000426712383827255,0.040640804143004264,5.7595633537188995,0.8384200813968664,0.15108031376446532,-5.092926393254266,54.1
,,0.03407406631761174,0.0061400254415652665,0.000426712383827255,0.040640804143004264,5.757461749377695,0.8384200813968664,0.15108031376446532,-5.092926393254266,54.2
,,0.03407406631761174,0.0061400254415652665,0.000426712383827255,0.040640804143004264,5.755360145036491,0.8384200813968664,0.15108031376446532,-5.092926393254266,54.3
,,0.03359491246433424,0.005868954803152832,0.0003646923069513335,0.039828559574438406,5.755199360320584,0.8434880101939499,0.14735543704973633,-5.138078718380756,54.4
,,0.03359491246433424,0.005868954803152832,0.0003646923069513335,0.039828559574438406,5.754032584846325,0.8434880101939499,0.14735543704973633,-5.138078718380756,54.5
,,0.03359491246433424,0.005868954803152832,0.0003646923069513335,0.039828559574438406,5.756463203791031,0.8434880101939499,0.14735543704973633,-5.138078718380756,54.6
,,0.03418753420061541,0.00586237465632966,0.000402446322331452,0.040452355179276527,5.7600884232779626,0.8451308718393103,0.1449204781859751,-5.139200526021734,54.7
,,0.03418745306545104,0.005862558518082694,0.0004024102458458755,0.04045242182937961,5.763711456841462,0.8451274736935904,0.14492478454837185,-5.13916916349705,54.8
,,0.03418745306545104,0.005862558518082694,0.0004024102458458755,0.04045242182937961,5.76733449040496,0.8451274736935904,0.14492478454837185,-5.13916916349705,54.9
,,0.03418745306545104,0.005862558518082694,0.0004024102458458755,0.04045242182937961,5.770957523968459,0.8451274736935904,0.14492478454837185,-5.13916916349705,55.0
,,0.03418745306545104,0.005862558518082694,0.0004024102458458755,0.04045242182937961,5.774580557531958,0.8451274736935904,0.14492478454837185,-5.13916916349705,55.1
,,0.03374846125476691,0.005654012981758575,0.0003459488979116293,0.03974842313443712,5.779730804228383,0.849051574715879,0.1422449630928898,-5.175389723682498,55.2
,,0.03374846125476691,0.005654012981758575,0.0003459488979116293,0.03974842313443712,5.757131468875842,0.849051574715879,0.1422449630928898,-5.175389723682498,55.3
,,0.03378402941141588,0.004225390506392148,0.0003475740111927459,0.03835699392900077,5.757049261363423,0.8807788606675095,0.11015958430458324,-5.466643594895725,55.4
,,0.03378402941141588,0.004225390506392148,0.0003475740111927459,0.03835699392900077,5.756967053851003,0.8807788606675095,0.11015958430458324,-5.466643594895725,55.5
,,0.03378402941141588,0.004225390506392148,0.0003475740111927459,0.03835699392900077,5.7568848463385836,0.8807788606675095,0.11015958430458324,-5.466643594895725,55.6
,,0.03378402941141588,0.004225390506392148,0.0003475740111927459,0.03835699392900077,5.756802638826164,0.8807788606675095,0.11015958430458324,-5.466643594895725,55.7
,,0.03378402941141588,0.004225390506392148,0.0003475740111927459,0.03835699392900077,5.756720431313744,0.8807788606675095,0.11015958430458324,-5.466643594895725,55.8
,,0.03404804804989467,0.005566816261168146,0.0003335517468760333,0.03994841605793885,5.7357578957722115,0.8523003265139065,0.13935011223209354,-5.190931975324879,55.9
,,0.03404804804989467,0.005566816261168146,0.0003335517468760333,0.03994841605793885,5.747738509369691,0.8523003265139065,0.13935011223209354,-5.190931975324879,56.0
,,0.034367751629492106,0.004447854246965023,0.0003408900368315521,0.03915649591328869,5.777614285263062,0.8777024304115169,0.11359173345885473,-5.415333490789041,56.1
,,0.034367751629492106,0.004447854246965023,0.0003408900368315521,0.03915649591328869,5.807490061156433,0.8777024304115169,0.11359173345885473,-5.415333490789041,56.2
,,0.034367751629492106,0.004447854246965023,0.0003408900368315521,0.03915649591328869,5.837365837049803,0.8777024304115169,0.11359173345885473,-5.415333490789041,56.3
,,0.034367751629492106,0.004447854246965023,0.0003408900368315521,0.03915649591328869,5.8672416129431735,0.8777024304115169,0.11359173345885473,-5.415333490789041,56.4
,,0.034367751629492106,0.004447854246965023,0.0003408900368315521,0.03915649591328869,5.897117388836543,0.8777024304115169,0.11359173345885473,-5.415333490789041,56.5
,,0.034367751629492106,0.004447854246965023,0.0003408900368315521,0.03915649591328869,5.926993164729913,0.8777024304115169,0.11359173345885473,-5.415333490789041,56.6
,,0.03443018182644441,0.005605095221370198,0.0003278158710627546,0.04036309291887736,5.90846965119302,0.8530114849137789,0.1388668413650917,-5.184079233954648,56.7
,,0.03443018182644441,0.005605095221370198,0.0003278158710627546,0.04036309291887736,5.923023021780043,0.8530114849137789,0.1388668413650917,-5.184079233954648,56.8
,,0.03493158114380739,0.004736649278230406,0.0003437748940140207,0.04001200531605182,5.951266251572893,0.8730275043174033,0.11838070201220782,-5.3524252965760395,56.9
,,0.03493158114380739,0.004736649278230406,0.0003437748940140207,0.04001200531605182,5.979509481365742,0.8730275043174033,0.11838070201220782,-5.3524252965760395,57.0
,,0.03493158114380739,0.004736649278230406,0.0003437748940140207,0.04001200531605182,6.0077527111585916,0.8730275043174033,0.11838070201220782,-5.3524252965760395,57.1
,,0.03493158114380739,0.004736649278230406,0.0003437748940140207,0.04001200531605182,6.035995940951441,0.8730275043174033,0.11838070201220782,-5.3524252965760395,57.2
,,0.03493158114380739,0.004736649278230406,0.0003437748940140207,0.04001200531605182,6.06423917074429,0.8730275043174033,0.11838070201220782,-5.3524252965760395,57.3
,,0.034900958756517136,0.005773004352725744,0.00033416018855958555,0.041008123297802464,6.046609306381744,0.8510742738228989,0.1407770921581068,-5.154562648923762,57.4
,,0.034900958756517136,0.005773004352725744,0.00033416018855958555,0.041008123297802464,6.028979442019199,0.8510742738228989,0.1407770921581068,-5.154562648923762,57.5
,,0.034900958756517136,0.005773004352725744,0.00033416018855958555,0.041008123297802464,6.013569356937482,0.8510742738228989,0.1407770921581068,-5.154562648923762,57.6
,,0.035450865383427135,0.005089355893477995,0.00035854058026501916,0.04089876185717015,6.008383080977068,0.8667955647956145,0.12443789646374726,-5.280603999948035,57.7
,,0.035450865383427135,0.005089355893477995,0.00035854058026501916,0.04089876185717015,6.003196805016655,0.8667955647956145,0.12443789646374726,-5.280603999948035,57.8
,,0.035450865383427135,0.005089355893477995,0.00035854058026501916,0.04089876185717015,5.99801052905624,0.8667955647956145,0.12443789646374726,-5.280603999948035,57.9
,,0.035450865383427135,0.005089355893477995,0.00035854058026501916,0.04089876185717015,5.992824253095828,0.8667955647956145,0.12443789646374726,-5.280603999948035,58.0
,,0.03531648450034993,0.006044490311297582,0.0003467940584816523,0.04170776887012917,6.00732507516803,0.8467603388308639,0.1449248059784518,-5.108608114219106,58.1
,,0.03531648450034993,0.006044490311297582,0.0003467940584816523,0.04170776887012917,6.02182589724023,0.8467603388308639,0.1449248059784518,-5.108608114219106,58.2
,,0.03531648450034993,0.006044490311297582,0.0003467940584816523,0.04170776887012917,6.004883952046886,0.8467603388308639,0.1449248059784518,-5.108608114219106,58.3
,,0.03531648450034993,0.006044490311297582,0.0003467940584816523,0.04170776887012917,5.987942006853542,0.8467603388308639,0.1449248059784518,-5.108608114219106,58.4
,,0.03586934524086751,0.0063151253263577095,0.0004023071360780594,0.042586777703303276,5.969190660201442,0.8422648337182195,0.14828840468641213,-5.06480767755591,58.5
,,0.03586934524086751,0.0063151253263577095,0.0004023071360780594,0.042586777703303276,5.950439313549344,0.8422648337182195,0.14828840468641213,-5.06480767755591,58.6
,,0.03586934524086751,0.0063151253263577095,0.0004023071360780594,0.042586777703303276,5.931687966897244,0.8422648337182195,0.14828840468641213,-5.06480767755591,58.7
,,0.035615819696448295,0.0063861986315915205,0.0003604723646583703,0.042362490692698186,5.94412640013117,0.8407395106866844,0.15075125487586777,-5.053616080946602,58.8
,,0.035615819696448295,0.0063861986315915205,0.0003604723646583703,0.042362490692698186,5.956564833365096,0.8407395106866844,0.15075125487586777,-5.053616080946602,58.9
,,0.035615819696448295,0.0063861986315915205,0.0003604723646583703,0.042362490692698186,5.968597341519392,0.8407395106866844,0.15075125487586777,-5.053616080946602,59.0
,,0.035615819696448295,0.0063861986315915205,0.0003604723646583703,0.042362490692698186,5.98062984967369,0.8407395106866844,0.15075125487586777,-5.053616080946602,59.1
,,0.03600981815256937,0.005896285632140643,0.00039782098230816136,0.04230392476701818,5.998553528937766,0.85121695802192,0.13937916315361884,-5.133432680197182,59.2
,,0.03600981815256937,0.005896285632140643,0.00039782098230816136,0.04230392476701818,6.016477208201841,0.85121695802192,0.13937916315361884,-5.133432680197182,59.3
,,0.03600981815256937,0.005896285632140643,0.00039782098230816136,0.04230392476701818,6.0344008874659165,0.85121695802192,0.13937916315361884,-5.133432680197182,59.4
,,0.03577808766818386,0.006016278923364262,0.0003609048755630135,0.042155271467111136,6.05109305549028,0.8487215577794903,0.14271711968592268,-5.113286329818222,59.5
,,0.03577808766818386,0.006016278923364262,0.0003609048755630135,0.042155271467111136,6.067785223514641,0.8487215577794903,0.14271711968592268,-5.113286329818222,59.6
,,0.03577808766818386,0.006016278923364262,0.0003609048755630135,0.042155271467111136,6.050528068872885,0.8487215577794903,0.14271711968592268,-5.113286329818222,59.7
,,0.03577808766818386,0.006016278923364262,0.0003609048755630135,0.042155271467111136,6.033270914231129,0.8487215577794903,0.14271711968592268,-5.113286329818222,59.8
,,0.03577808766818386,0.006016278923364262,0.0003609048755630135,0.042155271467111136,6.016013759589373,0.8487215577794903,0.14271711968592268,-5.113286329818222,59.9
,,0.03586100995043879,0.007065729381695442,0.0004417978045672889,0.04336853713670152,5.989072878000519,0.8268900063979947,0.1629229355701722,-4.952499029434774,60.0
,,0.03586100995043879,0.007065729381695442,0.0004417978045672889,0.04336853713670152,5.962131996411664,0.8268900063979947,0.1629229355701722,-4.952499029434774,60.1
,,0.03560322809471607,0.0071978194429082,0.00042217812910074376,0.04322322566672501,5.933758297543588,0.8237059484925224,0.16652666088383525,-4.933977153981649,60.2
,,0.03560322809471607,0.0071978194429082,0.00042217812910074376,0.04322322566672501,5.9373734447392055,0.8237059484925224,0.16652666088383525,-4.933977153981649,60.3
,,0.03560322809471607,0.0071978194429082,0.00042217812910074376,0.04322322566672501,5.940988591934822,0.8237059484925224,0.16652666088383525,-4.933977153981649,60.4
,,0.03560322809471607,0.0071978194429082,0.00042217812910074376,0.04322322566672501,5.944603739130439,0.8237059484925224,0.16652666088383525,-4.933977153981649,60.5
,,0.03560322809471607,0.0071978194429082,0.00042217812910074376,0.04322322566672501,5.948218886326057,0.8237059484925224,0.16652666088383525,-4.933977153981649,60.6
,,0.03560322809471607,0.0071978194429082,0.00042217812910074376,0.04322322566672501,5.951834033521673,0.8237059484925224,0.16652666088383525,-4.933977153981649,60.7
,,0.03545246013196424,0.007438649229566542,0.0004657574944486101,0.0433568668559794,5.9534446259029465,0.8176896234160184,0.1715679607171769,-4.901066001786058,60.8
,,0.0352902102251169,0.006910723076897628,0.00042898338775607917,0.042629916689770606,5.958318752509379,0.82782733266718,0.16210970167239178,-4.974681004579097,60.9
,,0.0352902102251169,0.006910723076897628,0.00042898338775607917,0.042629916689770606,5.961506811244946,0.82782733266718,0.16210970167239178,-4.974681004579097,61.0
,,0.0352902102251169,0.006910723076897628,0.00042898338775607917,0.042629916689770606,5.964694869980513,0.82782733266718,0.16210970167239178,-4.974681004579097,61.1
,,0.0352902102251169,0.006910723076897628,0.00042898338775607917,0.042629916689770606,5.96788292871608,0.82782733266718,0.16210970167239178,-4.974681004579097,61.2
,,0.0352902102251169,0.006910723076897628,0.00042898338775607917,0.042629916689770606,5.971070987451648,0.82782733266718,0.16210970167239178,-4.974681004579097,61.3
,,0.0352902102251169,0.006910723076897628,0.00042898338775607917,0.042629916689770606,5.974259046187217,0.82782733266718,0.16210970167239178,-4.974681004579097,61.4
,,0.0352902102251169,0.006910723076897628,0.00042898338775607917,0.042629916689770606,5.977447104922784,0.82782733266718,0.16210970167239178,-4.974681004579097,61.5
,,0.03208994155001253,0.007371782462741059,0.000434545319678665,0.03989626933243226,5.971250232060682,0.8043343923369334,0.1847737291253052,-4.910095748190921,61.6
,,0.03208994155001253,0.007371782462741059,0.000434545319678665,0.03989626933243226,5.965053359198583,0.8043343923369334,0.1847737291253052,-4.910095748190921,61.7
,,0.03208994155001253,0.007371782462741059,0.000434545319678665,0.03989626933243226,5.95675057901714,0.8043343923369334,0.1847737291253052,-4.910095748190921,61.8
,,0.03208994155001253,0.007371782462741059,0.000434545319678665,0.03989626933243226,5.948447798835697,0.8043343923369334,0.1847737291253052,-4.910095748190921,61.9
,,0.03208994155001253,0.007371782462741059,0.000434545319678665,0.03989626933243226,5.940145018654254,0.8043343923369334,0.1847737291253052,-4.910095748190921,62.0
,,0.03208994155001253,0.007371782462741059,0.000434545319678665,0.03989626933243226,5.931842238472813,0.8043343923369334,0.1847737291253052,-4.910095748190921,62.1
,,0.03208994155001253,0.007371782462741059,0.000434545319678665,0.03989626933243226,5.92353945829137,0.8043343923369334,0.1847737291253052,-4.910095748190921,62.2
,,0.02918615083603179,0.007130941004849995,0.0004186902870601492,0.03673578212794193,5.910984499495935,0.7944883474750427,0.19411431012996092,-4.943312075024463,62.3
,,0.02918615083603179,0.007130941004849995,0.0004186902870601492,0.03673578212794193,5.898449929521275,0.7944883474750427,0.19411431012996092,-4.943312075024463,62.4
,,0.02918615083603179,0.007130941004849995,0.0004186902870601492,0.03673578212794193,5.885894970725839,0.7944883474750427,0.19411431012996092,-4.943312075024463,62.5
,,0.02918615083603179,0.007130941004849995,0.0004186902870601492,0.03673578212794193,5.871226711339611,0.7944883474750427,0.19411431012996092,-4.943312075024463,62.6
,,0.02918615083603179,0.007130941004849995,0.0004186902870601492,0.03673578212794193,5.856495323376282,0.7944883474750427,0.19411431012996092,-4.943312075024463,62.7
,,0.02918615083603179,0.007130941004849995,0.0004186902870601492,0.03673578212794193,5.8417639354129545,0.7944883474750427,0.19411431012996092,-4.943312075024463,62.8
,,0.02918615083603179,0.007130941004849995,0.0004186902870601492,0.03673578212794193,5.827032547449627,0.7944883474750427,0.19411431012996092,-4.943312075024463,62.9
,,0.026217342470198697,0.006785686000974014,0.0003957987371180253,0.03339882720829073,5.808300605915208,0.7849779367010425,0.20317138558953876,-4.9929398852830555,63.0
,,0.026217342470198697,0.006785686000974014,0.0003957987371180253,0.03339882720829073,5.7895686643807895,0.7849779367010425,0.20317138558953876,-4.9929398852830555,63.1
,,0.026217342470198697,0.006785686000974014,0.0003957987371180253,0.03339882720829073,5.77083672284637,0.7849779367010425,0.20317138558953876,-4.9929398852830555,63.2
,,0.026217342470198697,0.006785686000974014,0.0003957987371180253,0.03339882720829073,5.752104781311953,0.7849779367010425,0.20317138558953876,-4.9929398852830555,63.3
,,0.026217342470198697,0.006785686000974014,0.0003957987371180253,0.03339882720829073,5.731432020152236,0.7849779367010425,0.20317138558953876,-4.9929398852830555,63.4
,,0.026217342470198697,0.006785686000974014,0.0003957987371180253,0.03339882720829073,5.710759258992521,0.7849779367010425,0.20317138558953876,-4.9929398852830555,63.5
,,0.026217342470198697,0.006785686000974014,0.0003957987371180253,0.03339882720829073,5.690086497832804,0.7849779367010425,0.20317138558953876,-4.9929398852830555,63.6
,,0.02650836906603823,0.00687548147718883,0.00044178892671012864,0.03382563946993719,5.66812878382701,0.7836768049750473,0.2032624241531182,-4.979793604836053,63.7
,,0.02380573018407522,0.006455771812557476,0.0003387288623641199,0.030600230858996817,5.644306792782686,0.7779591694510392,0.21097134339623472,-5.042780693658117,63.8
,,0.02380573018407522,0.006455771812557476,0.0003387288623641199,0.030600230858996817,5.620484801738361,0.7779591694510392,0.21097134339623472,-5.042780693658117,63.9
,,0.02380573018407522,0.006455771812557476,0.0003387288623641199,0.030600230858996817,5.596662810694037,0.7779591694510392,0.21097134339623472,-5.042780693658117,64.0
,,0.02380573018407522,0.006455771812557476,0.0003387288623641199,0.030600230858996817,5.572840819649712,0.7779591694510392,0.21097134339623472,-5.042780693658117,64.1
,,0.02380573018407522,0.006455771812557476,0.0003387288623641199,0.030600230858996817,5.547491615472461,0.7779591694510392,0.21097134339623472,-5.042780693658117,64.2
,,0.02380573018407522,0.006455771812557476,0.0003387288623641199,0.030600230858996817,5.522142411295211,0.7779591694510392,0.21097134339623472,-5.042780693658117,64.3
,,0.023376056751508674,0.006406558191367911,0.0003869145266905548,0.03016952946956714,5.473845621662719,0.7748233785047515,0.21235194263902551,-5.05043309587976,64.4
,,0.023376056751508674,0.006406558191367911,0.0003869145266905548,0.03016952946956714,5.425548832030229,0.7748233785047515,0.21235194263902551,-5.05043309587976,64.5
,,0.021880181879961682,0.006381885815079329,0.00034379457204278057,0.028605862267083792,5.374804401113419,0.7648845427441906,0.22309713147234303,-5.054291643000445,64.6
,,0.021880181879961682,0.006381885815079329,0.00034379457204278057,0.028605862267083792,5.32405997019661,0.7648845427441906,0.22309713147234303,-5.054291643000445,64.7
,,0.021880181879961682,0.006381885815079329,0.00034379457204278057,0.028605862267083792,5.2733155392798,0.7648845427441906,0.22309713147234303,-5.054291643000445,64.8
,,0.021880181879961682,0.006381885815079329,0.00034379457204278057,0.028605862267083792,5.243451436392104,0.7648845427441906,0.22309713147234303,-5.054291643000445,64.9
,,0.021880181879961682,0.006381885815079329,0.00034379457204278057,0.028605862267083792,5.213587333504407,0.7648845427441906,0.22309713147234303,-5.054291643000445,65.0
,,0.021880181879961682,0.006381885815079329,0.00034379457204278057,0.028605862267083792,5.16582806832082,0.7648845427441906,0.22309713147234303,-5.054291643000445,65.1
,,0.021898540095506878,0.006125380058420349,0.0003617394904242427,0.02838565964435147,5.1196973345304775,0.7714649005828026,0.21579135856507226,-5.0953144741220475,65.2
,,0.020036607947891895,0.006253094943717782,0.0003226746953151323,0.02661237758692481,5.06944682881276,0.7529055937390682,0.23496942064996296,-5.074678746805581,65.3
,,0.020036607947891895,0.006253094943717782,0.0003226746953151323,0.02661237758692481,5.0191963230950405,0.7529055937390682,0.23496942064996296,-5.074678746805581,65.4
,,0.020036607947891895,0.006253094943717782,0.0003226746953151323,0.02661237758692481,4.968945817377323,0.7529055937390682,0.23496942064996296,-5.074678746805581,65.5
,,0.020036607947891895,0.006253094943717782,0.0003226746953151323,0.02661237758692481,4.918695311659605,0.7529055937390682,0.23496942064996296,-5.074678746805581,65.6
,,0.020036607947891895,0.006253094943717782,0.0003226746953151323,0.02661237758692481,4.886046564498813,0.7529055937390682,0.23496942064996296,-5.074678746805581,65.7
,,0.020036607947891895,0.006253094943717782,0.0003226746953151323,0.02661237758692481,4.853397817338022,0.7529055937390682,0.23496942064996296,-5.074678746805581,65.8
,,0.021214948289552674,0.005924032146383447,0.0003374185332127823,0.027476398969148903,4.811246949089424,0.7721153093377804,0.215604386624138,-5.1287379561255,65.9
,,0.021214948289552674,0.005924032146383447,0.0003374185332127823,0.027476398969148903,4.769096080840825,0.7721153093377804,0.215604386624138,-5.1287379561255,66.0
,,0.020712003213303368,0.005770586198084139,0.000269898221112058,0.026752487632499565,4.727034882832261,0.7742084959658827,0.21570278911460525,-5.154981609500427,66.1
,,0.020712003213303368,0.005770586198084139,0.000269898221112058,0.026752487632499565,4.684973684823697,0.7742084959658827,0.21570278911460525,-5.154981609500427,66.2
,,0.020712003213303368,0.005770586198084139,0.000269898221112058,0.026752487632499565,4.642912486815134,0.7742084959658827,0.21570278911460525,-5.154981609500427,66.3
,,0.020712003213303368,0.005770586198084139,0.000269898221112058,0.026752487632499565,4.615620176788098,0.7742084959658827,0.21570278911460525,-5.154981609500427,66.4
,,0.020712003213303368,0.005770586198084139,0.000269898221112058,0.026752487632499565,4.588327866761061,0.7742084959658827,0.21570278911460525,-5.154981609500427,66.5
,,0.018858699148093953,0.0062690549323582015,0.0003480064018134184,0.02547576048226557,4.554579813798752,0.7402604982576301,0.24607920681002932,-5.072129664189504,66.6
,,0.018858699148093953,0.0062690549323582015,0.0003480064018134184,0.02547576048226557,4.510607951715139,0.7402604982576301,0.24607920681002932,-5.072129664189504,66.7
,,0.018628534792384622,0.0062347695160472226,0.0002794052612861666,0.02514270956971801,4.466409713508161,0.7409119824866016,0.2479752430325332,-5.077613666684609,66.8
,,0.018628534792384622,0.0062347695160472226,0.0002794052612861666,0.02514270956971801,4.4222114753011805,0.7409119824866016,0.2479752430325332,-5.077613666684609,66.9
,,0.018628534792384622,0.0062347695160472226,0.0002794052612861666,0.02514270956971801,4.378013237094201,0.7409119824866016,0.2479752430325332,-5.077613666684609,67.0
,,0.018628534792384622,0.0062347695160472226,0.0002794052612861666,0.02514270956971801,4.34629201681129,0.7409119824866016,0.2479752430325332,-5.077613666684609,67.1
,,0.018628534792384622,0.0062347695160472226,0.0002794052612861666,0.02514270956971801,4.314570796528378,0.7409119824866016,0.2479752430325332,-5.077613666684609,67.2
,,0.018628534792384622,0.0062347695160472226,0.0002794052612861666,0.02514270956971801,4.282849576245466,0.7409119824866016,0.2479752430325332,-5.077613666684609,67.3
,,0.022233402348066388,0.0058056878438082085,0.0002913134993310034,0.0283304036912056,4.260481057227723,0.7847894647180104,0.20492781914048142,-5.148917179239764,67.4
,,0.022233402348066388,0.0058056878438082085,0.0002913134993310034,0.0283304036912056,4.239921939668734,0.7847894647180104,0.20492781914048142,-5.148917179239764,67.5
,,0.022700048858426553,0.005779288570581243,0.0002636540603864319,0.028742991489394226,4.220454353798336,0.7897594398551926,0.20106774803568106,-5.153474688547917,67.6
,,0.022700048858426553,0.005779288570581243,0.0002636540603864319,0.028742991489394226,4.200986767927938,0.7897594398551926,0.20106774803568106,-5.153474688547917,67.7
,,0.022700048858426553,0.005779288570581243,0.0002636540603864319,0.028742991489394226,4.182662647102049,0.7897594398551926,0.20106774803568106,-5.153474688547917,67.8
,,0.022700048858426553,0.005779288570581243,0.0002636540603864319,0.028742991489394226,4.16433852627616,0.7897594398551926,0.20106774803568106,-5.153474688547917,67.9
,,0.022700048858426553,0.005779288570581243,0.0002636540603864319,0.028742991489394226,4.1460144054502726,0.7897594398551926,0.20106774803568106,-5.153474688547917,68.0
,,0.02396615699697553,0.00593987296704764,0.0002716119668585592,0.030177641930881727,4.1288787880107725,0.7941693075909357,0.19683025534772422,-5.126067531855184,68.1
,,0.02396615699697553,0.00593987296704764,0.0002716119668585592,0.030177641930881727,4.1058519994614935,0.7941693075909357,0.19683025534772422,-5.126067531855184,68.2
,,0.024879007618586673,0.005993065685780079,0.00024526011583565175,0.031117333420202405,4.084119723709411,0.7995224810116408,0.19259573450111833,-5.117152197148987,68.3
,,0.024879007618586673,0.005993065685780079,0.00024526011583565175,0.031117333420202405,4.062387447957328,0.7995224810116408,0.19259573450111833,-5.117152197148987,68.4
,,0.024879007618586673,0.005993065685780079,0.00024526011583565175,0.031117333420202405,4.042436550110715,0.7995224810116408,0.19259573450111833,-5.117152197148987,68.5
,,0.024879007618586673,0.005993065685780079,0.00024526011583565175,0.031117333420202405,4.022485652264101,0.7995224810116408,0.19259573450111833,-5.117152197148987,68.6
,,0.026192240923745974,0.006194405713641948,0.0002541421535853009,0.03264078879097323,4.003391101740986,0.8024389695811949,0.18977500063831187,-5.084108698503908,68.7
,,0.014265282703292151,0.006237583326253788,0.00025595485858177536,0.020758820888127714,3.9627256451646127,0.687191376628269,0.3004786909559568,-5.077162459075287,68.8
,,0.014265282703292151,0.006237583326253788,0.00025595485858177536,0.020758820888127714,3.9220601885882402,0.687191376628269,0.3004786909559568,-5.077162459075287,68.9
,,0.027738110840514498,0.0063696403477969225,0.00023132740086040306,0.034339078589171824,3.914053443938898,0.8077709705717376,0.18549246542117376,-5.056212271306464,69.0
,,0.027738110840514498,0.0063696403477969225,0.00023132740086040306,0.034339078589171824,3.906046699289557,0.8077709705717376,0.18549246542117376,-5.056212271306464,69.1
,,0.027738110840514498,0.0063696403477969225,0.00023132740086040306,0.034339078589171824,3.8994727719194366,0.8077709705717376,0.18549246542117376,-5.056212271306464,69.2
,,0.027738110840514498,0.0063696403477969225,0.00023132740086040306,0.034339078589171824,3.892898844549317,0.8077709705717376,0.18549246542117376,-5.056212271306464,69.3
,,0.027738110840514498,0.0063696403477969225,0.00023132740086040306,0.034339078589171824,3.8863249171791963,0.8077709705717376,0.18549246542117376,-5.056212271306464,69.4
,,0.029619769048856225,0.006719406042961551,0.0002465666259099189,0.036585741717727695,3.8803438339837992,0.809598703161016,0.1836618783023237,-5.002755514817448,69.5
,,0.029619769048856225,0.006719406042961551,0.0002465666259099189,0.036585741717727695,3.874362750788402,0.809598703161016,0.1836618783023237,-5.002755514817448,69.6
,,0.026381847246619294,0.007867251997185572,0.00023004392475084852,0.03447914316855572,3.8566625764158555,0.7651537950826749,0.22817423155574082,-4.845046451964808,69.7
,,0.026381847246619294,0.007867251997185572,0.00023004392475084852,0.03447914316855572,3.8409669568576525,0.7651537950826749,0.22817423155574082,-4.845046451964808,69.8
,,0.026381847246619294,0.007867251997185572,0.00023004392475084852,0.03447914316855572,3.821486822477874,0.7651537950826749,0.22817423155574082,-4.845046451964808,69.9
,,0.026381847246619294,0.007867251997185572,0.00023004392475084852,0.03447914316855572,3.8020066880980954,0.7651537950826749,0.22817423155574082,-4.845046451964808,70.0
,,0.026381847246619294,0.007867251997185572,0.00023004392475084852,0.03447914316855572,3.782526553718317,0.7651537950826749,0.22817423155574082,-4.845046451964808,70.1
,,0.026381847246619294,0.007867251997185572,0.00023004392475084852,0.03447914316855572,3.7630464193385382,0.7651537950826749,0.22817423155574082,-4.845046451964808,70.2
,,0.03315239616105753,0.007346860415190532,0.0002436236424313111,0.04074288021867937,3.7564449790553547,0.8136979021394312,0.1803225588313273,-4.913482211409665,70.3
,,0.03460776612386364,0.007545988405040019,0.00022067153980752377,0.04237442606871118,3.7506634201015263,0.8167135070513117,0.17807883445557496,-4.8867391940115645,70.4
,,0.03460776612386364,0.007545988405040019,0.00022067153980752377,0.04237442606871118,3.7448818611476975,0.8167135070513117,0.17807883445557496,-4.8867391940115645,70.5
,,0.03460776612386364,0.007545988405040019,0.00022067153980752377,0.04237442606871118,3.7474726307708206,0.8167135070513117,0.17807883445557496,-4.8867391940115645,70.6
,,0.03460776612386364,0.007545988405040019,0.00022067153980752377,0.04237442606871118,3.7500634003939437,0.8167135070513117,0.17807883445557496,-4.8867391940115645,70.7
,,0.03460776612386364,0.007545988405040019,0.00022067153980752377,0.04237442606871118,3.7526541700170664,0.8167135070513117,0.17807883445557496,-4.8867391940115645,70.8
,,0.03460776612386364,0.007545988405040019,0.00022067153980752377,0.04237442606871118,3.7552449396401895,0.8167135070513117,0.17807883445557496,-4.8867391940115645,70.9
,,0.0370701855728969,0.008080663796206684,0.00021851482012097005,0.045369364189224555,3.7578498253754358,0.8170752717249067,0.17810837644768848,-4.818281256827629,71.0
,,0.0370701855728969,0.008080663796206684,0.00021851482012097005,0.045369364189224555,3.760454711110682,0.8170752717249067,0.17810837644768848,-4.818281256827629,71.1
,,0.0370701855728969,0.008080663796206684,0.00021851482012097005,0.045369364189224555,3.7630595968459284,0.8170752717249067,0.17810837644768848,-4.818281256827629,71.2
,,0.0370701855728969,0.008080663796206684,0.00021851482012097005,0.045369364189224555,3.7685554663827157,0.8170752717249067,0.17810837644768848,-4.818281256827629,71.3
,,0.0370701855728969,0.008080663796206684,0.00021851482012097005,0.045369364189224555,3.774051335919503,0.8170752717249067,0.17810837644768848,-4.818281256827629,71.4
,,0.0370701855728969,0.008080663796206684,0.00021851482012097005,0.045369364189224555,3.77954720545629,0.8170752717249067,0.17810837644768848,-4.818281256827629,71.5
,,0.0370701855728969,0.008080663796206684,0.00021851482012097005,0.045369364189224555,3.7850430749930775,0.8170752717249067,0.17810837644768848,-4.818281256827629,71.6
,,0.03974282806049795,0.008794269679366324,0.0002283151388982438,0.048765412878762515,3.789779565066795,0.8149798333360584,0.18033825943871493,-4.733654942402348,71.7
,,0.03974282806049795,0.008794269679366324,0.0002283151388982438,0.048765412878762515,3.794516055140512,0.8149798333360584,0.18033825943871493,-4.733654942402348,71.8
,,0.03974282806049795,0.008794269679366324,0.0002283151388982438,0.048765412878762515,3.799252545214228,0.8149798333360584,0.18033825943871493,-4.733654942402348,71.9
,,0.03974282806049795,0.008794269679366324,0.0002283151388982438,0.048765412878762515,3.8065364202743472,0.8149798333360584,0.18033825943871493,-4.733654942402348,72.0
