HRV_ULF,HRV_VLF,HRV_LF,HRV_HF,HRV_VHF,HRV_TP,HRV_LFHF,HRV_LFn,HRV_HFn,HRV_LnHF,time
,,0.03691600908022668,0.013364517034268601,0.0006798235062631189,0.0509603496207584,2.7622404150908384,0.724406511237693,0.26225324460538324,-4.315152066649615,0.0
,,0.039505233345338,0.014015115516134255,0.0009006261641875955,0.05442097502565985,2.7904997199675403,0.7259192494568688,0.2575315034235611,-4.267618852077965,0.1
,,0.039505233345338,0.014015115516134255,0.0009006261641875955,0.05442097502565985,2.7999194882597744,0.7259192494568688,0.2575315034235611,-4.267618852077965,0.2
,,0.04329476812866363,0.014433845076639558,0.0008385629457222459,0.058567176151025434,2.849822407280312,0.7392326380397904,0.2464493941012186,-4.238179477614019,0.3
,,0.04329476812866363,0.014433845076639558,0.0008385629457222459,0.058567176151025434,2.879764158692635,0.7392326380397904,0.2464493941012186,-4.238179477614019,0.4
,,0.04329476812866363,0.014433845076639558,0.0008385629457222459,0.058567176151025434,2.89972532630085,0.7392326380397904,0.2464493941012186,-4.238179477614019,0.5
,,0.04329476812866363,0.014433845076639558,0.0008385629457222459,0.058567176151025434,2.913983303163861,0.7392326380397904,0.2464493941012186,-4.238179477614019,0.6
,,0.04329476812866363,0.014433845076639558,0.0008385629457222459,0.058567176151025434,2.924676785811119,0.7392326380397904,0.2464493941012186,-4.238179477614019,0.7
,,0.04558758504514138,0.014813136293170978,0.0010880198197685464,0.0614887411580809,2.941658328849388,0.7413972734933804,0.24090810795895148,-4.212240904508397,0.8
,,0.04558758504514138,0.014813136293170978,0.0010880198197685464,0.0614887411580809,2.9552435632800034,0.7413972734933804,0.24090810795895148,-4.212240904508397,0.9
,,0.04558758504514138,0.014813136293170978,0.0010880198197685464,0.0614887411580809,2.96635875508687,0.7413972734933804,0.24090810795895148,-4.212240904508397,1.0
,,0.028734533686463434,0.013969180283841852,0.0009402523402455846,0.04364396631055087,2.89057844030472,0.6583850212421436,0.32007128280787855,-4.2709017843251695,1.1
,,0.028734533686463434,0.013969180283841852,0.0009402523402455846,0.04364396631055087,2.826456635489054,0.6583850212421436,0.32007128280787855,-4.2709017843251695,1.2
,,0.028734533686463434,0.013969180283841852,0.0009402523402455846,0.04364396631055087,2.771495088504198,0.6583850212421436,0.32007128280787855,-4.2709017843251695,1.3
,,0.028734533686463434,0.013969180283841852,0.0009402523402455846,0.04364396631055087,2.7238617477839893,0.6583850212421436,0.32007128280787855,-4.2709017843251695,1.4
,,0.045604220076913206,0.013588514000326303,0.0011275455537533203,0.06032027963099283,2.7633757565545163,0.7560346264290452,0.22527272889737174,-4.29853040188038,1.5
,,0.04560399554298223,0.013527841511584983,0.0011417310618860462,0.060273568116453256,2.7991254982318856,0.7566168217363827,0.22444069489047228,-4.303005383038092,1.6
,,0.04560399554298223,0.013527841511584983,0.0011417310618860462,0.060273568116453256,2.8309030463895475,0.7566168217363827,0.22444069489047228,-4.303005383038092,1.7
,,0.04560399554298223,0.013527841511584983,0.0011417310618860462,0.060273568116453256,2.8593355894779813,0.7566168217363827,0.22444069489047228,-4.303005383038092,1.8
,,0.0433495090781293,0.00792564931693743,0.0006622804397172535,0.05193743883478399,2.9898448833492006,0.834648570485476,0.1525999258867843,-4.837651029838512,1.9
,,0.0433495090781293,0.00792564931693743,0.0006622804397172535,0.05193743883478399,3.1079247206612557,0.834648570485476,0.1525999258867843,-4.837651029838512,2.0
,,0.0433495090781293,0.00792564931693743,0.0006622804397172535,0.05193743883478399,3.2152700273085784,0.834648570485476,0.1525999258867843,-4.837651029838512,2.1
,,0.0433495090781293,0.00792564931693743,0.0006622804397172535,0.05193743883478399,3.31328095946483,0.834648570485476,0.1525999258867843,-4.837651029838512,2.2
,,0.0433495090781293,0.00792564931693743,0.0006622804397172535,0.05193743883478399,3.403124313941394,0.834648570485476,0.1525999258867843,-4.837651029838512,2.3
,,0.04395499530313068,0.007940826922560405,0.0007868797669215805,0.052682701992612664,3.4884120266457814,0.8343344900816626,0.1507293024506202,-4.835737862727767,2.4
,,0.04395499530313068,0.007940826922560405,0.0007868797669215805,0.052682701992612664,3.567139146065216,0.8343344900816626,0.1507293024506202,-4.835737862727767,2.5
,,0.04395499530313068,0.007940826922560405,0.0007868797669215805,0.052682701992612664,3.640034627009137,0.8343344900816626,0.1507293024506202,-4.835737862727767,2.6
,,0.029702203411019187,0.011687019463631472,0.001036542750981394,0.04242576562563206,3.6008001578765776,0.7000982297671071,0.2754698540212227,-4.449276500623804,2.7
,,0.029702203411019187,0.011687019463631472,0.001036542750981394,0.04242576562563206,3.5642715142014363,0.7000982297671071,0.2754698540212227,-4.449276500623804,2.8
,,0.029702203411019187,0.011687019463631472,0.001036542750981394,0.04242576562563206,3.530178113437971,0.7000982297671071,0.2754698540212227,-4.449276500623804,2.9
,,0.029702203411019187,0.011687019463631472,0.001036542750981394,0.04242576562563206,3.49828428691731,0.7000982297671071,0.2754698540212227,-4.449276500623804,3.0
,,0.029702203411019187,0.011687019463631472,0.001036542750981394,0.04242576562563206,3.46838382455419,0.7000982297671071,0.2754698540212227,-4.449276500623804,3.1
,,0.045237447969794564,0.011428881536995955,0.0012216195849910605,0.05788794909178158,3.4832258084908263,0.7814657226510202,0.1974311012275701,-4.471611659244556,3.2
,,0.045237447969794564,0.011428881536995955,0.0012216195849910605,0.05788794909178158,3.497194734548837,0.7814657226510202,0.1974311012275701,-4.471611659244556,3.3
,,0.045237447969794564,0.011428881536995955,0.0012216195849910605,0.05788794909178158,3.5103654362606753,0.7814657226510202,0.1974311012275701,-4.471611659244556,3.4
,,0.045182222606779524,0.010946738142110174,0.001082538130954015,0.05721149887984371,3.52750694886172,0.7897402356416457,0.19133807637343406,-4.514713753661924,3.5
,,0.045182222606779524,0.010946738142110174,0.001082538130954015,0.05721149887984371,3.54372189321406,0.7897402356416457,0.19133807637343406,-4.514713753661924,3.6
,,0.045182222606779524,0.010946738142110174,0.001082538130954015,0.05721149887984371,3.5590834194425924,0.7897402356416457,0.19133807637343406,-4.514713753661924,3.7
,,0.045182222606779524,0.010946738142110174,0.001082538130954015,0.05721149887984371,3.573657175095303,0.7897402356416457,0.19133807637343406,-4.514713753661924,3.8
,,0.045182222606779524,0.010946738142110174,0.001082538130954015,0.05721149887984371,3.5875022429653773,0.7897402356416457,0.19133807637343406,-4.514713753661924,3.9
,,0.044847498704634434,0.007637811110543626,0.0008337039720139076,0.05331901378719196,3.6432161819004025,0.841116433316467,0.14324741903569013,-4.874644220709325,4.0
,,0.044847498704634434,0.007637811110543626,0.0008337039720139076,0.05331901378719196,3.696277076124235,0.841116433316467,0.14324741903569013,-4.874644220709325,4.1
,,0.04522336887462463,0.01043874735766743,0.0011150324632342107,0.05677714869552627,3.711067379457366,0.7965065156255018,0.1838547302480152,-4.5622306886241635,4.2
,,0.04522336887462463,0.01043874735766743,0.0011150324632342107,0.05677714869552627,3.725185396275354,0.7965065156255018,0.1838547302480152,-4.5622306886241635,4.3
,,0.04522336887462463,0.01043874735766743,0.0011150324632342107,0.05677714869552627,3.7386759456792094,0.7965065156255018,0.1838547302480152,-4.5622306886241635,4.4
,,0.04522336887462463,0.01043874735766743,0.0011150324632342107,0.05677714869552627,3.75157994945681,0.7965065156255018,0.1838547302480152,-4.5622306886241635,4.5
,,0.04522336887462463,0.01043874735766743,0.0011150324632342107,0.05677714869552627,3.7639348466906832,0.7965065156255018,0.1838547302480152,-4.5622306886241635,4.6
,,0.045469876174560234,0.007773063699481575,0.0008601574842810186,0.054103097358322826,3.8073877123531648,0.8404301859728088,0.14367132528477733,-4.857090893800236,4.7
,,0.045469876174560234,0.007773063699481575,0.0008601574842810186,0.054103097358322826,3.849066991662075,0.8404301859728088,0.14367132528477733,-4.857090893800236,4.8
,,0.045469876174560234,0.007773063699481575,0.0008601574842810186,0.054103097358322826,3.889079099798629,0.8404301859728088,0.14367132528477733,-4.857090893800236,4.9
,,0.045208327084843215,0.010158487028696562,0.001135252278157509,0.05650206639169728,3.9000834548412935,0.8001181190691172,0.17978965509461978,-4.589445762419036,5.0
,,0.045208327084843215,0.010158487028696562,0.001135252278157509,0.05650206639169728,3.91066456545924,0.8001181190691172,0.17978965509461978,-4.589445762419036,5.1
,,0.045208327084843215,0.010158487028696562,0.001135252278157509,0.05650206639169728,3.920846388884056,0.8001181190691172,0.17978965509461978,-4.589445762419036,5.2
,,0.045208327084843215,0.010158487028696562,0.001135252278157509,0.05650206639169728,3.9306511077375834,0.8001181190691172,0.17978965509461978,-4.589445762419036,5.3
,,0.045208327084843215,0.010158487028696562,0.001135252278157509,0.05650206639169728,3.940099291360073,0.8001181190691172,0.17978965509461978,-4.589445762419036,5.4
,,0.04486905429410307,0.010193771247058014,0.0012736717805249807,0.056336497321686066,3.948340639562642,0.7964473552180046,0.18094435635305361,-4.585978407275061,5.5
,,0.04486905429410307,0.010193771247058014,0.0012736717805249807,0.056336497321686066,3.95629281765284,0.7964473552180046,0.18094435635305361,-4.585978407275061,5.6
,,0.04486905429410307,0.010193771247058014,0.0012736717805249807,0.056336497321686066,3.963970782705445,0.7964473552180046,0.18094435635305361,-4.585978407275061,5.7
,,0.04503814240181971,0.010067014816171132,0.0011355156540676255,0.056240672872058466,3.9726125140330915,0.8008108740853205,0.1789988330877996,-4.5984910594795885,5.8
,,0.04503814240181971,0.010067014816171132,0.0011355156540676255,0.056240672872058466,3.980966187649817,0.8008108740853205,0.1789988330877996,-4.5984910594795885,5.9
,,0.04503814240181971,0.010067014816171132,0.0011355156540676255,0.056240672872058466,3.9890459703282883,0.8008108740853205,0.1789988330877996,-4.5984910594795885,6.0
,,0.04503814240181971,0.010067014816171132,0.0011355156540676255,0.056240672872058466,3.996865114855842,0.8008108740853205,0.1789988330877996,-4.5984910594795885,6.1
,,0.04456975065401318,0.01021070091568159,0.0012594024050950506,0.05603985397478982,4.00270858971174,0.7953223909909437,0.1822042741273914,-4.584318999242019,6.2
,,0.04456975065401318,0.01021070091568159,0.0012594024050950506,0.05603985397478982,4.008369455978392,0.7953223909909437,0.1822042741273914,-4.584318999242019,6.3
,,0.04456975065401318,0.01021070091568159,0.0012594024050950506,0.05603985397478982,4.013856141744531,0.7953223909909437,0.1822042741273914,-4.584318999242019,6.4
,,0.04456975065401318,0.01021070091568159,0.0012594024050950506,0.05603985397478982,4.019176564305637,0.7953223909909437,0.1822042741273914,-4.584318999242019,6.5
,,0.04661787608241931,0.008527869022911852,0.0007853703975577448,0.05593111550288891,4.040778896802232,0.8334873292489838,0.15247092689348163,-4.764415770153156,6.6
,,0.04661787608241931,0.008527869022911852,0.0007853703975577448,0.05593111550288891,4.06174586657834,0.8334873292489838,0.15247092689348163,-4.764415770153156,6.7
,,0.04661787608241931,0.008527869022911852,0.0007853703975577448,0.05593111550288891,4.082105098100067,0.8334873292489838,0.15247092689348163,-4.764415770153156,6.8
,,0.044162034643002765,0.010426190599150125,0.0012274892875460185,0.05581571452969891,4.084299063149939,0.7912114897231074,0.1867966877608002,-4.563434311664809,6.9
,,0.044162034643002765,0.010426190599150125,0.0012274892875460185,0.05581571452969891,4.086431226367421,0.7912114897231074,0.1867966877608002,-4.563434311664809,7.0
,,0.044162034643002765,0.010426190599150125,0.0012274892875460185,0.05581571452969891,4.088504162828861,0.7912114897231074,0.1867966877608002,-4.563434311664809,7.1
,,0.044162034643002765,0.010426190599150125,0.0012274892875460185,0.05581571452969891,4.090520306510537,0.7912114897231074,0.1867966877608002,-4.563434311664809,7.2
,,0.044162034643002765,0.010426190599150125,0.0012274892875460185,0.05581571452969891,4.092481959822436,0.7912114897231074,0.1867966877608002,-4.563434311664809,7.3
,,0.044357537592607216,0.010444433160966982,0.0010778003215200739,0.055879771075094266,4.094542238602409,0.7938031373284825,0.18690901841618476,-4.561686154381885,7.4
,,0.044357537592607216,0.010444433160966982,0.0010778003215200739,0.055879771075094266,4.096548299519751,0.7938031373284825,0.18690901841618476,-4.561686154381885,7.5
,,0.044357537592607216,0.010444433160966982,0.0010778003215200739,0.055879771075094266,4.098502254958719,0.7938031373284825,0.18690901841618476,-4.561686154381885,7.6
,,0.027905430368689463,0.010843090586625382,0.0011795669454445436,0.039928087900759385,4.078951815099537,0.6988922294012164,0.27156548576970946,-4.524227214139331,7.7
,,0.027905430368689463,0.010843090586625382,0.0011795669454445436,0.039928087900759385,4.05989632308489,0.6988922294012164,0.27156548576970946,-4.524227214139331,7.8
,,0.027905430368689463,0.010843090586625382,0.0011795669454445436,0.039928087900759385,4.04131721837061,0.6988922294012164,0.27156548576970946,-4.524227214139331,7.9
,,0.027905430368689463,0.010843090586625382,0.0011795669454445436,0.039928087900759385,4.023196856982607,0.6988922294012164,0.27156548576970946,-4.524227214139331,8.0
,,0.02740618018471946,0.01094287496111205,0.0010271229901418846,0.03937617813597339,4.004675884822874,0.6960091477156757,0.2779059695261494,-4.515066722992174,8.1
,,0.02740618018471946,0.01094287496111205,0.0010271229901418846,0.03937617813597339,3.9866012011489182,0.6960091477156757,0.2779059695261494,-4.515066722992174,8.2
,,0.02740618018471946,0.01094287496111205,0.0010271229901418846,0.03937617813597339,3.9689568670862463,0.6960091477156757,0.2779059695261494,-4.515066722992174,8.3
,,0.02740618018471946,0.01094287496111205,0.0010271229901418846,0.03937617813597339,3.951727693825049,0.6960091477156757,0.2779059695261494,-4.515066722992174,8.4
,,0.04663856455934929,0.009876991105331762,0.0008913625525805199,0.05740691821726158,3.9606836569712045,0.8124206281696137,0.1720522789248399,-4.617547357600062,8.5
,,0.04663856455934929,0.009876991105331762,0.0008913625525805199,0.05740691821726158,3.9694337359071032,0.8124206281696137,0.1720522789248399,-4.617547357600062,8.6
,,0.04663856455934929,0.009876991105331762,0.0008913625525805199,0.05740691821726158,3.977984949412641,0.8124206281696137,0.1720522789248399,-4.617547357600062,8.7
,,0.04663856455934929,0.009876991105331762,0.0008913625525805199,0.05740691821726158,3.986344000816931,0.8124206281696137,0.1720522789248399,-4.617547357600062,8.8
,,0.043843935362893854,0.011676513981893972,0.0009698970958967894,0.05649034644068461,3.9837722038429413,0.7761314653810876,0.2066992808081717,-4.450175806584525,8.9
,,0.043843935362893854,0.011676513981893972,0.0009698970958967894,0.05649034644068461,3.994801557821464,0.7761314653810876,0.2066992808081717,-4.450175806584525,9.0
,,0.04351577739420971,0.012228537376899199,0.0010771936003368934,0.056821508371445804,4.003021380959212,0.7658328446641071,0.21520965788096427,-4.4039829294929955,9.1
,,0.043478232089579766,0.01234680549917228,0.0010756645409155273,0.05690070212966757,4.010828674974001,0.7641071280719849,0.21698863172260846,-4.394357913402096,9.2
,,0.043478232089579766,0.01234680549917228,0.0010756645409155273,0.05690070212966757,4.016627389661038,0.7641071280719849,0.21698863172260846,-4.394357913402096,9.3
,,0.043478232089579766,0.01234680549917228,0.0010756645409155273,0.05690070212966757,4.022426104348076,0.7641071280719849,0.21698863172260846,-4.394357913402096,9.4
,,0.043478232089579766,0.01234680549917228,0.0010756645409155273,0.05690070212966757,4.028224819035114,0.7641071280719849,0.21698863172260846,-4.394357913402096,9.5
,,0.04211361037497172,0.012110995297663341,0.0008767741757357535,0.055101379848370824,4.0335334042469775,0.7642932080986152,0.21979477339752002,-4.4136415367131905,9.6
,,0.04211361037497172,0.012110995297663341,0.0008767741757357535,0.055101379848370824,4.038841989458843,0.7642932080986152,0.21979477339752002,-4.4136415367131905,9.7
,,0.04211361037497172,0.012110995297663341,0.0008767741757357535,0.055101379848370824,4.043284135683889,0.7642932080986152,0.21979477339752002,-4.4136415367131905,9.8
,,0.04211361037497172,0.012110995297663341,0.0008767741757357535,0.055101379848370824,4.047726281908935,0.7642932080986152,0.21979477339752002,-4.4136415367131905,9.9
,,0.042121612625376476,0.012934954719303733,0.000990922187338784,0.05604748953201899,4.049714135296351,0.7515343323506596,0.2307856217523215,-4.347821963983922,10.0
,,0.042121612625376476,0.012934954719303733,0.000990922187338784,0.05604748953201899,4.063041051966594,0.7515343323506596,0.2307856217523215,-4.347821963983922,10.1
,,0.042121612625376476,0.012934954719303733,0.000990922187338784,0.05604748953201899,4.076367968636838,0.7515343323506596,0.2307856217523215,-4.347821963983922,10.2
,,0.02375914096277164,0.012547448001087425,0.0007878344232780803,0.03709442338713714,4.074551843195542,0.6405043883499307,0.33825699000994247,-4.378237980608951,10.3
,,0.02375914096277164,0.012547448001087425,0.0007878344232780803,0.03709442338713714,4.072735717754246,0.6405043883499307,0.33825699000994247,-4.378237980608951,10.4
,,0.02375914096277164,0.012547448001087425,0.0007878344232780803,0.03709442338713714,4.056485248863934,0.6405043883499307,0.33825699000994247,-4.378237980608951,10.5
,,0.02375914096277164,0.012547448001087425,0.0007878344232780803,0.03709442338713714,4.040067719118541,0.6405043883499307,0.33825699000994247,-4.378237980608951,10.6
,,0.02375914096277164,0.012547448001087425,0.0007878344232780803,0.03709442338713714,4.023650189373148,0.6405043883499307,0.33825699000994247,-4.378237980608951,10.7
,,0.04046061374571877,0.013419895243859475,0.0009080892757518124,0.05478859826533006,4.019692978629113,0.7384860176523632,0.24493956167430397,-4.311016953440792,10.8
,,0.04046061374571877,0.013419895243859475,0.0009080892757518124,0.05478859826533006,3.9924202111980494,0.7384860176523632,0.24493956167430397,-4.311016953440792,10.9
,,0.04046061374571877,0.013419895243859475,0.0009080892757518124,0.05478859826533006,3.9651474437669854,0.7384860176523632,0.24493956167430397,-4.311016953440792,11.0
,,0.03924751398686069,0.01317567012593682,0.000725866979987093,0.053149051092784595,3.9374726155975046,0.7384424214525412,0.24790038307429954,-4.329383322399497,11.1
,,0.03924751398686069,0.01317567012593682,0.000725866979987093,0.053149051092784595,3.909797787428025,0.7384424214525412,0.24790038307429954,-4.329383322399497,11.2
,,0.03924751398686069,0.01317567012593682,0.000725866979987093,0.053149051092784595,3.8821229592585453,0.7384424214525412,0.24790038307429954,-4.329383322399497,11.3
,,0.03924751398686069,0.01317567012593682,0.000725866979987093,0.053149051092784595,3.8537170681485238,0.7384424214525412,0.24790038307429954,-4.329383322399497,11.4
,,0.03962592401912054,0.014120031725522807,0.0008580318850190919,0.05460398762966244,3.8233953472548423,0.7256965239951562,0.2585897539441314,-4.260160800069508,11.5
,,0.03962592401912054,0.014120031725522807,0.0008580318850190919,0.05460398762966244,3.793073626361161,0.7256965239951562,0.2585897539441314,-4.260160800069508,11.6
,,0.03962592401912054,0.014120031725522807,0.0008580318850190919,0.05460398762966244,3.7960168792480755,0.7256965239951562,0.2585897539441314,-4.260160800069508,11.7
,,0.03893340333729889,0.0140064861742157,0.000692584393272619,0.0536324739047872,3.798663546738607,0.7259296560963546,0.26115681702621385,-4.268234758498069,11.8
,,0.03893340333729889,0.0140064861742157,0.000692584393272619,0.0536324739047872,3.8013102142291397,0.7259296560963546,0.26115681702621385,-4.268234758498069,11.9
,,0.03893340333729889,0.0140064861742157,0.000692584393272619,0.0536324739047872,3.8039568817196714,0.7259296560963546,0.26115681702621385,-4.268234758498069,12.0
,,0.03893340333729889,0.0140064861742157,0.000692584393272619,0.0536324739047872,3.806603549210204,0.7259296560963546,0.26115681702621385,-4.268234758498069,12.1
,,0.03893340333729889,0.0140064861742157,0.000692584393272619,0.0536324739047872,3.793509107776673,0.7259296560963546,0.26115681702621385,-4.268234758498069,12.2
,,0.03948003100423668,0.014991611598707318,0.0008371037790273218,0.05530874638197132,3.7787902797992716,0.7138117130983421,0.27105318018189706,-4.200264461058374,12.3
,,0.03948003100423668,0.014991611598707318,0.0008371037790273218,0.05530874638197132,3.76407145182187,0.7138117130983421,0.27105318018189706,-4.200264461058374,12.4
,,0.03948003100423668,0.014991611598707318,0.0008371037790273218,0.05530874638197132,3.7474716172285234,0.7138117130983421,0.27105318018189706,-4.200264461058374,12.5
,,0.039231083811368285,0.014977415433794475,0.0006840245975058465,0.05489252384266861,3.730714833771007,0.7146890152803195,0.27284982335157915,-4.201211850238494,12.6
,,0.039231083811368285,0.014977415433794475,0.0006840245975058465,0.05489252384266861,3.713958050313491,0.7146890152803195,0.27284982335157915,-4.201211850238494,12.7
,,0.039231083811368285,0.014977415433794475,0.0006840245975058465,0.05489252384266861,3.697201266855975,0.7146890152803195,0.27284982335157915,-4.201211850238494,12.8
,,0.039231083811368285,0.014977415433794475,0.0006840245975058465,0.05489252384266861,3.680444483398458,0.7146890152803195,0.27284982335157915,-4.201211850238494,12.9
,,0.03995646732900101,0.016006519370888834,0.0008439751046325855,0.05680696180452243,3.6429387982886303,0.7033727215775876,0.2817703827564062,-4.134759179051364,13.0
,,0.03995646732900101,0.016006519370888834,0.0008439751046325855,0.05680696180452243,3.605433113178802,0.7033727215775876,0.2817703827564062,-4.134759179051364,13.1
,,0.03995646732900101,0.016006519370888834,0.0008439751046325855,0.05680696180452243,3.5850331349562237,0.7033727215775876,0.2817703827564062,-4.134759179051364,13.2
,,0.04014311847438124,0.0161235844909868,0.0007012210542293582,0.056967924019597396,3.564560403353306,0.7046617752925612,0.28302917419704754,-4.127472203658193,13.3
,,0.04014311847438124,0.0161235844909868,0.0007012210542293582,0.056967924019597396,3.5440876717503884,0.7046617752925612,0.28302917419704754,-4.127472203658193,13.4
,,0.04014311847438124,0.0161235844909868,0.0007012210542293582,0.056967924019597396,3.5236149401474703,0.7046617752925612,0.28302917419704754,-4.127472203658193,13.5
,,0.04088862132438262,0.017023098489232825,0.0008665996598793414,0.05877831947349478,3.502167043344355,0.6956412107498368,0.28961526361619,-4.07318412250981,13.6
,,0.041024853312399974,0.01720693574609149,0.0008780591169863793,0.05910984817547785,3.4636618442626133,0.6940443019006,0.2911009971639534,-4.062442735390722,13.7
,,0.041024853312399974,0.01720693574609149,0.0008780591169863793,0.05910984817547785,3.4251566451808717,0.6940443019006,0.2911009971639534,-4.062442735390722,13.8
,,0.041024853312399974,0.01720693574609149,0.0008780591169863793,0.05910984817547785,3.3866514460991306,0.6940443019006,0.2911009971639534,-4.062442735390722,13.9
,,0.04162555890912822,0.0174210856513237,0.0007439478246673182,0.05979059238511923,3.3637522994300633,0.6961891034798987,0.2913683400076077,-4.050073987380108,14.0
,,0.04162555890912822,0.0174210856513237,0.0007439478246673182,0.05979059238511923,3.340853152760997,0.6961891034798987,0.2913683400076077,-4.050073987380108,14.1
,,0.04162555890912822,0.0174210856513237,0.0007439478246673182,0.05979059238511923,3.3179540060919295,0.6961891034798987,0.2913683400076077,-4.050073987380108,14.2
,,0.04162555890912822,0.0174210856513237,0.0007439478246673182,0.05979059238511923,3.2950548594228617,0.6961891034798987,0.2913683400076077,-4.050073987380108,14.3
,,0.04162555890912822,0.0174210856513237,0.0007439478246673182,0.05979059238511923,3.272155712753795,0.6961891034798987,0.2913683400076077,-4.050073987380108,14.4
,,0.04134966907954345,0.018060575444632878,0.0009156034987195437,0.060325848022895874,3.2486877593143517,0.6854386707311554,0.29938369764446954,-4.014023868564427,14.5
,,0.04134966907954345,0.018060575444632878,0.0009156034987195437,0.060325848022895874,3.225219805874909,0.6854386707311554,0.29938369764446954,-4.014023868564427,14.6
,,0.04070261340330212,0.01767666637560597,0.0008749942178307222,0.05925427399673881,3.2018976213398407,0.6869143887501225,0.29831884155021193,-4.035509792967022,14.7
,,0.04070261340330212,0.01767666637560597,0.0008749942178307222,0.05925427399673881,3.177773013023299,0.6869143887501225,0.29831884155021193,-4.035509792967022,14.8
,,0.04070261340330212,0.01767666637560597,0.0008749942178307222,0.05925427399673881,3.1536484047067574,0.6869143887501225,0.29831884155021193,-4.035509792967022,14.9
,,0.04070261340330212,0.01767666637560597,0.0008749942178307222,0.05925427399673881,3.129523796390216,0.6869143887501225,0.29831884155021193,-4.035509792967022,15.0
,,0.04070261340330212,0.01767666637560597,0.0008749942178307222,0.05925427399673881,3.1053991880736733,0.6869143887501225,0.29831884155021193,-4.035509792967022,15.1
,,0.04070261340330212,0.01767666637560597,0.0008749942178307222,0.05925427399673881,3.082483789760011,0.6869143887501225,0.29831884155021193,-4.035509792967022,15.2
,,0.03329286895397636,0.010186317969670506,0.0007977351561862471,0.04427692207983311,3.070299199415202,0.7519237424396382,0.23005930609413536,-4.586709834663875,15.3
,,0.03697170833703124,0.01660459486817884,0.0008405956779209108,0.054416898883131,3.0465390993586388,0.6794159368844944,0.3051367352601233,-4.0980758226336125,15.4
,,0.03692372169849597,0.01658289071691123,0.0008394941177206352,0.05434610653312784,3.02277922692404,0.6794179758947095,0.30513484359367626,-4.099383794839355,15.5
,,0.03692372169849597,0.01658289071691123,0.0008394941177206352,0.05434610653312784,2.986780145480551,0.6794179758947095,0.30513484359367626,-4.099383794839355,15.6
,,0.03692372169849597,0.01658289071691123,0.0008394941177206352,0.05434610653312784,2.950781064037062,0.6794179758947095,0.30513484359367626,-4.099383794839355,15.7
,,0.03692372169849597,0.01658289071691123,0.0008394941177206352,0.05434610653312784,2.9147819825935737,0.6794179758947095,0.30513484359367626,-4.099383794839355,15.8
,,0.03481801829997588,0.016174536354737448,0.0008529928153152291,0.05184554747002855,2.891637108455619,0.6715720056790578,0.3119754182186581,-4.1243171033189885,15.9
,,0.03397940810339457,0.0158822277030934,0.000844251364231825,0.0507058871707198,2.8683457577083837,0.6701274743303582,0.31322255835146146,-4.142554549431853,16.0
,,0.022300532182336456,0.015591782719223377,0.0008179761624180023,0.03871029106397784,2.837174558125922,0.5760879489508254,0.40278133516108927,-4.161011252275247,16.1
,,0.022300532182336456,0.015591782719223377,0.0008179761624180023,0.03871029106397784,2.80600335854346,0.5760879489508254,0.40278133516108927,-4.161011252275247,16.2
,,0.022300532182336456,0.015591782719223377,0.0008179761624180023,0.03871029106397784,2.774832158960998,0.5760879489508254,0.40278133516108927,-4.161011252275247,16.3
,,0.022300532182336456,0.015591782719223377,0.0008179761624180023,0.03871029106397784,2.7435351791926554,0.5760879489508254,0.40278133516108927,-4.161011252275247,16.4
,,0.022300532182336456,0.015591782719223377,0.0008179761624180023,0.03871029106397784,2.7122381994243128,0.5760879489508254,0.40278133516108927,-4.161011252275247,16.5
,,0.022300532182336456,0.015591782719223377,0.0008179761624180023,0.03871029106397784,2.6809412196559705,0.5760879489508254,0.40278133516108927,-4.161011252275247,16.6
,,0.022300532182336456,0.015591782719223377,0.0008179761624180023,0.03871029106397784,2.668237961247383,0.5760879489508254,0.40278133516108927,-4.161011252275247,16.7
,,0.03113624751388853,0.009257839454800403,0.00078577327819489,0.04117986024688382,2.6770119890201873,0.7561037683765498,0.22481473708986097,-4.682284577763385,16.8
,,0.03113624751388853,0.009257839454800403,0.00078577327819489,0.04117986024688382,2.6857860167929926,0.7561037683765498,0.22481473708986097,-4.682284577763385,16.9
,,0.03113624751388853,0.009257839454800403,0.00078577327819489,0.04117986024688382,2.6945600445657973,0.7561037683765498,0.22481473708986097,-4.682284577763385,17.0
,,0.03113624751388853,0.009257839454800403,0.00078577327819489,0.04117986024688382,2.7041017479614684,0.7561037683765498,0.22481473708986097,-4.682284577763385,17.1
,,0.03113624751388853,0.009257839454800403,0.00078577327819489,0.04117986024688382,2.7136434513571395,0.7561037683765498,0.22481473708986097,-4.682284577763385,17.2
,,0.03113624751388853,0.009257839454800403,0.00078577327819489,0.04117986024688382,2.7231851547528105,0.7561037683765498,0.22481473708986097,-4.682284577763385,17.3
,,0.03113624751388853,0.009257839454800403,0.00078577327819489,0.04117986024688382,2.732726858148482,0.7561037683765498,0.22481473708986097,-4.682284577763385,17.4
,,0.030979382030817626,0.014547812693781116,0.0007150027278293519,0.046242197452428094,2.703921822059625,0.6699374972975242,0.31460037574441085,-4.230314626989693,17.5
,,0.028251545209193204,0.013838525069134647,0.0008034984003020696,0.04289356867862992,2.674139307162271,0.6586429173301324,0.32262470797933773,-4.280298904620846,17.6
,,0.028251545209193204,0.013838525069134647,0.0008034984003020696,0.04289356867862992,2.644356792264917,0.6586429173301324,0.32262470797933773,-4.280298904620846,17.7
,,0.028251545209193204,0.013838525069134647,0.0008034984003020696,0.04289356867862992,2.614574277367563,0.6586429173301324,0.32262470797933773,-4.280298904620846,17.8
,,0.028251545209193204,0.013838525069134647,0.0008034984003020696,0.04289356867862992,2.595536854150615,0.6586429173301324,0.32262470797933773,-4.280298904620846,17.9
,,0.028251545209193204,0.013838525069134647,0.0008034984003020696,0.04289356867862992,2.576499430933667,0.6586429173301324,0.32262470797933773,-4.280298904620846,18.0
,,0.028251545209193204,0.013838525069134647,0.0008034984003020696,0.04289356867862992,2.5596435540046785,0.6586429173301324,0.32262470797933773,-4.280298904620846,18.1
,,0.02831918159382333,0.013694219790114733,0.0007200051174405884,0.04273340650137865,2.5434941158141036,0.6626942224442066,0.3204570127044034,-4.290781448308757,18.2
,,0.02831918159382333,0.013694219790114733,0.0007200051174405884,0.04273340650137865,2.5273446776235278,0.6626942224442066,0.3204570127044034,-4.290781448308757,18.3
,,0.025523051975141618,0.012898424856697064,0.0007979961429060859,0.03921947297474477,2.510204203079314,0.6507749859764075,0.3288780770971338,-4.350650079201838,18.4
,,0.025523051975141618,0.012898424856697064,0.0007979961429060859,0.03921947297474477,2.493063728535101,0.6507749859764075,0.3288780770971338,-4.350650079201838,18.5
,,0.025523051975141618,0.012898424856697064,0.0007979961429060859,0.03921947297474477,2.4764133834660607,0.6507749859764075,0.3288780770971338,-4.350650079201838,18.6
,,0.025523051975141618,0.012898424856697064,0.0007979961429060859,0.03921947297474477,2.4597630383970204,0.6507749859764075,0.3288780770971338,-4.350650079201838,18.7
,,0.025523051975141618,0.012898424856697064,0.0007979961429060859,0.03921947297474477,2.4431126933279805,0.6507749859764075,0.3288780770971338,-4.350650079201838,18.8
,,0.02551132686162736,0.012750392744016804,0.0007198686956679642,0.03898158830131213,2.426707392389348,0.6544455465599549,0.3270875636328964,-4.36219320439982,18.9
,,0.02551132686162736,0.012750392744016804,0.0007198686956679642,0.03898158830131213,2.412756384288346,0.6544455465599549,0.3270875636328964,-4.36219320439982,19.0
,,0.02551132686162736,0.012750392744016804,0.0007198686956679642,0.03898158830131213,2.398805376187344,0.6544455465599549,0.3270875636328964,-4.36219320439982,19.1
,,0.022778048930473877,0.01192269153054555,0.0007877567000769962,0.03548849716109642,2.383850501542024,0.641843153489291,0.335959324409363,-4.429311843291401,19.2
,,0.022778048930473877,0.01192269153054555,0.0007877567000769962,0.03548849716109642,2.3840386690082442,0.641843153489291,0.335959324409363,-4.429311843291401,19.3
,,0.022778048930473877,0.01192269153054555,0.0007877567000769962,0.03548849716109642,2.384226836474464,0.641843153489291,0.335959324409363,-4.429311843291401,19.4
,,0.022778048930473877,0.01192269153054555,0.0007877567000769962,0.03548849716109642,2.384415003940684,0.641843153489291,0.335959324409363,-4.429311843291401,19.5
,,0.022644885028706083,0.011761703157847301,0.0007120920934905273,0.03511868028004391,2.384767925479724,0.6448102505028919,0.3349130167778786,-4.4429065206504195,19.6
,,0.022644885028706083,0.011761703157847301,0.0007120920934905273,0.03511868028004391,2.385120847018764,0.6448102505028919,0.3349130167778786,-4.4429065206504195,19.7
,,0.022644885028706083,0.011761703157847301,0.0007120920934905273,0.03511868028004391,2.3730134495564466,0.6448102505028919,0.3349130167778786,-4.4429065206504195,19.8
,,0.022644885028706083,0.011761703157847301,0.0007120920934905273,0.03511868028004391,2.3609060520941285,0.6448102505028919,0.3349130167778786,-4.4429065206504195,19.9
,,0.022644885028706083,0.011761703157847301,0.0007120920934905273,0.03511868028004391,2.3487986546318105,0.6448102505028919,0.3349130167778786,-4.4429065206504195,20.0
,,0.020035275270141487,0.010901375779107918,0.0007664555438810182,0.03170310659313042,2.3361217629056017,0.631965678545926,0.34385828237634225,-4.518866279445112,20.1
,,0.020035275270141487,0.010901375779107918,0.0007664555438810182,0.03170310659313042,2.323444871179393,0.631965678545926,0.34385828237634225,-4.518866279445112,20.2
,,0.019893051222909304,0.010791300114244782,0.000694730154484231,0.031379081491638317,2.3108298403436494,0.633959003172552,0.3439010831824499,-4.529015014454998,20.3
,,0.019893051222909304,0.010791300114244782,0.000694730154484231,0.031379081491638317,2.298214809507905,0.633959003172552,0.3439010831824499,-4.529015014454998,20.4
,,0.019893051222909304,0.010791300114244782,0.000694730154484231,0.031379081491638317,2.287515608455821,0.633959003172552,0.3439010831824499,-4.529015014454998,20.5
,,0.019893051222909304,0.010791300114244782,0.000694730154484231,0.031379081491638317,2.2768164074037367,0.633959003172552,0.3439010831824499,-4.529015014454998,20.6
,,0.019893051222909304,0.010791300114244782,0.000694730154484231,0.031379081491638317,2.2661172063516526,0.633959003172552,0.3439010831824499,-4.529015014454998,20.7
,,0.018048360068097125,0.010203089323659835,0.0007502286028469965,0.029001677994603955,2.254886559032483,0.6223212350490616,0.3518103099261436,-4.585064729680634,20.8
,,0.012294671464340325,0.010005870169418027,0.0007425364776520361,0.023043078111410386,2.2376540733253325,0.5335516116769268,0.43422454765118196,-4.604583341273337,20.9
,,0.012294671464340325,0.010005870169418027,0.0007425364776520361,0.023043078111410386,2.2204215876181825,0.5335516116769268,0.43422454765118196,-4.604583341273337,21.0
,,0.017427489432100176,0.009966699624454765,0.0007205866148685865,0.028114775671423526,2.208964945255608,0.6198694108668936,0.35450041433498386,-4.608505780457592,21.1
,,0.017427489432100176,0.009966699624454765,0.0007205866148685865,0.028114775671423526,2.1975083028930333,0.6198694108668936,0.35450041433498386,-4.608505780457592,21.2
,,0.017427489432100176,0.009966699624454765,0.0007205866148685865,0.028114775671423526,2.1876760470743286,0.6198694108668936,0.35450041433498386,-4.608505780457592,21.3
,,0.017427489432100176,0.009966699624454765,0.0007205866148685865,0.028114775671423526,2.177843791255624,0.6198694108668936,0.35450041433498386,-4.608505780457592,21.4
,,0.017427489432100176,0.009966699624454765,0.0007205866148685865,0.028114775671423526,2.1680115354369196,0.6198694108668936,0.35450041433498386,-4.608505780457592,21.5
,,0.017427489432100176,0.009966699624454765,0.0007205866148685865,0.028114775671423526,2.1583362284823844,0.6198694108668936,0.35450041433498386,-4.608505780457592,21.6
,,0.017427489432100176,0.009966699624454765,0.0007205866148685865,0.028114775671423526,2.148660921527849,0.6198694108668936,0.35450041433498386,-4.608505780457592,21.7
,,0.015315965801409828,0.009290160659429725,0.0006873574526352316,0.025293483913474784,2.1378750648197635,0.6055300983369255,0.36729462383315686,-4.678799432502942,21.8
,,0.015315965801409828,0.009290160659429725,0.0006873574526352316,0.025293483913474784,2.127089208111678,0.6055300983369255,0.36729462383315686,-4.678799432502942,21.9
,,0.015315965801409828,0.009290160659429725,0.0006873574526352316,0.025293483913474784,2.117670988062536,0.6055300983369255,0.36729462383315686,-4.678799432502942,22.0
,,0.015315965801409828,0.009290160659429725,0.0006873574526352316,0.025293483913474784,2.1082527680133945,0.6055300983369255,0.36729462383315686,-4.678799432502942,22.1
,,0.015315965801409828,0.009290160659429725,0.0006873574526352316,0.025293483913474784,2.098834547964253,0.6055300983369255,0.36729462383315686,-4.678799432502942,22.2
,,0.015315965801409828,0.009290160659429725,0.0006873574526352316,0.025293483913474784,2.0894890812954516,0.6055300983369255,0.36729462383315686,-4.678799432502942,22.3
,,0.015315965801409828,0.009290160659429725,0.0006873574526352316,0.025293483913474784,2.0801436146266505,0.6055300983369255,0.36729462383315686,-4.678799432502942,22.4
,,0.014284938203289172,0.00901225227345844,0.0006890845146270974,0.02398627499137471,2.070091872859339,0.5955463367457403,0.3757253794805229,-4.709170263743746,22.5
,,0.013696417902339641,0.00886891204212862,0.000652908701781392,0.023218238646249653,2.0605626317386583,0.589899092304832,0.3819803981367544,-4.725203146087827,22.6
,,0.013696417902339641,0.00886891204212862,0.000652908701781392,0.023218238646249653,2.0512305564628144,0.589899092304832,0.3819803981367544,-4.725203146087827,22.7
,,0.013696417902339641,0.00886891204212862,0.000652908701781392,0.023218238646249653,2.0418984811869705,0.589899092304832,0.3819803981367544,-4.725203146087827,22.8
,,0.013696417902339641,0.00886891204212862,0.000652908701781392,0.023218238646249653,2.0325664059111266,0.589899092304832,0.3819803981367544,-4.725203146087827,22.9
,,0.013696417902339641,0.00886891204212862,0.000652908701781392,0.023218238646249653,2.023176847017223,0.589899092304832,0.3819803981367544,-4.725203146087827,23.0
,,0.013696417902339641,0.00886891204212862,0.000652908701781392,0.023218238646249653,2.0137872881233188,0.589899092304832,0.3819803981367544,-4.725203146087827,23.1
,,0.013696417902339641,0.00886891204212862,0.000652908701781392,0.023218238646249653,2.004397729229415,0.589899092304832,0.3819803981367544,-4.725203146087827,23.2
,,0.017308250041041223,0.007582228837231231,0.0004907849049078965,0.02538126378318035,2.0032128522079744,0.681930190273309,0.2987333058748564,-4.881948080698604,23.3
,,0.013388316703297591,0.008875349169462685,0.000579047378367429,0.022842713251127706,1.993425134119693,0.5861088635185067,0.38854181076867145,-4.724477601356526,23.4
,,0.016489975488958163,0.007291141751288795,0.0004647586229843501,0.02424587586323131,1.9931156472732718,0.6801146546314332,0.30071678137830266,-4.921095126392537,23.5
,,0.016489975488958163,0.007291141751288795,0.0004647586229843501,0.02424587586323131,1.9928061604268505,0.6801146546314332,0.30071678137830266,-4.921095126392537,23.6
,,0.016489975488958163,0.007291141751288795,0.0004647586229843501,0.02424587586323131,1.9923509046760541,0.6801146546314332,0.30071678137830266,-4.921095126392537,23.7
,,0.016489975488958163,0.007291141751288795,0.0004647586229843501,0.02424587586323131,1.9918956489252577,0.6801146546314332,0.30071678137830266,-4.921095126392537,23.8
,,0.016489975488958163,0.007291141751288795,0.0004647586229843501,0.02424587586323131,1.991440393174462,0.6801146546314332,0.30071678137830266,-4.921095126392537,23.9
,,0.012209292946058254,0.008655127819744889,0.0005438245597746921,0.02140824532557784,1.9815295545687948,0.5703079706149952,0.4042894542788165,-4.749603322150492,24.0
,,0.012209292946058254,0.008655127819744889,0.0005438245597746921,0.02140824532557784,1.971618715963128,0.5703079706149952,0.4042894542788165,-4.749603322150492,24.1
,,0.01174379694375943,0.008568779434114441,0.0005856838721505681,0.020898260250024437,1.961262216475806,0.561950937698065,0.4100235776374936,-4.7596299796060775,24.2
,,0.01174379694375943,0.008568779434114441,0.0005856838721505681,0.020898260250024437,1.9401749090196303,0.561950937698065,0.4100235776374936,-4.7596299796060775,24.3
,,0.01174379694375943,0.008568779434114441,0.0005856838721505681,0.020898260250024437,1.9306631112752088,0.561950937698065,0.4100235776374936,-4.7596299796060775,24.4
,,0.01174379694375943,0.008568779434114441,0.0005856838721505681,0.020898260250024437,1.9211510859088232,0.561950937698065,0.4100235776374936,-4.7596299796060775,24.5
,,0.01174379694375943,0.008568779434114441,0.0005856838721505681,0.020898260250024437,1.9116390605424378,0.561950937698065,0.4100235776374936,-4.7596299796060775,24.6
,,0.011566000259715995,0.008637250434035914,0.0005125653908154334,0.020715816084567344,1.901777594669992,0.5583173847701958,0.41693990711137874,-4.751670983615648,24.7
,,0.011566000259715995,0.008637250434035914,0.0005125653908154334,0.020715816084567344,1.8919161287975463,0.5583173847701958,0.41693990711137874,-4.751670983615648,24.8
,,0.011566000259715995,0.008637250434035914,0.0005125653908154334,0.020715816084567344,1.882876568841638,0.5583173847701958,0.41693990711137874,-4.751670983615648,24.9
,,0.011409767265803306,0.00864461970813377,0.000555434642606032,0.02060982161654311,1.873769992306973,0.5536082494108006,0.4194417530132769,-4.750818150619695,25.0
,,0.011409767265803306,0.00864461970813377,0.000555434642606032,0.02060982161654311,1.872543264607535,0.5536082494108006,0.4194417530132769,-4.750818150619695,25.1
,,0.011409767265803306,0.00864461970813377,0.000555434642606032,0.02060982161654311,1.871316536908097,0.5536082494108006,0.4194417530132769,-4.750818150619695,25.2
,,0.011409767265803306,0.00864461970813377,0.000555434642606032,0.02060982161654311,1.8700898092086593,0.5536082494108006,0.4194417530132769,-4.750818150619695,25.3
,,0.015468131496105613,0.008579533479725563,0.00034471868973401165,0.024392383665565186,1.8742302077548383,0.6341377582520575,0.35173001529314746,-4.758375739952889,25.4
,,0.015468131496105613,0.008579533479725563,0.00034471868973401165,0.024392383665565186,1.878370606301017,0.6341377582520575,0.35173001529314746,-4.758375739952889,25.5
,,0.015468131496105613,0.008579533479725563,0.00034471868973401165,0.024392383665565186,1.8825110048471958,0.6341377582520575,0.35173001529314746,-4.758375739952889,25.6
,,0.011310023457954314,0.008697201826691201,0.0005223798942368098,0.020529605178882325,1.8810681855181668,0.5509128577683663,0.42364194298473573,-4.74475393417129,25.7
,,0.011310023457954314,0.008697201826691201,0.0005223798942368098,0.020529605178882325,1.8581480800077455,0.5509128577683663,0.42364194298473573,-4.74475393417129,25.8
,,0.011310023457954314,0.008697201826691201,0.0005223798942368098,0.020529605178882325,1.8352279744973243,0.5509128577683663,0.42364194298473573,-4.74475393417129,25.9
,,0.011310023457954314,0.008697201826691201,0.0005223798942368098,0.020529605178882325,1.8123078689869025,0.5509128577683663,0.42364194298473573,-4.74475393417129,26.0
,,0.011341774643887326,0.008770782546699515,0.00045218444383411205,0.020564741634420954,1.7893067688996842,0.5515155427434904,0.42649612149851235,-4.736329246624466,26.1
,,0.011341774643887326,0.008770782546699515,0.00045218444383411205,0.020564741634420954,1.766305668812466,0.5515155427434904,0.42649612149851235,-4.736329246624466,26.2
,,0.011341774643887326,0.008770782546699515,0.00045218444383411205,0.020564741634420954,1.7433045687252477,0.5515155427434904,0.42649612149851235,-4.736329246624466,26.3
,,0.011341774643887326,0.008770782546699515,0.00045218444383411205,0.020564741634420954,1.7203034686380294,0.5515155427434904,0.42649612149851235,-4.736329246624466,26.4
,,0.01144336395757271,0.008728391841515293,0.0004908168043951981,0.0206625726034832,1.711209728548785,0.5538208710586038,0.4224252230839785,-4.741174136693377,26.5
,,0.01144336395757271,0.008728391841515293,0.0004908168043951981,0.0206625726034832,1.7030934672680376,0.5538208710586038,0.4224252230839785,-4.741174136693377,26.6
,,0.01144336395757271,0.008728391841515293,0.0004908168043951981,0.0206625726034832,1.69497720598729,0.5538208710586038,0.4224252230839785,-4.741174136693377,26.7
,,0.01613311096932041,0.01012328397911267,0.00041384297623017833,0.02667023792466326,1.6900010903443456,0.6049106503996106,0.3795723160666362,-4.592917163897921,26.8
,,0.01613311096932041,0.01012328397911267,0.00041384297623017833,0.02667023792466326,1.6850249747014017,0.6049106503996106,0.3795723160666362,-4.592917163897921,26.9
,,0.01613311096932041,0.01012328397911267,0.00041384297623017833,0.02667023792466326,1.680048859058458,0.6049106503996106,0.3795723160666362,-4.592917163897921,27.0
,,0.01613311096932041,0.01012328397911267,0.00041384297623017833,0.02667023792466326,1.675072743415514,0.6049106503996106,0.3795723160666362,-4.592917163897921,27.1
,,0.011724066182524463,0.008701506860008477,0.00046163086310506234,0.020887203905638,1.667066014516974,0.5613037645196652,0.41659510288304863,-4.744259066019561,27.2
,,0.011724066182524463,0.008701506860008477,0.00046163086310506234,0.020887203905638,1.6590592856184347,0.5613037645196652,0.41659510288304863,-4.744259066019561,27.3
,,0.011971035391928814,0.008791006971448178,0.0004524597388062924,0.021214502102183282,1.6522033273964174,0.564285474826054,0.41438667422430125,-4.734026015092345,27.4
,,0.011971035391928814,0.008791006971448178,0.0004524597388062924,0.021214502102183282,1.6453473691744003,0.564285474826054,0.41438667422430125,-4.734026015092345,27.5
,,0.011971035391928814,0.008791006971448178,0.0004524597388062924,0.021214502102183282,1.6384914109523832,0.564285474826054,0.41438667422430125,-4.734026015092345,27.6
,,0.011971035391928814,0.008791006971448178,0.0004524597388062924,0.021214502102183282,1.6316354527303658,0.564285474826054,0.41438667422430125,-4.734026015092345,27.7
,,0.011971035391928814,0.008791006971448178,0.0004524597388062924,0.021214502102183282,1.6247794945083487,0.564285474826054,0.41438667422430125,-4.734026015092345,27.8
,,0.01209766974155742,0.008594311820403999,0.00043404871072598786,0.021126030272687408,1.6181884952728975,0.572642829031528,0.4068114884562612,-4.756654710786982,27.9
,,0.01209766974155742,0.008594311820403999,0.00043404871072598786,0.021126030272687408,1.611597496037446,0.572642829031528,0.4068114884562612,-4.756654710786982,28.0
,,0.01244988484856958,0.008684462956695832,0.0004301787409497242,0.02156452654621514,1.6052947703026514,0.577331703614643,0.40271985281402206,-4.7462197169297236,28.1
,,0.01244988484856958,0.008684462956695832,0.0004301787409497242,0.02156452654621514,1.5999959111121742,0.577331703614643,0.40271985281402206,-4.7462197169297236,28.2
,,0.01244988484856958,0.008684462956695832,0.0004301787409497242,0.02156452654621514,1.5946970519216974,0.577331703614643,0.40271985281402206,-4.7462197169297236,28.3
,,0.01244988484856958,0.008684462956695832,0.0004301787409497242,0.02156452654621514,1.5893981927312204,0.577331703614643,0.40271985281402206,-4.7462197169297236,28.4
,,0.01244988484856958,0.008684462956695832,0.0004301787409497242,0.02156452654621514,1.5840993335407436,0.577331703614643,0.40271985281402206,-4.7462197169297236,28.5
,,0.01244988484856958,0.008684462956695832,0.0004301787409497242,0.02156452654621514,1.5786357202774466,0.577331703614643,0.40271985281402206,-4.7462197169297236,28.6
,,0.012543226461554322,0.00843568962887432,0.0004120139310652319,0.021390930021493875,1.5737647983800036,0.5863806037863117,0.39435824531229047,-4.7752838083091005,28.7
,,0.012915128108716417,0.008482660714417167,0.00041154180903456706,0.02180933063216815,1.5692895322523495,0.5921836083161106,0.38894640360513777,-4.769731114899206,28.8
,,0.012915128108716417,0.008482660714417167,0.00041154180903456706,0.02180933063216815,1.5648142661246953,0.5921836083161106,0.38894640360513777,-4.769731114899206,28.9
,,0.012915128108716417,0.008482660714417167,0.00041154180903456706,0.02180933063216815,1.560338999997041,0.5921836083161106,0.38894640360513777,-4.769731114899206,29.0
,,0.012915128108716417,0.008482660714417167,0.00041154180903456706,0.02180933063216815,1.5568352888716936,0.5921836083161106,0.38894640360513777,-4.769731114899206,29.1
,,0.012915128108716417,0.008482660714417167,0.00041154180903456706,0.02180933063216815,1.5533315777463466,0.5921836083161106,0.38894640360513777,-4.769731114899206,29.2
,,0.012915128108716417,0.008482660714417167,0.00041154180903456706,0.02180933063216815,1.549766005730535,0.5921836083161106,0.38894640360513777,-4.769731114899206,29.3
,,0.013403398547035083,0.008217737153881842,0.0003976965077687343,0.022018832208685658,1.5474059902632762,0.6087243147140161,0.3732140322428286,-4.8014603932278686,29.4
,,0.013403398547035083,0.008217737153881842,0.0003976965077687343,0.022018832208685658,1.5450459747960177,0.6087243147140161,0.3732140322428286,-4.8014603932278686,29.5
,,0.013403398547035083,0.008217737153881842,0.0003976965077687343,0.022018832208685658,1.5426859593287587,0.6087243147140161,0.3732140322428286,-4.8014603932278686,29.6
,,0.013403398547035083,0.008217737153881842,0.0003976965077687343,0.022018832208685658,1.5403259438615002,0.6087243147140161,0.3732140322428286,-4.8014603932278686,29.7
,,0.013403398547035083,0.008217737153881842,0.0003976965077687343,0.022018832208685658,1.538793960057709,0.6087243147140161,0.3732140322428286,-4.8014603932278686,29.8
,,0.013403398547035083,0.008217737153881842,0.0003976965077687343,0.022018832208685658,1.543263814641898,0.6087243147140161,0.3732140322428286,-4.8014603932278686,29.9
,,0.013403398547035083,0.008217737153881842,0.0003976965077687343,0.022018832208685658,1.5477336692260877,0.6087243147140161,0.3732140322428286,-4.8014603932278686,30.0
,,0.01390328816699123,0.007911376467078176,0.0003878991582928058,0.022202563792362212,1.5478315293576665,0.6262019241117562,0.3563271584788657,-4.839453496276104,30.1
,,0.01390328816699123,0.007911376467078176,0.0003878991582928058,0.022202563792362212,1.5479293894892459,0.6262019241117562,0.3563271584788657,-4.839453496276104,30.2
,,0.01390328816699123,0.007911376467078176,0.0003878991582928058,0.022202563792362212,1.548027249620825,0.6262019241117562,0.3563271584788657,-4.839453496276104,30.3
,,0.01390328816699123,0.007911376467078176,0.0003878991582928058,0.022202563792362212,1.5481251097524038,0.6262019241117562,0.3563271584788657,-4.839453496276104,30.4
,,0.01390328816699123,0.007911376467078176,0.0003878991582928058,0.022202563792362212,1.5482229698839827,0.6262019241117562,0.3563271584788657,-4.839453496276104,30.5
,,0.01390328816699123,0.007911376467078176,0.0003878991582928058,0.022202563792362212,1.548320830015562,0.6262019241117562,0.3563271584788657,-4.839453496276104,30.6
,,0.022232129288892517,0.016023762514865574,0.000630914509938381,0.03888680631369647,1.5443083383502565,0.5717139409584802,0.41206167422449874,-4.133682501318463,30.7
,,0.022232129288892517,0.016023762514865574,0.000630914509938381,0.03888680631369647,1.5414063964385014,0.5717139409584802,0.41206167422449874,-4.133682501318463,30.8
,,0.014341938040266677,0.007534307432901279,0.0003811426486202952,0.02225738812178825,1.5442389372258523,0.644367522450985,0.3385081570072357,-4.888288364478828,30.9
,,0.014341938040266677,0.007534307432901279,0.0003811426486202952,0.02225738812178825,1.547071478013203,0.644367522450985,0.3385081570072357,-4.888288364478828,31.0
,,0.014341938040266677,0.007534307432901279,0.0003811426486202952,0.02225738812178825,1.549904018800554,0.644367522450985,0.3385081570072357,-4.888288364478828,31.1
,,0.014341938040266677,0.007534307432901279,0.0003811426486202952,0.02225738812178825,1.5527365595879044,0.644367522450985,0.3385081570072357,-4.888288364478828,31.2
,,0.014341938040266677,0.007534307432901279,0.0003811426486202952,0.02225738812178825,1.5555691003752552,0.644367522450985,0.3385081570072357,-4.888288364478828,31.3
,,0.014729694507257056,0.007445569469389233,0.0003404232925746846,0.022515687269220975,1.5592323718909875,0.6541969752525654,0.3306836420475316,-4.900136125591506,31.4
,,0.014729694507257056,0.007445569469389233,0.0003404232925746846,0.022515687269220975,1.5636019185052297,0.6541969752525654,0.3306836420475316,-4.900136125591506,31.5
,,0.014700231984587541,0.007132117725015365,0.0003790816598143639,0.022211431369417268,1.5693442931803658,0.661831817143859,0.32110122064602814,-4.943147072525305,31.6
,,0.014700231984587541,0.007132117725015365,0.0003790816598143639,0.022211431369417268,1.5750866678555016,0.661831817143859,0.32110122064602814,-4.943147072525305,31.7
,,0.014700231984587541,0.007132117725015365,0.0003790816598143639,0.022211431369417268,1.5808290425306375,0.661831817143859,0.32110122064602814,-4.943147072525305,31.8
,,0.014700231984587541,0.007132117725015365,0.0003790816598143639,0.022211431369417268,1.5865714172057734,0.661831817143859,0.32110122064602814,-4.943147072525305,31.9
,,0.014700231984587541,0.007132117725015365,0.0003790816598143639,0.022211431369417268,1.5923137918809094,0.661831817143859,0.32110122064602814,-4.943147072525305,32.0
,,0.024276490318533003,0.018600314171765078,0.0008764084859309866,0.04375321297622907,1.5896565463223902,0.5548504593644886,0.4251188177167822,-3.9845768074505203,32.1
,,0.024276490318533003,0.018600314171765078,0.0008764084859309866,0.04375321297622907,1.5869993007638707,0.5548504593644886,0.4251188177167822,-3.9845768074505203,32.2
,,0.015003763400149979,0.006680600555225243,0.00038075224616119304,0.022065116201536415,1.5865896494183243,0.679976632033565,0.3027675220110586,-5.008547391997825,32.3
,,0.015003763400149979,0.006680600555225243,0.00038075224616119304,0.022065116201536415,1.5947828391396184,0.679976632033565,0.3027675220110586,-5.008547391997825,32.4
,,0.015003763400149979,0.006680600555225243,0.00038075224616119304,0.022065116201536415,1.5946075645702118,0.679976632033565,0.3027675220110586,-5.008547391997825,32.5
,,0.015003763400149979,0.006680600555225243,0.00038075224616119304,0.022065116201536415,1.5944322900008059,0.679976632033565,0.3027675220110586,-5.008547391997825,32.6
,,0.015003763400149979,0.006680600555225243,0.00038075224616119304,0.022065116201536415,1.5942570154313995,0.679976632033565,0.3027675220110586,-5.008547391997825,32.7
,,0.015158979193682405,0.006420537811931524,0.0003362142038067783,0.021915731209420707,1.5953611127887466,0.691693973102123,0.2929648000597666,-5.048253393459992,32.8
,,0.015158979193682405,0.006420537811931524,0.0003362142038067783,0.021915731209420707,1.5964652101460928,0.691693973102123,0.2929648000597666,-5.048253393459992,32.9
,,0.015158979193682405,0.006420537811931524,0.0003362142038067783,0.021915731209420707,1.6070248903583104,0.691693973102123,0.2929648000597666,-5.048253393459992,33.0
,,0.015331742196856245,0.006228883761211854,0.0003888050077270026,0.021949430965795103,1.6186999137757292,0.6985029461924761,0.28378338239923556,-5.078558133790995,33.1
,,0.015331742196856245,0.006228883761211854,0.0003888050077270026,0.021949430965795103,1.6308205980748034,0.6985029461924761,0.28378338239923556,-5.078558133790995,33.2
,,0.015331742196856245,0.006228883761211854,0.0003888050077270026,0.021949430965795103,1.6429412823738776,0.6985029461924761,0.28378338239923556,-5.078558133790995,33.3
,,0.015331742196856245,0.006228883761211854,0.0003888050077270026,0.021949430965795103,1.6550619666729518,0.6985029461924761,0.28378338239923556,-5.078558133790995,33.4
,,0.015346013580091432,0.0058903175335505865,0.00033992984969833826,0.021576260963340355,1.668781539573554,0.7112452711878777,0.27299992077212387,-5.134445372151973,33.5
,,0.015346013580091432,0.0058903175335505865,0.00033992984969833826,0.021576260963340355,1.6825011124741562,0.7112452711878777,0.27299992077212387,-5.134445372151973,33.6
,,0.015346013580091432,0.0058903175335505865,0.00033992984969833826,0.021576260963340355,1.6965701258808183,0.7112452711878777,0.27299992077212387,-5.134445372151973,33.7
,,0.015600947564844314,0.00579928773688474,0.0003982251774480882,0.021798460479177145,1.7115819628088897,0.7156903387625484,0.2660411611372499,-5.15002017295618,33.8
,,0.015346013580091432,0.0058903175335505865,0.00033992984969833826,0.021576260963340355,1.7256509762155519,0.7112452711878777,0.27299992077212387,-5.134445372151973,33.9
,,0.015846544304091596,0.005857386180622537,0.00040564297550141327,0.022109573460215547,1.7410457092996827,0.7167277257793425,0.2649253361292766,-5.140051819162914,34.0
,,0.015846544304091596,0.005857386180622537,0.00040564297550141327,0.022109573460215547,1.7564404423838136,0.7167277257793425,0.2649253361292766,-5.140051819162914,34.1
,,0.015846544304091596,0.005857386180622537,0.00040564297550141327,0.022109573460215547,1.771835175467944,0.7167277257793425,0.2649253361292766,-5.140051819162914,34.2
,,0.015869274091368513,0.005537551908752352,0.00035374191235672345,0.021760567912477588,1.789011698486689,0.729267460077134,0.25447644248186646,-5.1962027696137625,34.3
,,0.015869274091368513,0.005537551908752352,0.00035374191235672345,0.021760567912477588,1.8008210952598174,0.729267460077134,0.25447644248186646,-5.1962027696137625,34.4
,,0.015869274091368513,0.005537551908752352,0.00035374191235672345,0.021760567912477588,1.8126304920329457,0.729267460077134,0.25447644248186646,-5.1962027696137625,34.5
,,0.016130964584563673,0.005482812628115309,0.0004177005261988226,0.022031477738877807,1.8252881151092333,0.7321780579474338,0.24886268152771585,-5.206137056385926,34.6
,,0.018504167532654707,0.017036496700804916,0.0012644590198605558,0.03680512325332018,1.8229073115462582,0.5027606457203061,0.46288383776212616,-4.072397371393807,34.7
,,0.018504167532654707,0.017036496700804916,0.0012644590198605558,0.03680512325332018,1.820526507983283,0.5027606457203061,0.46288383776212616,-4.072397371393807,34.8
,,0.018504167532654707,0.017036496700804916,0.0012644590198605558,0.03680512325332018,1.818145704420308,0.5027606457203061,0.46288383776212616,-4.072397371393807,34.9
,,0.016441585190707642,0.005257426737655323,0.00037034491001958485,0.022069356838382553,1.8384444335632761,0.7449961188770481,0.23822292494322803,-5.248113585309936,35.0
,,0.016441585190707642,0.005257426737655323,0.00037034491001958485,0.022069356838382553,1.8588241572830413,0.7449961188770481,0.23822292494322803,-5.248113585309936,35.1
,,0.016441585190707642,0.005257426737655323,0.00037034491001958485,0.022069356838382553,1.879203881002806,0.7449961188770481,0.23822292494322803,-5.248113585309936,35.2
,,0.016441585190707642,0.005257426737655323,0.00037034491001958485,0.022069356838382553,1.8995836047225712,0.7449961188770481,0.23822292494322803,-5.248113585309936,35.3
,,0.016441585190707642,0.005257426737655323,0.00037034491001958485,0.022069356838382553,1.9199633284423363,0.7449961188770481,0.23822292494322803,-5.248113585309936,35.4
,,0.016844612241973814,0.01593515793809495,0.001288830256368791,0.03406860043643756,1.9171413453091948,0.4944321758506379,0.46773738087144145,-4.139227419765974,35.5
,,0.016844612241973814,0.01593515793809495,0.001288830256368791,0.03406860043643756,1.9143193621760537,0.4944321758506379,0.46773738087144145,-4.139227419765974,35.6
,,0.016844612241973814,0.01593515793809495,0.001288830256368791,0.03406860043643756,1.9114973790429126,0.4944321758506379,0.46773738087144145,-4.139227419765974,35.7
,,0.01630326606445372,0.014969753034653486,0.0011526202920294334,0.03242563939113664,1.9058908981599283,0.502789347275296,0.4616640817496225,-4.20172357803782,35.8
,,0.01630326606445372,0.014969753034653486,0.0011526202920294334,0.03242563939113664,1.9002844172769437,0.502789347275296,0.4616640817496225,-4.20172357803782,35.9
,,0.01630326606445372,0.014969753034653486,0.0011526202920294334,0.03242563939113664,1.894677936393959,0.502789347275296,0.4616640817496225,-4.20172357803782,36.0
,,0.01630326606445372,0.014969753034653486,0.0011526202920294334,0.03242563939113664,1.8890714555109744,0.502789347275296,0.4616640817496225,-4.20172357803782,36.1
,,0.017467311172037515,0.0051763686526231775,0.00047480545223346174,0.023118485276894155,1.9115944880944151,0.7555560393697279,0.22390604707120307,-5.263651500860925,36.2
,,0.017467311172037515,0.0051763686526231775,0.00047480545223346174,0.023118485276894155,1.9341175206778556,0.7555560393697279,0.22390604707120307,-5.263651500860925,36.3
,,0.017467311172037515,0.0051763686526231775,0.00047480545223346174,0.023118485276894155,1.9564808189384115,0.7555560393697279,0.22390604707120307,-5.263651500860925,36.4
,,0.017688119971878153,0.004989982959056372,0.0004746206419659578,0.023152723572900484,1.9807362521529415,0.7639757765942287,0.215524663581998,-5.300322784243304,36.5
,,0.017688119971878153,0.004989982959056372,0.0004746206419659578,0.023152723572900484,2.0049916853674716,0.7639757765942287,0.215524663581998,-5.300322784243304,36.6
,,0.017688119971878153,0.004989982959056372,0.0004746206419659578,0.023152723572900484,2.029247118582002,0.7639757765942287,0.215524663581998,-5.300322784243304,36.7
,,0.017688119971878153,0.004989982959056372,0.0004746206419659578,0.023152723572900484,2.0535025517965315,0.7639757765942287,0.215524663581998,-5.300322784243304,36.8
,,0.017688119971878153,0.004989982959056372,0.0004746206419659578,0.023152723572900484,2.0772479818940877,0.7639757765942287,0.215524663581998,-5.300322784243304,36.9
,,0.01021904962571722,0.005264689700484742,0.0005105454958119154,0.015994284822013878,2.0831748450123206,0.638918822531667,0.32916068202303356,-5.24673307141321,37.0
,,0.018609507384911614,0.005135009143659498,0.0005101656034073678,0.02425468213197848,2.107513335957767,0.7672542267777647,0.21171207751633517,-5.271673654948966,37.1
,,0.018609507384911614,0.005135009143659498,0.0005101656034073678,0.02425468213197848,2.131851826903213,0.7672542267777647,0.21171207751633517,-5.271673654948966,37.2
,,0.018609507384911614,0.005135009143659498,0.0005101656034073678,0.02425468213197848,2.1561903178486594,0.7672542267777647,0.21171207751633517,-5.271673654948966,37.3
,,0.018609507384911614,0.005135009143659498,0.0005101656034073678,0.02425468213197848,2.1805288087941053,0.7672542267777647,0.21171207751633517,-5.271673654948966,37.4
,,0.018609507384911614,0.005135009143659498,0.0005101656034073678,0.02425468213197848,2.2048672997395515,0.7672542267777647,0.21171207751633517,-5.271673654948966,37.5
,,0.018609507384911614,0.005135009143659498,0.0005101656034073678,0.02425468213197848,2.229205790684998,0.7672542267777647,0.21171207751633517,-5.271673654948966,37.6
,,0.019430640229504418,0.005570117394525643,0.0005513184791944439,0.025552076103224505,2.251444102975742,0.7604329351168612,0.21799079542592356,-5.190339149048592,37.7
,,0.019831011475089408,0.005549327679931521,0.0005546442357838299,0.02593498339080476,2.2742336079282923,0.7646433073144164,0.21397074354398984,-5.194078497312762,37.8
,,0.019831011475089408,0.005549327679931521,0.0005546442357838299,0.02593498339080476,2.2970231128808427,0.7646433073144164,0.21397074354398984,-5.194078497312762,37.9
,,0.019831011475089408,0.005549327679931521,0.0005546442357838299,0.02593498339080476,2.3198126178333927,0.7646433073144164,0.21397074354398984,-5.194078497312762,38.0
,,0.019831011475089408,0.005549327679931521,0.0005546442357838299,0.02593498339080476,2.3426021227859426,0.7646433073144164,0.21397074354398984,-5.194078497312762,38.1
,,0.019831011475089408,0.005549327679931521,0.0005546442357838299,0.02593498339080476,2.3653916277384925,0.7646433073144164,0.21397074354398984,-5.194078497312762,38.2
,,0.019831011475089408,0.005549327679931521,0.0005546442357838299,0.02593498339080476,2.3881811326910425,0.7646433073144164,0.21397074354398984,-5.194078497312762,38.3
,,0.020557401139072798,0.006054504732785653,0.0005909397772603438,0.027202845649118797,2.4077850952120152,0.7557077448527423,0.22256880073801327,-5.106952700072966,38.4
,,0.02034311469393422,0.005601865021979388,0.00048079423860905194,0.026425773954522662,2.4300123936355242,0.7698209607386951,0.211984898970978,-5.184655697047248,38.5
,,0.021497790537042545,0.0063503741460715435,0.0006119765288225533,0.02846014121193664,2.4495040224968756,0.7553648584156015,0.2231322079107638,-5.0592415471721015,38.6
,,0.021497790537042545,0.0063503741460715435,0.0006119765288225533,0.02846014121193664,2.4689956513582265,0.7553648584156015,0.2231322079107638,-5.0592415471721015,38.7
,,0.021497790537042545,0.0063503741460715435,0.0006119765288225533,0.02846014121193664,2.488487280219578,0.7553648584156015,0.2231322079107638,-5.0592415471721015,38.8
,,0.021497790537042545,0.0063503741460715435,0.0006119765288225533,0.02846014121193664,2.5079789090809292,0.7553648584156015,0.2231322079107638,-5.0592415471721015,38.9
,,0.021497790537042545,0.0063503741460715435,0.0006119765288225533,0.02846014121193664,2.52747053794228,0.7553648584156015,0.2231322079107638,-5.0592415471721015,39.0
,,0.021497790537042545,0.0063503741460715435,0.0006119765288225533,0.02846014121193664,2.545558317911666,0.7553648584156015,0.2231322079107638,-5.0592415471721015,39.1
,,0.013662121227869056,0.011967141204322544,0.0008862527999131514,0.026515515232104752,2.538716729061283,0.5152500755982701,0.45132599157767206,-4.425590617984935,39.2
,,0.023395872119128695,0.007502752562469338,0.0006705536202441273,0.03156917830184216,2.5538381291419143,0.7410985454050755,0.2376606857084883,-4.892485317441711,39.3
,,0.023395872119128695,0.007502752562469338,0.0006705536202441273,0.03156917830184216,2.5689595292225453,0.7410985454050755,0.2376606857084883,-4.892485317441711,39.4
,,0.023395872119128695,0.007502752562469338,0.0006705536202441273,0.03156917830184216,2.5840809293031772,0.7410985454050755,0.2376606857084883,-4.892485317441711,39.5
,,0.023395872119128695,0.007502752562469338,0.0006705536202441273,0.03156917830184216,2.5992023293838082,0.7410985454050755,0.2376606857084883,-4.892485317441711,39.6
,,0.023395872119128695,0.007502752562469338,0.0006705536202441273,0.03156917830184216,2.6184340812613245,0.7410985454050755,0.2376606857084883,-4.892485317441711,39.7
,,0.023395872119128695,0.007502752562469338,0.0006705536202441273,0.03156917830184216,2.6376658331388403,0.7410985454050755,0.2376606857084883,-4.892485317441711,39.8
,,0.024184133291793905,0.007807074125201596,0.0005749344222298254,0.03256614183922533,2.6509343833549495,0.7426158557924278,0.23972978327442268,-4.852725017178978,39.9
,,0.024184133291793905,0.007807074125201596,0.0005749344222298254,0.03256614183922533,2.664202933571058,0.7426158557924278,0.23972978327442268,-4.852725017178978,40.0
,,0.01485273005182631,0.012123117123212446,0.0009125477221499753,0.027888394897188733,2.656665230619657,0.5325774432907047,0.4347011424610352,-4.412641143024366,40.1
,,0.01485273005182631,0.012123117123212446,0.0009125477221499753,0.027888394897188733,2.6491275276682558,0.5325774432907047,0.4347011424610352,-4.412641143024366,40.2
,,0.01485273005182631,0.012123117123212446,0.0009125477221499753,0.027888394897188733,2.641589824716855,0.5325774432907047,0.4347011424610352,-4.412641143024366,40.3
,,0.01485273005182631,0.012123117123212446,0.0009125477221499753,0.027888394897188733,2.633221391037072,0.5325774432907047,0.4347011424610352,-4.412641143024366,40.4
,,0.02632505552638188,0.0094602977508852,0.000617476435007457,0.036402829712274536,2.6421588480357503,0.7231595932089155,0.25987808710638005,-4.6606514216900745,40.5
,,0.02632505552638188,0.0094602977508852,0.000617476435007457,0.036402829712274536,2.650176141527103,0.7231595932089155,0.25987808710638005,-4.6606514216900745,40.6
,,0.02632505552638188,0.0094602977508852,0.000617476435007457,0.036402829712274536,2.658193435018456,0.7231595932089155,0.25987808710638005,-4.6606514216900745,40.7
,,0.02632505552638188,0.0094602977508852,0.000617476435007457,0.036402829712274536,2.6662107285098084,0.7231595932089155,0.25987808710638005,-4.6606514216900745,40.8
,,0.027466280469485533,0.010904622814669777,0.0007672943124198998,0.039138197596575205,2.6712956460317394,0.7017768358318314,0.278618420987889,-4.51856846821928,40.9
,,0.027466280469485533,0.010904622814669777,0.0007672943124198998,0.039138197596575205,2.6763805635536704,0.7017768358318314,0.278618420987889,-4.51856846821928,41.0
,,0.027466280469485533,0.010904622814669777,0.0007672943124198998,0.039138197596575205,2.689865101309256,0.7017768358318314,0.278618420987889,-4.51856846821928,41.1
,,0.028722255887201006,0.011623108322968097,0.0006589372188430751,0.04100430142901217,2.7028203035114466,0.7004693382455448,0.2834607082159504,-4.4547600656558215,41.2
,,0.028722255887201006,0.011623108322968097,0.0006589372188430751,0.04100430142901217,2.7053232296282013,0.7004693382455448,0.2834607082159504,-4.4547600656558215,41.3
,,0.028722255887201006,0.011623108322968097,0.0006589372188430751,0.04100430142901217,2.707826155744956,0.7004693382455448,0.2834607082159504,-4.4547600656558215,41.4
,,0.028722255887201006,0.011623108322968097,0.0006589372188430751,0.04100430142901217,2.7103290818617105,0.7004693382455448,0.2834607082159504,-4.4547600656558215,41.5
,,0.029711278885577105,0.013241064518358072,0.0008065286479533756,0.04375887205188855,2.710306897767428,0.6789772563229225,0.3025915408115875,-4.324432330016641,41.6
,,0.029711278885577105,0.013241064518358072,0.0008065286479533756,0.04375887205188855,2.7102847136731456,0.6789772563229225,0.3025915408115875,-4.324432330016641,41.7
,,0.029711278885577105,0.013241064518358072,0.0008065286479533756,0.04375887205188855,2.7089831576521104,0.6789772563229225,0.3025915408115875,-4.324432330016641,41.8
,,0.030048596106371308,0.01364219570129686,0.0006699462250803824,0.04436073803274855,2.7072232438698713,0.6773691655938738,0.3075286008818371,-4.294587664353542,41.9
,,0.030048596106371308,0.01364219570129686,0.0006699462250803824,0.04436073803274855,2.7054633300876327,0.6773691655938738,0.3075286008818371,-4.294587664353542,42.0
,,0.030048596106371308,0.01364219570129686,0.0006699462250803824,0.04436073803274855,2.702588073100192,0.6773691655938738,0.3075286008818371,-4.294587664353542,42.1
,,0.030048596106371308,0.01364219570129686,0.0006699462250803824,0.04436073803274855,2.6997128161127515,0.6773691655938738,0.3075286008818371,-4.294587664353542,42.2
,,0.030048596106371308,0.01364219570129686,0.0006699462250803824,0.04436073803274855,2.696837559125311,0.6773691655938738,0.3075286008818371,-4.294587664353542,42.3
,,0.03079851468239072,0.015279507505667688,0.000805432997387058,0.04688345518544546,2.691885111923623,0.6569164870756333,0.3259040411000056,-4.181242727067673,42.4
,,0.03079851468239072,0.015279507505667688,0.000805432997387058,0.04688345518544546,2.685333776120407,0.6569164870756333,0.3259040411000056,-4.181242727067673,42.5
,,0.03060476661993222,0.015461234842977208,0.0006588174402478283,0.04672481890315726,2.678379963312122,0.6550002191204686,0.33089983451883365,-4.169419365598782,42.6
,,0.03060476661993222,0.015461234842977208,0.0006588174402478283,0.04672481890315726,2.671426150503837,0.6550002191204686,0.33089983451883365,-4.169419365598782,42.7
,,0.03060476661993222,0.015461234842977208,0.0006588174402478283,0.04672481890315726,2.663529514174143,0.6550002191204686,0.33089983451883365,-4.169419365598782,42.8
,,0.03060476661993222,0.015461234842977208,0.0006588174402478283,0.04672481890315726,2.6565757013658575,0.6550002191204686,0.33089983451883365,-4.169419365598782,42.9
,,0.03060476661993222,0.015461234842977208,0.0006588174402478283,0.04672481890315726,2.648509662068141,0.6550002191204686,0.33089983451883365,-4.169419365598782,43.0
,,0.031270176090132225,0.017002908432555065,0.0007846972952531891,0.04905778181794048,2.638884243254808,0.6374152057298418,0.34658942582554936,-4.07437086529122,43.1
,,0.031270176090132225,0.017002908432555065,0.0007846972952531891,0.04905778181794048,2.6292588244414756,0.6374152057298418,0.34658942582554936,-4.07437086529122,43.2
,,0.031250475003710934,0.017228046559471598,0.0007650124100520302,0.04924353397323456,2.6175718688166345,0.6346107292116071,0.34985398425782344,-4.061216609247396,43.3
,,0.031250475003710934,0.017228046559471598,0.0007650124100520302,0.04924353397323456,2.605884913191793,0.6346107292116071,0.34985398425782344,-4.061216609247396,43.4
,,0.031250475003710934,0.017228046559471598,0.0007650124100520302,0.04924353397323456,2.5941979575669523,0.6346107292116071,0.34985398425782344,-4.061216609247396,43.5
,,0.03123015375433708,0.01721308748884421,0.0007673848056556521,0.04921062604883694,2.581667173753357,0.6346221591114096,0.3497839566552523,-4.0620852839865655,43.6
,,0.031250475003710934,0.017228046559471598,0.0007650124100520302,0.04924353397323456,2.5897536363398266,0.6346107292116071,0.34985398425782344,-4.061216609247396,43.7
,,0.031853583100941996,0.018639427684296557,0.0007731972122368264,0.05126620799747538,2.596673492508863,0.6213368287841893,0.36358116608145585,-3.982476173828217,43.8
,,0.031873389877536004,0.01865416344294336,0.0007699766333024241,0.05129752995378179,2.603590146719374,0.6213435599385271,0.36364642624606774,-3.981685916898365,43.9
,,0.03202789880885186,0.018861622672573606,0.0007559738816122899,0.05164549536303775,2.587709471263156,0.6201489323263217,0.36521331705674204,-3.9706259676955935,44.0
,,0.03202789880885186,0.018861622672573606,0.0007559738816122899,0.05164549536303775,2.571828795806938,0.6201489323263217,0.36521331705674204,-3.9706259676955935,44.1
,,0.03202789880885186,0.018861622672573606,0.0007559738816122899,0.05164549536303775,2.55594812035072,0.6201489323263217,0.36521331705674204,-3.9706259676955935,44.2
,,0.03202789880885186,0.018861622672573606,0.0007559738816122899,0.05164549536303775,2.5400674448945018,0.6201489323263217,0.36521331705674204,-3.9706259676955935,44.3
,,0.032009943358025296,0.01884888112244696,0.0007567518401379834,0.05161557632061024,2.5241889389066463,0.6201605336961749,0.3651781587280379,-3.9713017237491735,44.4
,,0.03202789880885186,0.018861622672573606,0.0007559738816122899,0.05164549536303775,2.531310867739778,0.6201489323263217,0.36521331705674204,-3.9706259676955935,44.5
,,0.025988462575603083,0.013683313559238892,0.0006368882213439534,0.04030866435618593,2.5406687476005203,0.6447363858538465,0.33946333320119043,-4.291578176875468,44.6
,,0.03280198150713696,0.020314024361956038,0.0007505774091940009,0.053866583278287,2.54686511889049,0.6089486191777651,0.37711737269485196,-3.8964437761962727,44.7
,,0.03280198150713696,0.020314024361956038,0.0007505774091940009,0.053866583278287,2.5527058422924993,0.6089486191777651,0.37711737269485196,-3.8964437761962727,44.8
,,0.03280743764066115,0.02031854181278164,0.0007503457828979222,0.05387632523634071,2.558545560372841,0.608939780074901,0.37713303057789765,-3.8962214200288185,44.9
,,0.032814388663376555,0.020322549006424762,0.0007504793573982197,0.05388741702719954,2.5643855413177192,0.6089434319483819,0.3771297666051985,-3.8960242209096347,45.0
,,0.03280743764066115,0.02031854181278164,0.0007503457828979222,0.05387632523634071,2.5702252593980615,0.608939780074901,0.37713303057789765,-3.8962214200288185,45.1
,,0.03280743764066115,0.02031854181278164,0.0007503457828979222,0.05387632523634071,2.550672167652118,0.608939780074901,0.37713303057789765,-3.8962214200288185,45.2
,,0.027459108794128204,0.013457078635505736,0.0006065473969939494,0.04152273482662789,2.5358506359710655,0.6613029924155935,0.32408941009530806,-4.308250018775012,45.3
,,0.03334603359609051,0.02132404152348135,0.0007498700346877609,0.05541994515425962,2.5157322254442502,0.601697340249488,0.384771970887495,-3.8479201327584014,45.4
,,0.03334603359609051,0.02132404152348135,0.0007498700346877609,0.05541994515425962,2.493721679963461,0.601697340249488,0.384771970887495,-3.8479201327584014,45.5
,,0.03334603359609051,0.02132404152348135,0.0007498700346877609,0.05541994515425962,2.4717111344826717,0.601697340249488,0.384771970887495,-3.8479201327584014,45.6
,,0.033333256462786245,0.021310935235713358,0.0007497040436328335,0.05539389574213243,2.4497046131073734,0.6017496335328708,0.38471631125059735,-3.848534946658963,45.7
,,0.03334603359609051,0.02132404152348135,0.0007498700346877609,0.05541994515425962,2.427694067626584,0.601697340249488,0.384771970887495,-3.8479201327584014,45.8
,,0.033333256462786245,0.021310935235713358,0.0007497040436328335,0.05539389574213243,2.405687546251286,0.6017496335328708,0.38471631125059735,-3.848534946658963,45.9
,,0.033398632004461234,0.02184106749604041,0.0007690000375930288,0.056008699538094675,2.401111014597048,0.5963115066034508,0.38995848281006895,-3.8239632512760964,46.0
,,0.03360220947232467,0.021793031611743,0.0007590251396428874,0.05615426622371056,2.377975825713842,0.5983910347694382,0.3880921802970888,-3.826165011123789,46.1
,,0.03360220947232467,0.021793031611743,0.0007590251396428874,0.05615426622371056,2.354840636830636,0.5983910347694382,0.3880921802970888,-3.826165011123789,46.2
,,0.03360501014168589,0.021794770140899786,0.0007590829590543478,0.056158863241640024,2.3317055091590704,0.5983919225197001,0.38809136942678807,-3.8260852397617198,46.3
,,0.03360220947232467,0.021793031611743,0.0007590251396428874,0.05615426622371056,2.308570320275864,0.5983910347694382,0.3880921802970888,-3.826165011123789,46.4
,,0.03360501014168589,0.021794770140899786,0.0007590829590543478,0.056158863241640024,2.2854351926042984,0.5983919225197001,0.38809136942678807,-3.8260852397617198,46.5
,,0.03360220947232467,0.021793031611743,0.0007590251396428874,0.05615426622371056,2.262300003721092,0.5983910347694382,0.3880921802970888,-3.826165011123789,46.6
,,0.03360501014168589,0.021794770140899786,0.0007590829590543478,0.056158863241640024,2.2406723633383736,0.5983919225197001,0.38809136942678807,-3.8260852397617198,46.7
,,0.03347101635304742,0.021693156157140375,0.0007783127307182201,0.05594248524090601,2.2181094927300182,0.5983112156871588,0.387776053632991,-3.8307584526434395,46.8
,,0.03347101635304742,0.021693156157140375,0.0007783127307182201,0.05594248524090601,2.195546622121662,0.5983112156871588,0.387776053632991,-3.8307584526434395,46.9
,,0.03347101635304742,0.021693156157140375,0.0007783127307182201,0.05594248524090601,2.172983751513306,0.5983112156871588,0.387776053632991,-3.8307584526434395,47.0
,,0.03347101635304742,0.021693156157140375,0.0007783127307182201,0.05594248524090601,2.15042088090495,0.5983112156871588,0.387776053632991,-3.8307584526434395,47.1
,,0.03347101635304742,0.021693156157140375,0.0007783127307182201,0.05594248524090601,2.127858010296594,0.5983112156871588,0.387776053632991,-3.8307584526434395,47.2
,,0.03347101635304742,0.021693156157140375,0.0007783127307182201,0.05594248524090601,2.1052951396882382,0.5983112156871588,0.387776053632991,-3.8307584526434395,47.3
,,0.03347101635304742,0.021693156157140375,0.0007783127307182201,0.05594248524090601,2.0847122549629065,0.5983112156871588,0.387776053632991,-3.8307584526434395,47.4
,,0.03314158606429886,0.021570688095130453,0.000820927769493576,0.05553320192892289,2.061433677569191,0.5967886761998142,0.3884286759250591,-3.836419918527508,47.5
,,0.031339262280128156,0.011541382272552511,0.000588524370734669,0.04346916892341534,2.0539903741277468,0.7209537945237039,0.2655073137672887,-4.4618162440916,47.6
,,0.031339262280128156,0.011541382272552511,0.000588524370734669,0.04346916892341534,2.0465470706863025,0.7209537945237039,0.2655073137672887,-4.4618162440916,47.7
,,0.031339262280128156,0.011541382272552511,0.000588524370734669,0.04346916892341534,2.039103767244858,0.7209537945237039,0.2655073137672887,-4.4618162440916,47.8
,,0.031339262280128156,0.011541382272552511,0.000588524370734669,0.04346916892341534,2.031660463803414,0.7209537945237039,0.2655073137672887,-4.4618162440916,47.9
,,0.031339262280128156,0.011541382272552511,0.000588524370734669,0.04346916892341534,2.0242171603619696,0.7209537945237039,0.2655073137672887,-4.4618162440916,48.0
,,0.031339262280128156,0.011541382272552511,0.000588524370734669,0.04346916892341534,2.0167738569205254,0.7209537945237039,0.2655073137672887,-4.4618162440916,48.1
,,0.03244360015713157,0.020715626096589387,0.0008575585682307854,0.054016784821951734,2.0214905819875435,0.6006207193573451,0.38350350108529263,-3.8768669795991437,48.2
,,0.03203818735258946,0.02003680092135632,0.0008381420607010931,0.052913130334646875,2.004609048903303,0.6054865238545761,0.37867351250312375,-3.9101846501713,48.3
,,0.03203818735258946,0.02003680092135632,0.0008381420607010931,0.052913130334646875,1.987727515819063,0.6054865238545761,0.37867351250312375,-3.9101846501713,48.4
,,0.03203818735258946,0.02003680092135632,0.0008381420607010931,0.052913130334646875,1.9708459827348226,0.6054865238545761,0.37867351250312375,-3.9101846501713,48.5
,,0.03203818735258946,0.02003680092135632,0.0008381420607010931,0.052913130334646875,1.9539644496505824,0.6054865238545761,0.37867351250312375,-3.9101846501713,48.6
,,0.03203818735258946,0.02003680092135632,0.0008381420607010931,0.052913130334646875,1.937082916566342,0.6054865238545761,0.37867351250312375,-3.9101846501713,48.7
,,0.03203818735258946,0.02003680092135632,0.0008381420607010931,0.052913130334646875,1.9202013834821015,0.6054865238545761,0.37867351250312375,-3.9101846501713,48.8
,,0.0315054484022801,0.019585463571744684,0.0008908467917552879,0.051981758765780074,1.903655754673962,0.6060866186586272,0.37677570049126385,-3.932967642410247,48.9
,,0.03167806850098407,0.019657705311104678,0.0009079432055384573,0.0522437170176272,1.8871420110356991,0.6063517358517156,0.37626927089571566,-3.92928588973729,49.0
,,0.031065680910657797,0.00963194502416512,0.0005984925962334263,0.041296118531056344,1.9093655476808244,0.7522663634185173,0.2332409283676748,-4.642670098056014,49.1
,,0.031065680910657797,0.00963194502416512,0.0005984925962334263,0.041296118531056344,1.9315890843259498,0.7522663634185173,0.2332409283676748,-4.642670098056014,49.2
,,0.031065680910657797,0.00963194502416512,0.0005984925962334263,0.041296118531056344,1.953812620971075,0.7522663634185173,0.2332409283676748,-4.642670098056014,49.3
,,0.031065680910657797,0.00963194502416512,0.0005984925962334263,0.041296118531056344,1.9760361576162007,0.7522663634185173,0.2332409283676748,-4.642670098056014,49.4
,,0.031065680910657797,0.00963194502416512,0.0005984925962334263,0.041296118531056344,1.980953803582864,0.7522663634185173,0.2332409283676748,-4.642670098056014,49.5
,,0.031065680910657797,0.00963194502416512,0.0005984925962334263,0.041296118531056344,1.985871449549528,0.7522663634185173,0.2332409283676748,-4.642670098056014,49.6
,,0.03104295191122094,0.018650225461325925,0.0009573807150912543,0.05065055808763812,1.9734469326564543,0.6128846963050019,0.3682136222281377,-3.9818970438862467,49.7
,,0.030989498397639047,0.008771199318207005,0.0006782663342192617,0.040438964050065314,1.9817848127044746,0.7663277021456981,0.21689970364591568,-4.736281729586679,49.8
,,0.030915341938784115,0.01811472391155783,0.0009623441630058982,0.049992410013347845,1.9727611196567068,0.6184007118386531,0.3623494827859118,-4.011030195625773,49.9
,,0.030915341938784115,0.01811472391155783,0.0009623441630058982,0.049992410013347845,1.9637374266089391,0.6184007118386531,0.3623494827859118,-4.011030195625773,50.0
,,0.030915341938784115,0.01811472391155783,0.0009623441630058982,0.049992410013347845,1.954713733561172,0.6184007118386531,0.3623494827859118,-4.011030195625773,50.1
,,0.030915341938784115,0.01811472391155783,0.0009623441630058982,0.049992410013347845,1.9462193760667992,0.6184007118386531,0.3623494827859118,-4.011030195625773,50.2
,,0.030915341938784115,0.01811472391155783,0.0009623441630058982,0.049992410013347845,1.9377250185724273,0.6184007118386531,0.3623494827859118,-4.011030195625773,50.3
,,0.030915341938784115,0.01811472391155783,0.0009623441630058982,0.049992410013347845,1.929230661078055,0.6184007118386531,0.3623494827859118,-4.011030195625773,50.4
,,0.030915341938784115,0.01811472391155783,0.0009623441630058982,0.049992410013347845,1.9207363035836829,0.6184007118386531,0.3623494827859118,-4.011030195625773,50.5
,,0.030418552438098784,0.017076269101993006,0.0011433343548113068,0.0486381558949031,1.915596980435485,0.6254051346812352,0.3510879223893944,-4.070065551133936,50.6
,,0.030697540216208543,0.01734784887606212,0.0010454442382239629,0.049090833330494625,1.9103264935867574,0.625321228701563,0.35338265209863223,-4.05428676436457,50.7
,,0.030697540216208543,0.01734784887606212,0.0010454442382239629,0.049090833330494625,1.9050560067380298,0.625321228701563,0.35338265209863223,-4.05428676436457,50.8
,,0.030697540216208543,0.01734784887606212,0.0010454442382239629,0.049090833330494625,1.9002438776505057,0.625321228701563,0.35338265209863223,-4.05428676436457,50.9
,,0.030697540216208543,0.01734784887606212,0.0010454442382239629,0.049090833330494625,1.8954317485629815,0.625321228701563,0.35338265209863223,-4.05428676436457,51.0
,,0.030697540216208543,0.01734784887606212,0.0010454442382239629,0.049090833330494625,1.8906196194754576,0.625321228701563,0.35338265209863223,-4.05428676436457,51.1
,,0.030697540216208543,0.01734784887606212,0.0010454442382239629,0.049090833330494625,1.8858074903879334,0.625321228701563,0.35338265209863223,-4.05428676436457,51.2
,,0.03007911618138598,0.016675855745711256,0.0008994784859960188,0.047654450413093255,1.8813756103290398,0.6311921745113992,0.34993281007663235,-4.093793369414095,51.3
,,0.030376045756156003,0.016623068014064477,0.0011220742108527621,0.04812118798107324,1.879283036543291,0.6312405622260062,0.34544176300474067,-4.09696390887342,51.4
,,0.030410342821937317,0.016644873267159566,0.001122427709592044,0.04817764379868893,1.8771867588414688,0.6312127456670034,0.3454895664202766,-4.0956530218525895,51.5
,,0.030376045756156003,0.016623068014064477,0.0011220742108527621,0.04812118798107324,1.8754966620607891,0.6312405622260062,0.34544176300474067,-4.09696390887342,51.6
,,0.030410342821937317,0.016644873267159566,0.001122427709592044,0.04817764379868893,1.8738028613640363,0.6312127456670034,0.3454895664202766,-4.0956530218525895,51.7
,,0.030376045756156003,0.016623068014064477,0.0011220742108527621,0.04812118798107324,1.8721127645833564,0.6312405622260062,0.34544176300474067,-4.09696390887342,51.8
,,0.030376045756156003,0.016623068014064477,0.0011220742108527621,0.04812118798107324,1.8704226678026772,0.6312405622260062,0.34544176300474067,-4.09696390887342,51.9
,,0.02968143083473631,0.016022645906788504,0.0009579654022606981,0.046662042143785505,1.8690117329668465,0.6360936956697106,0.34337643983552946,-4.133752188258904,52.0
,,0.02968143083473631,0.016022645906788504,0.0009579654022606981,0.046662042143785505,1.869160177646632,0.6360936956697106,0.34337643983552946,-4.133752188258904,52.1
,,0.030861660478815535,0.0076419694103584505,0.000724675975950932,0.039228305865124914,1.893597242764353,0.7867191763244722,0.19480753098625092,-4.874099932797362,52.2
,,0.030869772116759234,0.007643888722702535,0.0007248603191554261,0.039238521158617194,1.9183145789304858,0.7867210895123122,0.1948057290896106,-4.873848810179651,52.3
,,0.030861660478815535,0.0076419694103584505,0.000724675975950932,0.039228305865124914,1.9430313909251007,0.7867191763244722,0.19480753098625092,-4.874099932797362,52.4
,,0.030869772116759234,0.007643888722702535,0.0007248603191554261,0.039238521158617194,1.9677487270912337,0.7867210895123122,0.1948057290896106,-4.873848810179651,52.5
,,0.030869772116759234,0.007643888722702535,0.0007248603191554261,0.039238521158617194,1.9924616651429619,0.7867210895123122,0.1948057290896106,-4.873848810179651,52.6
,,0.029940216093486217,0.007110160676982924,0.0006077602813446644,0.037658137051813804,2.0190947255233014,0.7950530333534953,0.18880808328888013,-4.946230436690559,52.7
,,0.029940216093486217,0.007110160676982924,0.0006077602813446644,0.037658137051813804,2.0468943923210743,0.7950530333534953,0.18880808328888013,-4.946230436690559,52.8
,,0.029808180026754335,0.015674561944520743,0.0012592933776537463,0.046742035348928825,2.049039324724254,0.6377167747240052,0.33534187862189346,-4.155716138976731,52.9
,,0.029808180026754335,0.015674561944520743,0.0012592933776537463,0.046742035348928825,2.05130205408822,0.6377167747240052,0.33534187862189346,-4.155716138976731,53.0
,,0.029808180026754335,0.015674561944520743,0.0012592933776537463,0.046742035348928825,2.0535647834521855,0.6377167747240052,0.33534187862189346,-4.155716138976731,53.1
,,0.029808180026754335,0.015674561944520743,0.0012592933776537463,0.046742035348928825,2.055827512816151,0.6377167747240052,0.33534187862189346,-4.155716138976731,53.2
,,0.029808180026754335,0.015674561944520743,0.0012592933776537463,0.046742035348928825,2.058090242180117,0.6377167747240052,0.33534187862189346,-4.155716138976731,53.3
,,0.028889461413487447,0.015211945792015453,0.0010538605530794323,0.045155267758582335,2.060322340932294,0.639780536081455,0.33688086788333194,-4.185674252423955,53.4
,,0.028889461413487447,0.015211945792015453,0.0010538605530794323,0.045155267758582335,2.062556609152834,0.639780536081455,0.33688086788333194,-4.185674252423955,53.5
,,0.028889461413487447,0.015211945792015453,0.0010538605530794323,0.045155267758582335,2.0625549263457637,0.639780536081455,0.33688086788333194,-4.185674252423955,53.6
,,0.0296562552795252,0.015567908296251006,0.0013139996835011044,0.046538163259277315,2.0657795398208174,0.6372459332849426,0.33451918180607537,-4.162543644084421,53.7
,,0.0296562552795252,0.015567908296251006,0.0013139996835011044,0.046538163259277315,2.0690041532958707,0.6372459332849426,0.33451918180607537,-4.162543644084421,53.8
,,0.0296562552795252,0.015567908296251006,0.0013139996835011044,0.046538163259277315,2.072229772092593,0.6372459332849426,0.33451918180607537,-4.162543644084421,53.9
,,0.0296562552795252,0.015567908296251006,0.0013139996835011044,0.046538163259277315,2.075455128024778,0.6372459332849426,0.33451918180607537,-4.162543644084421,54.0
,,0.028681292154175232,0.015215638814993888,0.0010875862862779237,0.04498451725544705,2.078458823421322,0.6375814147633716,0.33824168276811883,-4.1854315106457785,54.1
,,0.028681292154175232,0.015215638814993888,0.0010875862862779237,0.04498451725544705,2.081462518817867,0.6375814147633716,0.33824168276811883,-4.1854315106457785,54.2
,,0.028681292154175232,0.015215638814993888,0.0010875862862779237,0.04498451725544705,2.079734654149521,0.6375814147633716,0.33824168276811883,-4.1854315106457785,54.3
,,0.02926648194937508,0.015599133740702563,0.001333484879040139,0.04619910056911779,2.0832055906397784,0.6334859680999618,0.3376501609022654,-4.160539895710605,54.4
,,0.02926648194937508,0.015599133740702563,0.001333484879040139,0.04619910056911779,2.0866765271300354,0.6334859680999618,0.3376501609022654,-4.160539895710605,54.5
,,0.02926648194937508,0.015599133740702563,0.001333484879040139,0.04619910056911779,2.0901474636202924,0.6334859680999618,0.3376501609022654,-4.160539895710605,54.6
,,0.02926648194937508,0.015599133740702563,0.001333484879040139,0.04619910056911779,2.0936143760050587,0.6334859680999618,0.3376501609022654,-4.160539895710605,54.7
,,0.02926648194937508,0.015599133740702563,0.001333484879040139,0.04619910056911779,2.0970853124953157,0.6334859680999618,0.3376501609022654,-4.160539895710605,54.8
,,0.014463178520907592,0.015497461923757366,0.0010981767284388576,0.031058817173103815,2.0900755625786176,0.46567061586081115,0.49897141405558076,-4.167079015319279,54.9
,,0.014463178520907592,0.015497461923757366,0.0010981767284388576,0.031058817173103815,2.0834543899201825,0.46567061586081115,0.49897141405558076,-4.167079015319279,55.0
,,0.014463178520907592,0.015497461923757366,0.0010981767284388576,0.031058817173103815,2.0766919731628457,0.46567061586081115,0.49897141405558076,-4.167079015319279,55.1
,,0.028627288703922504,0.009320324202901518,0.0008124170192592698,0.038760029926083295,2.093687662474034,0.7385775696901092,0.2404622550776069,-4.6755578651706,55.2
,,0.028627288703922504,0.009320324202901518,0.0008124170192592698,0.038760029926083295,2.110683290573582,0.7385775696901092,0.2404622550776069,-4.6755578651706,55.3
,,0.028627288703922504,0.009320324202901518,0.0008124170192592698,0.038760029926083295,2.12767897988477,0.7385775696901092,0.2404622550776069,-4.6755578651706,55.4
,,0.028627288703922504,0.009320324202901518,0.0008124170192592698,0.038760029926083295,2.1446746079843186,0.7385775696901092,0.2404622550776069,-4.6755578651706,55.5
,,0.02830269147958903,0.01610959199926338,0.001083878456468453,0.04549616193532086,2.1470635615309517,0.6220896505473418,0.3540868353283385,-4.128340408044229,55.6
,,0.02830269147958903,0.01610959199926338,0.001083878456468453,0.04549616193532086,2.149452453865944,0.6220896505473418,0.3540868353283385,-4.128340408044229,55.7
,,0.02830269147958903,0.01610959199926338,0.001083878456468453,0.04549616193532086,2.15182972799498,0.6220896505473418,0.3540868353283385,-4.128340408044229,55.8
,,0.02830269147958903,0.01610959199926338,0.001083878456468453,0.04549616193532086,2.1542070021240165,0.6220896505473418,0.3540868353283385,-4.128340408044229,55.9
,,0.029281039439739923,0.017051703469207175,0.0013136901382147317,0.047646433047161825,2.1561432430799674,0.6145484051399336,0.3578799582400828,-4.071505170025875,56.0
,,0.029281039439739923,0.017051703469207175,0.0013136901382147317,0.047646433047161825,2.1580794840359188,0.6145484051399336,0.3578799582400828,-4.071505170025875,56.1
,,0.029281039439739923,0.017051703469207175,0.0013136901382147317,0.047646433047161825,2.16001572499187,0.6145484051399336,0.3578799582400828,-4.071505170025875,56.2
,,0.028104308718038304,0.016968814036431443,0.001038099453912003,0.04611122220838175,2.1612746491201817,0.6094895639727744,0.36799749006321025,-4.076378088069034,56.3
,,0.028104308718038304,0.016968814036431443,0.001038099453912003,0.04611122220838175,2.162533573248494,0.6094895639727744,0.36799749006321025,-4.076378088069034,56.4
,,0.028104308718038304,0.016968814036431443,0.001038099453912003,0.04611122220838175,2.1638648541426533,0.6094895639727744,0.36799749006321025,-4.076378088069034,56.5
,,0.029123140956513926,0.018005900414320257,0.0012562398904675293,0.04838528126130171,2.151665298930939,0.6019008301147659,0.3721359046582887,-4.017055774005345,56.6
,,0.028104308718038304,0.016968814036431443,0.001038099453912003,0.04611122220838175,2.1398969754349855,0.6094895639727744,0.36799749006321025,-4.076378088069034,56.7
,,0.029084299069186394,0.01807620797460299,0.00124297719965035,0.04840348424343973,2.1276036450931524,0.6008720141490285,0.37344848737935454,-4.013158681933737,56.8
,,0.029084299069186394,0.01807620797460299,0.00124297719965035,0.04840348424343973,2.1153103147513193,0.6008720141490285,0.37344848737935454,-4.013158681933737,56.9
,,0.028008734098390976,0.018070378588637956,0.0011881577148946897,0.04726727040192362,2.102361408406039,0.5925608536356505,0.3823021391965666,-4.013481223372351,57.0
,,0.028008734098390976,0.018070378588637956,0.0011881577148946897,0.04726727040192362,2.089412502060758,0.5925608536356505,0.3823021391965666,-4.013481223372351,57.1
,,0.028008734098390976,0.018070378588637956,0.0011881577148946897,0.04726727040192362,2.089232936026785,0.5925608536356505,0.3823021391965666,-4.013481223372351,57.2
,,0.028008734098390976,0.018070378588637956,0.0011881577148946897,0.04726727040192362,2.088688639213055,0.5925608536356505,0.3823021391965666,-4.013481223372351,57.3
,,0.028008734098390976,0.018070378588637956,0.0011881577148946897,0.04726727040192362,2.0881443423993247,0.5925608536356505,0.3823021391965666,-4.013481223372351,57.4
,,0.029007362670916133,0.019280682378898278,0.0011496958015017994,0.04943774085131621,2.087094462581533,0.5867453118085563,0.3899992606232725,-3.9486515973296745,57.5
,,0.029007362670916133,0.019280682378898278,0.0011496958015017994,0.04943774085131621,2.086044582763741,0.5867453118085563,0.3899992606232725,-3.9486515973296745,57.6
,,0.028106341984382346,0.019284150232976572,0.0010946825479956131,0.04848517476535453,2.0844725481735984,0.57968940238751,0.39773292199734867,-3.9484717519185697,57.7
,,0.028106341984382346,0.019284150232976572,0.0010946825479956131,0.04848517476535453,2.0829005135834557,0.57968940238751,0.39773292199734867,-3.9484717519185697,57.8
,,0.028106341984382346,0.019284150232976572,0.0010946825479956131,0.04848517476535453,2.0812212936795134,0.57968940238751,0.39773292199734867,-3.9484717519185697,57.9
,,0.028106341984382346,0.019284150232976572,0.0010946825479956131,0.04848517476535453,2.079510188605695,0.57968940238751,0.39773292199734867,-3.9484717519185697,58.0
,,0.028106341984382346,0.019284150232976572,0.0010946825479956131,0.04848517476535453,2.0598680564159983,0.57968940238751,0.39773292199734867,-3.9484717519185697,58.1
,,0.028106341984382346,0.019284150232976572,0.0010946825479956131,0.04848517476535453,2.0402259242263012,0.57968940238751,0.39773292199734867,-3.9484717519185697,58.2
,,0.02855969036418915,0.020632103679113993,0.0009963228779069138,0.05018811692121006,2.0197699189183558,0.5690528379262524,0.4110953935869755,-3.8809069852550957,58.3
,,0.02855969036418915,0.020632103679113993,0.0009963228779069138,0.05018811692121006,1.99931391361041,0.5690528379262524,0.4110953935869755,-3.8809069852550957,58.4
,,0.02855969036418915,0.020632103679113993,0.0009963228779069138,0.05018811692121006,1.9788579083024649,0.5690528379262524,0.4110953935869755,-3.8809069852550957,58.5
,,0.02855969036418915,0.020632103679113993,0.0009963228779069138,0.05018811692121006,1.9584019029945194,0.5690528379262524,0.4110953935869755,-3.8809069852550957,58.6
,,0.02855969036418915,0.020632103679113993,0.0009963228779069138,0.05018811692121006,1.9552880605463112,0.5690528379262524,0.4110953935869755,-3.8809069852550957,58.7
,,0.02855969036418915,0.020632103679113993,0.0009963228779069138,0.05018811692121006,1.9314118211570093,0.5690528379262524,0.4110953935869755,-3.8809069852550957,58.8
,,0.02855969036418915,0.020632103679113993,0.0009963228779069138,0.05018811692121006,1.9278295308329174,0.5690528379262524,0.4110953935869755,-3.8809069852550957,58.9
,,0.028281697457784367,0.020384794011191875,0.0009680243060694619,0.0496345157750457,1.924282311266597,0.5697990000741239,0.41069795268236614,-3.8929660476826586,59.0
,,0.02942169343445749,0.022021498812629516,0.000902000797876566,0.052345193044963566,1.920164560871871,0.5620705880133977,0.42069763299398766,-3.8157360840353434,59.1
,,0.02942169343445749,0.022021498812629516,0.000902000797876566,0.052345193044963566,1.9160468104771449,0.5620705880133977,0.42069763299398766,-3.8157360840353434,59.2
,,0.02942169343445749,0.022021498812629516,0.000902000797876566,0.052345193044963566,1.9119290600824188,0.5620705880133977,0.42069763299398766,-3.8157360840353434,59.3
,,0.02942169343445749,0.022021498812629516,0.000902000797876566,0.052345193044963566,1.907811309687693,0.5620705880133977,0.42069763299398766,-3.8157360840353434,59.4
,,0.02942169343445749,0.022021498812629516,0.000902000797876566,0.052345193044963566,1.903693559292967,0.5620705880133977,0.42069763299398766,-3.8157360840353434,59.5
,,0.02942169343445749,0.022021498812629516,0.000902000797876566,0.052345193044963566,1.8987458847631038,0.5620705880133977,0.42069763299398766,-3.8157360840353434,59.6
,,0.026891198249637146,0.016697361471637945,0.0005766397530374652,0.04416519947431256,1.8969789489447715,0.6088775454365978,0.37806602642765136,-4.092504567752368,59.7
,,0.02695126118415977,0.016771616229232025,0.0005787485528304815,0.04430162596622228,1.895172578255707,0.6083582847435155,0.37857789332652314,-4.08806733156956,59.8
,,0.02695126118415977,0.016771616229232025,0.0005787485528304815,0.04430162596622228,1.8933662075666426,0.6083582847435155,0.37857789332652314,-4.08806733156956,59.9
,,0.02695126118415977,0.016771616229232025,0.0005787485528304815,0.04430162596622228,1.8915598368775783,0.6083582847435155,0.37857789332652314,-4.08806733156956,60.0
,,0.02695126118415977,0.016771616229232025,0.0005787485528304815,0.04430162596622228,1.889753466188514,0.6083582847435155,0.37857789332652314,-4.08806733156956,60.1
,,0.02695126118415977,0.016771616229232025,0.0005787485528304815,0.04430162596622228,1.8879470954994497,0.6083582847435155,0.37857789332652314,-4.08806733156956,60.2
,,0.02695126118415977,0.016771616229232025,0.0005787485528304815,0.04430162596622228,1.885760475781755,0.6083582847435155,0.37857789332652314,-4.08806733156956,60.3
,,0.02695126118415977,0.016771616229232025,0.0005787485528304815,0.04430162596622228,1.8833117400051624,0.6083582847435155,0.37857789332652314,-4.08806733156956,60.4
,,0.02728470494698356,0.016404283157322844,0.0006069556293335413,0.04429594373363995,1.881492379499642,0.6159639607421337,0.3703337546201738,-4.110212810121002,60.5
,,0.032210183894603554,0.024473797835856216,0.0007639850071888548,0.057447966737648626,1.8758120017634938,0.5606844893519017,0.4260167805002099,-3.7101522098165836,60.6
,,0.032210183894603554,0.024473797835856216,0.0007639850071888548,0.057447966737648626,1.8701353279434196,0.5606844893519017,0.4260167805002099,-3.7101522098165836,60.7
,,0.032210183894603554,0.024473797835856216,0.0007639850071888548,0.057447966737648626,1.8644549502072718,0.5606844893519017,0.4260167805002099,-3.7101522098165836,60.8
,,0.032210183894603554,0.024473797835856216,0.0007639850071888548,0.057447966737648626,1.8587745724711235,0.5606844893519017,0.4260167805002099,-3.7101522098165836,60.9
,,0.032210183894603554,0.024473797835856216,0.0007639850071888548,0.057447966737648626,1.8528150327901263,0.5606844893519017,0.4260167805002099,-3.7101522098165836,61.0
,,0.032210183894603554,0.024473797835856216,0.0007639850071888548,0.057447966737648626,1.8468554931091294,0.5606844893519017,0.4260167805002099,-3.7101522098165836,61.1
,,0.032210183894603554,0.024473797835856216,0.0007639850071888548,0.057447966737648626,1.8166073329901966,0.5606844893519017,0.4260167805002099,-3.7101522098165836,61.2
,,0.03320469394896976,0.02485735649885054,0.0007228179688039641,0.05878486841662426,1.7865775443604321,0.5648510380875417,0.42285297506629993,-3.6946015340785126,61.3
,,0.03320469394896976,0.02485735649885054,0.0007228179688039641,0.05878486841662426,1.7565482799021856,0.5648510380875417,0.42285297506629993,-3.6946015340785126,61.4
,,0.03320469394896976,0.02485735649885054,0.0007228179688039641,0.05878486841662426,1.726518491272421,0.5648510380875417,0.42285297506629993,-3.6946015340785126,61.5
,,0.03320469394896976,0.02485735649885054,0.0007228179688039641,0.05878486841662426,1.6964887026426567,0.5648510380875417,0.42285297506629993,-3.6946015340785126,61.6
,,0.03320469394896976,0.02485735649885054,0.0007228179688039641,0.05878486841662426,1.6645431897986855,0.5648510380875417,0.42285297506629993,-3.6946015340785126,61.7
,,0.03320469394896976,0.02485735649885054,0.0007228179688039641,0.05878486841662426,1.6325976769547144,0.5648510380875417,0.42285297506629993,-3.6946015340785126,61.8
,,0.03320469394896976,0.02485735649885054,0.0007228179688039641,0.05878486841662426,1.6263101004638618,0.5648510380875417,0.42285297506629993,-3.6946015340785126,61.9
,,0.03320469394896976,0.02485735649885054,0.0007228179688039641,0.05878486841662426,1.620022523973009,0.5648510380875417,0.42285297506629993,-3.6946015340785126,62.0
,,0.033766646491394506,0.02472141250396661,0.0007052727836360882,0.0591933317789972,1.6140691372267173,0.5704467965659518,0.41763846975645635,-3.7000855078969828,62.1
,,0.033766646491394506,0.02472141250396661,0.0007052727836360882,0.0591933317789972,1.6081157504804255,0.5704467965659518,0.41763846975645635,-3.7000855078969828,62.2
,,0.033766646491394506,0.02472141250396661,0.0007052727836360882,0.0591933317789972,1.6021623637341338,0.5704467965659518,0.41763846975645635,-3.7000855078969828,62.3
,,0.033766646491394506,0.02472141250396661,0.0007052727836360882,0.0591933317789972,1.5962374381312676,0.5704467965659518,0.41763846975645635,-3.7000855078969828,62.4
,,0.033766646491394506,0.02472141250396661,0.0007052727836360882,0.0591933317789972,1.5903125125284014,0.5704467965659518,0.41763846975645635,-3.7000855078969828,62.5
,,0.033766646491394506,0.02472141250396661,0.0007052727836360882,0.0591933317789972,1.5843875869255357,0.5704467965659518,0.41763846975645635,-3.7000855078969828,62.6
,,0.033766646491394506,0.02472141250396661,0.0007052727836360882,0.0591933317789972,1.578397873611318,0.5704467965659518,0.41763846975645635,-3.7000855078969828,62.7
,,0.033766646491394506,0.02472141250396661,0.0007052727836360882,0.0591933317789972,1.5724081602971003,0.5704467965659518,0.41763846975645635,-3.7000855078969828,62.8
,,0.03417209571487988,0.02428565144468001,0.0007150890188537403,0.059172836178413624,1.5668762616288103,0.5774963297660207,0.41041891876630154,-3.717869578562536,62.9
,,0.03417209571487988,0.02428565144468001,0.0007150890188537403,0.059172836178413624,1.561344362960521,0.5774963297660207,0.41041891876630154,-3.717869578562536,63.0
,,0.03417209571487988,0.02428565144468001,0.0007150890188537403,0.059172836178413624,1.5560343876924088,0.5774963297660207,0.41041891876630154,-3.717869578562536,63.1
,,0.03417209571487988,0.02428565144468001,0.0007150890188537403,0.059172836178413624,1.5507244124242958,0.5774963297660207,0.41041891876630154,-3.717869578562536,63.2
,,0.03417209571487988,0.02428565144468001,0.0007150890188537403,0.059172836178413624,1.5454144371561838,0.5774963297660207,0.41041891876630154,-3.717869578562536,63.3
,,0.03417209571487988,0.02428565144468001,0.0007150890188537403,0.059172836178413624,1.540202539575231,0.5774963297660207,0.41041891876630154,-3.717869578562536,63.4
,,0.03417209571487988,0.02428565144468001,0.0007150890188537403,0.059172836178413624,1.5349906419942787,0.5774963297660207,0.41041891876630154,-3.717869578562536,63.5
,,0.03003296481883089,0.014827053606518936,0.0007154496173461097,0.04557546804269594,1.5366505426856163,0.6589721643822825,0.32532970572301484,-4.211301820486477,63.6
,,0.034413801873292904,0.023641498291139467,0.0007463589949516815,0.058801659159384054,1.531978227176868,0.5852522252818246,0.40205495268523495,-3.7447517089628093,63.7
,,0.034413801873292904,0.023641498291139467,0.0007463589949516815,0.058801659159384054,1.52730591166812,0.5852522252818246,0.40205495268523495,-3.7447517089628093,63.8
,,0.034413801873292904,0.023641498291139467,0.0007463589949516815,0.058801659159384054,1.533110258460836,0.5852522252818246,0.40205495268523495,-3.7447517089628093,63.9
,,0.034413801873292904,0.023641498291139467,0.0007463589949516815,0.058801659159384054,1.5389146052535523,0.5852522252818246,0.40205495268523495,-3.7447517089628093,64.0
,,0.034413801873292904,0.023641498291139467,0.0007463589949516815,0.058801659159384054,1.5447189520462687,0.5852522252818246,0.40205495268523495,-3.7447517089628093,64.1
,,0.034413801873292904,0.023641498291139467,0.0007463589949516815,0.058801659159384054,1.5267651927704595,0.5852522252818246,0.40205495268523495,-3.7447517089628093,64.2
,,0.034413801873292904,0.023641498291139467,0.0007463589949516815,0.058801659159384054,1.5088114334946505,0.5852522252818246,0.40205495268523495,-3.7447517089628093,64.3
,,0.03437407389075628,0.022800129325900833,0.0006259720544777717,0.05780017527113489,1.4914351625148685,0.5947053573715115,0.39446470912843584,-3.7809890708491958,64.4
,,0.03456001802225947,0.02293293910072666,0.0007937271517179497,0.058286684274704084,1.4740519711769258,0.5929316181270277,0.39345074069823793,-3.775181013233996,64.5
,,0.03456001802225947,0.02293293910072666,0.0007937271517179497,0.058286684274704084,1.4712755156035386,0.5929316181270277,0.39345074069823793,-3.775181013233996,64.6
,,0.03456001802225947,0.02293293910072666,0.0007937271517179497,0.058286684274704084,1.4684990600301515,0.5929316181270277,0.39345074069823793,-3.775181013233996,64.7
,,0.03456001802225947,0.02293293910072666,0.0007937271517179497,0.058286684274704084,1.4657226044567642,0.5929316181270277,0.39345074069823793,-3.775181013233996,64.8
,,0.03456001802225947,0.02293293910072666,0.0007937271517179497,0.058286684274704084,1.462946148883377,0.5929316181270277,0.39345074069823793,-3.775181013233996,64.9
,,0.03456001802225947,0.02293293910072666,0.0007937271517179497,0.058286684274704084,1.460610726483075,0.5929316181270277,0.39345074069823793,-3.775181013233996,65.0
,,0.03451120334076348,0.02216245576180807,0.000670558338406709,0.05734421744097826,1.4588329570641059,0.601825343179271,0.38648109174423484,-3.8093556036669134,65.1
,,0.03451120334076348,0.02216245576180807,0.000670558338406709,0.05734421744097826,1.457055187645137,0.601825343179271,0.38648109174423484,-3.8093556036669134,65.2
,,0.03469847386266153,0.022221889894470798,0.0008528658975573696,0.0577732296546897,1.4560020958389985,0.6005977867267268,0.3846399106868513,-3.806677444630957,65.3
,,0.03469847386266153,0.022221889894470798,0.0008528658975573696,0.0577732296546897,1.4549490040328603,0.6005977867267268,0.3846399106868513,-3.806677444630957,65.4
,,0.03469847386266153,0.022221889894470798,0.0008528658975573696,0.0577732296546897,1.4538959122267219,0.6005977867267268,0.3846399106868513,-3.806677444630957,65.5
,,0.03469847386266153,0.022221889894470798,0.0008528658975573696,0.0577732296546897,1.4532740521363439,0.6005977867267268,0.3846399106868513,-3.806677444630957,65.6
,,0.03469847386266153,0.022221889894470798,0.0008528658975573696,0.0577732296546897,1.4522209603302056,0.6005977867267268,0.3846399106868513,-3.806677444630957,65.7
,,0.0344421230545311,0.021424556766597005,0.0007225277872133354,0.05658920760834144,1.4522056041059355,0.6086341284880302,0.3785979283342881,-3.843217502385705,65.8
,,0.0344421230545311,0.021424556766597005,0.0007225277872133354,0.05658920760834144,1.4521902478816653,0.6086341284880302,0.3785979283342881,-3.843217502385705,65.9
,,0.0344421230545311,0.021424556766597005,0.0007225277872133354,0.05658920760834144,1.4528304676608432,0.6086341284880302,0.3785979283342881,-3.843217502385705,66.0
,,0.03081862176040062,0.012707329697727025,0.0008432705068335069,0.044369221964961146,1.4625558335425435,0.6945945949815937,0.2863996512664148,-4.365576310446416,66.1
,,0.03081862176040062,0.012707329697727025,0.0008432705068335069,0.044369221964961146,1.4722811994242435,0.6945945949815937,0.2863996512664148,-4.365576310446416,66.2
,,0.03081862176040062,0.012707329697727025,0.0008432705068335069,0.044369221964961146,1.4820065653059442,0.6945945949815937,0.2863996512664148,-4.365576310446416,66.3
,,0.03081862176040062,0.012707329697727025,0.0008432705068335069,0.044369221964961146,1.4917319311876447,0.6945945949815937,0.2863996512664148,-4.365576310446416,66.4
,,0.03081862176040062,0.012707329697727025,0.0008432705068335069,0.044369221964961146,1.5019628800734068,0.6945945949815937,0.2863996512664148,-4.365576310446416,66.5
,,0.03410841287683696,0.020637917987444816,0.0007760664107534713,0.05552239727503525,1.5036098588041449,0.614318086949269,0.371704375176976,-3.8806252161580854,66.6
,,0.03410841287683696,0.020637917987444816,0.0007760664107534713,0.05552239727503525,1.5057789923072336,0.614318086949269,0.371704375176976,-3.8806252161580854,66.7
,,0.03410841287683696,0.020637917987444816,0.0007760664107534713,0.05552239727503525,1.5079481258103224,0.614318086949269,0.371704375176976,-3.8806252161580854,66.8
,,0.03398118110733911,0.020393609426941406,0.0009719822980116544,0.05534677283229217,1.5102679265979417,0.613968608618003,0.3684697116620812,-3.8925336905944157,66.9
,,0.030298497040821208,0.011977334877363284,0.0008875726367758561,0.04316340455496035,1.5221809108145963,0.7019487307179826,0.2774881870616215,-4.424739175370631,67.0
,,0.03398118110733911,0.020393609426941406,0.0009719822980116544,0.05534677283229217,1.5245007116022158,0.613968608618003,0.3684697116620812,-3.8925336905944157,67.1
,,0.03398118110733911,0.020393609426941406,0.0009719822980116544,0.05534677283229217,1.526820512389835,0.613968608618003,0.3684697116620812,-3.8925336905944157,67.2
,,0.03398118110733911,0.020393609426941406,0.0009719822980116544,0.05534677283229217,1.5299541862957033,0.613968608618003,0.3684697116620812,-3.8925336905944157,67.3
,,0.03385600844168135,0.020092838957185926,0.0008301537267872089,0.05477900112565449,1.5332957789356754,0.6180472032343369,0.3667981990233098,-3.9073917981833914,67.4
,,0.03385600844168135,0.020092838957185926,0.0008301537267872089,0.05477900112565449,1.5366373715756478,0.6180472032343369,0.3667981990233098,-3.9073917981833914,67.5
,,0.03385600844168135,0.020092838957185926,0.0008301537267872089,0.05477900112565449,1.5399789642156199,0.6180472032343369,0.3667981990233098,-3.9073917981833914,67.6
,,0.03328619265704332,0.019574031150317122,0.001019810442136903,0.05388003424949735,1.5434933279389147,0.6177834353799404,0.3632891371166812,-3.9335515325668235,67.7
,,0.03328619265704332,0.019574031150317122,0.001019810442136903,0.05388003424949735,1.54700769166221,0.6177834353799404,0.3632891371166812,-3.9335515325668235,67.8
,,0.03328619265704332,0.019574031150317122,0.001019810442136903,0.05388003424949735,1.5505220553855048,0.6177834353799404,0.3632891371166812,-3.9335515325668235,67.9
,,0.03328619265704332,0.019574031150317122,0.001019810442136903,0.05388003424949735,1.5540013483510282,0.6177834353799404,0.3632891371166812,-3.9335515325668235,68.0
,,0.029393448859035918,0.011545952298419506,0.0007742996963452223,0.04171370085380065,1.567442853042305,0.7046473522465654,0.27679040847720715,-4.4614203537897,68.1
,,0.029393448859035918,0.011545952298419506,0.0007742996963452223,0.04171370085380065,1.5808843577335823,0.7046473522465654,0.27679040847720715,-4.4614203537897,68.2
,,0.029393448859035918,0.011545952298419506,0.0007742996963452223,0.04171370085380065,1.594325862424859,0.7046473522465654,0.27679040847720715,-4.4614203537897,68.3
,,0.029393448859035918,0.011545952298419506,0.0007742996963452223,0.04171370085380065,1.607767367116136,0.7046473522465654,0.27679040847720715,-4.4614203537897,68.4
,,0.032699669585581334,0.019089059024204758,0.0010665265967478251,0.05285525520653391,1.6119558309564124,0.6186644915024274,0.3611572576769053,-3.958639934014889,68.5
,,0.032699669585581334,0.019089059024204758,0.0010665265967478251,0.05285525520653391,1.6161442947966886,0.6186644915024274,0.3611572576769053,-3.958639934014889,68.6
,,0.032699669585581334,0.019089059024204758,0.0010665265967478251,0.05285525520653391,1.6172831836259642,0.6186644915024274,0.3611572576769053,-3.958639934014889,68.7
,,0.032699669585581334,0.019089059024204758,0.0010665265967478251,0.05285525520653391,1.6184615073259714,0.6186644915024274,0.3611572576769053,-3.958639934014889,68.8
,,0.03253723422239273,0.019343701494288257,0.0009051068505387497,0.05278604256721973,1.6192959698002627,0.6163984386773945,0.36645485347107165,-3.945388416665477,68.9
,,0.03253723422239273,0.019343701494288257,0.0009051068505387497,0.05278604256721973,1.620130432274554,0.6163984386773945,0.36645485347107165,-3.945388416665477,69.0
,,0.03253723422239273,0.019343701494288257,0.0009051068505387497,0.05278604256721973,1.6209648947488458,0.6163984386773945,0.36645485347107165,-3.945388416665477,69.1
,,0.03253723422239273,0.019343701494288257,0.0009051068505387497,0.05278604256721973,1.621799357223137,0.6163984386773945,0.36645485347107165,-3.945388416665477,69.2
,,0.03228875867425822,0.01913732918151183,0.001109609960799616,0.052535697816569665,1.6226910985130991,0.6146060681823551,0.36427286543962023,-3.9561144438899363,69.3
,,0.03228875867425822,0.01913732918151183,0.001109609960799616,0.052535697816569665,1.623582839803061,0.6146060681823551,0.36427286543962023,-3.9561144438899363,69.4
,,0.03228875867425822,0.01913732918151183,0.001109609960799616,0.052535697816569665,1.6238489097380249,0.6146060681823551,0.36427286543962023,-3.9561144438899363,69.5
,,0.03216758616587352,0.019790054674080907,0.0009399252701006812,0.052897566110055104,1.6272859439090814,0.6081108930219552,0.37412032593157607,-3.922575756658952,69.6
,,0.03216758616587352,0.019790054674080907,0.0009399252701006812,0.052897566110055104,1.6307229780801378,0.6081108930219552,0.37412032593157607,-3.922575756658952,69.7
,,0.03216758616587352,0.019790054674080907,0.0009399252701006812,0.052897566110055104,1.6341600122511948,0.6081108930219552,0.37412032593157607,-3.922575756658952,69.8
,,0.03216758616587352,0.019790054674080907,0.0009399252701006812,0.052897566110055104,1.6375970464222516,0.6081108930219552,0.37412032593157607,-3.922575756658952,69.9
,,0.0321161839658169,0.019857857608209458,0.0011527578782182099,0.053126799452244564,1.640943653507579,0.604519457165606,0.37378230597270584,-3.9191555008965206,70.0
,,0.0321161839658169,0.019857857608209458,0.0011527578782182099,0.053126799452244564,1.6442902605929055,0.604519457165606,0.37378230597270584,-3.9191555008965206,70.1
,,0.0321161839658169,0.019857857608209458,0.0011527578782182099,0.053126799452244564,1.647636867678233,0.604519457165606,0.37378230597270584,-3.9191555008965206,70.2
,,0.0321161839658169,0.019857857608209458,0.0011527578782182099,0.053126799452244564,1.6507645791028738,0.604519457165606,0.37378230597270584,-3.9191555008965206,70.3
,,0.03202587083479794,0.020980321732355537,0.0009744565697235078,0.05398064913687698,1.652883049376876,0.5932842851443112,0.3886637539158971,-3.864170340938264,70.4
,,0.03202587083479794,0.020980321732355537,0.0009744565697235078,0.05398064913687698,1.6550015196508778,0.5932842851443112,0.3886637539158971,-3.864170340938264,70.5
,,0.03202587083479794,0.020980321732355537,0.0009744565697235078,0.05398064913687698,1.6571199899248794,0.5932842851443112,0.3886637539158971,-3.864170340938264,70.6
,,0.03225094004306555,0.021354612449935688,0.001196101105724975,0.05480165359872621,1.6590582883288498,0.588503045532465,0.389670950557449,-3.8464875228311084,70.7
,,0.03225094004306555,0.021354612449935688,0.001196101105724975,0.05480165359872621,1.6609965867328205,0.588503045532465,0.389670950557449,-3.8464875228311084,70.8
,,0.03225094004306555,0.021354612449935688,0.001196101105724975,0.05480165359872621,1.6629348851367909,0.588503045532465,0.389670950557449,-3.8464875228311084,70.9
,,0.03225094004306555,0.021354612449935688,0.001196101105724975,0.05480165359872621,1.6648731835407615,0.588503045532465,0.389670950557449,-3.8464875228311084,71.0
,,0.03197389896291008,0.022853935699875743,0.0009996402829486582,0.05582747494573448,1.6652417143004579,0.5727269412415554,0.40936717489175833,-3.778631935778868,71.1
,,0.03197389896291008,0.022853935699875743,0.0009996402829486582,0.05582747494573448,1.665610245060154,0.5727269412415554,0.40936717489175833,-3.778631935778868,71.2
,,0.03197389896291008,0.022853935699875743,0.0009996402829486582,0.05582747494573448,1.6659787758198503,0.5727269412415554,0.40936717489175833,-3.778631935778868,71.3
,,0.03197389896291008,0.022853935699875743,0.0009996402829486582,0.05582747494573448,1.6663473065795469,0.5727269412415554,0.40936717489175833,-3.778631935778868,71.4
,,0.03275349610357678,0.023826074323011454,0.0012431188282934944,0.05782268925488173,1.6664451359334789,0.5664471252659965,0.41205406787613075,-3.7369747382019822,71.5
,,0.03275349610357678,0.023826074323011454,0.0012431188282934944,0.05782268925488173,1.6665429652874104,0.5664471252659965,0.41205406787613075,-3.7369747382019822,71.6
,,0.03275349610357678,0.023826074323011454,0.0012431188282934944,0.05782268925488173,1.6666407946413424,0.5664471252659965,0.41205406787613075,-3.7369747382019822,71.7
,,0.03275349610357678,0.023826074323011454,0.0012431188282934944,0.05782268925488173,1.6667386239952744,0.5664471252659965,0.41205406787613075,-3.7369747382019822,71.8
,,0.028817647093945787,0.019229194357363262,0.0008381254897386263,0.04888496694104768,1.667755851135031,0.5894991629778155,0.393355985707273,-3.951325615351987,71.9
