HRV_ULF,HRV_VLF,HRV_LF,HRV_HF,HRV_VHF,HRV_TP,HRV_LFHF,HRV_LFn,HRV_HFn,HRV_LnHF,time
,,0.023813108086696715,0.029415234629823032,0.0012105321258385207,0.054438874842358265,0.8095501663125771,0.4374283663219286,0.5403350953707694,-3.526242554160966,0.0
,,0.01136361535910811,0.018945458271720235,0.0010780224972586328,0.03138709612808698,0.7046785005381343,0.3620473621622898,0.6036065966219394,-3.9661910452174256,0.1
,,0.011228052742617433,0.01898738531655816,0.0011041992329574304,0.031319637292133023,0.6668999186794036,0.3584988113970827,0.6062453769644223,-3.963980451022757,0.2
,,0.011228052742617433,0.01898738531655816,0.0011041992329574304,0.031319637292133023,0.6480106277500384,0.3584988113970827,0.6062453769644223,-3.963980451022757,0.3
,,0.011228052742617433,0.01898738531655816,0.0011041992329574304,0.031319637292133023,0.6366770531924191,0.3584988113970827,0.6062453769644223,-3.963980451022757,0.4
,,0.011228052742617433,0.01898738531655816,0.0011041992329574304,0.031319637292133023,0.6291213368206731,0.3584988113970827,0.6062453769644223,-3.963980451022757,0.5
,,0.021088015176664063,0.038179376206398365,0.0014641419611579462,0.06073153334422038,0.6181526437252278,0.3472333731002519,0.6286581962289903,-3.265459799047488,0.6
,,0.024917178097569697,0.03816715854306471,0.001480618356355102,0.06456495499698951,0.6224889900476832,0.3859241921369188,0.5911435785070143,-3.2657798571477814,0.7
,,0.024917178097569697,0.03816715854306471,0.001480618356355102,0.06456495499698951,0.6258617038540374,0.3859241921369188,0.5911435785070143,-3.2657798571477814,0.8
,,0.024917178097569697,0.03816715854306471,0.001480618356355102,0.06456495499698951,0.6285598748991208,0.3859241921369188,0.5911435785070143,-3.2657798571477814,0.9
,,0.024917178097569697,0.03816715854306471,0.001480618356355102,0.06456495499698951,0.6307674693905526,0.3859241921369188,0.5911435785070143,-3.2657798571477814,1.0
,,0.010730535368854923,0.022407950757458755,0.0012189798236518852,0.03435746594996556,0.6181094956595006,0.3123203377246068,0.6522003336943194,-3.798339438569642,1.1
,,0.01066177408406788,0.022600076837112452,0.0012594257331316827,0.03452127665431202,0.6068517122477128,0.3088464598465575,0.6546709457887184,-3.789801972837444,1.2
,,0.01066177408406788,0.022600076837112452,0.0012594257331316827,0.03452127665431202,0.5972021836090375,0.3088464598465575,0.6546709457887184,-3.789801972837444,1.3
,,0.01066177408406788,0.022600076837112452,0.0012594257331316827,0.03452127665431202,0.5888392587888523,0.3088464598465575,0.6546709457887184,-3.789801972837444,1.4
,,0.01066177408406788,0.022600076837112452,0.0012594257331316827,0.03452127665431202,0.5815216995711903,0.3088464598465575,0.6546709457887184,-3.789801972837444,1.5
,,0.010490332635734585,0.024401371287425273,0.0012942936738775752,0.03618599759703743,0.5726032175062015,0.2899003297505727,0.6743318661310868,-3.7131159479578444,1.6
,,0.010468423558274298,0.024705020862340287,0.0013430188991033884,0.03651646331971797,0.5643328543985191,0.28667681934634703,0.6765447312363406,-3.7007487822265617,1.7
,,0.010468423558274298,0.024705020862340287,0.0013430188991033884,0.03651646331971797,0.5569330558284876,0.28667681934634703,0.6765447312363406,-3.7007487822265617,1.8
,,0.010468423558274298,0.024705020862340287,0.0013430188991033884,0.03651646331971797,0.5502732371154593,0.28667681934634703,0.6765447312363406,-3.7007487822265617,1.9
,,0.010468423558274298,0.024705020862340287,0.0013430188991033884,0.03651646331971797,0.5442476868512907,0.28667681934634703,0.6765447312363406,-3.7007487822265617,2.0
,,0.025887739820216464,0.05577652665598935,0.002130929032899874,0.08379519550910569,0.5406061209120876,0.30894062198832567,0.665629172616804,-2.8864021673485043,2.1
,,0.025887739820216464,0.05577652665598935,0.002130929032899874,0.08379519550910569,0.5372812128806412,0.30894062198832567,0.665629172616804,-2.8864021673485043,2.2
,,0.025887739820216464,0.05577652665598935,0.002130929032899874,0.08379519550910569,0.5342333805184821,0.30894062198832567,0.665629172616804,-2.8864021673485043,2.3
,,0.025887739820216464,0.05577652665598935,0.002130929032899874,0.08379519550910569,0.5314293747452957,0.30894062198832567,0.665629172616804,-2.8864021673485043,2.4
,,0.025887739820216464,0.05577652665598935,0.002130929032899874,0.08379519550910569,0.528841061723893,0.30894062198832567,0.665629172616804,-2.8864021673485043,2.5
,,0.010622853342742418,0.03012040990090422,0.0015687678568485235,0.04231203110049516,0.5223165621910888,0.25105987744979946,0.7118639573072097,-3.502552267215282,2.6
,,0.010622853342742418,0.03012040990090422,0.0015687678568485235,0.04231203110049516,0.5162580983391992,0.25105987744979946,0.7118639573072097,-3.502552267215282,2.7
,,0.010622853342742418,0.03012040990090422,0.0015687678568485235,0.04231203110049516,0.5106174595805434,0.25105987744979946,0.7118639573072097,-3.502552267215282,2.8
,,0.010622853342742418,0.03012040990090422,0.0015687678568485235,0.04231203110049516,0.505352863405798,0.25105987744979946,0.7118639573072097,-3.502552267215282,2.9
,,0.010622853342742418,0.03012040990090422,0.0015687678568485235,0.04231203110049516,0.5004279185971652,0.25105987744979946,0.7118639573072097,-3.502552267215282,3.0
,,0.01054465815775905,0.03041145738753062,0.0016352865881986078,0.04259140213348828,0.49562495475792456,0.2475771547673026,0.7140280869884545,-3.4929358538265904,3.1
,,0.010756722415352794,0.03263704018626056,0.0016736200705291535,0.04506738267214251,0.49059348139025216,0.23868087689063522,0.7241831730874951,-3.4223074335659596,3.2
,,0.010756722415352794,0.03263704018626056,0.0016736200705291535,0.04506738267214251,0.4858579770442076,0.23868087689063522,0.7241831730874951,-3.4223074335659596,3.3
,,0.010756722415352794,0.03263704018626056,0.0016736200705291535,0.04506738267214251,0.4813930729465084,0.23868087689063522,0.7241831730874951,-3.4223074335659596,3.4
,,0.010756722415352794,0.03263704018626056,0.0016736200705291535,0.04506738267214251,0.47717621907645913,0.23868087689063522,0.7241831730874951,-3.4223074335659596,3.5
,,0.010361439594698233,0.03198463828342953,0.001700806195794011,0.04404688407392178,0.47303498345148454,0.235236607822454,0.7261498504582354,-3.4424995450878773,3.6
,,0.010630211328775565,0.03400011917090804,0.0017260726653658253,0.04635640316504943,0.4688143833217486,0.22931484332223276,0.7334503293936003,-3.3813912493454112,3.7
,,0.010630211328775565,0.03400011917090804,0.0017260726653658253,0.04635640316504943,0.4648102242243067,0.22931484332223276,0.7334503293936003,-3.3813912493454112,3.8
,,0.010630211328775565,0.03400011917090804,0.0017260726653658253,0.04635640316504943,0.4610062730817369,0.22931484332223276,0.7334503293936003,-3.3813912493454112,3.9
,,0.010630211328775565,0.03400011917090804,0.0017260726653658253,0.04635640316504943,0.4573878805314876,0.22931484332223276,0.7334503293936003,-3.3813912493454112,4.0
,,0.029678206811274054,0.08343179022400969,0.0037336001908650084,0.11684359722614875,0.4549671740148348,0.2539994275752432,0.7140467445771026,-2.4837258645012974,4.1
,,0.010187218004064327,0.03392698704545188,0.0017128082975137124,0.04582701334702991,0.45136953899759225,0.22229722733446625,0.7403272560778983,-3.3835445032608558,4.2
,,0.010187218004064327,0.03392698704545188,0.0017128082975137124,0.04582701334702991,0.44793543284476983,0.22229722733446625,0.7403272560778983,-3.3835445032608558,4.3
,,0.010187218004064327,0.03392698704545188,0.0017128082975137124,0.04582701334702991,0.4446539536320729,0.22229722733446625,0.7403272560778983,-3.3835445032608558,4.4
,,0.010187218004064327,0.03392698704545188,0.0017128082975137124,0.04582701334702991,0.4415151474286236,0.22229722733446625,0.7403272560778983,-3.3835445032608558,4.5
,,0.009537759817297164,0.032251177431825304,0.0016946309090540156,0.043483568158176486,0.438413414363449,0.2193417012744323,0.7416865450072527,-3.4342007268928487,4.6
,,0.010437858020805534,0.035891106419209194,0.0018026634826130792,0.048131627922627804,0.43533855530931836,0.216860689557073,0.745686526059426,-3.3272657462340125,4.7
,,0.010437858020805534,0.035891106419209194,0.0018026634826130792,0.048131627922627804,0.4323892007063767,0.216860689557073,0.745686526059426,-3.3272657462340125,4.8
,,0.010437858020805534,0.035891106419209194,0.0018026634826130792,0.048131627922627804,0.42955782028755274,0.216860689557073,0.745686526059426,-3.3272657462340125,4.9
,,0.010437858020805534,0.035891106419209194,0.0018026634826130792,0.048131627922627804,0.4268374743949571,0.216860689557073,0.745686526059426,-3.3272657462340125,5.0
,,0.01002607693820507,0.03488989314070272,0.0018229498899703192,0.046738919968878107,0.42415527989576834,0.21451237950900665,0.7464847960529413,-3.355558086536705,5.1
,,0.011240618131840727,0.03958322356416903,0.0019784004438749437,0.0528022421398847,0.42151035571269213,0.21288145495908806,0.7496504307393691,-3.2293498978550708,5.2
,,0.011240618131840727,0.03958322356416903,0.0019784004438749437,0.0528022421398847,0.4189633916845446,0.21288145495908806,0.7496504307393691,-3.2293498978550708,5.3
,,0.011240618131840727,0.03958322356416903,0.0019784004438749437,0.0528022421398847,0.4165090445301479,0.21288145495908806,0.7496504307393691,-3.2293498978550708,5.4
,,0.011240618131840727,0.03958322356416903,0.0019784004438749437,0.0528022421398847,0.4141423526312654,0.21288145495908806,0.7496504307393691,-3.2293498978550708,5.5
,,0.010899239244664068,0.03869061548936691,0.002012996670562997,0.051602851404593975,0.4118188446921037,0.21121389512389924,0.7497766971443454,-3.2521582021675886,5.6
,,0.010899239244664068,0.03869061548936691,0.002012996670562997,0.051602851404593975,0.4095754577163614,0.21121389512389924,0.7497766971443454,-3.2521582021675886,5.7
,,0.018949918874910335,0.09183748634483652,0.004759800053959925,0.11554720527370678,0.4061308206745186,0.16400153365909634,0.7948049122200145,-2.3877347167240712,5.8
,,0.018949918874910335,0.09183748634483652,0.004759800053959925,0.11554720527370678,0.40280100486740383,0.16400153365909634,0.7948049122200145,-2.3877347167240712,5.9
,,0.01155771151052603,0.041631436521201194,0.002157454073381854,0.055346602105109076,0.400748854137182,0.20882422896669803,0.752194984655764,-3.178899711495723,6.0
,,0.01155771151052603,0.041631436521201194,0.002157454073381854,0.055346602105109076,0.39876290181761237,0.20882422896669803,0.752194984655764,-3.178899711495723,6.1
,,0.01155771151052603,0.041631436521201194,0.002157454073381854,0.055346602105109076,0.396839995603426,0.20882422896669803,0.752194984655764,-3.178899711495723,6.2
,,0.016795887571627754,0.08742283160288995,0.004793237337246079,0.10901195651176379,0.3936412837707369,0.15407381088344435,0.8019563578189325,-2.4369987992812168,6.3
,,0.016795887571627754,0.08742283160288995,0.004793237337246079,0.10901195651176379,0.39054099384059215,0.15407381088344435,0.8019563578189325,-2.4369987992812168,6.4
,,0.011822530017538926,0.0431025907579908,0.0022341181650389653,0.057159238940568693,0.3887795871643582,0.20683497955302377,0.7540791577509754,-3.1441721732847743,6.5
,,0.011822530017538926,0.0431025907579908,0.0022341181650389653,0.057159238940568693,0.3870707597918923,0.20683497955302377,0.7540791577509754,-3.1441721732847743,6.6
,,0.011822530017538926,0.0431025907579908,0.0022341181650389653,0.057159238940568693,0.3854121920480284,0.20683497955302377,0.7540791577509754,-3.1441721732847743,6.7
,,0.011822530017538926,0.0431025907579908,0.0022341181650389653,0.057159238940568693,0.38380169873152287,0.20683497955302377,0.7540791577509754,-3.1441721732847743,6.8
,,0.012221642445889755,0.04545070358707624,0.002273002981143692,0.05994534901410968,0.38216022962725704,0.20387974458223734,0.7582023348696868,-3.0911269780147466,6.9
,,0.011897395182557082,0.043820223764597564,0.002282001744136237,0.05799962069129088,0.38060170055093284,0.20512884465024742,0.7555260403828388,-3.1276598383788,7.0
,,0.011897395182557082,0.043820223764597564,0.002282001744136237,0.05799962069129088,0.37908646394895096,0.20512884465024742,0.7555260403828388,-3.1276598383788,7.1
,,0.011897395182557082,0.043820223764597564,0.002282001744136237,0.05799962069129088,0.37761274067853023,0.20512884465024742,0.7555260403828388,-3.1276598383788,7.2
,,0.011897395182557082,0.043820223764597564,0.002282001744136237,0.05799962069129088,0.37617884776676946,0.20512884465024742,0.7555260403828388,-3.1276598383788,7.3
,,0.012274968782250305,0.04632452370808738,0.0023271640876323294,0.060926656577970015,0.3746961666705209,0.20147123560836774,0.7603326082534044,-3.0720837883943326,7.4
,,0.012077155794879888,0.0448250568806035,0.002336930678259846,0.05923914335374324,0.37331106812900217,0.20387120932458166,0.7566796942510322,-3.104987990543536,7.5
,,0.012077155794879888,0.0448250568806035,0.002336930678259846,0.05923914335374324,0.3719619461729774,0.20387120932458166,0.7566796942510322,-3.104987990543536,7.6
,,0.012077155794879888,0.0448250568806035,0.002336930678259846,0.05923914335374324,0.3706474170876199,0.20387120932458166,0.7566796942510322,-3.104987990543536,7.7
,,0.012077155794879888,0.0448250568806035,0.002336930678259846,0.05923914335374324,0.36936616721961324,0.20387120932458166,0.7566796942510322,-3.104987990543536,7.8
,,0.012343268760844461,0.04704481731871137,0.002370225512234092,0.061758311591789926,0.3680287470247343,0.19986409023664695,0.7617568567882522,-3.0566545716489966,7.9
,,0.012324307934798304,0.045879641960471514,0.002394669778525586,0.06059861967379541,0.366801510432983,0.2033760504965378,0.7571070464549079,-3.081733790577234,8.0
,,0.012324307934798304,0.045879641960471514,0.002394669778525586,0.06059861967379541,0.36560420644103053,0.2033760504965378,0.7571070464549079,-3.081733790577234,8.1
,,0.012324307934798304,0.045879641960471514,0.002394669778525586,0.06059861967379541,0.3644357531476793,0.2033760504965378,0.7571070464549079,-3.081733790577234,8.2
,,0.012324307934798304,0.045879641960471514,0.002394669778525586,0.06059861967379541,0.3632951201708364,0.2033760504965378,0.7571070464549079,-3.081733790577234,8.3
,,0.012324307934798304,0.045879641960471514,0.002394669778525586,0.06059861967379541,0.36218132561697813,0.2033760504965378,0.7571070464549079,-3.081733790577234,8.4
,,0.012674958347830542,0.04712262735187216,0.0024553795646228968,0.062252965264325597,0.36109756806190957,0.20360409008651667,0.7569539402948896,-3.0550019824523464,8.5
,,0.012674958347830542,0.04712262735187216,0.0024553795646228968,0.062252965264325597,0.36003872447362417,0.20360409008651667,0.7569539402948896,-3.0550019824523464,8.6
,,0.012674958347830542,0.04712262735187216,0.0024553795646228968,0.062252965264325597,0.3590039455123453,0.20360409008651667,0.7569539402948896,-3.0550019824523464,8.7
,,0.012674958347830542,0.04712262735187216,0.0024553795646228968,0.062252965264325597,0.35799242001087045,0.20360409008651667,0.7569539402948896,-3.0550019824523464,8.8
,,0.012893185024682846,0.04643284834807406,0.0024921454614767707,0.06181817883423368,0.3570999907989075,0.20856623840789784,0.7511196418869667,-3.069748131684129,8.9
,,0.01207985358040481,0.06931018338303975,0.005089157623923565,0.08647919458736812,0.3500415095138641,0.13968508423376663,0.8014665690834704,-2.669163437217629,9.0
,,0.01207985358040481,0.06931018338303975,0.005089157623923565,0.08647919458736812,0.3453135096904749,0.13968508423376663,0.8014665690834704,-2.669163437217629,9.1
,,0.01207985358040481,0.06931018338303975,0.005089157623923565,0.08647919458736812,0.3406795551982163,0.13968508423376663,0.8014665690834704,-2.669163437217629,9.2
,,0.01207985358040481,0.06931018338303975,0.005089157623923565,0.08647919458736812,0.33604560070595774,0.13968508423376663,0.8014665690834704,-2.669163437217629,9.3
,,0.0133212079546527,0.047291867052986596,0.002528255086119162,0.06314133009375845,0.3326049116149217,0.21097445896169847,0.748984333759884,-3.051416942179787,9.4
,,0.013487666997614936,0.048602322728479884,0.0025151031713011186,0.06460509289739594,0.32911788932967795,0.20877095586002303,0.7522986276897516,-3.024083956450651,9.5
,,0.013487666997614936,0.048602322728479884,0.0025151031713011186,0.06460509289739594,0.32606422559787174,0.20877095586002303,0.7522986276897516,-3.024083956450651,9.6
,,0.013487666997614936,0.048602322728479884,0.0025151031713011186,0.06460509289739594,0.32189386265326214,0.20877095586002303,0.7522986276897516,-3.024083956450651,9.7
,,0.013487666997614936,0.048602322728479884,0.0025151031713011186,0.06460509289739594,0.31772349970865243,0.20877095586002303,0.7522986276897516,-3.024083956450651,9.8
,,0.009566694971923263,0.06144061490091208,0.004906407380155217,0.07591371725299055,0.3121997547457337,0.12602063656086335,0.8093479956481999,-2.789684182039936,9.9
,,0.009223793365103787,0.049287174472886906,0.002536135153819621,0.06104710299181031,0.3070253155433128,0.15109305623136926,0.807363037022395,-3.01009138445885,10.0
,,0.009223793365103787,0.049287174472886906,0.002536135153819621,0.06104710299181031,0.3037838944485247,0.15109305623136926,0.807363037022395,-3.01009138445885,10.1
,,0.009223793365103787,0.049287174472886906,0.002536135153819621,0.06104710299181031,0.30062151194608844,0.15109305623136926,0.807363037022395,-3.01009138445885,10.2
,,0.009223793365103787,0.049287174472886906,0.002536135153819621,0.06104710299181031,0.29745912944365216,0.15109305623136926,0.807363037022395,-3.01009138445885,10.3
,,0.014509540748861221,0.048854043155468374,0.00258754045593362,0.06595112436026322,0.2955173453957699,0.22000444859137971,0.7407613384814989,-3.0189181371738325,10.4
,,0.014699845675636189,0.04984520938521729,0.0025422434479204967,0.06708729850877397,0.29355236303908694,0.2191151827899834,0.7429902603500768,-2.9988328877896944,10.5
,,0.014709306741819325,0.049876900589262446,0.002543834590594222,0.06713004192167599,0.29205241526957154,0.21911660295075366,0.7429892662283206,-2.9981972974452837,10.6
,,0.014709306741819325,0.049876900589262446,0.002543834590594222,0.06713004192167599,0.290621032198928,0.21911660295075366,0.7429892662283206,-2.9981972974452837,10.7
,,0.015255904938067454,0.049616974790020245,0.0026073503660185493,0.06748023009410624,0.28932921907934595,0.22607962238409607,0.7352816479852788,-3.003422270130077,10.8
,,0.015255904938067454,0.049616974790020245,0.0026073503660185493,0.06748023009410624,0.28803740595976396,0.22607962238409607,0.7352816479852788,-3.003422270130077,10.9
,,0.015525837862828611,0.05057034571422846,0.002550620298778761,0.06864680387583583,0.28674049468970925,0.22616985768064024,0.7366744387065278,-2.984389927563436,11.0
,,0.015525837862828611,0.05057034571422846,0.002550620298778761,0.06864680387583583,0.2849947328127556,0.22616985768064024,0.7366744387065278,-2.984389927563436,11.1
,,0.01550608528340769,0.05051563339842718,0.0025485940619147563,0.06857031274374963,0.28324832095088287,0.22613409014706753,0.7366983083073632,-2.985472418362341,11.2
,,0.016146841318333705,0.05040899449110786,0.002619423274431233,0.0691752590838728,0.2816503591186442,0.23341931106837163,0.7287142131262357,-2.987585657702129,11.3
,,0.016146841318333705,0.05040899449110786,0.002619423274431233,0.0691752590838728,0.2800523972864056,0.23341931106837163,0.7287142131262357,-2.987585657702129,11.4
,,0.016476327559398988,0.051127062256134496,0.0025489206963906197,0.07015231051192411,0.2784760541778425,0.23486507342617646,0.7288008318335316,-2.9734413279044043,11.5
,,0.016476327559398988,0.051127062256134496,0.0025489206963906197,0.07015231051192411,0.27813808508984206,0.23486507342617646,0.7288008318335316,-2.9734413279044043,11.6
,,0.016476327559398988,0.051127062256134496,0.0025489206963906197,0.07015231051192411,0.2778001160018416,0.23486507342617646,0.7288008318335316,-2.9734413279044043,11.7
,,0.017138026102414744,0.05107945313195758,0.0026253136042104458,0.07084279283858277,0.27760942099809116,0.24191629685554888,0.7210254012478517,-2.9743729539840054,11.8
,,0.017148230888253707,0.05106060361565902,0.0026202289904413124,0.07082906349435404,0.27742232283554097,0.24210726560885046,0.7208990363077324,-2.9747420455453923,11.9
,,0.017494773392818866,0.05168902550790607,0.0025332838510387277,0.07171708275176365,0.277264350312136,0.24394150907356363,0.7207351934101773,-2.962509792575116,12.0
,,0.017494773392818866,0.05168902550790607,0.0025332838510387277,0.07171708275176365,0.27717244999536106,0.24394150907356363,0.7207351934101773,-2.962509792575116,12.1
,,0.017494773392818866,0.05168902550790607,0.0025332838510387277,0.07171708275176365,0.2772710690354388,0.24394150907356363,0.7207351934101773,-2.962509792575116,12.2
,,0.018258635767234913,0.05163097571098681,0.002615837591645756,0.07250544906986747,0.2775383013324343,0.2518243249502611,0.7120978681372531,-2.9636334821287864,12.3
,,0.018258635767234913,0.05163097571098681,0.002615837591645756,0.07250544906986747,0.2778055336294298,0.2518243249502611,0.7120978681372531,-2.9636334821287864,12.4
,,0.01865793605274229,0.052163436826103776,0.0025150424236344117,0.07333641530248049,0.27811771060607066,0.2544157084278868,0.7112896998162853,-2.9533734734633867,12.5
,,0.01865793605274229,0.052163436826103776,0.0025150424236344117,0.07333641530248049,0.2784925079457375,0.2544157084278868,0.7112896998162853,-2.9533734734633867,12.6
,,0.01865793605274229,0.052163436826103776,0.0025150424236344117,0.07333641530248049,0.27899284220130294,0.2544157084278868,0.7112896998162853,-2.9533734734633867,12.7
,,0.019353997865717332,0.051891660573564445,0.0025931039789728735,0.07383876241825466,0.2796630327709324,0.26211162310776454,0.7027699120907208,-2.958597184311405,12.8
,,0.019353997865717332,0.051891660573564445,0.0025931039789728735,0.07383876241825466,0.2803332233405618,0.26211162310776454,0.7027699120907208,-2.958597184311405,12.9
,,0.019873666009987283,0.05243697332894552,0.0024835813840904998,0.0747942207230233,0.2810704326124736,0.2657112517233532,0.7010832230357642,-2.948143338591649,13.0
,,0.019873666009987283,0.05243697332894552,0.0024835813840904998,0.0747942207230233,0.28132913045871255,0.2657112517233532,0.7010832230357642,-2.948143338591649,13.1
,,0.019873666009987283,0.05243697332894552,0.0024835813840904998,0.0747942207230233,0.2822039320667144,0.2657112517233532,0.7010832230357642,-2.948143338591649,13.2
,,0.020459098090046427,0.05185134052113918,0.002557759450450977,0.07486819806163658,0.28325174698960737,0.27326820492197645,0.6925682982038868,-2.95937449080977,13.3
,,0.020459098090046427,0.05185134052113918,0.002557759450450977,0.07486819806163658,0.28429956191250033,0.27326820492197645,0.6925682982038868,-2.95937449080977,13.4
,,0.021276152448779246,0.05287344904246317,0.002457723545019143,0.07660732503626155,0.28543432632343063,0.2777300008675192,0.6901879032773417,-2.9398539745761494,13.5
,,0.021276152448779246,0.05287344904246317,0.002457723545019143,0.07660732503626155,0.28661948156667194,0.2777300008675192,0.6901879032773417,-2.9398539745761494,13.6
,,0.021276152448779246,0.05287344904246317,0.002457723545019143,0.07660732503626155,0.2878592314054714,0.2777300008675192,0.6901879032773417,-2.9398539745761494,13.7
,,0.008716936319960754,0.05012064220060738,0.004361258843066482,0.06319883736363462,0.286560330372215,0.13792874495151053,0.7930627253824674,-2.993322335776036,13.8
,,0.008716936319960754,0.05012064220060738,0.004361258843066482,0.06319883736363462,0.2852614293389586,0.13792874495151053,0.7930627253824674,-2.993322335776036,13.9
,,0.022708975113585553,0.05330398785352269,0.0024306566313256135,0.07844361959843386,0.2867637350708858,0.28949422820921106,0.679519738206814,-2.9317441315937063,14.0
,,0.022708975113585553,0.05330398785352269,0.0024306566313256135,0.07844361959843386,0.28830444990645787,0.28949422820921106,0.679519738206814,-2.9317441315937063,14.1
,,0.022708975113585553,0.05330398785352269,0.0024306566313256135,0.07844361959843386,0.28988282098919005,0.28949422820921106,0.679519738206814,-2.9317441315937063,14.2
,,0.023473918463822956,0.05322842272190474,0.0025445261487548614,0.07924686733448255,0.2916275894272299,0.2962125728547101,0.671678572444258,-2.933162763611564,14.3
,,0.023473918463822956,0.05322842272190474,0.0025445261487548614,0.07924686733448255,0.29337235786526983,0.2962125728547101,0.671678572444258,-2.933162763611564,14.4
,,0.009231717685734116,0.04479072162695148,0.003552957600441438,0.05757539691312703,0.2925071746985732,0.16034136420567704,0.7779489856497944,-3.1057542675519803,14.5
,,0.009231717685734116,0.04479072162695148,0.003552957600441438,0.05757539691312703,0.2916672348440284,0.16034136420567704,0.7779489856497944,-3.1057542675519803,14.6
,,0.009231717685734116,0.04479072162695148,0.003552957600441438,0.05757539691312703,0.29082729498948373,0.16034136420567704,0.7779489856497944,-3.1057542675519803,14.7
,,0.025109694794746736,0.05389752679455382,0.0025440426497755023,0.08155126423907606,0.2937110344439576,0.3079007423003896,0.6609036327940617,-2.9206706871931507,14.8
,,0.025109694794746736,0.05389752679455382,0.0025440426497755023,0.08155126423907606,0.29659477389843136,0.3079007423003896,0.6609036327940617,-2.9206706871931507,14.9
,,0.02601219156520507,0.0546878350602812,0.002420921218993035,0.0831209478444793,0.2987950936581101,0.3129438756385974,0.6579308402811174,-2.9061139880665023,15.0
,,0.02601219156520507,0.0546878350602812,0.002420921218993035,0.0831209478444793,0.3009954134177888,0.3129438756385974,0.6579308402811174,-2.9061139880665023,15.1
,,0.02601219156520507,0.0546878350602812,0.002420921218993035,0.0831209478444793,0.3031957331774675,0.3129438756385974,0.6579308402811174,-2.9061139880665023,15.2
,,0.026743958342522235,0.05440368960014095,0.002553811784503141,0.08370145972716633,0.3065230787558348,0.31951603269162765,0.6499730085649099,-2.911323303888149,15.3
,,0.026743958342522235,0.05440368960014095,0.002553811784503141,0.08370145972716633,0.30985042433420207,0.31951603269162765,0.6499730085649099,-2.911323303888149,15.4
,,0.026743958342522235,0.05440368960014095,0.002553811784503141,0.08370145972716633,0.31226481752481583,0.31951603269162765,0.6499730085649099,-2.911323303888149,15.5
,,0.011012209254913344,0.04465942984170895,0.0032798374158914015,0.058951476512513694,0.31195697081220586,0.1868012458106248,0.7575625325046617,-3.108689799294948,15.6
,,0.011012209254913344,0.04465942984170895,0.0032798374158914015,0.058951476512513694,0.3116491240995959,0.1868012458106248,0.7575625325046617,-3.108689799294948,15.7
,,0.0282245931573703,0.05452214704774102,0.0025486978166700805,0.0852954380217814,0.31435338993022727,0.33090390074745557,0.639215277068136,-2.909148292009532,15.8
,,0.0282245931573703,0.05452214704774102,0.0025486978166700805,0.0852954380217814,0.3171175367805945,0.33090390074745557,0.639215277068136,-2.909148292009532,15.9
,,0.0282245931573703,0.05452214704774102,0.0025486978166700805,0.0852954380217814,0.3198527302556805,0.33090390074745557,0.639215277068136,-2.909148292009532,16.0
,,0.02933743517769053,0.05541996052643003,0.0024281522428578383,0.08718554794697839,0.3227178546648008,0.33649424553174795,0.6356553560933459,-2.8928154518097378,16.1
,,0.02933743517769053,0.05541996052643003,0.0024281522428578383,0.08718554794697839,0.32558297907392114,0.33649424553174795,0.6356553560933459,-2.8928154518097378,16.2
,,0.029609923532091693,0.05427792018046585,0.00254466225957852,0.08643250597213606,0.32862764150261403,0.3425785611450081,0.6279804058667912,-2.913637761247983,16.3
,,0.029609923532091693,0.05427792018046585,0.00254466225957852,0.08643250597213606,0.33174482503864144,0.3425785611450081,0.6279804058667912,-2.913637761247983,16.4
,,0.029609923532091693,0.05427792018046585,0.00254466225957852,0.08643250597213606,0.3348125539972581,0.3425785611450081,0.6279804058667912,-2.913637761247983,16.5
,,0.030965184460874005,0.05558287620914041,0.0024438919650705557,0.08899195263508497,0.3380088948533473,0.34795488293023497,0.6245831736838071,-2.889880107011743,16.6
,,0.030965184460874005,0.05558287620914041,0.0024438919650705557,0.08899195263508497,0.34120523570943645,0.34795488293023497,0.6245831736838071,-2.889880107011743,16.7
,,0.030980231331183914,0.054004523758111045,0.002550401039833019,0.08753515612912798,0.3445855829618246,0.3539175881000686,0.6169466777262151,-2.918687462628297,16.8
,,0.030980231331183914,0.054004523758111045,0.002550401039833019,0.08753515612912798,0.3480443316129439,0.3539175881000686,0.6169466777262151,-2.918687462628297,16.9
,,0.030980231331183914,0.054004523758111045,0.002550401039833019,0.08753515612912798,0.3514336354700233,0.3539175881000686,0.6169466777262151,-2.918687462628297,17.0
,,0.032408921688033936,0.055309299085162605,0.0024577332377268154,0.09017595401092336,0.354959583625624,0.35939649370505267,0.6133486436801409,-2.8948142275352793,17.1
,,0.032408921688033936,0.055309299085162605,0.0024577332377268154,0.09017595401092336,0.3584855317812248,0.35939649370505267,0.6133486436801409,-2.8948142275352793,17.2
,,0.018516827664809388,0.06203304599153622,0.004025719858361904,0.08457559351470752,0.35881749653105555,0.21893819357696084,0.7334627333209173,-2.780088036067532,17.3
,,0.018516827664809388,0.06203304599153622,0.004025719858361904,0.08457559351470752,0.35914946128088626,0.21893819357696084,0.7334627333209173,-2.780088036067532,17.4
,,0.018516827664809388,0.06203304599153622,0.004025719858361904,0.08457559351470752,0.35947747499973687,0.21893819357696084,0.7334627333209173,-2.780088036067532,17.5
,,0.03389841470126986,0.05517919970265052,0.0024870583035419905,0.09156467270746238,0.3633147531209138,0.37021280914279064,0.6026254238787171,-2.897169213693415,17.6
,,0.03389841470126986,0.05517919970265052,0.0024870583035419905,0.09156467270746238,0.3671520312420907,0.37021280914279064,0.6026254238787171,-2.897169213693415,17.7
,,0.020178480840250274,0.0652187582866782,0.0039960928064799416,0.08939333193340841,0.3676011280412191,0.22572691277780974,0.7295707283319686,-2.730008147644919,17.8
,,0.020178480840250274,0.0652187582866782,0.0039960928064799416,0.08939333193340841,0.36795360689531265,0.22572691277780974,0.7295707283319686,-2.730008147644919,17.9
,,0.020178480840250274,0.0652187582866782,0.0039960928064799416,0.08939333193340841,0.3694548295302456,0.22572691277780974,0.7295707283319686,-2.730008147644919,18.0
,,0.03592933543371969,0.05589538459358497,0.002556519014646493,0.09438123904195116,0.374660487897799,0.380683023431697,0.592229824072772,-2.8842734676397237,18.1
,,0.03592933543371969,0.05589538459358497,0.002556519014646493,0.09438123904195116,0.3798661462653523,0.380683023431697,0.592229824072772,-2.8842734676397237,18.2
,,0.036489613110943946,0.05523991896776574,0.002713075428429689,0.09444260750713937,0.38526924808522905,0.38636812424080436,0.5849046360096516,-2.8960694173544,18.3
,,0.036489613110943946,0.05523991896776574,0.002713075428429689,0.09444260750713937,0.3894790845038832,0.38636812424080436,0.5849046360096516,-2.8960694173544,18.4
,,0.036489613110943946,0.05523991896776574,0.002713075428429689,0.09444260750713937,0.393735254116745,0.38636812424080436,0.5849046360096516,-2.8960694173544,18.5
,,0.03806237238291165,0.05668759091057358,0.0026381660614425086,0.09738812935492774,0.3981122568346573,0.3908317434067824,0.5820790612373051,-2.870199947393429,18.6
,,0.03806237238291165,0.05668759091057358,0.0026381660614425086,0.09738812935492774,0.40248925955256964,0.3908317434067824,0.5820790612373051,-2.870199947393429,18.7
,,0.03806237238291165,0.05668759091057358,0.0026381660614425086,0.09738812935492774,0.40686626227048195,0.3908317434067824,0.5820790612373051,-2.870199947393429,18.8
,,0.03821775113714442,0.05539951432274586,0.002771820893976797,0.09638908635386709,0.41280127097840297,0.3964945885765328,0.5747488270545607,-2.8931844520047663,18.9
,,0.03821775113714442,0.05539951432274586,0.002771820893976797,0.09638908635386709,0.41838697392582624,0.3964945885765328,0.5747488270545607,-2.8931844520047663,19.0
,,0.039803113804927445,0.05683914881842296,0.002697836931800353,0.09934009955515076,0.42408844616409785,0.400675195446426,0.5721672222290003,-2.867529950910703,19.1
,,0.039803113804927445,0.05683914881842296,0.002697836931800353,0.09934009955515076,0.42978991840236946,0.400675195446426,0.5721672222290003,-2.867529950910703,19.2
,,0.039803113804927445,0.05683914881842296,0.002697836931800353,0.09934009955515076,0.4354913906406412,0.400675195446426,0.5721672222290003,-2.867529950910703,19.3
,,0.02493892979071838,0.07716518087372394,0.004064479614474915,0.10616859027891723,0.43578240343246927,0.2348993212135615,0.726817420020385,-2.5618069486455157,19.4
,,0.02493892979071838,0.07716518087372394,0.004064479614474915,0.10616859027891723,0.43609661453309784,0.2348993212135615,0.726817420020385,-2.5618069486455157,19.5
,,0.041328039303356934,0.056573317122455634,0.0027554076453913915,0.10065676407120397,0.4409367207190399,0.41058382598234267,0.5620418820779498,-2.8722178338624347,19.6
,,0.041328039303356934,0.056573317122455634,0.0027554076453913915,0.10065676407120397,0.4457768269049817,0.41058382598234267,0.5620418820779498,-2.8722178338624347,19.7
,,0.041328039303356934,0.056573317122455634,0.0027554076453913915,0.10065676407120397,0.4504773631398623,0.41058382598234267,0.5620418820779498,-2.8722178338624347,19.8
,,0.0405852786334895,0.054155452466469536,0.002815030750713112,0.09755576185067215,0.4553879002009962,0.41602133860235824,0.5551230541294411,-2.9158966187026656,19.9
,,0.0405852786334895,0.054155452466469536,0.002815030750713112,0.09755576185067215,0.4603035354126026,0.41602133860235824,0.5551230541294411,-2.9158966187026656,20.0
,,0.041881884679932625,0.055123175739523356,0.0027431889260919476,0.09974824934554792,0.46533434159992715,0.4198758870929693,0.5526229893876696,-2.898185038923292,20.1
,,0.041881884679932625,0.055123175739523356,0.0027431889260919476,0.09974824934554792,0.47036579777217064,0.4198758870929693,0.5526229893876696,-2.898185038923292,20.2
,,0.041881884679932625,0.055123175739523356,0.0027431889260919476,0.09974824934554792,0.47524880391478014,0.4198758870929693,0.5526229893876696,-2.898185038923292,20.3
,,0.025179109434643496,0.07762814657106049,0.0038137635916564777,0.10662101959736045,0.47529367880740675,0.23615521151203508,0.7280754476388658,-2.5558252040130256,20.4
,,0.025179109434643496,0.07762814657106049,0.0038137635916564777,0.10662101959736045,0.4753169349763577,0.23615521151203508,0.7280754476388658,-2.5558252040130256,20.5
,,0.04259914893628887,0.05417055545299607,0.0027476614186102,0.09951736580789515,0.4804739017859462,0.4280574409346885,0.5443326902117267,-2.915617775479058,20.6
,,0.04259914893628887,0.05417055545299607,0.0027476614186102,0.09951736580789515,0.4856308685955346,0.4280574409346885,0.5443326902117267,-2.915617775479058,20.7
,,0.04259914893628887,0.05417055545299607,0.0027476614186102,0.09951736580789515,0.49064056132087314,0.4280574409346885,0.5443326902117267,-2.915617775479058,20.8
,,0.042761823560260905,0.0532339342183254,0.0028541569387051276,0.09884991471729143,0.4958343452567451,0.43259342896307773,0.5385329301555117,-2.9330592247348384,20.9
,,0.042761823560260905,0.0532339342183254,0.0028541569387051276,0.09884991471729143,0.5009990035534719,0.43259342896307773,0.5385329301555117,-2.9330592247348384,21.0
,,0.04304050207120847,0.053033387181039386,0.0027375614531141568,0.09881145070536201,0.5062557996561964,0.4355821290342909,0.536712970029915,-2.936833616951156,21.1
,,0.04304050207120847,0.053033387181039386,0.0027375614531141568,0.09881145070536201,0.5115125957589208,0.4355821290342909,0.536712970029915,-2.936833616951156,21.2
,,0.04304050207120847,0.053033387181039386,0.0027375614531141568,0.09881145070536201,0.5166007786047275,0.4355821290342909,0.536712970029915,-2.936833616951156,21.3
,,0.042046719502897664,0.050871920228857295,0.0027634981463540032,0.09568213787810896,0.5218550445934685,0.4394416809170973,0.531676249684804,-2.9784441730938753,21.4
,,0.021844581251226725,0.06728381237971447,0.0030133644145069185,0.09214175804544811,0.5214881666961915,0.23707580270448148,0.7302206275088361,-2.6988356005394203,21.5
,,0.021844581251226725,0.06728381237971447,0.0030133644145069185,0.09214175804544811,0.5211212887989143,0.23707580270448148,0.7302206275088361,-2.6988356005394203,21.6
,,0.021844581251226725,0.06728381237971447,0.0030133644145069185,0.09214175804544811,0.5207544109016372,0.23707580270448148,0.7302206275088361,-2.6988356005394203,21.7
,,0.021844581251226725,0.06728381237971447,0.0030133644145069185,0.09214175804544811,0.5202176766902962,0.23707580270448148,0.7302206275088361,-2.6988356005394203,21.8
,,0.021844581251226725,0.06728381237971447,0.0030133644145069185,0.09214175804544811,0.5196809424789551,0.23707580270448148,0.7302206275088361,-2.6988356005394203,21.9
,,0.04240217289238375,0.04981692251786643,0.002642927650248191,0.09486202306049837,0.5249271536959599,0.4469878622063722,0.5251513820878101,-2.999400543078023,22.0
,,0.04240217289238375,0.04981692251786643,0.002642927650248191,0.09486202306049837,0.5301733649129647,0.4469878622063722,0.5251513820878101,-2.999400543078023,22.1
,,0.04240217289238375,0.04981692251786643,0.002642927650248191,0.09486202306049837,0.5354195761299695,0.4469878622063722,0.5251513820878101,-2.999400543078023,22.2
,,0.04240217289238375,0.04981692251786643,0.002642927650248191,0.09486202306049837,0.5404927740320832,0.4469878622063722,0.5251513820878101,-2.999400543078023,22.3
,,0.04240217289238375,0.04981692251786643,0.002642927650248191,0.09486202306049837,0.5455659719341968,0.4469878622063722,0.5251513820878101,-2.999400543078023,22.4
,,0.041810580996194086,0.048426210673940755,0.0025865603424417615,0.0928233520125766,0.5506880802977533,0.45043170807416205,0.5217028864393898,-3.0277140689909467,22.5
,,0.041810580996194086,0.048426210673940755,0.0025865603424417615,0.0928233520125766,0.5558101886613096,0.45043170807416205,0.5217028864393898,-3.0277140689909467,22.6
,,0.041810580996194086,0.048426210673940755,0.0025865603424417615,0.0928233520125766,0.560932297024866,0.45043170807416205,0.5217028864393898,-3.0277140689909467,22.7
,,0.041810580996194086,0.048426210673940755,0.0025865603424417615,0.0928233520125766,0.5685930562604783,0.45043170807416205,0.5217028864393898,-3.0277140689909467,22.8
,,0.041810580996194086,0.048426210673940755,0.0025865603424417615,0.0928233520125766,0.5762538154960906,0.45043170807416205,0.5217028864393898,-3.0277140689909467,22.9
,,0.04085989614712353,0.04704339713658357,0.002520036194503318,0.09042332947821043,0.5811708134967924,0.45187338691139056,0.5202572987308519,-3.056684759959746,23.0
,,0.04085989614712353,0.04704339713658357,0.002520036194503318,0.09042332947821043,0.5860878114974942,0.45187338691139056,0.5202572987308519,-3.056684759959746,23.1
,,0.04085989614712353,0.04704339713658357,0.002520036194503318,0.09042332947821043,0.591004809498196,0.45187338691139056,0.5202572987308519,-3.056684759959746,23.2
,,0.04085989614712353,0.04704339713658357,0.002520036194503318,0.09042332947821043,0.5957554101435901,0.45187338691139056,0.5202572987308519,-3.056684759959746,23.3
,,0.04085989614712353,0.04704339713658357,0.002520036194503318,0.09042332947821043,0.6005060107889842,0.45187338691139056,0.5202572987308519,-3.056684759959746,23.4
,,0.040767178733659155,0.04701518813476482,0.002513035238352336,0.0902954021067763,0.6078504414703598,0.45148676214378075,0.5206819731437523,-3.05728457767087,23.5
,,0.040767178733659155,0.04701518813476482,0.002513035238352336,0.0902954021067763,0.6151948721517354,0.45148676214378075,0.5206819731437523,-3.05728457767087,23.6
,,0.040767178733659155,0.04701518813476482,0.002513035238352336,0.0902954021067763,0.622539302833111,0.45148676214378075,0.5206819731437523,-3.05728457767087,23.7
,,0.040767178733659155,0.04701518813476482,0.002513035238352336,0.0902954021067763,0.6269973934038171,0.45148676214378075,0.5206819731437523,-3.05728457767087,23.8
,,0.040767178733659155,0.04701518813476482,0.002513035238352336,0.0902954021067763,0.6314554839745232,0.45148676214378075,0.5206819731437523,-3.05728457767087,23.9
,,0.03892183350068992,0.0453280732617258,0.0024103674292232594,0.08666027419163899,0.6357112717546337,0.44913120646974725,0.5230548101138949,-3.0938287196376537,24.0
,,0.03892183350068992,0.0453280732617258,0.0024103674292232594,0.08666027419163899,0.6399670595347442,0.44913120646974725,0.5230548101138949,-3.0938287196376537,24.1
,,0.03892183350068992,0.0453280732617258,0.0024103674292232594,0.08666027419163899,0.6442228473148548,0.44913120646974725,0.5230548101138949,-3.0938287196376537,24.2
,,0.03892183350068992,0.0453280732617258,0.0024103674292232594,0.08666027419163899,0.6483015800764161,0.44913120646974725,0.5230548101138949,-3.0938287196376537,24.3
,,0.03892183350068992,0.0453280732617258,0.0024103674292232594,0.08666027419163899,0.6523803128379773,0.44913120646974725,0.5230548101138949,-3.0938287196376537,24.4
,,0.038080198746020116,0.044584136583495956,0.0023107421718401694,0.08497507750135624,0.6564084947277762,0.44813373362810216,0.5246730911517482,-3.1103771652103545,24.5
,,0.034564614093754574,0.04100026501183217,0.0021647175647075113,0.07772959667029425,0.6630357388382767,0.4446776462814718,0.5274730188777778,-3.194176748595495,24.6
,,0.034564614093754574,0.04100026501183217,0.0021647175647075113,0.07772959667029425,0.6696629829487771,0.4446776462814718,0.5274730188777778,-3.194176748595495,24.7
,,0.034564614093754574,0.04100026501183217,0.0021647175647075113,0.07772959667029425,0.6732781145160364,0.4446776462814718,0.5274730188777778,-3.194176748595495,24.8
,,0.034564614093754574,0.04100026501183217,0.0021647175647075113,0.07772959667029425,0.6768932460832956,0.4446776462814718,0.5274730188777778,-3.194176748595495,24.9
,,0.03397198072258359,0.040577549618836674,0.0020931811796236727,0.07664271152104393,0.680443681241661,0.4432512896318372,0.5294378136360066,-3.2045403303692925,25.0
,,0.031165436334731896,0.03788066379599237,0.0019814128625814695,0.07102751299330573,0.6837032469340037,0.4387797773190961,0.533323809318265,-3.273314487164355,25.1
,,0.031165436334731896,0.03788066379599237,0.0019814128625814695,0.07102751299330573,0.6869628126263466,0.4387797773190961,0.533323809318265,-3.273314487164355,25.2
,,0.031165436334731896,0.03788066379599237,0.0019814128625814695,0.07102751299330573,0.6900428402991169,0.4387797773190961,0.533323809318265,-3.273314487164355,25.3
,,0.031165436334731896,0.03788066379599237,0.0019814128625814695,0.07102751299330573,0.6931228679718873,0.4387797773190961,0.533323809318265,-3.273314487164355,25.4
,,0.012469330989043735,0.03428800889011072,0.00146142542308046,0.04821876530223492,0.6911022035066432,0.2585991348157931,0.7110926353089653,-3.3729595809733386,25.5
,,0.028512858514891208,0.0357365074426478,0.001849739684727545,0.06609910564226655,0.6937773618002423,0.43136526943654874,0.5406503930031449,-3.331582495272451,25.6
,,0.028512858514891208,0.0357365074426478,0.001849739684727545,0.06609910564226655,0.6964525200938415,0.43136526943654874,0.5406503930031449,-3.331582495272451,25.7
,,0.028512858514891208,0.0357365074426478,0.001849739684727545,0.06609910564226655,0.6989436719911416,0.43136526943654874,0.5406503930031449,-3.331582495272451,25.8
,,0.028512858514891208,0.0357365074426478,0.001849739684727545,0.06609910564226655,0.7014348238884418,0.43136526943654874,0.5406503930031449,-3.331582495272451,25.9
,,0.026463956409455695,0.0343846643775503,0.00175823115147953,0.06260685193848553,0.7036124265311824,0.42270064042603356,0.5492156738903756,-3.370144616980664,26.0
,,0.026463956409455695,0.0343846643775503,0.00175823115147953,0.06260685193848553,0.7056533848754017,0.42270064042603356,0.5492156738903756,-3.370144616980664,26.1
,,0.026463956409455695,0.0343846643775503,0.00175823115147953,0.06260685193848553,0.707694343219621,0.42270064042603356,0.5492156738903756,-3.370144616980664,26.2
,,0.026463956409455695,0.0343846643775503,0.00175823115147953,0.06260685193848553,0.7129292849696103,0.42270064042603356,0.5492156738903756,-3.370144616980664,26.3
,,0.026463956409455695,0.0343846643775503,0.00175823115147953,0.06260685193848553,0.7181642267195997,0.42270064042603356,0.5492156738903756,-3.370144616980664,26.4
,,0.026261349381756123,0.03455742301951527,0.001736124484301525,0.06255489688557292,0.7232912740724919,0.41981284742254604,0.5524335382204949,-3.3651329032339645,26.5
,,0.024567396645709935,0.03319138438549064,0.0016754249854092976,0.05943420601660987,0.7246895040702933,0.4133545022683431,0.558455923112942,-3.4054649431984476,26.6
,,0.024463428878477037,0.033053736881241906,0.0016685980145973414,0.05918576377431629,0.7260870332980162,0.4133329929095713,0.5584744501613681,-3.4096206515649894,26.7
,,0.024463428878477037,0.033053736881241906,0.0016685980145973414,0.05918576377431629,0.7308727438477877,0.4133329929095713,0.5584744501613681,-3.4096206515649894,26.8
,,0.024463428878477037,0.033053736881241906,0.0016685980145973414,0.05918576377431629,0.7356584543975591,0.4133329929095713,0.5584744501613681,-3.4096206515649894,26.9
,,0.013391120336978852,0.03325571255786217,0.001410772964596364,0.04805760585943739,0.7366948365310784,0.27864726295659087,0.6919968642451948,-3.403528720385784,27.0
,,0.02242785155883551,0.03154718918910192,0.0015741387330406639,0.055549179480978095,0.7374518827633101,0.4037476659131493,0.5679145845872438,-3.4562707846419527,27.1
,,0.02242785155883551,0.03154718918910192,0.0015741387330406639,0.055549179480978095,0.7382089289955421,0.4037476659131493,0.5679145845872438,-3.4562707846419527,27.2
,,0.02242785155883551,0.03154718918910192,0.0015741387330406639,0.055549179480978095,0.7387685317754504,0.4037476659131493,0.5679145845872438,-3.4562707846419527,27.3
,,0.02242785155883551,0.03154718918910192,0.0015741387330406639,0.055549179480978095,0.7393281345553591,0.4037476659131493,0.5679145845872438,-3.4562707846419527,27.4
,,0.0219784617296665,0.031407583679199325,0.001543362604784733,0.05492940801365056,0.7397638677308062,0.4001219478681549,0.5717808513682543,-3.460705896782976,27.5
,,0.020414336800570924,0.02998255840080429,0.0014800394572345847,0.0518769346586098,0.7398686760680125,0.3935147081243907,0.5779554747810877,-3.5071394530305846,27.6
,,0.020414336800570924,0.02998255840080429,0.0014800394572345847,0.0518769346586098,0.7399734844052192,0.3935147081243907,0.5779554747810877,-3.5071394530305846,27.7
,,0.020414336800570924,0.02998255840080429,0.0014800394572345847,0.0518769346586098,0.740078292742426,0.3935147081243907,0.5779554747810877,-3.5071394530305846,27.8
,,0.020414336800570924,0.02998255840080429,0.0014800394572345847,0.0518769346586098,0.7399784771079329,0.3935147081243907,0.5779554747810877,-3.5071394530305846,27.9
,,0.020076144124835008,0.029952484519933688,0.0014561564265934293,0.05148478507136212,0.7397608021502275,0.38994324433923205,0.5817735177182365,-3.508143002270863,28.0
,,0.01121908798760693,0.028713666173946766,0.0014045890795335064,0.041337343241087204,0.7363213193696734,0.27140321820333463,0.6946180843428479,-3.550382096242845,28.1
,,0.01121908798760693,0.028713666173946766,0.0014045890795335064,0.041337343241087204,0.7328818365891193,0.27140321820333463,0.6946180843428479,-3.550382096242845,28.2
,,0.01121908798760693,0.028713666173946766,0.0014045890795335064,0.041337343241087204,0.7294423538085651,0.27140321820333463,0.6946180843428479,-3.550382096242845,28.3
,,0.01121908798760693,0.028713666173946766,0.0014045890795335064,0.041337343241087204,0.7301927320199006,0.27140321820333463,0.6946180843428479,-3.550382096242845,28.4
,,0.009259624287752047,0.028132876734320966,0.0011946708328457222,0.038587171854918736,0.7302588432236257,0.23996638889646213,0.7290733003210456,-3.570816396002755,28.5
,,0.012421750472572893,0.026517740939442997,0.0011880227208250211,0.04012751413284091,0.7273467314259782,0.30955693969606657,0.6608368724675251,-3.6299413005716987,28.6
,,0.012421750472572893,0.026517740939442997,0.0011880227208250211,0.04012751413284091,0.7244346196283306,0.30955693969606657,0.6608368724675251,-3.6299413005716987,28.7
,,0.012421750472572893,0.026517740939442997,0.0011880227208250211,0.04012751413284091,0.7215225078306832,0.30955693969606657,0.6608368724675251,-3.6299413005716987,28.8
,,0.012421750472572893,0.026517740939442997,0.0011880227208250211,0.04012751413284091,0.7184003952067823,0.30955693969606657,0.6608368724675251,-3.6299413005716987,28.9
,,0.01735306892807191,0.027980059305833797,0.0013366496008372381,0.046669777834742944,0.7169645319580549,0.3718266881303548,0.59953272983023,-3.57626319016757,29.0
,,0.01735306892807191,0.027980059305833797,0.0013366496008372381,0.046669777834742944,0.7154134977336096,0.3718266881303548,0.59953272983023,-3.57626319016757,29.1
,,0.01647131445067925,0.027106631771076587,0.001309484108097309,0.04488743032985315,0.7137230716937151,0.3669471459970103,0.6038802304316552,-3.6079768662343903,29.2
,,0.01647131445067925,0.027106631771076587,0.001309484108097309,0.04488743032985315,0.7120326456538204,0.3669471459970103,0.6038802304316552,-3.6079768662343903,29.3
,,0.01647131445067925,0.027106631771076587,0.001309484108097309,0.04488743032985315,0.7151803508639087,0.3669471459970103,0.6038802304316552,-3.6079768662343903,29.4
,,0.009754197255612215,0.02583445784997641,0.0011035491409864537,0.03669220424657508,0.7157715728897568,0.2658384105262003,0.7040857419294413,-3.6560461025618283,29.5
,,0.01560445562073756,0.02638488607388781,0.0012736507711348006,0.043262992465760174,0.7136052071053389,0.3606883096005776,0.6098719614638243,-3.6349639299701813,29.6
,,0.01560445562073756,0.02638488607388781,0.0012736507711348006,0.043262992465760174,0.7114388413209211,0.3606883096005776,0.6098719614638243,-3.6349639299701813,29.7
,,0.01560445562073756,0.02638488607388781,0.0012736507711348006,0.043262992465760174,0.7092724755365033,0.3606883096005776,0.6098719614638243,-3.6349639299701813,29.8
,,0.01560445562073756,0.02638488607388781,0.0012736507711348006,0.043262992465760174,0.7069184217003518,0.3606883096005776,0.6098719614638243,-3.6349639299701813,29.9
,,0.015288690035109253,0.0260897612761625,0.001236981381188688,0.042615432692460445,0.7045042233992918,0.35875946973111783,0.6122139241068487,-3.646212329888298,30.0
,,0.015288690035109253,0.0260897612761625,0.001236981381188688,0.042615432692460445,0.701997887292234,0.35875946973111783,0.6122139241068487,-3.646212329888298,30.1
,,0.014252039233406648,0.024614624104183316,0.0011910059328305894,0.04005766927042056,0.6994138126949603,0.35578802993240194,0.6144796877226025,-3.7044145368947383,30.2
,,0.014252039233406648,0.024614624104183316,0.0011910059328305894,0.04005766927042056,0.6968297380976864,0.35578802993240194,0.6144796877226025,-3.7044145368947383,30.3
,,0.014252039233406648,0.024614624104183316,0.0011910059328305894,0.04005766927042056,0.6940795803574784,0.35578802993240194,0.6144796877226025,-3.7044145368947383,30.4
,,0.013997355029701005,0.024319185327773322,0.0011549416389072698,0.03947148199638159,0.696867415550571,0.35461944476734275,0.6161204013065104,-3.716489720480879,30.5
,,0.013997355029701005,0.024319185327773322,0.0011549416389072698,0.03947148199638159,0.6996552507436635,0.35461944476734275,0.6161204013065104,-3.716489720480879,30.6
,,0.013068448420377065,0.02292134549754925,0.0011166847915345572,0.03710647870946088,0.7023828053231468,0.3521877816189834,0.6177181531295529,-3.77568668477706,30.7
,,0.013068448420377065,0.02292134549754925,0.0011166847915345572,0.03710647870946088,0.70511035990263,0.3521877816189834,0.6177181531295529,-3.77568668477706,30.8
,,0.013068448420377065,0.02292134549754925,0.0011166847915345572,0.03710647870946088,0.7078379144821134,0.3521877816189834,0.6177181531295529,-3.77568668477706,30.9
,,0.014006176916534989,0.024157528598287344,0.0010626980820665707,0.0392264035968889,0.7048226383849954,0.35705992984903256,0.6158486729128365,-3.723159204265066,31.0
,,0.014006176916534989,0.024157528598287344,0.0010626980820665707,0.0392264035968889,0.7018073622878773,0.35705992984903256,0.6158486729128365,-3.723159204265066,31.1
,,0.012023981299413525,0.021231912956839454,0.0010444857947518528,0.03430038005100483,0.6986424335614039,0.3505495064933335,0.6189993500149997,-3.852249901022041,31.2
,,0.012023981299413525,0.021231912956839454,0.0010444857947518528,0.03430038005100483,0.6954775048349304,0.3505495064933335,0.6189993500149997,-3.852249901022041,31.3
,,0.012023981299413525,0.021231912956839454,0.0010444857947518528,0.03430038005100483,0.692312576108457,0.3505495064933335,0.6189993500149997,-3.852249901022041,31.4
,,0.014419780773923665,0.023643068784364465,0.00105585323393275,0.039118702792220884,0.6894959896156138,0.3686160262142223,0.6043929654299812,-3.7446852816558587,31.5
,,0.014419780773923665,0.023643068784364465,0.00105585323393275,0.039118702792220884,0.6866794031227706,0.3686160262142223,0.6043929654299812,-3.7446852816558587,31.6
,,0.011137502154254937,0.019654406087950754,0.000980434807052213,0.031772343049257905,0.6833825089223898,0.3505407875329822,0.6186010914423201,-3.9294537374078558,31.7
,,0.011137502154254937,0.019654406087950754,0.000980434807052213,0.031772343049257905,0.680085614722009,0.3505407875329822,0.6186010914423201,-3.9294537374078558,31.8
,,0.011141415654572398,0.019547427276815486,0.0009511977125772947,0.03164004064396518,0.6768254033005879,0.3521302573515322,0.6178066424369096,-3.9349115983042564,31.9
,,0.011141415654572398,0.019547427276815486,0.0009511977125772947,0.03164004064396518,0.6735077463488938,0.3521302573515322,0.6178066424369096,-3.9349115983042564,32.0
,,0.011141415654572398,0.019547427276815486,0.0009511977125772947,0.03164004064396518,0.6701900893971995,0.3521302573515322,0.6178066424369096,-3.9349115983042564,32.1
,,0.010495408218018011,0.01835047515800116,0.0009295698206444093,0.029775453196663578,0.6668943619022272,0.3524852551763696,0.6162954107465065,-3.9980998106478056,32.2
,,0.010495408218018011,0.01835047515800116,0.0009295698206444093,0.029775453196663578,0.6635986344072548,0.3524852551763696,0.6162954107465065,-3.9980998106478056,32.3
,,0.010495408218018011,0.01835047515800116,0.0009295698206444093,0.029775453196663578,0.6603029069122824,0.3524852551763696,0.6162954107465065,-3.9980998106478056,32.4
,,0.010503190974836278,0.018193359130409016,0.000896753260801444,0.029593303366046736,0.657082934478116,0.35491782870333083,0.6147795974437511,-4.0066986344299265,32.5
,,0.010503190974836278,0.018193359130409016,0.000896753260801444,0.029593303366046736,0.6538629620439497,0.35491782870333083,0.6147795974437511,-4.0066986344299265,32.6
,,0.009987548333977365,0.017168458669646454,0.0008856240415665617,0.02804163104519038,0.6506922023858435,0.35616859511067567,0.6122489323812403,-4.064681376905565,32.7
,,0.009987548333977365,0.017168458669646454,0.0008856240415665617,0.02804163104519038,0.6475214427277374,0.35616859511067567,0.6122489323812403,-4.064681376905565,32.8
,,0.009987548333977365,0.017168458669646454,0.0008856240415665617,0.02804163104519038,0.6443506830696312,0.35616859511067567,0.6122489323812403,-4.064681376905565,32.9
,,0.015652204375449542,0.022014271185446174,0.0010478691814327045,0.03871434474232842,0.6427099400238601,0.40429986558279957,0.5686334440623199,-3.816064345684841,33.0
,,0.015652204375449542,0.022014271185446174,0.0010478691814327045,0.03871434474232842,0.6410691969780892,0.40429986558279957,0.5686334440623199,-3.816064345684841,33.1
,,0.009641536468417512,0.016193207597745656,0.0008483003288718436,0.02668304439503501,0.6381440495066799,0.36133569789403563,0.6068725651394851,-4.1231634087577245,33.2
,,0.00963530502209635,0.01618196145528997,0.0008477085514292751,0.026664975028815596,0.6352192210302546,0.3613468608796342,0.6068620517290145,-4.123858147549025,33.3
,,0.00963530502209635,0.01618196145528997,0.0008477085514292751,0.026664975028815596,0.6322943925538294,0.3613468608796342,0.6068620517290145,-4.123858147549025,33.4
,,0.009668527327120442,0.015986326150750463,0.0008114997894126117,0.026466353267283516,0.6295241694299906,0.3653139225294113,0.6040245132869144,-4.13602153771254,33.5
,,0.009668527327120442,0.015986326150750463,0.0008114997894126117,0.026466353267283516,0.6268771239886737,0.3653139225294113,0.6040245132869144,-4.13602153771254,33.6
,,0.016086198542492006,0.021101503778686893,0.0010943926704999446,0.038282094991678846,0.6259803554175715,0.4202016254854539,0.5512107888367552,-3.85841097190756,33.7
,,0.016086198542492006,0.021101503778686893,0.0010943926704999446,0.038282094991678846,0.6250835868464693,0.4202016254854539,0.5512107888367552,-3.85841097190756,33.8
,,0.016086198542492006,0.021101503778686893,0.0010943926704999446,0.038282094991678846,0.624186818275367,0.4202016254854539,0.5512107888367552,-3.85841097190756,33.9
,,0.009436227707262297,0.015120151879366085,0.0007779912040285847,0.025334370790656965,0.621818725197474,0.3724674192714616,0.5968236592219701,-4.19172686334958,34.0
,,0.009436227707262297,0.015120151879366085,0.0007779912040285847,0.025334370790656965,0.6196115706515692,0.3724674192714616,0.5968236592219701,-4.19172686334958,34.1
,,0.009436227707262297,0.015120151879366085,0.0007779912040285847,0.025334370790656965,0.6174044161056643,0.3724674192714616,0.5968236592219701,-4.19172686334958,34.2
,,0.009173416656923538,0.014471218317888675,0.0007826210032492584,0.024427255978061474,0.6153064263422762,0.37554020251649783,0.5924209551365702,-4.235593545760809,34.3
,,0.009173416656923538,0.014471218317888675,0.0007826210032492584,0.024427255978061474,0.6132084365788879,0.37554020251649783,0.5924209551365702,-4.235593545760809,34.4
,,0.009258463774044127,0.01433539993247836,0.0007441303946140075,0.024337994101136493,0.6163437891587146,0.38041194913478066,0.5890132059736571,-4.245023281014115,34.5
,,0.009258463774044127,0.01433539993247836,0.0007441303946140075,0.024337994101136493,0.6146547070822257,0.38041194913478066,0.5890132059736571,-4.245023281014115,34.6
,,0.009258463774044127,0.01433539993247836,0.0007441303946140075,0.024337994101136493,0.6129656250057368,0.38041194913478066,0.5890132059736571,-4.245023281014115,34.7
,,0.00902952714848341,0.013734731258798687,0.0007526459670533443,0.023516904374335443,0.6114051730100664,0.3839590026286601,0.5840365313466906,-4.287827525785862,34.8
,,0.00902952714848341,0.013734731258798687,0.0007526459670533443,0.023516904374335443,0.609844721014396,0.3839590026286601,0.5840365313466906,-4.287827525785862,34.9
,,0.009149469339686415,0.013636290169883502,0.000714452764280856,0.02350021227385077,0.6087482824775523,0.38933560399653244,0.580262425333788,-4.295020645240641,35.0
,,0.009149469339686415,0.013636290169883502,0.000714452764280856,0.02350021227385077,0.6076518439407087,0.38933560399653244,0.580262425333788,-4.295020645240641,35.1
,,0.009149469339686415,0.013636290169883502,0.000714452764280856,0.02350021227385077,0.6065554054038651,0.38933560399653244,0.580262425333788,-4.295020645240641,35.2
,,0.008978209763673459,0.013165231516525716,0.0007260884396957948,0.02286952971989497,0.6055811777844039,0.39258392602026326,0.5756669104163012,-4.330175900428848,35.3
,,0.008978209763673459,0.013165231516525716,0.0007260884396957948,0.02286952971989497,0.6046069501649428,0.39258392602026326,0.5756669104163012,-4.330175900428848,35.4
,,0.009094859678849689,0.01307173282783316,0.0006864655760706172,0.022853058082753466,0.60389396958151,0.39797123194262185,0.5719905310046017,-4.337303179580614,35.5
,,0.009094859678849689,0.01307173282783316,0.0006864655760706172,0.022853058082753466,0.6034005419508417,0.39797123194262185,0.5719905310046017,-4.337303179580614,35.6
,,0.009094859678849689,0.01307173282783316,0.0006864655760706172,0.022853058082753466,0.6029078150902519,0.39797123194262185,0.5719905310046017,-4.337303179580614,35.7
,,0.008998091918014211,0.012760658265944897,0.0007028649534258566,0.022461615137384965,0.6025192862348998,0.4005986151475744,0.568109558813789,-4.361388414155925,35.8
,,0.008998091918014211,0.012760658265944897,0.0007028649534258566,0.022461615137384965,0.6021307573795478,0.4005986151475744,0.568109558813789,-4.361388414155925,35.9
,,0.0069898530781824075,0.012684048688574057,0.0006636883388362685,0.02033759010559273,0.6037796796735425,0.3436913145505983,0.6236751071645411,-4.367410083731406,36.0
,,0.0069898530781824075,0.012684048688574057,0.0006636883388362685,0.02033759010559273,0.6020035021362039,0.3436913145505983,0.6236751071645411,-4.367410083731406,36.1
,,0.0069898530781824075,0.012684048688574057,0.0006636883388362685,0.02033759010559273,0.6002273245988655,0.3436913145505983,0.6236751071645411,-4.367410083731406,36.2
,,0.0173124654566361,0.018455606103937976,0.0009976466504067363,0.036765718210980805,0.6027509880811319,0.4708860944124135,0.5019786638745941,-3.9923871007778624,36.3
,,0.0173124654566361,0.018455606103937976,0.0009976466504067363,0.036765718210980805,0.6052746515633983,0.4708860944124135,0.5019786638745941,-3.9923871007778624,36.4
,,0.01752741900086042,0.018376894530935137,0.0009517735821911206,0.03685608711398668,0.6080967938404154,0.4755637500707139,0.4986121959745751,-3.996661135473699,36.5
,,0.01752741900086042,0.018376894530935137,0.0009517735821911206,0.03685608711398668,0.6111290278506226,0.4755637500707139,0.4986121959745751,-3.996661135473699,36.6
,,0.01752741900086042,0.018376894530935137,0.0009517735821911206,0.03685608711398668,0.6141612618608299,0.4755637500707139,0.4986121959745751,-3.996661135473699,36.7
,,0.009137978800434236,0.012273319319708946,0.0006641878363054033,0.022075485956448586,0.6148686661818841,0.41394236205997964,0.5559705160702804,-4.400327533640458,36.8
,,0.009244255966873916,0.012250918702922364,0.0006241592859404783,0.02211933395573676,0.6156875862436721,0.41792650652920643,0.553855677907744,-4.402154348646545,36.9
,,0.009244255966873916,0.012250918702922364,0.0006241592859404783,0.02211933395573676,0.6166243656286723,0.41792650652920643,0.553855677907744,-4.402154348646545,37.0
,,0.009244255966873916,0.012250918702922364,0.0006241592859404783,0.02211933395573676,0.6206671835456729,0.41792650652920643,0.553855677907744,-4.402154348646545,37.1
,,0.009244255966873916,0.012250918702922364,0.0006241592859404783,0.02211933395573676,0.6247100014626735,0.41792650652920643,0.553855677907744,-4.402154348646545,37.2
,,0.00921757661968792,0.012170064632091294,0.0006470777631464703,0.022034719014925683,0.6287841633551107,0.41832058822461954,0.5523131301945644,-4.408776061225128,37.3
,,0.01760827139718843,0.017819150734544365,0.0009088411161680865,0.03633626324790088,0.6354224149262051,0.48459224541218193,0.49039579587407806,-4.027481516069296,37.4
,,0.01760827139718843,0.017819150734544365,0.0009088411161680865,0.03633626324790088,0.6427449335049101,0.48459224541218193,0.49039579587407806,-4.027481516069296,37.5
,,0.01760827139718843,0.017819150734544365,0.0009088411161680865,0.03633626324790088,0.6485197543773942,0.48459224541218193,0.49039579587407806,-4.027481516069296,37.6
,,0.01760827139718843,0.017819150734544365,0.0009088411161680865,0.03633626324790088,0.6542945752498782,0.48459224541218193,0.49039579587407806,-4.027481516069296,37.7
,,0.017445648664180493,0.01762458542613725,0.0009221644692803402,0.035992398559598085,0.6600880821458591,0.48470369751249226,0.4896752128634479,-4.038460452481741,37.8
,,0.009400513496508308,0.0122336973198737,0.0005955182196329273,0.022229729036014934,0.6634211908408242,0.42288025559278314,0.5503304741166023,-4.403561059364204,37.9
,,0.009400513496508308,0.0122336973198737,0.0005955182196329273,0.022229729036014934,0.6650680501606158,0.42288025559278314,0.5503304741166023,-4.403561059364204,38.0
,,0.009400513496508308,0.0122336973198737,0.0005955182196329273,0.022229729036014934,0.6667149094804072,0.42288025559278314,0.5503304741166023,-4.403561059364204,38.1
,,0.009400513496508308,0.0122336973198737,0.0005955182196329273,0.022229729036014934,0.6685011606156481,0.42288025559278314,0.5503304741166023,-4.403561059364204,38.2
,,0.009368953369047965,0.012258714871717638,0.0006186351952397284,0.022246303436005335,0.670241382001534,0.4211465242303781,0.5510450267381086,-4.401518176829902,38.3
,,0.009485340254469359,0.01240273064159468,0.0005841107226762221,0.02247218161874026,0.6719872653350644,0.4220925415874725,0.5519148452970696,-4.389838617582647,38.4
,,0.009485340254469359,0.01240273064159468,0.0005841107226762221,0.02247218161874026,0.6762896318528351,0.4220925415874725,0.5519148452970696,-4.389838617582647,38.5
,,0.009485340254469359,0.01240273064159468,0.0005841107226762221,0.02247218161874026,0.6782158755402341,0.4220925415874725,0.5519148452970696,-4.389838617582647,38.6
,,0.009485340254469359,0.01240273064159468,0.0005841107226762221,0.02247218161874026,0.680142119227633,0.4220925415874725,0.5519148452970696,-4.389838617582647,38.7
,,0.009465508683364501,0.012498874334122521,0.0006085676310408935,0.022572950648527917,0.6819853686068331,0.41932970264929853,0.5537102582970308,-4.382116691999119,38.8
,,0.01763338741027009,0.018104810938922924,0.000868292265420606,0.03660649061461362,0.6862358683122862,0.48170111677492217,0.4945792572559613,-4.011577578297767,38.9
,,0.01763338741027009,0.018104810938922924,0.000868292265420606,0.03660649061461362,0.6905465124826482,0.48170111677492217,0.4945792572559613,-4.011577578297767,39.0
,,0.01763338741027009,0.018104810938922924,0.000868292265420606,0.03660649061461362,0.6948571566530098,0.48170111677492217,0.4945792572559613,-4.011577578297767,39.1
,,0.01763338741027009,0.018104810938922924,0.000868292265420606,0.03660649061461362,0.6992455393135877,0.48170111677492217,0.4945792572559613,-4.011577578297767,39.2
,,0.009528848785950443,0.012814685051232299,0.0006012062110232241,0.022944740048205965,0.7010742196747585,0.4152955651679086,0.5585020804031411,-4.357163496039918,39.3
,,0.01793687685434024,0.01885477611202027,0.000880651321017837,0.03767230428737835,0.7052110022456328,0.47612900759961674,0.5004943676444379,-3.9709890225390656,39.4
,,0.01793687685434024,0.01885477611202027,0.000880651321017837,0.03767230428737835,0.7093859910895793,0.47612900759961674,0.5004943676444379,-3.9709890225390656,39.5
,,0.01793687685434024,0.01885477611202027,0.000880651321017837,0.03767230428737835,0.713560979933526,0.47612900759961674,0.5004943676444379,-3.9709890225390656,39.6
,,0.01793687685434024,0.01885477611202027,0.000880651321017837,0.03767230428737835,0.7177962493910818,0.47612900759961674,0.5004943676444379,-3.9709890225390656,39.7
,,0.009569539914945666,0.013216252787914003,0.0005952927965262836,0.023381085499385952,0.719506587732422,0.40928552762004944,0.5652540292990715,-4.326307934971641,39.8
,,0.00961371845922377,0.01346727374606466,0.0005685818315171065,0.023649574036805537,0.7211034170752622,0.4065070450851275,0.5694510068175312,-4.307492703545906,39.9
,,0.00961371845922377,0.01346727374606466,0.0005685818315171065,0.023649574036805537,0.7225931129640756,0.4065070450851275,0.5694510068175312,-4.307492703545906,40.0
,,0.00961371845922377,0.01346727374606466,0.0005685818315171065,0.023649574036805537,0.7240828088528889,0.4065070450851275,0.5694510068175312,-4.307492703545906,40.1
,,0.00961371845922377,0.01346727374606466,0.0005685818315171065,0.023649574036805537,0.7257221573710577,0.4065070450851275,0.5694510068175312,-4.307492703545906,40.2
,,0.009548695649231729,0.013646574616944252,0.000591511975902861,0.023786782242078842,0.7272043495320768,0.4014286401605038,0.5737041049967426,-4.294266732656443,40.3
,,0.0095777045560502,0.013930505835144815,0.0005670139090264711,0.024075224300221486,0.728551217847873,0.39782410483968317,0.5786241349791561,-4.273674179204713,40.4
,,0.0095777045560502,0.013930505835144815,0.0005670139090264711,0.024075224300221486,0.7294138839805592,0.39782410483968317,0.5786241349791561,-4.273674179204713,40.5
,,0.0095777045560502,0.013930505835144815,0.0005670139090264711,0.024075224300221486,0.7302765501132452,0.39782410483968317,0.5786241349791561,-4.273674179204713,40.6
,,0.0095777045560502,0.013930505835144815,0.0005670139090264711,0.024075224300221486,0.731619523953469,0.39782410483968317,0.5786241349791561,-4.273674179204713,40.7
,,0.0095777045560502,0.013930505835144815,0.0005670139090264711,0.024075224300221486,0.7329624977936926,0.39782410483968317,0.5786241349791561,-4.273674179204713,40.8
,,0.009491241664934522,0.014420339520820537,0.000567209695114248,0.024478790880869305,0.7339426750268072,0.38773327126839946,0.5890952535605155,-4.23911560226933,40.9
,,0.009491241664934522,0.014420339520820537,0.000567209695114248,0.024478790880869305,0.7349228522599216,0.38773327126839946,0.5890952535605155,-4.23911560226933,41.0
,,0.009491241664934522,0.014420339520820537,0.000567209695114248,0.024478790880869305,0.7359030294930362,0.38773327126839946,0.5890952535605155,-4.23911560226933,41.1
,,0.009491241664934522,0.014420339520820537,0.000567209695114248,0.024478790880869305,0.7368612772694286,0.38773327126839946,0.5890952535605155,-4.23911560226933,41.2
,,0.009400730812967105,0.014598219719074403,0.0005875111479459937,0.0245864616799875,0.7376615234256602,0.382353952973191,0.5937503293105747,-4.226855694752471,41.3
,,0.009380394425106874,0.014916953229856696,0.0005678155976710365,0.024865163252634607,0.7382937360452669,0.37725046603556756,0.5999137459222658,-4.205256912173796,41.4
,,0.009380394425106874,0.014916953229856696,0.0005678155976710365,0.024865163252634607,0.7388663151728228,0.37725046603556756,0.5999137459222658,-4.205256912173796,41.5
,,0.009380394425106874,0.014916953229856696,0.0005678155976710365,0.024865163252634607,0.7394388943003783,0.37725046603556756,0.5999137459222658,-4.205256912173796,41.6
,,0.009380394425106874,0.014916953229856696,0.0005678155976710365,0.024865163252634607,0.7399622606518739,0.37725046603556756,0.5999137459222658,-4.205256912173796,41.7
,,0.009240691604705871,0.015414706322859663,0.0005693675044972258,0.02522476543206276,0.7401593076995552,0.3663340945466311,0.6110941393836035,-4.172433269213134,41.8
,,0.009240691604705871,0.015414706322859663,0.0005693675044972258,0.02522476543206276,0.7403563547472365,0.3663340945466311,0.6110941393836035,-4.172433269213134,41.9
,,0.009240691604705871,0.015414706322859663,0.0005693675044972258,0.02522476543206276,0.7391171305782372,0.3663340945466311,0.6110941393836035,-4.172433269213134,42.0
,,0.009240691604705871,0.015414706322859663,0.0005693675044972258,0.02522476543206276,0.7378779064092381,0.3663340945466311,0.6110941393836035,-4.172433269213134,42.1
,,0.009240691604705871,0.015414706322859663,0.0005693675044972258,0.02522476543206276,0.7379230866658772,0.3663340945466311,0.6110941393836035,-4.172433269213134,42.2
,,0.00906651172466637,0.015863710264867045,0.0005709452701949151,0.02550116725972833,0.7376574241239499,0.35553320490487056,0.6220778093526391,-4.143721151618576,42.3
,,0.00906651172466637,0.015863710264867045,0.0005709452701949151,0.02550116725972833,0.7373917615820227,0.35553320490487056,0.6220778093526391,-4.143721151618576,42.4
,,0.00906651172466637,0.015863710264867045,0.0005709452701949151,0.02550116725972833,0.7370220445592716,0.35553320490487056,0.6220778093526391,-4.143721151618576,42.5
,,0.00906651172466637,0.015863710264867045,0.0005709452701949151,0.02550116725972833,0.7366523275365204,0.35553320490487056,0.6220778093526391,-4.143721151618576,42.6
,,0.00906651172466637,0.015863710264867045,0.0005709452701949151,0.02550116725972833,0.7345323336435546,0.35553320490487056,0.6220778093526391,-4.143721151618576,42.7
,,0.008866476543820865,0.016252685798784937,0.000573135739281543,0.025692298081887346,0.7321236048822442,0.34510250953656757,0.6325898036440274,-4.119497103938386,42.8
,,0.008866476543820865,0.016252685798784937,0.000573135739281543,0.025692298081887346,0.729714876120934,0.34510250953656757,0.6325898036440274,-4.119497103938386,42.9
,,0.008866476543820865,0.016252685798784937,0.000573135739281543,0.025692298081887346,0.728842168275308,0.34510250953656757,0.6325898036440274,-4.119497103938386,43.0
,,0.008866476543820865,0.016252685798784937,0.000573135739281543,0.025692298081887346,0.7279694604296824,0.34510250953656757,0.6325898036440274,-4.119497103938386,43.1
,,0.008866476543820865,0.016252685798784937,0.000573135739281543,0.025692298081887346,0.7270967525840566,0.34510250953656757,0.6325898036440274,-4.119497103938386,43.2
,,0.008642616026478856,0.0165422685875041,0.0005745246991762103,0.025759409313159166,0.7258584061527458,0.3355129739742823,0.6421835371455316,-4.101836441143468,43.3
,,0.008642616026478856,0.0165422685875041,0.0005745246991762103,0.025759409313159166,0.724620059721435,0.3355129739742823,0.6421835371455316,-4.101836441143468,43.4
,,0.008642616026478856,0.0165422685875041,0.0005745246991762103,0.025759409313159166,0.7232490630849235,0.3355129739742823,0.6421835371455316,-4.101836441143468,43.5
,,0.008642616026478856,0.0165422685875041,0.0005745246991762103,0.025759409313159166,0.7218780664484121,0.3355129739742823,0.6421835371455316,-4.101836441143468,43.6
,,0.008642616026478856,0.0165422685875041,0.0005745246991762103,0.025759409313159166,0.7205070698119006,0.3355129739742823,0.6421835371455316,-4.101836441143468,43.7
,,0.00857900687630574,0.016794316741394602,0.0005681777069254488,0.02594150132462579,0.7188782371165855,0.3307058743034986,0.6473918579821001,-4.086714739008326,43.8
,,0.008414378864806688,0.01673219211189526,0.000576493387638206,0.025723064364340156,0.7171611560304574,0.32711417059903364,0.6504742932218865,-4.090420743762669,43.9
,,0.008414378864806688,0.01673219211189526,0.000576493387638206,0.025723064364340156,0.715293610740062,0.32711417059903364,0.6504742932218865,-4.090420743762669,44.0
,,0.008414378864806688,0.01673219211189526,0.000576493387638206,0.025723064364340156,0.7134260654496667,0.32711417059903364,0.6504742932218865,-4.090420743762669,44.1
,,0.008414378864806688,0.01673219211189526,0.000576493387638206,0.025723064364340156,0.7115585201592715,0.32711417059903364,0.6504742932218865,-4.090420743762669,44.2
,,0.008360222332999266,0.016939019497815413,0.0005700201919087871,0.02586926202272347,0.7094650146361732,0.3231720458687873,0.654793301909279,-4.07813547231796,44.3
,,0.008202279339400766,0.016826808267242897,0.0005781400502586333,0.025607227656902296,0.707303785604548,0.3203111031502031,0.6571116753713602,-4.084781934204506,44.4
,,0.008202279339400766,0.016826808267242897,0.0005781400502586333,0.025607227656902296,0.7049892039339916,0.3203111031502031,0.6571116753713602,-4.084781934204506,44.5
,,0.008202279339400766,0.016826808267242897,0.0005781400502586333,0.025607227656902296,0.7026746222634354,0.3203111031502031,0.6571116753713602,-4.084781934204506,44.6
,,0.008202279339400766,0.016826808267242897,0.0005781400502586333,0.025607227656902296,0.700360040592879,0.3203111031502031,0.6571116753713602,-4.084781934204506,44.7
,,0.012538560064084835,0.020001443933574874,0.0008220607453335714,0.03336206474299328,0.6994904795267874,0.37583285569032987,0.5995265607107122,-3.911950811355457,44.8
,,0.007998912793514433,0.01680282776747627,0.0005805091557825405,0.02538224971677324,0.6969449505652184,0.31513805445813364,0.6619912716551887,-4.086208087244425,44.9
,,0.007998912793514433,0.01680282776747627,0.0005805091557825405,0.02538224971677324,0.696111298870555,0.31513805445813364,0.6619912716551887,-4.086208087244425,45.0
,,0.007998912793514433,0.01680282776747627,0.0005805091557825405,0.02538224971677324,0.6952776471758917,0.31513805445813364,0.6619912716551887,-4.086208087244425,45.1
,,0.007998912793514433,0.01680282776747627,0.0005805091557825405,0.02538224971677324,0.6944439954812284,0.31513805445813364,0.6619912716551887,-4.086208087244425,45.2
,,0.007946317030716776,0.01688995188663318,0.0005719523581060104,0.025408221275455965,0.6892486179651107,0.3127459000206686,0.664743576637089,-4.081036396796848,45.3
,,0.007815043079961788,0.016680359448191115,0.0005824113830654653,0.02507781391121837,0.6840314811667972,0.31163175177983865,0.665144079433865,-4.093523332631981,45.4
,,0.007815043079961788,0.016680359448191115,0.0005824113830654653,0.02507781391121837,0.6786397351781943,0.31163175177983865,0.665144079433865,-4.093523332631981,45.5
,,0.007815043079961788,0.016680359448191115,0.0005824113830654653,0.02507781391121837,0.6732479891895915,0.31163175177983865,0.665144079433865,-4.093523332631981,45.6
,,0.007815043079961788,0.016680359448191115,0.0005824113830654653,0.02507781391121837,0.6678562432009886,0.31163175177983865,0.665144079433865,-4.093523332631981,45.7
,,0.007784004293428941,0.01671710977884307,0.0005723318473796012,0.025073445919651615,0.6647572526665383,0.3104481258129794,0.6667256599836098,-4.091322546384655,45.8
,,0.01115215110547896,0.018247817332050838,0.0007921254470541248,0.03019209388458392,0.6631636228392264,0.3693732255904665,0.6043905865491552,-4.0037098043498665,45.9
,,0.01115215110547896,0.018247817332050838,0.0007921254470541248,0.03019209388458392,0.6615699930119143,0.3693732255904665,0.6043905865491552,-4.0037098043498665,46.0
,,0.01115215110547896,0.018247817332050838,0.0007921254470541248,0.03019209388458392,0.6599763631846022,0.3693732255904665,0.6043905865491552,-4.0037098043498665,46.1
,,0.01115215110547896,0.018247817332050838,0.0007921254470541248,0.03019209388458392,0.6583827333572901,0.3693732255904665,0.6043905865491552,-4.0037098043498665,46.2
,,0.007651878491371514,0.016443306034699016,0.0005726439233671597,0.024667828449437688,0.6551377516095033,0.310196680143766,0.6665891190383175,-4.1078368125702385,46.3
,,0.00513188151886814,0.01617550185470269,0.0005877824368528953,0.021895165810423726,0.6476832738928611,0.23438422724458122,0.7387704662643819,-4.124257412510633,46.4
,,0.00513188151886814,0.01617550185470269,0.0005877824368528953,0.021895165810423726,0.6402287961762189,0.23438422724458122,0.7387704662643819,-4.124257412510633,46.5
,,0.00513188151886814,0.01617550185470269,0.0005877824368528953,0.021895165810423726,0.6327743184595767,0.23438422724458122,0.7387704662643819,-4.124257412510633,46.6
,,0.00513188151886814,0.01617550185470269,0.0005877824368528953,0.021895165810423726,0.6253198407429346,0.23438422724458122,0.7387704662643819,-4.124257412510633,46.7
,,0.00757948340066602,0.016137285037120884,0.0005751250686675322,0.024291893506454436,0.6195402887861388,0.3120169861872697,0.6643074173214679,-4.126622843603233,46.8
,,0.01026910029611491,0.016569724479136298,0.0007643980085680447,0.027603222783819253,0.6178885036201768,0.37202541082031043,0.6002822427259947,-4.1001780753743455,46.9
,,0.01026910029611491,0.016569724479136298,0.0007643980085680447,0.027603222783819253,0.6162367184542148,0.37202541082031043,0.6002822427259947,-4.1001780753743455,47.0
,,0.01026910029611491,0.016569724479136298,0.0007643980085680447,0.027603222783819253,0.6145849332882527,0.37202541082031043,0.6002822427259947,-4.1001780753743455,47.1
,,0.007557960850637525,0.015796195303892823,0.0005769067290026107,0.023931062883532958,0.6113633298044976,0.31582219675826356,0.6600707783339718,-4.147986171498133,47.2
,,0.007557960850637525,0.015796195303892823,0.0005769067290026107,0.023931062883532958,0.6081877560700976,0.31582219675826356,0.6600707783339718,-4.147986171498133,47.3
,,0.00750140946053494,0.01551687417419975,0.0005970497961035511,0.02361533343083824,0.6050617252352581,0.31764994902588056,0.657067757253723,-4.1658271908136,47.4
,,0.00750140946053494,0.01551687417419975,0.0005970497961035511,0.02361533343083824,0.6019356944004186,0.31764994902588056,0.657067757253723,-4.1658271908136,47.5
,,0.00750140946053494,0.01551687417419975,0.0005970497961035511,0.02361533343083824,0.5988096635655792,0.31764994902588056,0.657067757253723,-4.1658271908136,47.6
,,0.007591846318575957,0.015439298486830884,0.0005803411260371551,0.023611485931443996,0.5957757063638769,0.32153191631475037,0.6538893202934759,-4.170839170208445,47.7
,,0.007591846318575957,0.015439298486830884,0.0005803411260371551,0.023611485931443996,0.5928247434703736,0.32153191631475037,0.6538893202934759,-4.170839170208445,47.8
,,0.0075546211079565995,0.015160557258242445,0.0006030539899627546,0.0233182323561618,0.5875397011527024,0.32397915041618947,0.6501589411530285,-4.189058140984223,47.9
,,0.0075546211079565995,0.015160557258242445,0.0006030539899627546,0.0233182323561618,0.5822546588350311,0.32397915041618947,0.6501589411530285,-4.189058140984223,48.0
,,0.0075546211079565995,0.015160557258242445,0.0006030539899627546,0.0233182323561618,0.5769696165173599,0.32397915041618947,0.6501589411530285,-4.189058140984223,48.1
,,0.007670015347009981,0.01506668356095567,0.0005825663629056223,0.023319265270871272,0.5718041700959149,0.32891325082144873,0.646104557152402,-4.1952693595103225,48.2
,,0.007670015347009981,0.01506668356095567,0.0005825663629056223,0.023319265270871272,0.5691984259738768,0.32891325082144873,0.646104557152402,-4.1952693595103225,48.3
,,0.007665816852640306,0.01481056308473092,0.0006098102437670653,0.02308619018113829,0.5643792456168458,0.33205205330515625,0.6415334435229307,-4.212414630849169,48.4
,,0.007665816852640306,0.01481056308473092,0.0006098102437670653,0.02308619018113829,0.5595600652598146,0.33205205330515625,0.6415334435229307,-4.212414630849169,48.5
,,0.007665816852640306,0.01481056308473092,0.0006098102437670653,0.02308619018113829,0.5547408849027835,0.33205205330515625,0.6415334435229307,-4.212414630849169,48.6
,,0.009770661773924936,0.014187733081591108,0.0007151402229557825,0.024673535078471826,0.5518225768813558,0.39599764455519965,0.575018254841407,-4.25537755521706,48.7
,,0.009770661773924936,0.014187733081591108,0.0007151402229557825,0.024673535078471826,0.5514291999761437,0.39599764455519965,0.575018254841407,-4.25537755521706,48.8
,,0.007856711936583365,0.014532229608588378,0.0006201642026112885,0.023009105747783032,0.5495045633094764,0.34146098604203134,0.6315860237197,-4.231386364542362,48.9
,,0.007856711936583365,0.014532229608588378,0.0006201642026112885,0.023009105747783032,0.5475799266428091,0.34146098604203134,0.6315860237197,-4.231386364542362,49.0
,,0.007856711936583365,0.014532229608588378,0.0006201642026112885,0.023009105747783032,0.5456552899761418,0.34146098604203134,0.6315860237197,-4.231386364542362,49.1
,,0.009715941871753175,0.013562508102998418,0.0007036711540819631,0.023982121128833554,0.5456833408543296,0.4051327161412657,0.5655257944090817,-4.300446050225533,49.2
,,0.009715941871753175,0.013562508102998418,0.0007036711540819631,0.023982121128833554,0.545868548089667,0.4051327161412657,0.5655257944090817,-4.300446050225533,49.3
,,0.009715941871753175,0.013562508102998418,0.0007036711540819631,0.023982121128833554,0.5461890791702272,0.4051327161412657,0.5655257944090817,-4.300446050225533,49.4
,,0.008104615019163527,0.014307329742109557,0.0006320206010952836,0.023043965362368368,0.5448438720189788,0.35170227396707765,0.6208709966850561,-4.246983303656797,49.5
,,0.008104615019163527,0.014307329742109557,0.0006320206010952836,0.023043965362368368,0.5434986648677304,0.35170227396707765,0.6208709966850561,-4.246983303656797,49.6
,,0.00831461444714255,0.014280201566278475,0.0006053704893500117,0.023200186502771038,0.5423288105289511,0.35838567272506405,0.6155209814616294,-4.248881206884711,49.7
,,0.00831461444714255,0.014280201566278475,0.0006053704893500117,0.023200186502771038,0.5411589561901718,0.35838567272506405,0.6155209814616294,-4.248881206884711,49.8
,,0.00831461444714255,0.014280201566278475,0.0006053704893500117,0.023200186502771038,0.540315215679542,0.35838567272506405,0.6155209814616294,-4.248881206884711,49.9
,,0.009605735498156428,0.012784230083604589,0.0007146898392134422,0.023104655420974462,0.5413506540779239,0.41574891826503146,0.5533183616319607,-4.359542892341344,50.0
,,0.009605735498156428,0.012784230083604589,0.0007146898392134422,0.023104655420974462,0.5423860924763059,0.41574891826503146,0.5533183616319607,-4.359542892341344,50.1
,,0.00863421449980457,0.014145922121650634,0.0006164094504719126,0.023396546071927118,0.5418547968968973,0.3690379970300202,0.6046158299674815,-4.258328885710043,50.2
,,0.00863421449980457,0.014145922121650634,0.0006164094504719126,0.023396546071927118,0.5414815029376497,0.3690379970300202,0.6046158299674815,-4.258328885710043,50.3
,,0.00863421449980457,0.014145922121650634,0.0006164094504719126,0.023396546071927118,0.5412762425150272,0.3690379970300202,0.6046158299674815,-4.258328885710043,50.4
,,0.008715944456396577,0.014032462404714919,0.000656126858506047,0.02340453371961754,0.5411905319563936,0.3724041060083553,0.5995617162393195,-4.266381890309541,50.5
,,0.008715944456396577,0.014032462404714919,0.000656126858506047,0.02340453371961754,0.5411048213977598,0.3724041060083553,0.5995617162393195,-4.266381890309541,50.6
,,0.006741489201386347,0.01406835836520552,0.0006276124757620958,0.021437460042353963,0.5394420878477177,0.3144723856309094,0.6562511760913224,-4.2638270909099845,50.7
,,0.006741489201386347,0.01406835836520552,0.0006276124757620958,0.021437460042353963,0.5381056736014898,0.3144723856309094,0.6562511760913224,-4.2638270909099845,50.8
,,0.006741489201386347,0.01406835836520552,0.0006276124757620958,0.021437460042353963,0.536769259355262,0.3144723856309094,0.6562511760913224,-4.2638270909099845,50.9
,,0.009062038387247884,0.013981999459000598,0.0006670532508102853,0.02371109109705877,0.5373098075900841,0.38218563414705026,0.5896818245000538,-4.269984529584907,51.0
,,0.010189332247225976,0.012279956060384536,0.0006808143679954706,0.02315010267560598,0.5398684821723065,0.4401419894332827,0.53044931300993,-4.399786934414124,51.1
,,0.010189332247225976,0.012279956060384536,0.0006808143679954706,0.02315010267560598,0.542427156754529,0.4401419894332827,0.53044931300993,-4.399786934414124,51.2
,,0.010189332247225976,0.012279956060384536,0.0006808143679954706,0.02315010267560598,0.5452963551403337,0.4401419894332827,0.53044931300993,-4.399786934414124,51.3
,,0.010189332247225976,0.012279956060384536,0.0006808143679954706,0.02315010267560598,0.5481655535261385,0.4401419894332827,0.53044931300993,-4.399786934414124,51.4
,,0.009440452672972364,0.014039380199274356,0.0006791277453482235,0.02415896061759494,0.549286679095964,0.3907640242642266,0.5811251742779652,-4.265889026709736,51.5
,,0.010455099758813792,0.012296232967806615,0.0006802166832756603,0.023431549409896068,0.5523838259717299,0.44619754229305003,0.5247725087532381,-4.398462326291738,51.6
,,0.010455099758813792,0.012296232967806615,0.0006802166832756603,0.023431549409896068,0.5554809728474958,0.44619754229305003,0.5247725087532381,-4.398462326291738,51.7
,,0.010455099758813792,0.012296232967806615,0.0006802166832756603,0.023431549409896068,0.5588668545916061,0.44619754229305003,0.5247725087532381,-4.398462326291738,51.8
,,0.010455099758813792,0.012296232967806615,0.0006802166832756603,0.023431549409896068,0.5622527363357166,0.44619754229305003,0.5247725087532381,-4.398462326291738,51.9
,,0.009823869194605655,0.014172750183733509,0.000689232642938485,0.024685852021277647,0.563892878274833,0.3979554437148088,0.5741244082447505,-4.2564341591621595,52.0
,,0.010778913729383456,0.01247514873529536,0.0006838624727313901,0.023937924937410204,0.5674316751643418,0.4502860526786164,0.5211457871939096,-4.384016714746663,52.1
,,0.010778913729383456,0.01247514873529536,0.0006838624727313901,0.023937924937410204,0.5709704720538504,0.4502860526786164,0.5211457871939096,-4.384016714746663,52.2
,,0.010778913729383456,0.01247514873529536,0.0006838624727313901,0.023937924937410204,0.5747657427465276,0.4502860526786164,0.5211457871939096,-4.384016714746663,52.3
,,0.010778913729383456,0.01247514873529536,0.0006838624727313901,0.023937924937410204,0.5785610134392046,0.4502860526786164,0.5211457871939096,-4.384016714746663,52.4
,,0.010217160622509455,0.01441443449553478,0.0006987872140801481,0.025330382332124382,0.5806316580380981,0.4033559576221593,0.5690571230444544,-4.239525178939844,52.5
,,0.011101989363544418,0.012764982386781719,0.0006894032388756514,0.024556374989201785,0.5844901663246309,0.4521021269803183,0.519823564854132,-4.361049608095226,52.6
,,0.011101989363544418,0.012764982386781719,0.0006894032388756514,0.024556374989201785,0.5883486746111638,0.4521021269803183,0.519823564854132,-4.361049608095226,52.7
,,0.011101989363544418,0.012764982386781719,0.0006894032388756514,0.024556374989201785,0.592336388875682,0.4521021269803183,0.519823564854132,-4.361049608095226,52.8
,,0.011101989363544418,0.012764982386781719,0.0006894032388756514,0.024556374989201785,0.5964123515310131,0.4521021269803183,0.519823564854132,-4.361049608095226,52.9
,,0.011126461851562606,0.012880356487939355,0.0007248678088048309,0.02473168614830679,0.6004228648795665,0.44988690964462846,0.5208038146166263,-4.352051881053905,53.0
,,0.01092104899179782,0.015159107339601888,0.0006827667030339163,0.026762923034433624,0.6028400050403684,0.40806637517683014,0.5664219607140045,-4.189153783113573,53.1
,,0.01092104899179782,0.015159107339601888,0.0006827667030339163,0.026762923034433624,0.6052571452011701,0.40806637517683014,0.5664219607140045,-4.189153783113573,53.2
,,0.01092104899179782,0.015159107339601888,0.0006827667030339163,0.026762923034433624,0.6077780346772923,0.40806637517683014,0.5664219607140045,-4.189153783113573,53.3
,,0.01094652477710321,0.015176661270349579,0.0007214319563605522,0.026844618003813343,0.6103760403279249,0.40777353492414126,0.5653521040304502,-4.187996473870307,53.4
,,0.01094652477710321,0.015176661270349579,0.0007214319563605522,0.026844618003813343,0.6129740459785574,0.40777353492414126,0.5653521040304502,-4.187996473870307,53.5
,,0.011293240903241141,0.015715772653257735,0.0006995332254412481,0.027708546781940124,0.6155422650850874,0.4075724718483558,0.5671814107371723,-4.153090443332416,53.6
,,0.011293240903241141,0.015715772653257735,0.0006995332254412481,0.027708546781940124,0.6181104841916172,0.4075724718483558,0.5671814107371723,-4.153090443332416,53.7
,,0.011293240903241141,0.015715772653257735,0.0006995332254412481,0.027708546781940124,0.6191294846884446,0.4075724718483558,0.5671814107371723,-4.153090443332416,53.8
,,0.011311151318237766,0.01576162529664192,0.0007373213127724835,0.027810097927652173,0.6218138514076521,0.4067282088564977,0.5667590721055966,-4.150177071910214,53.9
,,0.011311151318237766,0.01576162529664192,0.0007373213127724835,0.027810097927652173,0.6244982181268597,0.4067282088564977,0.5667590721055966,-4.150177071910214,54.0
,,0.007702278688143758,0.0164238374625158,0.0007192881536716365,0.024845404304331194,0.6244195943137436,0.31000818476522246,0.6610412638627379,-4.109021495654233,54.1
,,0.007702278688143758,0.0164238374625158,0.0007192881536716365,0.024845404304331194,0.6243409705006275,0.31000818476522246,0.6610412638627379,-4.109021495654233,54.2
,,0.007702278688143758,0.0164238374625158,0.0007192881536716365,0.024845404304331194,0.6243242314893608,0.31000818476522246,0.6610412638627379,-4.109021495654233,54.3
,,0.01165386961021746,0.016473696613100212,0.0007545140686229829,0.028882080291940657,0.6269787336679778,0.40349827617747436,0.570377772188975,-4.10599031473681,54.4
,,0.01165386961021746,0.016473696613100212,0.0007545140686229829,0.028882080291940657,0.6296332358465951,0.40349827617747436,0.570377772188975,-4.10599031473681,54.5
,,0.011957936688201764,0.01721401869389116,0.0007375351982211934,0.02990949058031412,0.6321459584343921,0.3998040908149823,0.5755370071471934,-4.062031186785236,54.6
,,0.011957936688201764,0.01721401869389116,0.0007375351982211934,0.02990949058031412,0.6346586810221893,0.3998040908149823,0.5755370071471934,-4.062031186785236,54.7
,,0.011957936688201764,0.01721401869389116,0.0007375351982211934,0.02990949058031412,0.6372034778449868,0.3998040908149823,0.5755370071471934,-4.062031186785236,54.8
,,0.011940736960416356,0.01727637720720434,0.000770350148809019,0.029987464316429718,0.6380924768263112,0.3981909518729862,0.5761199754971897,-4.058415189947216,54.9
,,0.011940736960416356,0.01727637720720434,0.000770350148809019,0.029987464316429718,0.6389814758076358,0.3981909518729862,0.5761199754971897,-4.058415189947216,55.0
,,0.012191747573400809,0.01809947358216098,0.0007574372841053435,0.031048658439667132,0.6396753306903098,0.3926658408475672,0.5829389896935921,-4.01187242499181,55.1
,,0.012191747573400809,0.01809947358216098,0.0007574372841053435,0.031048658439667132,0.6403691855729838,0.3926658408475672,0.5829389896935921,-4.01187242499181,55.2
,,0.012191747573400809,0.01809947358216098,0.0007574372841053435,0.031048658439667132,0.6426830484006962,0.3926658408475672,0.5829389896935921,-4.01187242499181,55.3
,,0.012515950094151355,0.016362602637128843,0.0007914762745134495,0.029670029005793647,0.6476569301099595,0.42183814824405375,0.5514858995902474,-4.112756875061203,55.4
,,0.012515950094151355,0.016362602637128843,0.0007914762745134495,0.029670029005793647,0.6526308118192227,0.42183814824405375,0.5514858995902474,-4.112756875061203,55.5
,,0.012397140619885692,0.019142414418397764,0.0007828081533041088,0.032322363191587565,0.6563015253432984,0.3835468510270392,0.5922343705171872,-3.9558487557511133,55.6
,,0.012397140619885692,0.019142414418397764,0.0007828081533041088,0.032322363191587565,0.6599722388673742,0.3835468510270392,0.5922343705171872,-3.9558487557511133,55.7
,,0.012397140619885692,0.019142414418397764,0.0007828081533041088,0.032322363191587565,0.6619493406081068,0.3835468510270392,0.5922343705171872,-3.9558487557511133,55.8
,,0.012347404191995212,0.019173818103222582,0.0008076440885905745,0.03232886638380837,0.6622184661302766,0.3819312451419361,0.593086620346998,-3.954209571009309,55.9
,,0.012466075170570067,0.02015093843176416,0.0008041340151875029,0.033421147617521726,0.6622060678098267,0.37299961429315104,0.602939751272922,-3.9045044193779126,56.0
,,0.012466075170570067,0.02015093843176416,0.0008041340151875029,0.033421147617521726,0.6621936694893769,0.37299961429315104,0.602939751272922,-3.9045044193779126,56.1
,,0.012466075170570067,0.02015093843176416,0.0008041340151875029,0.033421147617521726,0.6637510894867201,0.37299961429315104,0.602939751272922,-3.9045044193779126,56.2
,,0.012406181026276882,0.020138364701760388,0.0008229024291269395,0.03336744815716421,0.6652797553037849,0.3718049090191871,0.6035332581294967,-3.905128591524565,56.3
,,0.012406181026276882,0.020138364701760388,0.0008229024291269395,0.03336744815716421,0.6667532162736447,0.3718049090191871,0.6035332581294967,-3.905128591524565,56.4
,,0.012546724714079624,0.021301459869289188,0.0008290253351849296,0.03467720991855375,0.6679262399796725,0.36181471183950714,0.6142783666655957,-3.8489796701511296,56.5
,,0.012546724714079624,0.021301459869289188,0.0008290253351849296,0.03467720991855375,0.6690992636857003,0.36181471183950714,0.6142783666655957,-3.8489796701511296,56.6
,,0.012546724714079624,0.021301459869289188,0.0008290253351849296,0.03467720991855375,0.6701802137585908,0.36181471183950714,0.6142783666655957,-3.8489796701511296,56.7
,,0.01265521314674212,0.021521094083991204,0.0008534786179803404,0.03502978584871366,0.6712503848361513,0.3612700688892974,0.6143655624084121,-3.8387217046467157,56.8
,,0.01265521314674212,0.021521094083991204,0.0008534786179803404,0.03502978584871366,0.6722473850116265,0.3612700688892974,0.6143655624084121,-3.8387217046467157,56.9
,,0.006958274385978857,0.022840106161553034,0.0008672841642577199,0.030665664711789612,0.6700956512839744,0.22690766534415618,0.744810405259926,-3.779237246151144,57.0
,,0.006958274385978857,0.022840106161553034,0.0008672841642577199,0.030665664711789612,0.6679439175563223,0.22690766534415618,0.744810405259926,-3.779237246151144,57.1
,,0.006958274385978857,0.022840106161553034,0.0008672841642577199,0.030665664711789612,0.6656725879324439,0.22690766534415618,0.744810405259926,-3.779237246151144,57.2
,,0.0125543700011308,0.021136779844182458,0.0008808062769842119,0.03457195612229747,0.6666157796368058,0.3631373925363094,0.6113851287272147,-3.8567406353942544,57.3
,,0.0125543700011308,0.021136779844182458,0.0008808062769842119,0.03457195612229747,0.6674643053664573,0.3631373925363094,0.6113851287272147,-3.8567406353942544,57.4
,,0.013157634688641081,0.024712619222742916,0.0009146569928240661,0.03878491090420806,0.6676291338392251,0.33924622699632173,0.6371709679513963,-3.700441266106835,57.5
,,0.013157634688641081,0.024712619222742916,0.0009146569928240661,0.03878491090420806,0.6677939623119928,0.33924622699632173,0.6371709679513963,-3.700441266106835,57.6
,,0.013157634688641081,0.024712619222742916,0.0009146569928240661,0.03878491090420806,0.6660579184491571,0.33924622699632173,0.6371709679513963,-3.700441266106835,57.7
,,0.013157634688641081,0.024712619222742916,0.0009146569928240661,0.03878491090420806,0.6643218745863214,0.33924622699632173,0.6371709679513963,-3.700441266106835,57.8
,,0.012541428674811683,0.02280592553211581,0.0009191988737491901,0.03626655308067668,0.664424977228435,0.3458125355037926,0.6288418279339352,-3.7807348850282896,57.9
,,0.012173295377340274,0.023714844878483583,0.0009150023113675586,0.03680314256719142,0.6641214119543232,0.3307678238377474,0.6443701060361201,-3.7416540607457294,58.0
,,0.012173295377340274,0.023714844878483583,0.0009150023113675586,0.03680314256719142,0.6638178466802113,0.3307678238377474,0.6443701060361201,-3.7416540607457294,58.1
,,0.012173295377340274,0.023714844878483583,0.0009150023113675586,0.03680314256719142,0.6615615938612441,0.3307678238377474,0.6443701060361201,-3.7416540607457294,58.2
,,0.012173295377340274,0.023714844878483583,0.0009150023113675586,0.03680314256719142,0.6593053410422772,0.3307678238377474,0.6443701060361201,-3.7416540607457294,58.3
,,0.014076262908173542,0.027229190076604307,0.0009900953900532894,0.04229554837483114,0.6570894799895253,0.33280719718839064,0.6437838288628883,-3.6034657165286035,58.4
,,0.01392267410434739,0.028490817867466416,0.0010020953101155753,0.04341558728192938,0.6562251064272532,0.320683767650941,0.6562347684589536,-3.558173423707585,58.5
,,0.01392267410434739,0.028490817867466416,0.0010020953101155753,0.04341558728192938,0.6553607328649812,0.320683767650941,0.6562347684589536,-3.558173423707585,58.6
,,0.01392267410434739,0.028490817867466416,0.0010020953101155753,0.04341558728192938,0.6543210064902399,0.320683767650941,0.6562347684589536,-3.558173423707585,58.7
,,0.01392267410434739,0.028490817867466416,0.0010020953101155753,0.04341558728192938,0.6532812801154988,0.320683767650941,0.6562347684589536,-3.558173423707585,58.8
,,0.010495405722366704,0.024452738465850835,0.0008944567222745011,0.03584260091049204,0.6515808821131227,0.2928193115387012,0.6822255596605685,-3.711013066639804,58.9
,,0.010495405722366704,0.024452738465850835,0.0008944567222745011,0.03584260091049204,0.6480013052017349,0.2928193115387012,0.6822255596605685,-3.711013066639804,59.0
,,0.010495405722366704,0.024452738465850835,0.0008944567222745011,0.03584260091049204,0.6444217282903472,0.2928193115387012,0.6822255596605685,-3.711013066639804,59.1
,,0.010495405722366704,0.024452738465850835,0.0008944567222745011,0.03584260091049204,0.6424088853567499,0.2928193115387012,0.6822255596605685,-3.711013066639804,59.2
,,0.013860099219787491,0.028219844374735598,0.0009748114955529513,0.043054755090076044,0.6410842133603076,0.32191796680274676,0.6554408291417773,-3.567729847287927,59.3
,,0.013476001220193469,0.028873418182589417,0.0009704578992496357,0.043319877302032524,0.6394882041392215,0.31108124167196544,0.6665166196404417,-3.5448338931960883,59.4
,,0.013476001220193469,0.028873418182589417,0.0009704578992496357,0.043319877302032524,0.6377726450541462,0.31108124167196544,0.6665166196404417,-3.5448338931960883,59.5
,,0.013476001220193469,0.028873418182589417,0.0009704578992496357,0.043319877302032524,0.636057085969071,0.31108124167196544,0.6665166196404417,-3.5448338931960883,59.6
,,0.013476001220193469,0.028873418182589417,0.0009704578992496357,0.043319877302032524,0.6359185498754043,0.31108124167196544,0.6665166196404417,-3.5448338931960883,59.7
,,0.009543446433461526,0.024547848271046006,0.0008942585502034671,0.034985553254711,0.6349138166076002,0.2727824929330351,0.7016567121956404,-3.7071310753833826,59.8
,,0.008964922769909602,0.025171691438531704,0.000887936034107296,0.0350245502425486,0.633546659167203,0.25596111035906505,0.7186870713318275,-3.682035271515428,59.9
,,0.008964922769909602,0.025171691438531704,0.000887936034107296,0.0350245502425486,0.6303025392457557,0.25596111035906505,0.7186870713318275,-3.682035271515428,60.0
,,0.008964922769909602,0.025171691438531704,0.000887936034107296,0.0350245502425486,0.6250402929769083,0.25596111035906505,0.7186870713318275,-3.682035271515428,60.1
,,0.008964922769909602,0.025171691438531704,0.000887936034107296,0.0350245502425486,0.6197780467080608,0.25596111035906505,0.7186870713318275,-3.682035271515428,60.2
,,0.014124502095223656,0.02880446239453729,0.0009598278915818428,0.04388879238134279,0.6160069908233847,0.3218248060347181,0.6563056496123171,-3.547224959588091,60.3
,,0.008362991810282612,0.02570323097080023,0.0008965789556319592,0.0349628017367148,0.6104027039890332,0.2391968433553924,0.7351593606358211,-3.6611385762747175,60.4
,,0.008362991810282612,0.02570323097080023,0.0008965789556319592,0.0349628017367148,0.6065464899706609,0.2391968433553924,0.7351593606358211,-3.6611385762747175,60.5
,,0.008362991810282612,0.02570323097080023,0.0008965789556319592,0.0349628017367148,0.6007142546463483,0.2391968433553924,0.7351593606358211,-3.6611385762747175,60.6
,,0.008362991810282612,0.02570323097080023,0.0008965789556319592,0.0349628017367148,0.5948820193220355,0.2391968433553924,0.7351593606358211,-3.6611385762747175,60.7
,,0.01484235909528909,0.030501800224717247,0.0009773525723149436,0.04632151189232128,0.5908413247336697,0.3204204372644734,0.6584802390652005,-3.4899695733493834,60.8
,,0.01484235909528909,0.030501800224717247,0.0009773525723149436,0.04632151189232128,0.5868006301453037,0.3204204372644734,0.6584802390652005,-3.4899695733493834,60.9
,,0.01484235909528909,0.030501800224717247,0.0009773525723149436,0.04632151189232128,0.5845056753619317,0.3204204372644734,0.6584802390652005,-3.4899695733493834,61.0
,,0.01484235909528909,0.030501800224717247,0.0009773525723149436,0.04632151189232128,0.5803120656281675,0.3204204372644734,0.6584802390652005,-3.4899695733493834,61.1
,,0.01484235909528909,0.030501800224717247,0.0009773525723149436,0.04632151189232128,0.5761184558944032,0.3204204372644734,0.6584802390652005,-3.4899695733493834,61.2
,,0.015984852503251,0.031408862678434825,0.0009974607653878368,0.04839117594707366,0.572172869352181,0.3303257709780381,0.6490617775601752,-3.4606651749876547,61.3
,,0.015984852503251,0.031408862678434825,0.0009974607653878368,0.04839117594707366,0.5682272828099588,0.3303257709780381,0.6490617775601752,-3.4606651749876547,61.4
,,0.015984852503251,0.031408862678434825,0.0009974607653878368,0.04839117594707366,0.5660063223615203,0.3303257709780381,0.6490617775601752,-3.4606651749876547,61.5
,,0.015984852503251,0.031408862678434825,0.0009974607653878368,0.04839117594707366,0.5619974982254424,0.3303257709780381,0.6490617775601752,-3.4606651749876547,61.6
,,0.015984852503251,0.031408862678434825,0.0009974607653878368,0.04839117594707366,0.5579886740893644,0.3303257709780381,0.6490617775601752,-3.4606651749876547,61.7
,,0.01715078129709101,0.03193606988660646,0.0010079029992479955,0.05009475418294546,0.5542921468637318,0.34236681219068477,0.6375132567768733,-3.44401919052236,61.8
,,0.01715078129709101,0.03193606988660646,0.0010079029992479955,0.05009475418294546,0.5505956196380993,0.34236681219068477,0.6375132567768733,-3.44401919052236,61.9
,,0.01715078129709101,0.03193606988660646,0.0010079029992479955,0.05009475418294546,0.5469645417192445,0.34236681219068477,0.6375132567768733,-3.44401919052236,62.0
,,0.01715078129709101,0.03193606988660646,0.0010079029992479955,0.05009475418294546,0.5449268369881413,0.34236681219068477,0.6375132567768733,-3.44401919052236,62.1
,,0.006629483424448477,0.028623887016929767,0.000950876279520336,0.03620424672089858,0.5394954863363122,0.18311341969232758,0.7906223608957698,-3.5535136993682754,62.2
,,0.018233651168028057,0.03179903933760542,0.0009993057537275257,0.051031996259360994,0.537861867902639,0.35729841089027337,0.6231196439189345,-3.448319199161586,62.3
,,0.018233651168028057,0.03179903933760542,0.0009993057537275257,0.051031996259360994,0.5362188568029823,0.35729841089027337,0.6231196439189345,-3.448319199161586,62.4
,,0.018233651168028057,0.03179903933760542,0.0009993057537275257,0.051031996259360994,0.5345758457033256,0.35729841089027337,0.6231196439189345,-3.448319199161586,62.5
,,0.018233651168028057,0.03179903933760542,0.0009993057537275257,0.051031996259360994,0.5329626211477717,0.35729841089027337,0.6231196439189345,-3.448319199161586,62.6
,,0.01840274257448791,0.03188192601627434,0.000962442045136713,0.051247110635898964,0.5313917626271231,0.3590981490690454,0.6221214351534743,-3.445716012321824,62.7
,,0.019303221200535077,0.03134703027268449,0.0009829808246641964,0.05163323229788377,0.5302495212643188,0.37385265925577615,0.6071095857767803,-3.4626357445342366,62.8
,,0.019303221200535077,0.03134703027268449,0.0009829808246641964,0.05163323229788377,0.5291178815746118,0.37385265925577615,0.6071095857767803,-3.4626357445342366,62.9
,,0.019303221200535077,0.03134703027268449,0.0009829808246641964,0.05163323229788377,0.5279862418849047,0.37385265925577615,0.6071095857767803,-3.4626357445342366,63.0
,,0.019303221200535077,0.03134703027268449,0.0009829808246641964,0.05163323229788377,0.5296175927275213,0.37385265925577615,0.6071095857767803,-3.4626357445342366,63.1
,,0.019795151849889052,0.03157844852419077,0.0009461048291792827,0.052319705203259105,0.5313718914714234,0.37834983536290967,0.603567019376548,-3.45528039979116,63.2
,,0.020700621710808307,0.031082614513058052,0.0009758791267775605,0.05275911535064392,0.5335609765248818,0.3923610464889203,0.5891420715923489,-3.471106634978986,63.3
,,0.020700621710808307,0.031082614513058052,0.0009758791267775605,0.05275911535064392,0.533100579670652,0.3923610464889203,0.5891420715923489,-3.471106634978986,63.4
,,0.020700621710808307,0.031082614513058052,0.0009758791267775605,0.05275911535064392,0.5326401828164223,0.3923610464889203,0.5891420715923489,-3.471106634978986,63.5
,,0.020700621710808307,0.031082614513058052,0.0009758791267775605,0.05275911535064392,0.5323215655530127,0.3923610464889203,0.5891420715923489,-3.471106634978986,63.6
,,0.02174010386259202,0.03188848088365907,0.0009515489329063432,0.05458013367915744,0.5321781371192469,0.39831532825457205,0.5842506922227703,-3.445510435229675,63.7
,,0.0228325321298536,0.03159994066428179,0.0009975681000237127,0.05543004089415911,0.5324879942610921,0.41191620575296306,0.5700869087327627,-3.4546000361036353,63.8
,,0.0228325321298536,0.03159994066428179,0.0009975681000237127,0.05543004089415911,0.5328367727965381,0.41191620575296306,0.5700869087327627,-3.4546000361036353,63.9
,,0.0228325321298536,0.03159994066428179,0.0009975681000237127,0.05543004089415911,0.5331855513319841,0.41191620575296306,0.5700869087327627,-3.4546000361036353,64.0
,,0.0228325321298536,0.03159994066428179,0.0009975681000237127,0.05543004089415911,0.5337294739660806,0.41191620575296306,0.5700869087327627,-3.4546000361036353,64.1
,,0.00563197172158226,0.028262248866150187,0.0009334180037229257,0.03482763859145537,0.5284592364392798,0.1617098359049818,0.811489093408821,-3.566228327179573,64.2
,,0.025187590457369402,0.03230923647431586,0.0010247025977233456,0.05852152952940861,0.5296368123266139,0.4303987038601234,0.5520914564968713,-3.4324021306748485,64.3
,,0.025187590457369402,0.03230923647431586,0.0010247025977233456,0.05852152952940861,0.5297997756225952,0.4303987038601234,0.5520914564968713,-3.4324021306748485,64.4
,,0.025187590457369402,0.03230923647431586,0.0010247025977233456,0.05852152952940861,0.5299627389185765,0.4303987038601234,0.5520914564968713,-3.4324021306748485,64.5
,,0.025187590457369402,0.03230923647431586,0.0010247025977233456,0.05852152952940861,0.5314288703997453,0.4303987038601234,0.5520914564968713,-3.4324021306748485,64.6
,,0.00552123989040354,0.02751456378893645,0.0009056272194955378,0.03394143089883553,0.5264626402562078,0.16266962659470446,0.8106483156513129,-3.5930398221691733,64.7
,,0.026905477525177,0.032092056934954344,0.0010220126617039719,0.06001954712183531,0.5285821683085118,0.4482785828183748,0.5346934202920559,-3.439146726975564,64.8
,,0.026905477525177,0.032092056934954344,0.0010220126617039719,0.06001954712183531,0.5307423039895607,0.4482785828183748,0.5346934202920559,-3.439146726975564,64.9
,,0.026905477525177,0.032092056934954344,0.0010220126617039719,0.06001954712183531,0.5331839635132292,0.4482785828183748,0.5346934202920559,-3.439146726975564,65.0
,,0.026905477525177,0.032092056934954344,0.0010220126617039719,0.06001954712183531,0.5356256230368975,0.4482785828183748,0.5346934202920559,-3.439146726975564,65.1
,,0.027336062994127722,0.03160424980276386,0.0009305586680651106,0.0598708714649567,0.5383624451584084,0.4565836829371679,0.527873555694981,-3.454463680002658,65.2
,,0.027260425966095576,0.030429209948973558,0.0009711452094819167,0.05866078112455105,0.5414715190669297,0.46471297250909577,0.518731755111903,-3.4923522783096237,65.3
,,0.027260425966095576,0.030429209948973558,0.0009711452094819167,0.05866078112455105,0.5445805929754511,0.46471297250909577,0.518731755111903,-3.4923522783096237,65.4
,,0.027260425966095576,0.030429209948973558,0.0009711452094819167,0.05866078112455105,0.5479901041478046,0.46471297250909577,0.518731755111903,-3.4923522783096237,65.5
,,0.027260425966095576,0.030429209948973558,0.0009711452094819167,0.05866078112455105,0.551399615320158,0.46471297250909577,0.518731755111903,-3.4923522783096237,65.6
,,0.02771326882120445,0.029977966477828934,0.0008765752209722356,0.05856781052000563,0.5551268025954547,0.4731825993689509,0.5118505576982264,-3.5072926179000925,65.7
,,0.027738626706630232,0.02921354683494909,0.0009320195948057549,0.05788419313638507,0.559143189597076,0.4792090068746968,0.5046895404781228,-3.533122744587669,65.8
,,0.027738626706630232,0.02921354683494909,0.0009320195948057549,0.05788419313638507,0.5631595765986972,0.4792090068746968,0.5046895404781228,-3.533122744587669,65.9
,,0.027738626706630232,0.02921354683494909,0.0009320195948057549,0.05788419313638507,0.5703246975034458,0.4792090068746968,0.5046895404781228,-3.533122744587669,66.0
,,0.027738626706630232,0.02921354683494909,0.0009320195948057549,0.05788419313638507,0.5774898184081945,0.4792090068746968,0.5046895404781228,-3.533122744587669,66.1
,,0.005391242282173956,0.024919356385746196,0.0007926249689210069,0.03110322363684116,0.5765086627993233,0.17333387513531348,0.801182432943372,-3.69211041261366,66.2
,,0.028248675820254778,0.0283636026654442,0.0009049231906090021,0.057517201676307986,0.5809752137942757,0.4911343910510643,0.4931325210337468,-3.5626485520490188,66.3
,,0.028248675820254778,0.0283636026654442,0.0009049231906090021,0.057517201676307986,0.5854417647892282,0.4911343910510643,0.4931325210337468,-3.5626485520490188,66.4
,,0.028248675820254778,0.0283636026654442,0.0009049231906090021,0.057517201676307986,0.5905920130410643,0.4911343910510643,0.4931325210337468,-3.5626485520490188,66.5
,,0.028248675820254778,0.0283636026654442,0.0009049231906090021,0.057517201676307986,0.5957422612929005,0.4911343910510643,0.4931325210337468,-3.5626485520490188,66.6
,,0.02928820478291898,0.02859335420982863,0.0008219681511065952,0.058703527143854205,0.6012075432587319,0.4989172918204324,0.4870806849435133,-3.5545809584442,66.7
,,0.020646371237396263,0.02829613420871504,0.0009039421693972414,0.04984644761550854,0.6033989619298777,0.41419945101509364,0.5676660135738814,-3.565030084062391,66.8
,,0.020646371237396263,0.02829613420871504,0.0009039421693972414,0.04984644761550854,0.6053960028560293,0.41419945101509364,0.5676660135738814,-3.565030084062391,66.9
,,0.020646371237396263,0.02829613420871504,0.0009039421693972414,0.04984644761550854,0.6077997116984066,0.41419945101509364,0.5676660135738814,-3.565030084062391,67.0
,,0.020646371237396263,0.02829613420871504,0.0009039421693972414,0.04984644761550854,0.6102034205407837,0.41419945101509364,0.5676660135738814,-3.565030084062391,67.1
,,0.030683954441099514,0.0289767831754211,0.0008312120792823886,0.06049194969580301,0.6162655928948391,0.507240295533546,0.4790188334338236,-3.541260349788992,67.2
,,0.030511135467781968,0.0287902851578276,0.0009191237355535007,0.06022054436116307,0.6223372848957467,0.5066565869082206,0.47808078560636175,-3.5477172696544956,67.3
,,0.030511135467781968,0.0287902851578276,0.0009191237355535007,0.06022054436116307,0.6283685851304393,0.5066565869082206,0.47808078560636175,-3.5477172696544956,67.4
,,0.030511135467781968,0.0287902851578276,0.0009191237355535007,0.06022054436116307,0.6347141361064605,0.5066565869082206,0.47808078560636175,-3.5477172696544956,67.5
,,0.03165709982746779,0.029263528048935516,0.0008346817748752019,0.061755309651278505,0.6413043734740539,0.5126215058467025,0.47386254257620225,-3.5314133148237237,67.6
,,0.03165709982746779,0.029263528048935516,0.0008346817748752019,0.061755309651278505,0.6478946108416472,0.5126215058467025,0.47386254257620225,-3.5314133148237237,67.7
,,0.03086011917409421,0.02874255213592767,0.0009155090015676313,0.06051818031158951,0.6543946249519297,0.5099313795491692,0.47494078618922614,-3.549376601441262,67.8
,,0.030871454546024392,0.02875249171427837,0.0009167204959117107,0.06054066675621447,0.6615555670962806,0.5099292128766562,0.4749285605006479,-3.549030847171534,67.9
,,0.03086011917409421,0.02874255213592767,0.0009155090015676313,0.06051818031158951,0.668716252834198,0.5099313795491692,0.47494078618922614,-3.549376601441262,68.0
,,0.03201203330568694,0.029342086010702335,0.0008321218557249641,0.062186241172114236,0.6760693851043722,0.514776785062254,0.47184209010947603,-3.528732410952018,68.1
,,0.03201203330568694,0.029342086010702335,0.0008321218557249641,0.062186241172114236,0.6834225173745463,0.514776785062254,0.47184209010947603,-3.528732410952018,68.2
,,0.031026412005299122,0.028866003807997944,0.0009115201064851278,0.06080393591978219,0.6899080217080358,0.5102697964525166,0.4747390669919867,-3.5450907151169395,68.3
,,0.031026412005299122,0.028866003807997944,0.0009115201064851278,0.06080393591978219,0.6966648632661694,0.5102697964525166,0.4747390669919867,-3.5450907151169395,68.4
,,0.031026412005299122,0.028866003807997944,0.0009115201064851278,0.06080393591978219,0.7034217048243028,0.5102697964525166,0.4747390669919867,-3.5450907151169395,68.5
,,0.03178695231992766,0.029256891876061182,0.0008221947532050325,0.061866038949193874,0.7103078215819142,0.5138029338848087,0.47290714539018347,-3.531640113363833,68.6
,,0.031828856534981985,0.02929529302491636,0.0008231557728537375,0.061947305332752084,0.7171940074572009,0.513805344139058,0.47290665619038125,-3.5303284234781014,68.7
,,0.007879450688670034,0.0343274273057118,0.0011407345252003192,0.04334761251958215,0.7154247728529909,0.18177357945862685,0.7919104492826332,-3.371810614439773,68.8
,,0.007879450688670034,0.0343274273057118,0.0011407345252003192,0.04334761251958215,0.7140179624213739,0.18177357945862685,0.7919104492826332,-3.371810614439773,68.9
,,0.007879450688670034,0.0343274273057118,0.0011407345252003192,0.04334761251958215,0.7126111519897569,0.18177357945862685,0.7919104492826332,-3.371810614439773,69.0
,,0.030901138769663734,0.028884083252192553,0.0007976239615937054,0.06058284598344999,0.7205409495603927,0.5100641653266883,0.4767699962475038,-3.5444645881029175,69.1
,,0.030901138769663734,0.028884083252192553,0.0007976239615937054,0.06058284598344999,0.7284707471310284,0.5100641653266883,0.4767699962475038,-3.5444645881029175,69.2
,,0.029276313284416815,0.02815035632880414,0.0008631392017764053,0.05828980881499737,0.7345778564891887,0.5022544056944019,0.48293787372247043,-3.570195266259709,69.3
,,0.029276313284416815,0.02815035632880414,0.0008631392017764053,0.05828980881499737,0.7425181967970247,0.5022544056944019,0.48293787372247043,-3.570195266259709,69.4
,,0.029709797490471992,0.028499007638396103,0.0007707563717170259,0.05897956150058512,0.7504861745403762,0.503730389554986,0.4832014161060416,-3.5578860120191522,69.5
,,0.029709797490471992,0.028499007638396103,0.0007707563717170259,0.05897956150058512,0.7584541522837279,0.503730389554986,0.4832014161060416,-3.5578860120191522,69.6
,,0.029709797490471992,0.028499007638396103,0.0007707563717170259,0.05897956150058512,0.7664221300270796,0.503730389554986,0.4832014161060416,-3.5578860120191522,69.7
,,0.02796680720389714,0.0278050081135171,0.0008373137485433639,0.0566091290659576,0.7721911640243375,0.49403351836259257,0.49117533818830444,-3.5825391265420015,69.8
,,0.02798532294797551,0.027824736102398728,0.0008379144262197967,0.05664797347659404,0.7779596681001435,0.49402160801989786,0.49118678735957655,-3.5818298660560255,69.9
,,0.009743069967349303,0.04501530242349538,0.0012004230804976658,0.055958795471342346,0.774957813232181,0.17411150267412262,0.8044365866765063,-3.1007527931615724,70.0
,,0.009743069967349303,0.04501530242349538,0.0012004230804976658,0.055958795471342346,0.7719559583642189,0.17411150267412262,0.8044365866765063,-3.1007527931615724,70.1
,,0.009743069967349303,0.04501530242349538,0.0012004230804976658,0.055958795471342346,0.7689541034962567,0.17411150267412262,0.8044365866765063,-3.1007527931615724,70.2
,,0.02647181969707248,0.02748103581601715,0.0008117265644811231,0.054764582077570755,0.7740024125684801,0.4833748143933013,0.5018030773446223,-3.594259118887963,70.3
,,0.02647181969707248,0.02748103581601715,0.0008117265644811231,0.054764582077570755,0.7790507216407034,0.4833748143933013,0.5018030773446223,-3.594259118887963,70.4
,,0.010802320042725017,0.05110641321509069,0.0013236352232880875,0.06323236848110379,0.7757445113927136,0.17083529056725363,0.808231835098241,-2.9738452864166125,70.5
,,0.010802320042725017,0.05110641321509069,0.0013236352232880875,0.06323236848110379,0.772438301144724,0.17083529056725363,0.808231835098241,-2.9738452864166125,70.6
,,0.010802320042725017,0.05110641321509069,0.0013236352232880875,0.06323236848110379,0.7691320908967343,0.17083529056725363,0.808231835098241,-2.9738452864166125,70.7
,,0.0247997080389993,0.027099170607770062,0.0007831726221909992,0.05268205126896036,0.7733333306019511,0.4707430223699546,0.5143909539402572,-3.6082521564441543,70.8
,,0.0245627360014721,0.027138038020487976,0.0006892043362147908,0.05238997835817487,0.7774229838363854,0.46884417156166586,0.5180005579493313,-3.606818918253831,70.9
,,0.0245627360014721,0.027138038020487976,0.0006892043362147908,0.05238997835817487,0.7815126370708197,0.46884417156166586,0.5180005579493313,-3.606818918253831,71.0
,,0.0245627360014721,0.027138038020487976,0.0006892043362147908,0.05238997835817487,0.7856022903052542,0.46884417156166586,0.5180005579493313,-3.606818918253831,71.1
,,0.0245627360014721,0.027138038020487976,0.0006892043362147908,0.05238997835817487,0.7930855894604142,0.46884417156166586,0.5180005579493313,-3.606818918253831,71.2
,,0.012042996979486523,0.05648544672458372,0.0015826560401166884,0.07011109974418693,0.7890833975425697,0.1717701907890132,0.8056562645669676,-2.873772254105056,71.3
,,0.02295856867057442,0.026933680832256883,0.0006585662122525886,0.050550815715083894,0.7921834922877985,0.45416811471399854,0.532804079444758,-3.614377700018674,71.4
,,0.02295856867057442,0.026933680832256883,0.0006585662122525886,0.050550815715083894,0.7952835870330273,0.45416811471399854,0.532804079444758,-3.614377700018674,71.5
,,0.02295856867057442,0.026933680832256883,0.0006585662122525886,0.050550815715083894,0.7983836817782561,0.45416811471399854,0.532804079444758,-3.614377700018674,71.6
,,0.02295856867057442,0.026933680832256883,0.0006585662122525886,0.050550815715083894,0.8014414104885799,0.45416811471399854,0.532804079444758,-3.614377700018674,71.7
,,0.02180402119018935,0.026761515463932732,0.0007143390271218865,0.04927987568124397,0.8036520970540902,0.442452844873714,0.5430516025858853,-3.6207904136390483,71.8
