time,ecg,hr,rr,marker,norm_time
1716270352384985742,0.028,125.0,,,0.0
1716270352392680040,0.031,,,,0.007694298
1716270352400374338,0.031,,,,0.015388596
1716270352408068636,0.038,,,,0.023082894
1716270352415762934,0.043,,,,0.030777192
1716270352423457232,0.043,,,,0.03847149
1716270352431151530,0.055,,,,0.046165788
1716270352438845828,0.072,,,,0.053860086
1716270352446540126,0.074,,,,0.061554384
1716270352454234424,0.074,,,,0.069248682
1716270352461928722,0.067,,,,0.07694298
1716270352469623020,0.055,,,,0.084637278
1716270352477317318,0.045,,,,0.092331576
1716270352485011616,0.033,,,,0.100025874
1716270352492705914,0.028,,,,0.107720172
1716270352500400212,0.033,,,,0.11541447
1716270352508094510,0.04,,,,0.123108768
1716270352515788808,0.04,,488.0,,0.130803066
1716270352523483106,0.045,,,,0.138497364
1716270352531177404,0.057,,,,0.146191662
1716270352538871702,0.06,,,,0.15388596
1716270352546566000,0.055,,,,0.161580258
1716270352554260298,0.057,,,,0.169274556
1716270352561954596,0.062,,,,0.176968854
1716270352569648894,0.067,,,,0.184663152
1716270352577343192,0.062,,,,0.19235745
1716270352585037490,0.055,,,,0.200051748
1716270352592731788,0.052,,,,0.207746046
1716270352600426086,0.055,,,,0.215440344
1716270352608120384,0.05,,,,0.223134642
1716270352615814682,0.043,,,,0.23082894
1716270352623508980,0.04,,,,0.238523238
1716270352631203278,0.043,,,,0.246217536
1716270352638897576,0.036,,,,0.253911834
1716270352646591874,0.028,,,,0.261606132
1716270352654286172,0.038,,,,0.26930043
1716270352661980470,0.055,,,,0.276994728
1716270352669674768,0.069,,,,0.284689026
1716270352677369066,0.086,,,,0.292383324
1716270352685063364,0.098,,,,0.300077622
1716270352692757662,0.086,,,,0.30777192
1716270352700451960,0.069,,,,0.315466218
1716270352708146258,0.069,,,,0.323160516
1716270352715840556,0.072,,,,0.330854814
1716270352723534854,0.064,,,,0.338549112
1716270352731229152,0.021,,,,0.34624341
1716270352738923450,-0.016,,,,0.353937708
1716270352746617748,0.221,,,,0.361632006
1716270352754312046,0.899,,,,0.369326304
1716270352762006344,1.637,,,,0.377020602
1716270352769700642,1.628,,,,0.3847149
1716270352777394940,0.581,,,,0.392409198
1716270352785089238,-0.293,,,,0.400103496
1716270352792783536,-0.139,,,,0.407797794
1716270352800477834,0.076,,,,0.415492092
1716270352808172132,-0.108,,,,0.42318639
1716270352815866430,-0.129,,,,0.430880688
1716270352823560728,-0.021,,,,0.438574986
1716270352831255026,-0.045,,,,0.446269284
1716270352838949324,-0.069,,,,0.453963582
1716270352846643622,-0.024,,,,0.46165788
1716270352854337920,-0.009,,,,0.469352178
1716270352862032218,-0.014,,,,0.477046476
1716270352869726516,0.007,,,,0.484740774
1716270352877420814,0.024,,,,0.492435072
1716270352885115112,0.026,,,,0.50012937
1716270352892809410,0.026,,,,0.507823668
1716270352900503708,0.031,,,,0.515517966
1716270352908198006,0.045,,,,0.523212264
1716270352915892304,0.052,,,,0.530906562
1716270352923586602,0.05,,,,0.53860086
1716270352931280900,0.06,,,,0.546295158
1716270352938975198,0.076,,,,0.553989456
1716270352946669532,0.086,,,,0.56168379
1716270352954363830,0.091,,,,0.569378088
1716270352962058128,0.098,,,,0.577072386
1716270352969752426,0.096,,,,0.584766684
1716270352977446724,0.084,,,,0.592460982
1716270352985141022,0.072,,,,0.60015528
1716270352992835320,0.055,,,,0.607849578
1716270353000529618,0.031,,489.0,,0.615543876
1716270353008223916,0.024,,,,0.623238174
1716270353015918214,0.043,,,,0.630932472
1716270353023612512,0.052,,,,0.63862677
1716270353031306810,0.048,,,,0.646321068
1716270353039001108,0.05,,,,0.654015366
1716270353046695406,0.06,,,,0.661709664
1716270353054389704,0.062,,,,0.669403962
1716270353062084002,0.06,,,,0.67709826
1716270353069778300,0.06,,,,0.684792558
1716270353077472598,0.057,,,,0.692486856
1716270353085166896,0.052,,,,0.700181154
1716270353092861194,0.045,,,,0.707875452
1716270353100555492,0.04,,,,0.71556975
1716270353108249790,0.043,,,,0.723264048
1716270353115944088,0.048,,,,0.730958346
1716270353123638386,0.043,,,,0.738652644
1716270353131332684,0.04,,,,0.746346942
1716270353139026982,0.043,,,,0.75404124
1716270353146721280,0.036,,,,0.761735538
1716270353154415578,0.024,,,,0.769429836
1716270353162109876,0.031,,,,0.777124134
1716270353169804174,0.052,,,,0.784818432
1716270353177498472,0.064,,,,0.79251273
1716270353185192770,0.079,,,,0.800207028
1716270353192887068,0.093,,,,0.807901326
1716270353200581366,0.086,,,,0.815595624
1716270353208275664,0.069,,,,0.823289922
1716270353215969962,0.067,,,,0.83098422
1716270353223664260,0.072,,,,0.838678518
1716270353231358558,0.069,,,,0.846372816
1716270353239052856,0.043,,,,0.854067114
1716270353246747154,-0.016,,,,0.861761412
1716270353254441452,0.086,,,,0.86945571
1716270353262135750,0.625,,,,0.877150008
1716270353269830048,1.416,,,,0.884844306
1716270353277524346,1.736,,,,0.892538604
1716270353285218644,0.978,,,,0.900232902
1716270353292912942,-0.108,,,,0.9079272
1716270353300607240,-0.25,,,,0.915621498
1716270353308301538,0.069,,,,0.923315796
1716270353315995836,-0.038,,,,0.931010094
1716270353323690134,-0.156,,,,0.938704392
1716270353331384432,-0.043,,,,0.94639869
1716270353339078730,-0.026,,,,0.954092988
1716270353346773028,-0.067,,,,0.961787286
1716270353354467326,-0.031,,,,0.969481584
1716270353362161624,-0.004,,,,0.977175882
1716270353369855922,-0.019,,,,0.98487018
1716270353377550220,-0.004,,,,0.992564478
1716270353385244518,0.012,,,,1.000258776
1716270353392938816,0.012,,,,1.007953074
1716270353400633114,0.019,,,,1.015647372
1716270353408327412,0.033,,,,1.02334167
1716270353416021710,0.04,,,,1.031035968
1716270353423716008,0.048,,,,1.038730266
1716270353431410306,0.057,,,,1.046424564
1716270353439104604,0.06,,,,1.054118862
1716270353446798902,0.055,,,,1.06181316
1716270353454493200,0.067,,,,1.069507458
1716270353462187498,0.101,,,,1.077201756
1716270353469881796,0.117,,,,1.084896054
1716270353477576094,0.101,,,,1.092590352
1716270353485270392,0.081,,486.0,,1.10028465
1716270353492964690,0.064,,,,1.107978948
1716270353500658988,0.045,,,,1.115673246
1716270353508353322,0.036,125.0,,,1.12336758
1716270353516047620,0.043,,,,1.131061878
1716270353523741918,0.045,,,,1.138756176
1716270353531436216,0.045,,,,1.146450474
1716270353539130514,0.048,,,,1.154144772
1716270353546824812,0.052,,,,1.16183907
1716270353554519110,0.055,,,,1.169533368
1716270353562213408,0.052,,,,1.177227666
1716270353569907706,0.045,,,,1.184921964
1716270353577602004,0.038,,,,1.192616262
1716270353585296302,0.038,,,,1.20031056
1716270353592990600,0.04,,,,1.208004858
1716270353600684898,0.036,,,,1.215699156
1716270353608379196,0.036,,,,1.223393454
1716270353616073494,0.038,,,,1.231087752
1716270353623767792,0.036,,,,1.23878205
1716270353631462090,0.033,,,,1.246476348
1716270353639156388,0.028,,,,1.254170646
1716270353646850686,0.021,,,,1.261864944
1716270353654544984,0.021,,,,1.269559242
1716270353662239282,0.026,,,,1.27725354
1716270353669933580,0.036,,,,1.284947838
1716270353677627878,0.048,,,,1.292642136
1716270353685322176,0.067,,,,1.300336434
1716270353693016474,0.076,,,,1.308030732
1716270353700710772,0.064,,,,1.31572503
1716270353708405070,0.055,,,,1.323419328
1716270353716099368,0.057,,,,1.331113626
1716270353723793666,0.06,,,,1.338807924
1716270353731487964,0.05,,,,1.346502222
1716270353739182262,0.024,,,,1.35419652
1716270353746876560,-0.04,,,,1.361890818
1716270353754570858,0.033,,,,1.369585116
1716270353762265156,0.533,,,,1.377279414
1716270353769959454,1.327,,,,1.384973712
1716270353777653752,1.704,,,,1.39266801
1716270353785348050,1.01,,,,1.400362308
1716270353793042348,-0.096,,,,1.408056606
1716270353800736646,-0.281,,,,1.415750904
1716270353808430944,0.057,,,,1.423445202
1716270353816125242,-0.038,,,,1.4311395
1716270353823819540,-0.173,,,,1.438833798
1716270353831513838,-0.062,,,,1.446528096
1716270353839208136,-0.043,,,,1.454222394
1716270353846902434,-0.086,,,,1.461916692
1716270353854596732,-0.04,,,,1.46961099
1716270353862291030,-0.016,,,,1.477305288
1716270353869985328,-0.038,,,,1.484999586
1716270353877679626,-0.031,,,,1.492693884
1716270353885373924,0.0,,,,1.500388182
1716270353893068222,0.014,,,,1.50808248
1716270353900762520,0.019,,,,1.515776778
1716270353908456818,0.036,,,,1.523471076
1716270353916151116,0.048,,,,1.531165374
1716270353923845414,0.05,,,,1.538859672
1716270353931539712,0.06,,,,1.54655397
1716270353939234010,0.069,,,,1.554248268
1716270353946928308,0.081,,,,1.561942566
1716270353954622606,0.091,,,,1.569636864
1716270353962316904,0.091,,,,1.577331162
1716270353970011202,0.088,,479.0,,1.58502546
1716270353977705500,0.081,,,,1.592719758
1716270353985399798,0.062,,,,1.600414056
1716270353993094096,0.043,,,,1.608108354
1716270354000788394,0.031,,,,1.615802652
1716270354008482692,0.028,,,,1.62349695
1716270354016176990,0.031,,,,1.631191248
1716270354023871288,0.026,,,,1.638885546
1716270354031565586,0.028,,,,1.646579844
1716270354039259884,0.036,,,,1.654274142
1716270354046954182,0.033,,,,1.66196844
1716270354054648480,0.036,,,,1.669662738
1716270354062342778,0.04,,,,1.677357036
1716270354070037112,0.04,,,,1.68505137
1716270354077731410,0.04,,,,1.692745668
1716270354085425708,0.04,,,,1.700439966
1716270354093120006,0.036,,,,1.708134264
1716270354100814304,0.028,,,,1.715828562
1716270354108508602,0.026,,,,1.72352286
1716270354116202900,0.026,,,,1.731217158
1716270354123897198,0.026,,,,1.738911456
1716270354131591496,0.028,,,,1.746605754
1716270354139285794,0.021,,,,1.754300052
1716270354146980092,0.004,,,,1.76199435
1716270354154674390,0.007,,,,1.769688648
1716270354162368688,0.028,,,,1.777382946
1716270354170062986,0.043,,,,1.785077244
1716270354177757284,0.052,,,,1.792771542
1716270354185451582,0.079,,,,1.80046584
1716270354193145880,0.076,,,,1.808160138
1716270354200840178,0.045,,,,1.815854436
1716270354208534476,0.043,,,,1.823548734
1716270354216228774,0.06,,,,1.831243032
1716270354223923072,0.057,,,,1.83893733
1716270354231617370,0.038,,,,1.846631628
1716270354239311668,-0.019,,,,1.854325926
1716270354247005966,-0.026,,,,1.862020224
1716270354254700264,0.315,,,,1.869714522
1716270354262394562,1.05,,,,1.87740882
1716270354270088860,1.678,,,,1.885103118
1716270354277783158,1.382,,,,1.892797416
1716270354285477456,0.223,,,,1.900491714
1716270354293171754,-0.351,,,,1.908186012
1716270354300866052,-0.007,,,,1.91588031
1716270354308560350,0.074,,,,1.923574608
1716270354316254648,-0.139,,,,1.931268906
1716270354323948946,-0.079,,,,1.938963204
1716270354331643244,0.0,,,,1.946657502
1716270354339337542,-0.055,,,,1.9543518
1716270354347031840,-0.045,,,,1.962046098
1716270354354726138,0.002,,,,1.969740396
1716270354362420436,-0.002,,,,1.977434694
1716270354370114734,-0.004,,,,1.985128992
1716270354377809032,0.014,,,,1.99282329
1716270354385503330,0.026,,,,2.000517588
1716270354393197628,0.036,,,,2.008211886
1716270354400891926,0.05,,,,2.015906184
1716270354408586224,0.057,,,,2.023600482
1716270354416280522,0.064,,,,2.03129478
1716270354423974820,0.072,,,,2.038989078
1716270354431669118,0.076,,,,2.046683376
1716270354439363416,0.084,,,,2.054377674
1716270354447057714,0.101,,,,2.062071972
1716270354454752012,0.115,,488.0,,2.06976627
1716270354462446310,0.11,,,,2.077460568
1716270354470140608,0.098,,,,2.085154866
1716270354477834906,0.091,,,,2.092849164
1716270354485529204,0.076,,,,2.100543462
1716270354493223502,0.06,,,,2.10823776
1716270354500917800,0.052,,,,2.115932058
1716270354508612098,0.05,,,,2.123626356
1716270354516306396,0.05,,,,2.131320654
1716270354524000694,0.055,,,,2.139014952
1716270354531694992,0.055,,,,2.14670925
1716270354539389290,0.052,,,,2.154403548
1716270354547083588,0.055,,,,2.162097846
1716270354554777886,0.052,,,,2.169792144
1716270354562472184,0.045,,,,2.177486442
1716270354570166482,0.048,,,,2.18518074
1716270354577860780,0.05,,,,2.192875038
1716270354585555078,0.052,,,,2.200569336
1716270354593249376,0.048,,,,2.208263634
1716270354600943674,0.04,,,,2.215957932
1716270354608637972,0.04,,,,2.22365223
1716270354616332270,0.04,,,,2.231346528
1716270354624026568,0.033,,,,2.239040826
1716270354631720902,0.033,123.0,,,2.24673516
1716270354639415270,0.028,,,,2.254429528
1716270354647109638,0.024,,,,2.262123896
1716270354654804006,0.031,,,,2.269818264
1716270354662498374,0.048,,,,2.277512632
1716270354670192742,0.069,,,,2.285207
1716270354677887110,0.084,,,,2.292901368
1716270354685581478,0.069,,,,2.300595736
1716270354693275846,0.052,,,,2.308290104
1716270354700970214,0.05,,,,2.315984472
1716270354708664582,0.057,,,,2.32367884
1716270354716358950,0.057,,,,2.331373208
1716270354724053318,0.036,,,,2.339067576
1716270354731747686,-0.036,,,,2.346761944
1716270354739442054,-0.055,,,,2.354456312
1716270354747136422,0.312,,,,2.36215068
1716270354754830790,1.115,,,,2.369845048
1716270354762525158,1.769,,,,2.377539416
1716270354770219526,1.433,,,,2.385233784
1716270354777913894,0.25,,,,2.392928152
1716270354785608262,-0.327,,,,2.40062252
1716270354793302630,-0.014,,,,2.408316888
1716270354800996998,0.048,,,,2.416011256
1716270354808691366,-0.156,,,,2.423705624
1716270354816385734,-0.093,,,,2.431399992
1716270354824080102,-0.019,,,,2.43909436
1716270354831774470,-0.069,,,,2.446788728
1716270354839468838,-0.062,,,,2.454483096
1716270354847163206,-0.024,,,,2.462177464
1716270354854857574,-0.028,,,,2.469871832
1716270354862551942,-0.026,,,,2.4775662
1716270354870246310,0.002,,,,2.485260568
1716270354877940678,0.007,,,,2.492954936
1716270354885635046,0.002,,,,2.500649304
1716270354893329414,0.009,,,,2.508343672
1716270354901023782,0.021,,,,2.51603804
1716270354908718150,0.028,,,,2.523732408
1716270354916412518,0.026,,,,2.531426776
1716270354924106886,0.024,,,,2.539121144
1716270354931801254,0.028,,,,2.546815512
1716270354939495622,0.048,,,,2.55450988
1716270354947189990,0.069,,,,2.562204248
1716270354954884358,0.088,,,,2.569898616
1716270354962578726,0.093,,504.0,,2.577592984
1716270354970273094,0.074,,,,2.585287352
1716270354977967462,0.062,,,,2.59298172
1716270354985661830,0.067,,,,2.600676088
1716270354993356198,0.069,,,,2.608370456
1716270355001050566,0.057,,,,2.616064824
1716270355008744934,0.055,,,,2.623759192
1716270355016439302,0.055,,,,2.63145356
1716270355024133670,0.055,,,,2.639147928
1716270355031828038,0.06,,,,2.646842296
1716270355039522406,0.06,,,,2.654536664
1716270355047216774,0.06,,,,2.662231032
1716270355054911142,0.064,,,,2.6699254
1716270355062605510,0.067,,,,2.677619768
1716270355070299878,0.064,,,,2.685314136
1716270355077994246,0.062,,,,2.693008504
1716270355085688614,0.064,,,,2.700702872
1716270355093382982,0.062,,,,2.70839724
1716270355101077350,0.057,,,,2.716091608
1716270355108771718,0.05,,,,2.723785976
1716270355116466086,0.05,,,,2.731480344
1716270355124160454,0.055,,,,2.739174712
1716270355131854822,0.048,,,,2.74686908
1716270355139549190,0.045,,,,2.754563448
1716270355147243558,0.06,,,,2.762257816
1716270355154937926,0.072,,,,2.769952184
1716270355162632294,0.088,,,,2.777646552
1716270355170326662,0.113,,,,2.78534092
1716270355178021030,0.105,,,,2.793035288
1716270355185715398,0.079,,,,2.800729656
1716270355193409778,0.076,121.0,,,2.808424036
1716270355201104424,0.086,,,,2.816118682
1716270355208799070,0.081,,,,2.823813328
1716270355216493716,0.055,,,,2.831507974
1716270355224188362,-0.014,,,,2.83920262
1716270355231883008,-0.016,,,,2.846897266
1716270355239577654,0.358,,,,2.854591912
1716270355247272300,1.142,,,,2.862286558
1716270355254966946,1.757,,,,2.869981204
1716270355262661592,1.401,,,,2.87767585
1716270355270356238,0.242,,,,2.885370496
1716270355278050884,-0.31,,,,2.893065142
1716270355285745530,-0.004,,,,2.900759788
1716270355293440176,0.045,,,,2.908454434
1716270355301134822,-0.149,,,,2.91614908
1716270355308829468,-0.084,,,,2.923843726
1716270355316524114,-0.007,,,,2.931538372
1716270355324218760,-0.06,,,,2.939233018
1716270355331913406,-0.057,,,,2.946927664
1716270355339608052,-0.014,,,,2.95462231
1716270355347302698,-0.014,,,,2.962316956
1716270355354997344,-0.014,,,,2.970011602
1716270355362691990,0.007,,,,2.977706248
1716270355370386636,0.014,,,,2.985400894
1716270355378081282,0.014,,,,2.99309554
1716270355385775928,0.026,,,,3.000790186
1716270355393470574,0.036,,,,3.008484832
1716270355401165220,0.04,,,,3.016179478
1716270355408859866,0.048,,,,3.023874124
1716270355416554512,0.052,,,,3.03156877
1716270355424249158,0.055,,,,3.039263416
1716270355431943804,0.067,,,,3.046958062
1716270355439638450,0.098,,,,3.054652708
1716270355447333096,0.12,,,,3.062347354
1716270355455027742,0.113,,,,3.070042
1716270355462722388,0.096,,,,3.077736646
1716270355470417034,0.079,,513.0,,3.085431292
1716270355478111680,0.064,,,,3.093125938
1716270355485806326,0.057,,,,3.100820584
1716270355493500972,0.052,,,,3.10851523
1716270355501195618,0.043,,,,3.116209876
1716270355508890264,0.048,,,,3.123904522
1716270355516584910,0.064,,,,3.131599168
1716270355524279556,0.064,,,,3.139293814
1716270355531974202,0.052,,,,3.14698846
1716270355539668848,0.057,,,,3.154683106
1716270355547363494,0.072,,,,3.162377752
1716270355555058140,0.072,,,,3.170072398
1716270355562752786,0.069,,,,3.177767044
1716270355570447432,0.072,,,,3.18546169
1716270355578142078,0.067,,,,3.193156336
1716270355585836724,0.06,,,,3.200850982
1716270355593531370,0.057,,,,3.208545628
1716270355601226016,0.057,,,,3.216240274
1716270355608920662,0.055,,,,3.22393492
1716270355616615308,0.05,,,,3.231629566
1716270355624309954,0.045,,,,3.239324212
1716270355632004600,0.045,,,,3.247018858
1716270355639699246,0.05,,,,3.254713504
1716270355647393892,0.067,,,,3.26240815
1716270355655088538,0.093,,,,3.270102796
1716270355662783184,0.11,,,,3.277797442
1716270355670477830,0.098,,,,3.285492088
1716270355678172476,0.076,,,,3.293186734
1716270355685867122,0.074,,,,3.30088138
1716270355693561768,0.079,,,,3.308576026
1716270355701256414,0.081,,,,3.316270672
1716270355708951060,0.067,,,,3.323965318
1716270355716645706,0.0,,,,3.331659964
1716270355724340352,-0.014,,,,3.33935461
1716270355732034998,0.336,,,,3.347049256
1716270355739729644,1.094,,,,3.354743902
1716270355747424290,1.712,,,,3.362438548
1716270355755119000,1.392,,,,3.370133258
1716270355762813298,0.259,,,,3.377827556
1716270355770507596,-0.303,,,,3.385521854
1716270355778201894,-0.004,,,,3.393216152
1716270355785896192,0.06,,,,3.40091045
1716270355793590490,-0.134,,,,3.408604748
1716270355801284788,-0.079,,,,3.416299046
1716270355808979086,-0.007,,,,3.423993344
1716270355816673384,-0.057,,,,3.431687642
1716270355824367682,-0.057,,,,3.43938194
1716270355832061980,-0.021,,,,3.447076238
1716270355839756278,-0.024,,,,3.454770536
1716270355847450576,-0.019,,,,3.462464834
1716270355855144874,0.0,,,,3.470159132
1716270355862839172,0.004,,,,3.47785343
1716270355870533470,0.012,,,,3.485547728
1716270355878227768,0.026,,,,3.493242026
1716270355885922066,0.036,,,,3.500936324
1716270355893616364,0.04,,,,3.508630622
1716270355901310662,0.045,,,,3.51632492
1716270355909004960,0.048,,,,3.524019218
1716270355916699258,0.055,,,,3.531713516
1716270355924393556,0.074,,,,3.539407814
1716270355932087854,0.103,,,,3.547102112
1716270355939782152,0.115,,,,3.55479641
1716270355947476450,0.103,,,,3.562490708
1716270355955170748,0.088,,,,3.570185006
1716270355962865046,0.076,,,,3.577879304
1716270355970559344,0.05,,,,3.585573602
1716270355978253642,0.04,,,,3.5932679
1716270355985947940,0.048,,511.0,,3.600962198
1716270355993642238,0.045,,,,3.608656496
1716270356001336536,0.038,,,,3.616350794
1716270356009030834,0.043,,,,3.624045092
1716270356016725132,0.05,,,,3.63173939
1716270356024419430,0.05,,,,3.639433688
1716270356032113728,0.048,,,,3.647127986
1716270356039808026,0.048,,,,3.654822284
1716270356047502324,0.048,,,,3.662516582
1716270356055196622,0.048,,,,3.67021088
1716270356062890920,0.043,,,,3.677905178
1716270356070585218,0.043,,,,3.685599476
1716270356078279516,0.045,,,,3.693293774
1716270356085973814,0.038,,,,3.700988072
1716270356093668112,0.036,,,,3.70868237
1716270356101362410,0.04,,,,3.716376668
1716270356109056708,0.038,,,,3.724070966
1716270356116751006,0.028,,,,3.731765264
1716270356124445304,0.024,,,,3.739459562
1716270356132139602,0.033,,,,3.74715386
1716270356139833900,0.043,,,,3.754848158
1716270356147528198,0.06,,,,3.762542456
1716270356155222496,0.086,,,,3.770236754
1716270356162916794,0.091,,,,3.777931052
1716270356170611092,0.069,,,,3.78562535
1716270356178305390,0.057,,,,3.793319648
1716270356185999688,0.062,,,,3.801013946
1716270356193693986,0.064,,,,3.808708244
1716270356201388284,0.05,,,,3.816402542
1716270356209082582,-0.002,,,,3.82409684
1716270356216776880,-0.057,,,,3.831791138
1716270356224471178,0.163,,,,3.839485436
1716270356232165476,0.834,,,,3.847179734
1716270356239859774,1.579,,,,3.854874032
1716270356247554072,1.577,,,,3.86256833
1716270356255248370,0.557,,,,3.870262628
1716270356262942668,-0.283,,,,3.877956926
1716270356270636966,-0.129,,,,3.885651224
1716270356278331264,0.069,,,,3.893345522
1716270356286025562,-0.117,,,,3.90103982
1716270356293719860,-0.137,,,,3.908734118
1716270356301414158,-0.033,,,,3.916428416
1716270356309108456,-0.064,,,,3.924122714
1716270356316802790,-0.081,121.0,,,3.931817048
1716270356324497367,-0.036,,,,3.939511625
1716270356332191944,-0.028,,,,3.947206202
1716270356339886521,-0.036,,,,3.954900779
1716270356347581098,-0.016,,,,3.962595356
1716270356355275675,-0.002,,,,3.970289933
1716270356362970252,0.0,,,,3.97798451
1716270356370664829,0.012,,,,3.985679087
1716270356378359406,0.021,,,,3.993373664
1716270356386053983,0.021,,,,4.001068241
1716270356393748560,0.014,,,,4.008762818
1716270356401443137,0.021,,,,4.016457395
1716270356409137714,0.04,,,,4.024151972
1716270356416832291,0.055,,,,4.031846549
1716270356424526868,0.074,,,,4.039541126
1716270356432221445,0.088,,,,4.047235703
1716270356439916022,0.084,,,,4.05493028
1716270356447610599,0.064,,,,4.062624857
1716270356455305176,0.05,,,,4.070319434
1716270356462999753,0.043,,,,4.078014011
1716270356470694330,0.024,,,,4.085708588
1716270356478388907,0.004,,,,4.093403165
1716270356486083484,0.009,,501.0,,4.101097742
1716270356493778061,0.021,,,,4.108792319
1716270356501472638,0.019,,,,4.116486896
1716270356509167215,0.016,,,,4.124181473
1716270356516861792,0.021,,,,4.13187605
1716270356524556369,0.031,,,,4.139570627
1716270356532250946,0.033,,,,4.147265204
1716270356539945523,0.021,,,,4.154959781
1716270356547640100,0.014,,,,4.162654358
1716270356555334677,0.021,,,,4.170348935
1716270356563029254,0.024,,,,4.178043512
1716270356570723831,0.019,,,,4.185738089
1716270356578418408,0.016,,,,4.193432666
1716270356586112985,0.016,,,,4.201127243
1716270356593807562,0.012,,,,4.20882182
1716270356601502139,0.012,,,,4.216516397
1716270356609196716,0.014,,,,4.224210974
1716270356616891293,0.007,,,,4.231905551
1716270356624585870,0.012,,,,4.239600128
1716270356632280447,0.031,,,,4.247294705
1716270356639975024,0.045,,,,4.254989282
1716270356647669601,0.062,,,,4.262683859
1716270356655364178,0.064,,,,4.270378436
1716270356663058755,0.048,,,,4.278073013
1716270356670753332,0.036,,,,4.28576759
1716270356678447909,0.038,,,,4.293462167
1716270356686142486,0.04,,,,4.301156744
1716270356693837063,0.031,,,,4.308851321
1716270356701531640,-0.014,,,,4.316545898
1716270356709226217,-0.062,,,,4.324240475
1716270356716920794,0.144,,,,4.331935052
1716270356724615371,0.781,,,,4.339629629
1716270356732309948,1.512,,,,4.347324206
1716270356740004525,1.539,,,,4.355018783
1716270356747699102,0.533,,,,4.36271336
1716270356755393679,-0.324,,,,4.370407937
1716270356763088256,-0.146,,,,4.378102514
1716270356770782833,0.076,,,,4.385797091
1716270356778477410,-0.127,,,,4.393491668
1716270356786171987,-0.149,,,,4.401186245
1716270356793866564,-0.033,,,,4.408880822
1716270356801561141,-0.062,,,,4.416575399
1716270356809255718,-0.086,,,,4.424269976
1716270356816950295,-0.048,,,,4.431964553
1716270356824644872,-0.036,,,,4.43965913
1716270356832339449,-0.031,,,,4.447353707
1716270356840034026,-0.014,,,,4.455048284
1716270356847728603,-0.004,,,,4.462742861
1716270356855423180,0.0,,,,4.470437438
1716270356863117757,0.014,,,,4.478132015
1716270356870812334,0.026,,,,4.485826592
1716270356878506924,0.036,,,,4.493521182
1716270356886201361,0.05,,,,4.501215619
1716270356893895798,0.057,,,,4.508910056
1716270356901590235,0.057,,,,4.516604493
1716270356909284672,0.069,,,,4.52429893
1716270356916979109,0.093,,,,4.531993367
1716270356924673546,0.103,,,,4.539687804
1716270356932367983,0.093,,,,4.547382241
1716270356940062420,0.074,,,,4.555076678
1716270356947756857,0.057,,,,4.562771115
1716270356955451294,0.048,,,,4.570465552
1716270356963145731,0.036,,,,4.578159989
1716270356970840168,0.024,,,,4.585854426
1716270356978534605,0.019,,495.0,,4.593548863
1716270356986229042,0.009,,,,4.6012433
1716270356993923479,0.004,,,,4.608937737
1716270357001617916,0.014,,,,4.616632174
1716270357009312353,0.021,,,,4.624326611
1716270357017006790,0.024,,,,4.632021048
1716270357024701227,0.024,,,,4.639715485
1716270357032395664,0.019,,,,4.647409922
1716270357040090101,0.019,,,,4.655104359
1716270357047784538,0.016,,,,4.662798796
1716270357055478975,0.009,,,,4.670493233
1716270357063173412,0.016,,,,4.67818767
1716270357070867849,0.024,,,,4.685882107
1716270357078562286,0.014,,,,4.693576544
1716270357086256723,0.007,,,,4.701270981
1716270357093951160,0.002,,,,4.708965418
1716270357101645597,-0.007,,,,4.716659855
1716270357109340034,0.002,,,,4.724354292
1716270357117034471,0.019,,,,4.732048729
1716270357124728908,0.033,,,,4.739743166
1716270357132423345,0.055,,,,4.747437603
1716270357140117782,0.062,,,,4.75513204
1716270357147812219,0.036,,,,4.762826477
1716270357155506656,0.026,,,,4.770520914
1716270357163201093,0.04,,,,4.778215351
1716270357170895530,0.043,,,,4.785909788
1716270357178589967,0.033,,,,4.793604225
1716270357186284404,0.0,,,,4.801298662
1716270357193978841,-0.072,,,,4.808993099
1716270357201673278,0.028,,,,4.816687536
1716270357209367715,0.581,,,,4.824381973
1716270357217062152,1.394,,,,4.83207641
1716270357224756589,1.7,,,,4.839770847
1716270357232451026,0.88,,,,4.847465284
1716270357240145463,-0.206,,,,4.855159721
1716270357247839900,-0.25,,,,4.862854158
1716270357255534337,0.086,,,,4.870548595
1716270357263228774,-0.072,,,,4.878243032
1716270357270923211,-0.173,,,,4.885937469
1716270357278617648,-0.036,,,,4.893631906
1716270357286312085,-0.036,,,,4.901326343
1716270357294006522,-0.086,,,,4.90902078
1716270357301700959,-0.045,,,,4.916715217
1716270357309395396,-0.016,,,,4.924409654
1716270357317089833,-0.026,,,,4.932104091
1716270357324784270,-0.014,,,,4.939798528
1716270357332478707,0.007,,,,4.947492965
1716270357340173144,0.012,,,,4.955187402
1716270357347867581,0.019,,,,4.962881839
1716270357355562018,0.026,,,,4.970576276
1716270357363256455,0.036,,,,4.978270713
1716270357370950892,0.043,,,,4.98596515
1716270357378645329,0.045,,,,4.993659587
1716270357386339766,0.048,,,,5.001354024
1716270357394034203,0.06,,,,5.009048461
1716270357401728640,0.084,,,,5.016742898
1716270357409423077,0.096,,,,5.024437335
1716270357417117514,0.096,,,,5.032131772
1716270357424811951,0.088,,,,5.039826209
1716270357432506388,0.079,,,,5.047520646
1716270357440200888,0.062,121.0,,,5.055215146
1716270357447895604,0.05,,,,5.062909862
1716270357455590320,0.048,,,,5.070604578
1716270357463285036,0.045,,,,5.078299294
1716270357470979752,0.036,,492.0,,5.08599401
1716270357478674468,0.031,,,,5.093688726
1716270357486369184,0.036,,,,5.101383442
1716270357494063900,0.04,,,,5.109078158
1716270357501758616,0.045,,,,5.116772874
1716270357509453332,0.048,,,,5.12446759
1716270357517148048,0.05,,,,5.132162306
1716270357524842764,0.048,,,,5.139857022
1716270357532537480,0.045,,,,5.147551738
1716270357540232196,0.043,,,,5.155246454
1716270357547926912,0.038,,,,5.16294117
1716270357555621628,0.028,,,,5.170635886
1716270357563316344,0.021,,,,5.178330602
1716270357571011060,0.024,,,,5.186025318
1716270357578705776,0.021,,,,5.193720034
1716270357586400492,0.019,,,,5.20141475
1716270357594095208,0.024,,,,5.209109466
1716270357601789924,0.028,,,,5.216804182
1716270357609484640,0.045,,,,5.224498898
1716270357617179356,0.067,,,,5.232193614
1716270357624874072,0.067,,,,5.23988833
1716270357632568788,0.057,,,,5.247583046
1716270357640263504,0.057,,,,5.255277762
1716270357647958220,0.062,,,,5.262972478
1716270357655652936,0.06,,,,5.270667194
1716270357663347652,0.048,,,,5.27836191
1716270357671042368,-0.024,,,,5.286056626
1716270357678737084,-0.086,,,,5.293751342
1716270357686431800,0.211,,,,5.301446058
1716270357694126516,0.985,,,,5.309140774
1716270357701821232,1.707,,,,5.31683549
1716270357709515948,1.517,,,,5.324530206
1716270357717210664,0.37,,,,5.332224922
1716270357724905380,-0.334,,,,5.339919638
1716270357732600096,-0.043,,,,5.347614354
1716270357740294812,0.076,,,,5.35530907
1716270357747989528,-0.146,,,,5.363003786
1716270357755684244,-0.101,,,,5.370698502
1716270357763378960,-0.002,,,,5.378393218
1716270357771073676,-0.057,,,,5.386087934
1716270357778768392,-0.062,,,,5.39378265
1716270357786463108,-0.012,,,,5.401477366
1716270357794157824,-0.016,,,,5.409172082
1716270357801852540,-0.021,,,,5.416866798
1716270357809547256,0.007,,,,5.424561514
1716270357817241972,0.016,,,,5.43225623
1716270357824936688,0.014,,,,5.439950946
1716270357832631404,0.024,,,,5.447645662
1716270357840326120,0.026,,,,5.455340378
1716270357848020836,0.024,,,,5.463035094
1716270357855715552,0.031,,,,5.47072981
1716270357863410268,0.033,,,,5.478424526
1716270357871104984,0.036,,,,5.486119242
1716270357878799700,0.05,,,,5.493813958
1716270357886494416,0.072,,,,5.501508674
1716270357894189132,0.096,,,,5.50920339
1716270357901883848,0.11,,,,5.516898106
1716270357909578564,0.115,,,,5.524592822
1716270357917273280,0.11,,,,5.532287538
1716270357924967996,0.098,,,,5.539982254
1716270357932662712,0.088,,,,5.54767697
1716270357940357428,0.091,,,,5.555371686
1716270357948052144,0.096,,,,5.563066402
1716270357955746860,0.101,,,,5.570761118
1716270357963441576,0.11,,492.0,,5.578455834
1716270357971136292,0.117,,,,5.58615055
1716270357978831008,0.115,,,,5.593845266
1716270357986525724,0.108,,,,5.601539982
1716270357994220440,0.105,,,,5.609234698
1716270358001915194,0.113,,,,5.616929452
1716270358009609562,0.115,,,,5.62462382
1716270358017303930,0.11,,,,5.632318188
1716270358024998298,0.098,,,,5.640012556
1716270358032692666,0.098,,,,5.647706924
1716270358040387034,0.093,,,,5.655401292
1716270358048081402,0.076,,,,5.66309566
1716270358055775770,0.072,,,,5.670790028
1716270358063470138,0.074,,,,5.678484396
1716270358071164506,0.072,,,,5.686178764
1716270358078858874,0.076,,,,5.693873132
1716270358086553242,0.091,,,,5.7015675
1716270358094247610,0.115,,,,5.709261868
1716270358101941978,0.127,,,,5.716956236
1716270358109636346,0.113,,,,5.724650604
1716270358117330714,0.093,,,,5.732344972
1716270358125025082,0.098,,,,5.74003934
1716270358132719450,0.11,,,,5.747733708
1716270358140413818,0.11,,,,5.755428076
1716270358148108186,0.081,,,,5.763122444
1716270358155802554,-0.002,,,,5.770816812
1716270358163496922,0.007,,,,5.77851118
1716270358171191290,0.435,,,,5.786205548
1716270358178885658,1.243,,,,5.793899916
1716270358186580026,1.777,,,,5.801594284
1716270358194274394,1.288,,,,5.809288652
1716270358201968762,0.153,,,,5.81698302
1716270358209663130,-0.252,,,,5.824677388
1716270358217357498,0.055,,,,5.832371756
1716270358225051866,0.048,,,,5.840066124
1716270358232746234,-0.125,,,,5.847760492
1716270358240440602,-0.04,,,,5.85545486
1716270358248134970,0.012,,,,5.863149228
1716270358255829338,-0.04,,,,5.870843596
1716270358263523706,-0.014,,,,5.878537964
1716270358271218074,0.024,,,,5.886232332
1716270358278912442,0.007,,,,5.8939267
1716270358286606810,0.014,,,,5.901621068
1716270358294301178,0.043,,,,5.909315436
1716270358301995546,0.043,,,,5.917009804
1716270358309689914,0.045,,,,5.924704172
1716270358317384282,0.06,,,,5.93239854
1716270358325078650,0.062,,,,5.940092908
1716270358332773018,0.064,,,,5.947787276
1716270358340467386,0.064,,,,5.955481644
1716270358348161754,0.064,,,,5.963176012
1716270358355856122,0.072,,,,5.97087038
1716270358363550490,0.088,,,,5.978564748
1716270358371244858,0.113,,,,5.986259116
1716270358378939226,0.134,,,,5.993953484
1716270358386633594,0.137,,,,6.001647852
1716270358394327962,0.125,,,,6.00934222
1716270358402022330,0.11,,,,6.017036588
1716270358409716698,0.101,,,,6.024730956
1716270358417411066,0.096,,,,6.032425324
1716270358425105434,0.091,,,,6.040119692
1716270358432799802,0.086,,,,6.04781406
1716270358440494170,0.086,,,,6.055508428
1716270358448188538,0.096,,,,6.063202796
1716270358455882906,0.103,,492.0,,6.070897164
1716270358463577274,0.11,,,,6.078591532
1716270358471271642,0.117,,,,6.0862859
1716270358478966010,0.117,,,,6.093980268
1716270358486660378,0.105,,,,6.101674636
1716270358494354746,0.093,,,,6.109369004
1716270358502049114,0.091,,,,6.117063372
1716270358509743482,0.096,,,,6.12475774
1716270358517437850,0.093,,,,6.132452108
1716270358525132218,0.076,,,,6.140146476
1716270358532826586,0.069,,,,6.147840844
1716270358540520954,0.067,,,,6.155535212
1716270358548215322,0.057,,,,6.16322958
1716270358555909690,0.05,,,,6.170923948
1716270358563604072,0.062,121.0,,,6.17861833
1716270358571298440,0.072,,,,6.186312698
1716270358578992808,0.086,,,,6.194007066
1716270358586687176,0.113,,,,6.201701434
1716270358594381544,0.11,,,,6.209395802
1716270358602075912,0.084,,,,6.21709017
1716270358609770280,0.076,,,,6.224784538
1716270358617464648,0.081,,,,6.232478906
1716270358625159016,0.079,,,,6.240173274
1716270358632853384,0.064,,,,6.247867642
1716270358640547752,0.002,,,,6.25556201
1716270358648242120,-0.045,,,,6.263256378
1716270358655936488,0.211,,,,6.270950746
1716270358663630856,0.909,,,,6.278645114
1716270358671325224,1.608,,,,6.286339482
1716270358679019592,1.517,,,,6.29403385
1716270358686713960,0.478,,,,6.301728218
1716270358694408328,-0.286,,,,6.309422586
1716270358702102696,-0.098,,,,6.317116954
1716270358709797064,0.069,,,,6.324811322
1716270358717491432,-0.117,,,,6.33250569
1716270358725185800,-0.122,,,,6.340200058
1716270358732880168,-0.021,,,,6.347894426
1716270358740574536,-0.043,,,,6.355588794
1716270358748268904,-0.052,,,,6.363283162
1716270358755963272,-0.019,,,,6.37097753
1716270358763657640,-0.014,,,,6.378671898
1716270358771352008,-0.016,,,,6.386366266
1716270358779046376,0.007,,,,6.394060634
1716270358786740744,0.019,,,,6.401755002
1716270358794435112,0.014,,,,6.40944937
1716270358802129480,0.024,,,,6.417143738
1716270358809823848,0.043,,,,6.424838106
1716270358817518216,0.048,,,,6.432532474
1716270358825212584,0.048,,,,6.440226842
1716270358832906952,0.055,,,,6.44792121
1716270358840601320,0.06,,,,6.455615578
1716270358848295688,0.067,,,,6.463309946
1716270358855990056,0.088,,,,6.471004314
1716270358863684424,0.11,,,,6.478698682
1716270358871378792,0.113,,,,6.48639305
1716270358879073160,0.101,,,,6.494087418
1716270358886767528,0.088,,,,6.501781786
1716270358894461896,0.074,,,,6.509476154
1716270358902156264,0.064,,,,6.517170522
1716270358909850632,0.064,,,,6.52486489
1716270358917545000,0.062,,,,6.532559258
1716270358925239368,0.067,,,,6.540253626
1716270358932933736,0.074,,,,6.547947994
1716270358940628104,0.084,,,,6.555642362
1716270358948322472,0.091,,495.0,,6.56333673
1716270358956016840,0.088,,,,6.571031098
1716270358963711208,0.088,,,,6.578725466
1716270358971405576,0.096,,,,6.586419834
1716270358979099944,0.093,,,,6.594114202
1716270358986794312,0.091,,,,6.60180857
1716270358994488680,0.086,,,,6.609502938
1716270359002183048,0.074,,,,6.617197306
1716270359009877416,0.067,,,,6.624891674
1716270359017571784,0.072,,,,6.632586042
1716270359025266152,0.072,,,,6.64028041
1716270359032960520,0.057,,,,6.647974778
1716270359040654888,0.05,,,,6.655669146
1716270359048349256,0.048,,,,6.663363514
1716270359056043624,0.045,,,,6.671057882
1716270359063737992,0.062,,,,6.67875225
1716270359071432360,0.086,,,,6.686446618
1716270359079126728,0.103,,,,6.694140986
1716270359086821096,0.11,,,,6.701835354
1716270359094515464,0.086,,,,6.709529722
1716270359102209832,0.067,,,,6.71722409
1716270359109904200,0.069,,,,6.724918458
1716270359117598568,0.074,,,,6.732612826
1716270359125292948,0.074,,,,6.740307206
1716270359132987316,0.055,,,,6.748001574
1716270359140681684,-0.009,,,,6.755695942
1716270359148376052,0.043,,,,6.76339031
1716270359156070420,0.517,,,,6.771084678
1716270359163764788,1.317,,,,6.778779046
1716270359171459156,1.738,,,,6.786473414
1716270359179153524,1.108,,,,6.794167782
1716270359186847892,-0.002,,,,6.80186215
1716270359194542260,-0.283,,,,6.809556518
1716270359202236628,0.024,,,,6.817250886
1716270359209930996,-0.028,,,,6.824945254
1716270359217625364,-0.173,,,,6.832639622
1716270359225319732,-0.081,,,,6.84033399
1716270359233014100,-0.052,,,,6.848028358
1716270359240708468,-0.098,,,,6.855722726
1716270359248402836,-0.057,,,,6.863417094
1716270359256097204,-0.021,,,,6.871111462
1716270359263791572,-0.038,,,,6.87880583
1716270359271485940,-0.031,,,,6.886500198
1716270359279180308,-0.007,,,,6.894194566
1716270359286874676,-0.004,,,,6.901888934
1716270359294569044,0.0,,,,6.909583302
1716270359302263412,0.009,,,,6.91727767
1716270359309957780,0.021,,,,6.924972038
1716270359317652148,0.033,,,,6.932666406
1716270359325346516,0.033,,,,6.940360774
1716270359333040884,0.026,,,,6.948055142
1716270359340735252,0.043,,,,6.95574951
1716270359348429620,0.076,,,,6.963443878
1716270359356123988,0.093,,,,6.971138246
1716270359363818356,0.093,,,,6.978832614
1716270359371512724,0.088,,,,6.986526982
1716270359379207092,0.086,,,,6.99422135
1716270359386901460,0.072,,,,7.001915718
1716270359394595828,0.05,,,,7.009610086
1716270359402290196,0.04,,,,7.017304454
1716270359409984564,0.043,,,,7.024998822
1716270359417678932,0.04,,,,7.03269319
1716270359425373300,0.038,,,,7.040387558
1716270359433067668,0.045,,,,7.048081926
1716270359440762036,0.05,,492.0,,7.055776294
1716270359448456404,0.052,,,,7.063470662
1716270359456150772,0.052,,,,7.07116503
1716270359463845140,0.06,,,,7.078859398
1716270359471539508,0.06,,,,7.086553766
1716270359479233876,0.057,,,,7.094248134
1716270359486928244,0.055,,,,7.101942502
1716270359494622612,0.045,,,,7.10963687
1716270359502316980,0.036,,,,7.117331238
1716270359510011348,0.028,,,,7.125025606
1716270359517705716,0.024,,,,7.132719974
1716270359525400084,0.024,,,,7.140414342
1716270359533094452,0.024,,,,7.14810871
1716270359540788820,0.016,,,,7.155803078
1716270359548483188,0.007,,,,7.163497446
1716270359556177556,0.014,,,,7.171191814
1716270359563871924,0.033,,,,7.178886182
1716270359571566292,0.048,,,,7.18658055
1716270359579260660,0.067,,,,7.194274918
1716270359586955028,0.069,,,,7.201969286
1716270359594649396,0.045,,,,7.209663654
1716270359602343764,0.033,,,,7.217358022
1716270359610038132,0.04,,,,7.22505239
1716270359617732500,0.04,,,,7.232746758
1716270359625426868,0.036,,,,7.240441126
1716270359633121236,-0.004,,,,7.248135494
1716270359640815604,-0.06,,,,7.255829862
1716270359648509972,0.127,,,,7.26352423
1716270359656204340,0.762,,,,7.271218598
1716270359663898708,1.524,,,,7.278912966
1716270359671593076,1.608,,,,7.286607334
1716270359679287444,0.639,,,,7.294301702
1716270359686981824,-0.283,122.0,,,7.301996082
1716270359694676610,-0.204,,,,7.309690868
1716270359702371396,0.028,,,,7.317385654
1716270359710066182,-0.137,,,,7.32508044
1716270359717760968,-0.18,,,,7.332775226
1716270359725455754,-0.076,,,,7.340470012
1716270359733150540,-0.093,,,,7.348164798
1716270359740845326,-0.117,,,,7.355859584
1716270359748540112,-0.084,,,,7.36355437
1716270359756234898,-0.074,,,,7.371249156
1716270359763929684,-0.069,,,,7.378943942
1716270359771624470,-0.048,,,,7.386638728
1716270359779319256,-0.048,,,,7.394333514
1716270359787014042,-0.043,,,,7.4020283
1716270359794708828,-0.021,,,,7.409723086
1716270359802403614,-0.009,,,,7.417417872
1716270359810098400,-0.002,,,,7.425112658
1716270359817793186,0.009,,,,7.432807444
1716270359825487972,0.019,,,,7.44050223
1716270359833182758,0.021,,,,7.448197016
1716270359840877544,0.031,,,,7.455891802
1716270359848572330,0.05,,,,7.463586588
1716270359856267116,0.067,,,,7.471281374
1716270359863961902,0.069,,,,7.47897616
1716270359871656688,0.057,,,,7.486670946
1716270359879351474,0.038,,,,7.494365732
1716270359887046260,0.021,,,,7.502060518
1716270359894741046,0.009,,,,7.509755304
1716270359902435832,0.002,,,,7.51745009
1716270359910130618,0.0,,,,7.525144876
1716270359917825404,0.0,,,,7.532839662
1716270359925520190,0.004,,486.0,,7.540534448
1716270359933214976,0.014,,,,7.548229234
1716270359940909762,0.019,,,,7.55592402
1716270359948604548,0.028,,,,7.563618806
1716270359956299334,0.028,,,,7.571313592
1716270359963994120,0.031,,,,7.579008378
1716270359971688906,0.038,,,,7.586703164
1716270359979383692,0.033,,,,7.59439795
1716270359987078478,0.024,,,,7.602092736
1716270359994773264,0.026,,,,7.609787522
1716270360002468050,0.028,,,,7.617482308
1716270360010162836,0.021,,,,7.625177094
1716270360017857622,0.0,,,,7.63287188
1716270360025552408,-0.007,,,,7.640566666
1716270360033247194,0.0,,,,7.648261452
1716270360040941980,-0.004,,,,7.655956238
1716270360048636766,-0.009,,,,7.663651024
1716270360056331552,0.0,,,,7.67134581
1716270360064026338,0.014,,,,7.679040596
1716270360071721124,0.038,,,,7.686735382
1716270360079415910,0.048,,,,7.694430168
1716270360087110696,0.033,,,,7.702124954
1716270360094805482,0.026,,,,7.70981974
1716270360102500268,0.031,,,,7.717514526
1716270360110195054,0.026,,,,7.725209312
1716270360117889840,0.021,,,,7.732904098
1716270360125584626,0.007,,,,7.740598884
1716270360133279412,-0.045,,,,7.74829367
1716270360140974198,-0.012,,,,7.755988456
1716270360148668984,0.401,,,,7.763683242
1716270360156363770,1.163,,,,7.771378028
1716270360164058556,1.678,,,,7.779072814
1716270360171753342,1.183,,,,7.7867676
1716270360179448128,0.028,,,,7.794462386
1716270360187142914,-0.343,,,,7.802157172
1716270360194837700,0.004,,,,7.809851958
1716270360202532486,-0.014,,,,7.817546744
1716270360210227272,-0.18,,,,7.82524153
1716270360217922058,-0.084,,,,7.832936316
1716270360225616844,-0.038,,,,7.840631102
1716270360233311630,-0.098,,,,7.848325888
1716270360241006416,-0.072,,,,7.856020674
1716270360248701218,-0.021,123.0,,,7.863715476
1716270360256395586,-0.026,,,,7.871409844
1716270360264089954,-0.021,,,,7.879104212
1716270360271784322,0.002,,,,7.88679858
1716270360279478690,0.009,,,,7.894492948
1716270360287173058,0.012,,,,7.902187316
1716270360294867426,0.024,,,,7.909881684
1716270360302561794,0.038,,,,7.917576052
1716270360310256162,0.048,,,,7.92527042
1716270360317950530,0.05,,,,7.932964788
1716270360325644898,0.048,,,,7.940659156
1716270360333339266,0.05,,,,7.948353524
1716270360341033634,0.067,,,,7.956047892
1716270360348728002,0.084,,,,7.96374226
1716270360356422370,0.093,,,,7.971436628
1716270360364116738,0.093,,,,7.979130996
1716270360371811106,0.084,,,,7.986825364
1716270360379505474,0.069,,,,7.994519732
1716270360387199842,0.05,,,,8.0022141
1716270360394894210,0.04,,,,8.009908468
1716270360402588578,0.048,,,,8.017602836
1716270360410282946,0.052,,481.0,,8.025297204
1716270360417977314,0.055,,,,8.032991572
1716270360425671682,0.062,,,,8.04068594
1716270360433366050,0.064,,,,8.048380308
1716270360441060418,0.069,,,,8.056074676
1716270360448754786,0.074,,,,8.063769044
1716270360456449154,0.076,,,,8.071463412
1716270360464143522,0.081,,,,8.07915778
1716270360471837890,0.079,,,,8.086852148
1716270360479532258,0.074,,,,8.094546516
1716270360487226626,0.076,,,,8.102240884
1716270360494920994,0.069,,,,8.109935252
1716270360502615362,0.057,,,,8.11762962
1716270360510309730,0.048,,,,8.125323988
1716270360518004098,0.038,,,,8.133018356
1716270360525698466,0.019,,,,8.140712724
1716270360533392834,0.016,,,,8.148407092
1716270360541087202,0.033,,,,8.15610146
1716270360548781570,0.045,,,,8.163795828
1716270360556475938,0.055,,,,8.171490196
1716270360564170306,0.062,,,,8.179184564
1716270360571864674,0.055,,,,8.186878932
1716270360579559042,0.04,,,,8.1945733
1716270360587253410,0.04,,,,8.202267668
1716270360594947778,0.048,,,,8.209962036
1716270360602642146,0.045,,,,8.217656404
1716270360610336514,0.014,,,,8.225350772
1716270360618030882,-0.069,,,,8.23304514
1716270360625725250,-0.057,,,,8.240739508
1716270360633419618,0.37,,,,8.248433876
1716270360641113986,1.192,,,,8.256128244
1716270360648808354,1.757,,,,8.263822612
1716270360656502722,1.252,,,,8.27151698
1716270360664197090,0.055,,,,8.279211348
1716270360671891458,-0.355,,,,8.286905716
1716270360679585826,-0.007,,,,8.294600084
1716270360687280194,-0.016,,,,8.302294452
1716270360694974562,-0.194,,,,8.30998882
1716270360702668930,-0.096,,,,8.317683188
1716270360710363298,-0.033,,,,8.325377556
1716270360718057666,-0.091,,,,8.333071924
1716270360725752034,-0.072,,,,8.340766292
1716270360733446402,-0.036,,,,8.34846066
1716270360741140770,-0.05,,,,8.356155028
1716270360748835138,-0.045,,,,8.363849396
1716270360756529506,-0.021,,,,8.371543764
1716270360764223874,-0.012,,,,8.379238132
1716270360771918242,-0.007,,,,8.3869325
1716270360779612610,0.002,,,,8.394626868
1716270360787306978,0.007,,,,8.402321236
1716270360795001346,0.004,,,,8.410015604
1716270360802695714,0.002,,,,8.417709972
1716270360810390094,0.0,,,,8.425404352
1716270360818084462,0.007,,,,8.43309872
1716270360825778830,0.026,,,,8.440793088
1716270360833473198,0.048,,,,8.448487456
1716270360841167566,0.06,,,,8.456181824
1716270360848861934,0.064,,,,8.463876192
1716270360856556302,0.067,,,,8.47157056
1716270360864250670,0.05,,,,8.479264928
1716270360871945038,0.036,,,,8.486959296
1716270360879639406,0.038,,,,8.494653664
1716270360887333774,0.04,,,,8.502348032
1716270360895028142,0.038,,482.0,,8.5100424
1716270360902722510,0.048,,,,8.517736768
1716270360910416878,0.06,,,,8.525431136
1716270360918111246,0.055,,,,8.533125504
1716270360925805614,0.052,,,,8.540819872
1716270360933499982,0.062,,,,8.54851424
1716270360941194350,0.074,,,,8.556208608
1716270360948888718,0.074,,,,8.563902976
1716270360956583086,0.069,,,,8.571597344
1716270360964277454,0.074,,,,8.579291712
1716270360971971822,0.069,,,,8.58698608
1716270360979666190,0.052,,,,8.594680448
1716270360987360558,0.05,,,,8.602374816
1716270360995054926,0.05,,,,8.610069184
1716270361002749294,0.038,,,,8.617763552
1716270361010443662,0.026,,,,8.62545792
1716270361018138030,0.036,,,,8.633152288
1716270361025832398,0.045,,,,8.640846656
1716270361033526766,0.04,,,,8.648541024
1716270361041221134,0.052,,,,8.656235392
1716270361048915502,0.081,,,,8.66392976
1716270361056609870,0.076,,,,8.671624128
1716270361064304238,0.052,,,,8.679318496
1716270361071998606,0.048,,,,8.687012864
1716270361079692974,0.048,,,,8.694707232
1716270361087387342,0.048,,,,8.7024016
1716270361095081710,0.055,,,,8.710095968
1716270361102776078,0.004,,,,8.717790336
1716270361110470446,-0.048,,,,8.725484704
1716270361118164814,0.206,,,,8.733179072
1716270361125859182,0.923,,,,8.74087344
1716270361133553550,1.664,,,,8.748567808
1716270361141247918,1.591,,,,8.756262176
1716270361148942286,0.509,,,,8.763956544
1716270361156636654,-0.295,,,,8.771650912
1716270361164331022,-0.103,,,,8.77934528
1716270361172025390,0.069,,,,8.787039648
1716270361179719758,-0.125,,,,8.794734016
1716270361187414126,-0.122,,,,8.802428384
1716270361195108494,-0.033,,,,8.810122752
1716270361202802862,-0.064,,,,8.81781712
1716270361210497230,-0.067,,,,8.825511488
1716270361218191598,-0.026,,,,8.833205856
1716270361225885966,-0.026,,,,8.840900224
1716270361233580334,-0.021,,,,8.848594592
1716270361241274702,0.0,,,,8.85628896
1716270361248969070,0.004,,,,8.863983328
1716270361256663438,0.004,,,,8.871677696
1716270361264357806,0.021,,,,8.879372064
1716270361272052174,0.028,,,,8.887066432
1716270361279746542,0.019,,,,8.8947608
1716270361287440910,0.024,,,,8.902455168
1716270361295135278,0.033,,,,8.910149536
1716270361302829646,0.033,,,,8.917843904
1716270361310524014,0.04,,,,8.925538272
1716270361318218382,0.064,,,,8.93323264
1716270361325912750,0.093,,,,8.940927008
1716270361333607118,0.105,,,,8.948621376
1716270361341301486,0.101,,,,8.956315744
1716270361348995854,0.093,,,,8.964010112
1716270361356690222,0.091,,,,8.97170448
1716270361364384590,0.086,,,,8.979398848
1716270361372078972,0.074,122.0,,,8.98709323
1716270361379773758,0.072,,487.0,,8.994788016
1716270361387468544,0.084,,,,9.002482802
1716270361395163330,0.081,,,,9.010177588
1716270361402858116,0.072,,,,9.017872374
1716270361410552902,0.081,,,,9.02556716
1716270361418247688,0.091,,,,9.033261946
1716270361425942474,0.084,,,,9.040956732
1716270361433637260,0.081,,,,9.048651518
1716270361441332046,0.088,,,,9.056346304
1716270361449026832,0.084,,,,9.06404109
1716270361456721618,0.076,,,,9.071735876
1716270361464416404,0.074,,,,9.079430662
1716270361472111190,0.067,,,,9.087125448
1716270361479805976,0.062,,,,9.094820234
1716270361487500762,0.06,,,,9.10251502
1716270361495195548,0.055,,,,9.110209806
1716270361502890334,0.045,,,,9.117904592
1716270361510585120,0.043,,,,9.125599378
1716270361518279906,0.045,,,,9.133294164
1716270361525974692,0.057,,,,9.14098895
1716270361533669478,0.067,,,,9.148683736
1716270361541364264,0.084,,,,9.156378522
1716270361549059050,0.088,,,,9.164073308
1716270361556753836,0.062,,,,9.171768094
1716270361564448622,0.05,,,,9.17946288
1716270361572143408,0.062,,,,9.187157666
1716270361579838194,0.067,,,,9.194852452
1716270361587532980,0.057,,,,9.202547238
1716270361595227766,0.024,,,,9.210242024
1716270361602922552,-0.036,,,,9.21793681
1716270361610617338,0.113,,,,9.225631596
1716270361618312124,0.719,,,,9.233326382
1716270361626006910,1.515,,,,9.241021168
1716270361633701696,1.707,,,,9.248715954
1716270361641396482,0.8200000000000001,,,,9.25641074
1716270361649091268,-0.177,,,,9.264105526
1716270361656786054,-0.192,,,,9.271800312
1716270361664480840,0.067,,,,9.279495098
1716270361672175626,-0.086,,,,9.287189884
1716270361679870412,-0.156,,,,9.29488467
1716270361687565198,-0.038,,,,9.302579456
1716270361695259984,-0.048,,,,9.310274242
1716270361702954770,-0.084,,,,9.317969028
1716270361710649556,-0.033,,,,9.325663814
1716270361718344342,-0.012,,,,9.3333586
1716270361726039128,-0.028,,,,9.341053386
1716270361733733914,-0.016,,,,9.348748172
1716270361741428700,0.007,,,,9.356442958
1716270361749123486,0.009,,,,9.364137744
1716270361756818272,0.009,,,,9.37183253
1716270361764513058,0.021,,,,9.379527316
1716270361772207844,0.031,,,,9.387222102
1716270361779902630,0.026,,,,9.394916888
1716270361787597416,0.021,,,,9.402611674
1716270361795292202,0.026,,,,9.41030646
1716270361802986988,0.045,,,,9.418001246
1716270361810681774,0.067,,,,9.425696032
1716270361818376560,0.081,,,,9.433390818
1716270361826071346,0.088,,,,9.441085604
1716270361833766132,0.086,,,,9.44878039
1716270361841460918,0.081,,,,9.456475176
1716270361849155704,0.076,,,,9.464169962
1716270361856850490,0.064,,,,9.471864748
1716270361864545276,0.055,,,,9.479559534
1716270361872240062,0.052,,496.0,,9.48725432
1716270361879934848,0.055,,,,9.494949106
1716270361887629634,0.057,,,,9.502643892
1716270361895324420,0.064,,,,9.510338678
1716270361903019206,0.072,,,,9.518033464
1716270361910713992,0.069,,,,9.52572825
1716270361918408778,0.072,,,,9.533423036
1716270361926103564,0.081,,,,9.541117822
1716270361933798366,0.079,,,,9.548812624
1716270361941492734,0.072,,,,9.556506992
1716270361949187102,0.074,,,,9.56420136
1716270361956881470,0.069,,,,9.571895728
1716270361964575838,0.06,,,,9.579590096
1716270361972270206,0.052,,,,9.587284464
1716270361979964574,0.055,,,,9.594978832
1716270361987658942,0.052,,,,9.6026732
1716270361995353310,0.038,,,,9.610367568
1716270362003047678,0.024,,,,9.618061936
1716270362010742046,0.024,,,,9.625756304
1716270362018436414,0.031,,,,9.633450672
1716270362026130782,0.038,,,,9.64114504
1716270362033825150,0.055,,,,9.648839408
1716270362041519518,0.076,,,,9.656533776
1716270362049213886,0.076,,,,9.664228144
1716270362056908254,0.052,,,,9.671922512
1716270362064602622,0.04,,,,9.67961688
1716270362072296990,0.05,,,,9.687311248
1716270362079991358,0.055,,,,9.695005616
1716270362087685726,0.05,,,,9.702699984
1716270362095380094,0.024,,,,9.710394352
1716270362103074462,-0.038,,,,9.71808872
1716270362110768830,0.05,,,,9.725783088
1716270362118463198,0.577,,,,9.733477456
1716270362126157566,1.382,,,,9.741171824
1716270362133851934,1.741,,,,9.748866192
1716270362141546302,1.024,,,,9.75656056
1716270362149240670,-0.072,,,,9.764254928
1716270362156935038,-0.269,,,,9.771949296
1716270362164629406,0.038,,,,9.779643664
1716270362172323774,-0.05,,,,9.787338032
1716270362180018142,-0.173,,,,9.7950324
1716270362187712510,-0.067,,,,9.802726768
1716270362195406878,-0.045,,,,9.810421136
1716270362203101246,-0.088,,,,9.818115504
1716270362210795614,-0.05,,,,9.825809872
1716270362218489982,-0.024,,,,9.83350424
1716270362226184350,-0.036,,,,9.841198608
1716270362233878718,-0.028,,,,9.848892976
1716270362241573086,-0.009,,,,9.856587344
1716270362249267454,0.004,,,,9.864281712
1716270362256961822,0.016,,,,9.87197608
1716270362264656190,0.019,,,,9.879670448
1716270362272350558,0.016,,,,9.887364816
1716270362280044926,0.019,,,,9.895059184
1716270362287739294,0.026,,,,9.902753552
1716270362295433662,0.036,,,,9.91044792
1716270362303128030,0.05,,,,9.918142288
1716270362310822398,0.069,,,,9.925836656
1716270362318516766,0.093,,,,9.933531024
1716270362326211134,0.103,,,,9.941225392
1716270362333905502,0.093,,,,9.94891976
1716270362341599870,0.084,,,,9.956614128
1716270362349294238,0.072,,,,9.964308496
1716270362356988606,0.052,,,,9.972002864
1716270362364682974,0.045,,,,9.979697232
1716270362372377342,0.05,,497.0,,9.9873916
1716270362380071710,0.052,,,,9.995085968
1716270362387766078,0.052,,,,10.002780336
1716270362395460446,0.05,,,,10.010474704
1716270362403154814,0.057,,,,10.018169072
1716270362410849182,0.067,,,,10.02586344
1716270362418543550,0.067,,,,10.033557808
1716270362426237918,0.062,,,,10.041252176
1716270362433932286,0.062,,,,10.048946544
1716270362441626654,0.064,,,,10.056640912
1716270362449321022,0.06,,,,10.06433528
1716270362457015390,0.048,,,,10.072029648
1716270362464709758,0.048,,,,10.079724016
1716270362472404126,0.05,,,,10.087418384
1716270362480098494,0.045,,,,10.095112752
1716270362487792862,0.043,,,,10.10280712
1716270362495487242,0.04,122.0,,,10.1105015
1716270362503181819,0.045,,,,10.118196077
1716270362510876396,0.045,,,,10.125890654
1716270362518570973,0.036,,,,10.133585231
1716270362526265550,0.031,,,,10.141279808
1716270362533960127,0.043,,,,10.148974385
1716270362541654704,0.055,,,,10.156668962
1716270362549349281,0.067,,,,10.164363539
1716270362557043858,0.081,,,,10.172058116
1716270362564738435,0.074,,,,10.179752693
1716270362572433012,0.055,,,,10.18744727
1716270362580127589,0.055,,,,10.195141847
1716270362587822166,0.055,,,,10.202836424
1716270362595516743,0.043,,,,10.210531001
1716270362603211320,0.04,,,,10.218225578
1716270362610905897,0.004,,,,10.225920155
1716270362618600474,-0.014,,,,10.233614732
1716270362626295051,0.274,,,,10.241309309
1716270362633989628,0.99,,,,10.249003886
1716270362641684205,1.673,,,,10.256698463
1716270362649378782,1.517,,,,10.26439304
1716270362657073359,0.425,,,,10.272087617
1716270362664767936,-0.31,,,,10.279782194
1716270362672462513,-0.088,,,,10.287476771
1716270362680157090,0.06,,,,10.295171348
1716270362687851667,-0.139,,,,10.302865925
1716270362695546244,-0.125,,,,10.310560502
1716270362703240821,-0.026,,,,10.318255079
1716270362710935398,-0.062,,,,10.325949656
1716270362718629975,-0.072,,,,10.333644233
1716270362726324552,-0.024,,,,10.34133881
1716270362734019129,-0.019,,,,10.349033387
1716270362741713706,-0.024,,,,10.356727964
1716270362749408283,-0.007,,,,10.364422541
1716270362757102860,0.002,,,,10.372117118
1716270362764797437,0.007,,,,10.379811695
1716270362772492014,0.024,,,,10.387506272
1716270362780186591,0.033,,,,10.395200849
1716270362787881168,0.036,,,,10.402895426
1716270362795575745,0.043,,,,10.410590003
1716270362803270322,0.052,,,,10.41828458
1716270362810964899,0.052,,,,10.425979157
1716270362818659476,0.064,,,,10.433673734
1716270362826354053,0.096,,,,10.441368311
1716270362834048630,0.117,,,,10.449062888
1716270362841743207,0.11,,,,10.456757465
1716270362849437784,0.093,,,,10.464452042
1716270362857132361,0.088,,,,10.472146619
1716270362864826938,0.081,,496.0,,10.479841196
1716270362872521515,0.064,,,,10.487535773
1716270362880216092,0.057,,,,10.49523035
1716270362887910669,0.057,,,,10.502924927
1716270362895605246,0.06,,,,10.510619504
1716270362903299823,0.064,,,,10.518314081
1716270362910994400,0.069,,,,10.526008658
1716270362918688977,0.069,,,,10.533703235
1716270362926383554,0.067,,,,10.541397812
1716270362934078131,0.062,,,,10.549092389
1716270362941772708,0.06,,,,10.556786966
1716270362949467285,0.064,,,,10.564481543
1716270362957161862,0.067,,,,10.57217612
1716270362964856439,0.062,,,,10.579870697
1716270362972551016,0.055,,,,10.587565274
1716270362980245593,0.055,,,,10.595259851
1716270362987940170,0.052,,,,10.602954428
1716270362995634747,0.05,,,,10.610649005
1716270363003329324,0.048,,,,10.618343582
1716270363011023901,0.048,,,,10.626038159
1716270363018718478,0.043,,,,10.633732736
1716270363026413055,0.033,,,,10.641427313
1716270363034107632,0.033,,,,10.64912189
1716270363041802209,0.04,,,,10.656816467
1716270363049496786,0.045,,,,10.664511044
1716270363057191378,0.06,,,,10.672205636
1716270363064885955,0.081,,,,10.679900213
1716270363072580532,0.074,,,,10.68759479
1716270363080275109,0.052,,,,10.695289367
1716270363087969686,0.045,,,,10.702983944
1716270363095664263,0.048,,,,10.710678521
1716270363103358840,0.043,,,,10.718373098
1716270363111053417,0.026,,,,10.726067675
1716270363118747994,-0.026,,,,10.733762252
1716270363126442571,-0.021,,,,10.741456829
1716270363134137148,0.324,,,,10.749151406
1716270363141831725,1.065,,,,10.756845983
1716270363149526302,1.683,,,,10.76454056
1716270363157220879,1.404,,,,10.772235137
1716270363164915456,0.288,,,,10.779929714
1716270363172610033,-0.329,,,,10.787624291
1716270363180304610,-0.064,,,,10.795318868
1716270363187999187,0.021,,,,10.803013445
1716270363195693764,-0.175,,,,10.810708022
1716270363203388341,-0.127,,,,10.818402599
1716270363211082918,-0.04,,,,10.826097176
1716270363218777495,-0.086,,,,10.833791753
1716270363226472072,-0.079,,,,10.84148633
1716270363234166649,-0.031,,,,10.849180907
1716270363241861226,-0.036,,,,10.856875484
1716270363249555803,-0.043,,,,10.864570061
1716270363257250380,-0.024,,,,10.872264638
1716270363264944957,-0.009,,,,10.879959215
1716270363272639534,-0.007,,,,10.887653792
1716270363280334111,0.004,,,,10.895348369
1716270363288028688,0.019,,,,10.903042946
1716270363295723265,0.026,,,,10.910737523
1716270363303417842,0.026,,,,10.9184321
1716270363311112419,0.028,,,,10.926126677
1716270363318806996,0.04,,,,10.933821254
1716270363326501573,0.057,,,,10.941515831
1716270363334196150,0.076,,,,10.949210408
1716270363341890727,0.088,,,,10.956904985
1716270363349585304,0.086,,485.0,,10.964599562
1716270363357279881,0.074,,,,10.972294139
1716270363364974458,0.064,,,,10.979988716
1716270363372669035,0.055,,,,10.987683293
1716270363380363612,0.043,,,,10.99537787
1716270363388058189,0.036,,,,11.003072447
1716270363395752766,0.033,,,,11.010767024
1716270363403447343,0.036,,,,11.018461601
1716270363411141920,0.043,,,,11.026156178
1716270363418836497,0.048,,,,11.033850755
1716270363426531074,0.045,,,,11.041545332
1716270363434225651,0.045,,,,11.049239909
1716270363441920228,0.043,,,,11.056934486
1716270363449614805,0.04,,,,11.064629063
1716270363457309382,0.052,,,,11.07232364
1716270363465003959,0.055,,,,11.080018217
1716270363472698536,0.043,,,,11.087712794
1716270363480393113,0.045,,,,11.095407371
1716270363488087690,0.052,,,,11.103101948
1716270363495782267,0.043,,,,11.110796525
1716270363503476844,0.038,,,,11.118491102
1716270363511171421,0.043,,,,11.126185679
1716270363518865998,0.038,,,,11.133880256
1716270363526560575,0.028,,,,11.141574833
1716270363534255152,0.024,,,,11.14926941
1716270363541949729,0.031,,,,11.156963987
1716270363549644306,0.043,,,,11.164658564
1716270363557338883,0.048,,,,11.172353141
1716270363565033460,0.062,,,,11.180047718
1716270363572728037,0.076,,,,11.187742295
1716270363580422614,0.052,,,,11.195436872
1716270363588117191,0.026,,,,11.203131449
1716270363595811768,0.033,,,,11.210826026
1716270363603506345,0.045,,,,11.218520603
1716270363611200922,0.045,,,,11.22621518
1716270363618895512,0.021,122.0,,,11.23390977
1716270363626589880,-0.033,,,,11.241604138
1716270363634284248,0.045,,,,11.249298506
1716270363641978616,0.512,,,,11.256992874
1716270363649672984,1.257,,,,11.264687242
1716270363657367352,1.63,,,,11.27238161
1716270363665061720,0.981,,,,11.280075978
1716270363672756088,-0.098,,,,11.287770346
1716270363680450456,-0.303,,,,11.295464714
1716270363688144824,0.036,,,,11.303159082
1716270363695839192,-0.043,,,,11.31085345
1716270363703533560,-0.182,,,,11.318547818
1716270363711227928,-0.072,,,,11.326242186
1716270363718922296,-0.045,,,,11.333936554
1716270363726616664,-0.098,,,,11.341630922
1716270363734311032,-0.067,,,,11.34932529
1716270363742005400,-0.033,,,,11.357019658
1716270363749699768,-0.048,,,,11.364714026
1716270363757394136,-0.038,,,,11.372408394
1716270363765088504,-0.016,,,,11.380102762
1716270363772782872,-0.004,,,,11.38779713
1716270363780477240,0.016,,,,11.395491498
1716270363788171608,0.031,,,,11.403185866
1716270363795865976,0.031,,,,11.410880234
1716270363803560344,0.038,,,,11.418574602
1716270363811254712,0.045,,,,11.42626897
1716270363818949080,0.048,,,,11.433963338
1716270363826643448,0.055,,,,11.441657706
1716270363834337816,0.074,,,,11.449352074
1716270363842032184,0.093,,487.0,,11.457046442
1716270363849726552,0.103,,,,11.46474081
1716270363857420920,0.093,,,,11.472435178
1716270363865115288,0.076,,,,11.480129546
1716270363872809656,0.057,,,,11.487823914
1716270363880504024,0.043,,,,11.495518282
1716270363888198392,0.045,,,,11.50321265
1716270363895892760,0.045,,,,11.510907018
1716270363903587128,0.043,,,,11.518601386
1716270363911281496,0.045,,,,11.526295754
1716270363918975864,0.045,,,,11.533990122
1716270363926670232,0.038,,,,11.54168449
1716270363934364600,0.038,,,,11.549378858
1716270363942058968,0.045,,,,11.557073226
1716270363949753336,0.048,,,,11.564767594
1716270363957447704,0.045,,,,11.572461962
1716270363965142072,0.048,,,,11.58015633
1716270363972836440,0.048,,,,11.587850698
1716270363980530808,0.04,,,,11.595545066
1716270363988225176,0.048,,,,11.603239434
1716270363995919544,0.06,,,,11.610933802
1716270364003613912,0.048,,,,11.61862817
1716270364011308280,0.031,,,,11.626322538
1716270364019002648,0.028,,,,11.634016906
1716270364026697016,0.028,,,,11.641711274
1716270364034391384,0.028,,,,11.649405642
1716270364042085752,0.033,,,,11.65710001
1716270364049780120,0.043,,,,11.664794378
1716270364057474488,0.052,,,,11.672488746
1716270364065168856,0.067,,,,11.680183114
1716270364072863224,0.064,,,,11.687877482
1716270364080557592,0.04,,,,11.69557185
1716270364088251960,0.033,,,,11.703266218
1716270364095946328,0.04,,,,11.710960586
1716270364103640696,0.038,,,,11.718654954
1716270364111335064,0.04,,,,11.726349322
1716270364119029432,0.021,,,,11.73404369
1716270364126723800,-0.043,,,,11.741738058
1716270364134418168,0.067,,,,11.749432426
1716270364142112536,0.606,,,,11.757126794
1716270364149806904,1.353,,,,11.764821162
1716270364157501272,1.601,,,,11.77251553
1716270364165195640,0.793,,,,11.780209898
1716270364172890008,-0.233,,,,11.787904266
1716270364180584388,-0.247,,,,11.795598646
1716270364188278756,0.088,,,,11.803293014
1716270364195973124,-0.06,,,,11.810987382
1716270364203667492,-0.156,,,,11.81868175
1716270364211361860,-0.033,,,,11.826376118
1716270364219056228,-0.052,,,,11.834070486
1716270364226750596,-0.103,,,,11.841764854
1716270364234444964,-0.052,,,,11.849459222
1716270364242139332,-0.028,,,,11.85715359
1716270364249833700,-0.048,,,,11.864847958
1716270364257528068,-0.033,,,,11.872542326
1716270364265222436,-0.009,,,,11.880236694
1716270364272916804,0.0,,,,11.887931062
1716270364280611172,0.012,,,,11.89562543
1716270364288305540,0.026,,,,11.903319798
1716270364295999908,0.038,,,,11.911014166
1716270364303694276,0.048,,,,11.918708534
1716270364311388644,0.048,,,,11.926402902
1716270364319083012,0.04,,,,11.93409727
1716270364326777380,0.052,,,,11.941791638
1716270364334471748,0.079,,494.0,,11.949486006
1716270364342166116,0.098,,,,11.957180374
1716270364349860484,0.101,,,,11.964874742
1716270364357554852,0.091,,,,11.97256911
1716270364365249220,0.076,,,,11.980263478
1716270364372943588,0.06,,,,11.987957846
1716270364380637956,0.052,,,,11.995652214
1716270364388332324,0.055,,,,12.003346582
1716270364396026692,0.048,,,,12.01104095
1716270364403721060,0.038,,,,12.018735318
1716270364411415428,0.04,,,,12.026429686
1716270364419109796,0.048,,,,12.034124054
1716270364426804164,0.052,,,,12.041818422
1716270364434498532,0.05,,,,12.04951279
1716270364442192900,0.055,,,,12.057207158
1716270364449887268,0.062,,,,12.064901526
1716270364457581636,0.06,,,,12.072595894
1716270364465276004,0.057,,,,12.080290262
1716270364472970372,0.062,,,,12.08798463
1716270364480664740,0.06,,,,12.095678998
1716270364488359108,0.057,,,,12.103373366
1716270364496053476,0.057,,,,12.111067734
1716270364503747844,0.055,,,,12.118762102
1716270364511442212,0.048,,,,12.12645647
1716270364519136580,0.038,,,,12.134150838
1716270364526830948,0.038,,,,12.141845206
1716270364534525316,0.06,,,,12.149539574
1716270364542219684,0.069,,,,12.157233942
1716270364549914052,0.069,,,,12.16492831
1716270364557608420,0.084,,,,12.172622678
1716270364565302788,0.086,,,,12.180317046
1716270364572997156,0.06,,,,12.188011414
1716270364580691524,0.038,,,,12.195705782
1716270364588385892,0.052,,,,12.20340015
1716270364596080260,0.057,,,,12.211094518
1716270364603774628,0.05,,,,12.218788886
1716270364611468996,0.012,,,,12.226483254
1716270364619163364,-0.048,,,,12.234177622
1716270364626857732,0.103,,,,12.24187199
1716270364634552100,0.7020000000000001,,,,12.249566358
1716270364642246468,1.483,,,,12.257260726
1716270364649940836,1.671,,,,12.264955094
1716270364657635204,0.774,,,,12.272649462
1716270364665329572,-0.226,,,,12.28034383
1716270364673023940,-0.204,,,,12.288038198
1716270364680718308,0.091,,,,12.295732566
1716270364688412676,-0.069,,,,12.303426934
1716270364696107044,-0.149,,,,12.311121302
1716270364703801412,-0.031,,,,12.31881567
1716270364711495780,-0.043,,,,12.326510038
1716270364719190148,-0.084,,,,12.334204406
1716270364726884516,-0.04,,,,12.341898774
1716270364734578884,-0.021,,,,12.349593142
1716270364742273264,-0.031,121.0,,,12.357287522
1716270364749967562,-0.012,,,,12.36498182
1716270364757661860,0.002,,,,12.372676118
1716270364765356158,0.004,,,,12.380370416
1716270364773050456,0.021,,,,12.388064714
1716270364780744754,0.033,,,,12.395759012
1716270364788439052,0.024,,,,12.40345331
1716270364796133350,0.014,,,,12.411147608
1716270364803827648,0.021,,,,12.418841906
1716270364811521946,0.026,,,,12.426536204
1716270364819216244,0.021,,,,12.434230502
1716270364826910542,0.043,,,,12.4419248
1716270364834604840,0.079,,502.0,,12.449619098
1716270364842299138,0.091,,,,12.457313396
1716270364849993436,0.084,,,,12.465007694
1716270364857687734,0.076,,,,12.472701992
1716270364865382032,0.076,,,,12.48039629
1716270364873076330,0.067,,,,12.488090588
1716270364880770628,0.052,,,,12.495784886
1716270364888464926,0.05,,,,12.503479184
1716270364896159224,0.057,,,,12.511173482
1716270364903853522,0.055,,,,12.51886778
1716270364911547820,0.048,,,,12.526562078
1716270364919242118,0.057,,,,12.534256376
1716270364926936416,0.069,,,,12.541950674
1716270364934630714,0.067,,,,12.549644972
1716270364942325012,0.06,,,,12.55733927
1716270364950019310,0.06,,,,12.565033568
1716270364957713608,0.062,,,,12.572727866
1716270364965407906,0.055,,,,12.580422164
1716270364973102204,0.048,,,,12.588116462
1716270364980796502,0.057,,,,12.59581076
1716270364988490800,0.074,,,,12.603505058
1716270364996185098,0.064,,,,12.611199356
1716270365003879396,0.045,,,,12.618893654
1716270365011573694,0.04,,,,12.626587952
1716270365019267992,0.045,,,,12.63428225
1716270365026962290,0.055,,,,12.641976548
1716270365034656588,0.06,,,,12.649670846
1716270365042350886,0.072,,,,12.657365144
1716270365050045184,0.096,,,,12.665059442
1716270365057739482,0.088,,,,12.67275374
1716270365065433780,0.06,,,,12.680448038
1716270365073128078,0.052,,,,12.688142336
1716270365080822376,0.055,,,,12.695836634
1716270365088516674,0.06,,,,12.703530932
1716270365096210972,0.067,,,,12.71122523
1716270365103905270,0.031,,,,12.718919528
1716270365111599568,-0.045,,,,12.726613826
1716270365119293866,0.072,,,,12.734308124
1716270365126988164,0.646,,,,12.742002422
1716270365134682462,1.462,,,,12.74969672
1716270365142376760,1.762,,,,12.757391018
1716270365150071058,0.959,,,,12.765085316
1716270365157765356,-0.129,,,,12.772779614
1716270365165459654,-0.233,,,,12.780473912
1716270365173153952,0.079,,,,12.78816821
1716270365180848250,-0.048,,,,12.795862508
1716270365188542548,-0.156,,,,12.803556806
1716270365196236846,-0.036,,,,12.811251104
1716270365203931144,-0.028,,,,12.818945402
1716270365211625442,-0.079,,,,12.8266397
1716270365219319740,-0.043,,,,12.834333998
1716270365227014038,-0.021,,,,12.842028296
1716270365234708336,-0.033,,,,12.849722594
1716270365242402634,-0.019,,,,12.857416892
1716270365250096932,0.002,,,,12.86511119
1716270365257791230,0.009,,,,12.872805488
1716270365265485528,0.014,,,,12.880499786
1716270365273179826,0.019,,,,12.888194084
1716270365280874124,0.028,,,,12.895888382
1716270365288568422,0.033,,,,12.90358268
1716270365296262720,0.028,,,,12.911276978
1716270365303957056,0.028,120.0,,,12.918971314
1716270365311651493,0.038,,,,12.926665751
1716270365319345930,0.05,,,,12.934360188
1716270365327040367,0.072,,,,12.942054625
1716270365334734804,0.091,,,,12.949749062
1716270365342429241,0.093,,,,12.957443499
1716270365350123678,0.086,,512.0,,12.965137936
1716270365357818115,0.081,,,,12.972832373
1716270365365512552,0.074,,,,12.98052681
1716270365373206989,0.069,,,,12.988221247
1716270365380901426,0.069,,,,12.995915684
1716270365388595863,0.062,,,,13.003610121
1716270365396290300,0.055,,,,13.011304558
1716270365403984737,0.055,,,,13.018998995
1716270365411679174,0.052,,,,13.026693432
1716270365419373611,0.05,,,,13.034387869
1716270365427068048,0.052,,,,13.042082306
1716270365434762485,0.062,,,,13.049776743
1716270365442456922,0.064,,,,13.05747118
1716270365450151359,0.057,,,,13.065165617
1716270365457845796,0.05,,,,13.072860054
1716270365465540233,0.055,,,,13.080554491
1716270365473234670,0.06,,,,13.088248928
1716270365480929107,0.052,,,,13.095943365
1716270365488623544,0.05,,,,13.103637802
1716270365496317981,0.052,,,,13.111332239
1716270365504012418,0.048,,,,13.119026676
1716270365511706855,0.038,,,,13.126721113
1716270365519401292,0.036,,,,13.13441555
1716270365527095729,0.052,,,,13.142109987
1716270365534790166,0.072,,,,13.149804424
1716270365542484603,0.084,,,,13.157498861
1716270365550179040,0.101,,,,13.165193298
1716270365557873477,0.091,,,,13.172887735
1716270365565567914,0.055,,,,13.180582172
1716270365573262351,0.04,,,,13.188276609
1716270365580956788,0.057,,,,13.195971046
1716270365588651225,0.06,,,,13.203665483
1716270365596345662,0.048,,,,13.21135992
1716270365604040099,0.016,,,,13.219054357
1716270365611734536,-0.031,,,,13.226748794
1716270365619428973,0.11,,,,13.234443231
1716270365627123410,0.6990000000000001,,,,13.242137668
1716270365634817847,1.498,,,,13.249832105
1716270365642512284,1.721,,,,13.257526542
1716270365650206721,0.851,,,,13.265220979
1716270365657901158,-0.175,,,,13.272915416
1716270365665595595,-0.206,,,,13.280609853
1716270365673290032,0.079,,,,13.28830429
1716270365680984469,-0.064,,,,13.295998727
1716270365688678906,-0.153,,,,13.303693164
1716270365696373343,-0.038,,,,13.311387601
1716270365704067780,-0.036,,,,13.319082038
1716270365711762217,-0.079,,,,13.326776475
1716270365719456654,-0.043,,,,13.334470912
1716270365727151091,-0.021,,,,13.342165349
1716270365734845528,-0.028,,,,13.349859786
1716270365742539965,-0.014,,,,13.357554223
1716270365750234402,0.0,,,,13.36524866
1716270365757928839,0.002,,,,13.372943097
1716270365765623276,0.014,,,,13.380637534
1716270365773317713,0.026,,,,13.388331971
1716270365781012150,0.026,,,,13.396026408
1716270365788706587,0.026,,,,13.403720845
1716270365796401024,0.031,,,,13.411415282
1716270365804095461,0.031,,,,13.419109719
1716270365811789898,0.033,,,,13.426804156
1716270365819484335,0.06,,,,13.434498593
1716270365827178772,0.088,,,,13.44219303
1716270365834873209,0.096,,,,13.449887467
1716270365842567646,0.091,,,,13.457581904
1716270365850262083,0.084,,,,13.465276341
1716270365857956520,0.079,,507.0,,13.472970778
1716270365865651018,0.072,,,,13.480665276
1716270365873345386,0.06,,,,13.488359644
1716270365881039754,0.055,,,,13.496054012
1716270365888734122,0.057,,,,13.50374838
1716270365896428490,0.057,,,,13.511442748
1716270365904122858,0.057,,,,13.519137116
1716270365911817226,0.06,,,,13.526831484
1716270365919511594,0.069,,,,13.534525852
1716270365927205962,0.067,,,,13.54222022
1716270365934900330,0.057,,,,13.549914588
1716270365942594698,0.06,,,,13.557608956
1716270365950289066,0.064,,,,13.565303324
1716270365957983434,0.062,,,,13.572997692
1716270365965677802,0.062,,,,13.58069206
1716270365973372170,0.062,,,,13.588386428
1716270365981066538,0.06,,,,13.596080796
1716270365988760906,0.06,,,,13.603775164
1716270365996455274,0.06,,,,13.611469532
1716270366004149642,0.057,,,,13.6191639
1716270366011844010,0.048,,,,13.626858268
1716270366019538378,0.038,,,,13.634552636
1716270366027232746,0.045,,,,13.642247004
1716270366034927114,0.064,,,,13.649941372
1716270366042621482,0.081,,,,13.65763574
1716270366050315850,0.098,,,,13.665330108
1716270366058010218,0.101,,,,13.673024476
1716270366065704586,0.079,,,,13.680718844
1716270366073398954,0.055,,,,13.688413212
1716270366081093322,0.05,,,,13.69610758
1716270366088787690,0.057,,,,13.703801948
1716270366096482058,0.055,,,,13.711496316
1716270366104176426,0.031,,,,13.719190684
1716270366111870794,-0.028,,,,13.726885052
1716270366119565162,0.038,,,,13.73457942
1716270366127259530,0.507,,,,13.742273788
1716270366134953898,1.284,,,,13.749968156
1716270366142648266,1.695,,,,13.757662524
1716270366150342634,1.062,,,,13.765356892
1716270366158037002,-0.045,,,,13.77305126
1716270366165731370,-0.298,,,,13.780745628
1716270366173425738,0.036,,,,13.788439996
1716270366181120106,-0.021,,,,13.796134364
1716270366188814474,-0.17,,,,13.803828732
1716270366196508842,-0.072,,,,13.8115231
1716270366204203210,-0.04,,,,13.819217468
1716270366211897578,-0.091,,,,13.826911836
1716270366219591946,-0.067,,,,13.834606204
1716270366227286314,-0.043,,,,13.842300572
1716270366234980682,-0.055,,,,13.84999494
1716270366242675050,-0.04,,,,13.857689308
1716270366250369418,-0.019,,,,13.865383676
1716270366258063786,-0.009,,,,13.873078044
1716270366265758154,0.0,,,,13.880772412
1716270366273452522,0.014,,,,13.88846678
1716270366281146890,0.021,,,,13.896161148
1716270366288841258,0.024,,,,13.903855516
1716270366296535626,0.021,,,,13.911549884
1716270366304229994,0.026,,,,13.919244252
1716270366311924362,0.038,,,,13.92693862
1716270366319618730,0.057,,,,13.934632988
1716270366327313098,0.079,,,,13.942327356
1716270366335007466,0.088,,,,13.950021724
1716270366342701834,0.081,,,,13.957716092
1716270366350396202,0.074,,,,13.96541046
1716270366358090570,0.067,,505.0,,13.973104828
1716270366365784938,0.052,,,,13.980799196
1716270366373479306,0.04,,,,13.988493564
1716270366381173674,0.038,,,,13.996187932
1716270366388868042,0.036,,,,14.0038823
1716270366396562410,0.033,,,,14.011576668
1716270366404256778,0.036,,,,14.019271036
1716270366411951146,0.036,,,,14.026965404
1716270366419645514,0.036,,,,14.034659772
1716270366427339894,0.04,120.0,,,14.042354152
1716270366435034262,0.048,,,,14.05004852
1716270366442728630,0.045,,,,14.057742888
1716270366450422998,0.04,,,,14.065437256
1716270366458117366,0.038,,,,14.073131624
1716270366465811734,0.04,,,,14.080825992
1716270366473506102,0.026,,,,14.08852036
1716270366481200470,0.016,,,,14.096214728
1716270366488894838,0.024,,,,14.103909096
1716270366496589206,0.026,,,,14.111603464
1716270366504283574,0.007,,,,14.119297832
1716270366511977942,-0.002,,,,14.1269922
1716270366519672310,0.009,,,,14.134686568
1716270366527366678,0.016,,,,14.142380936
1716270366535061046,0.021,,,,14.150075304
1716270366542755414,0.043,,,,14.157769672
1716270366550449782,0.052,,,,14.16546404
1716270366558144150,0.028,,,,14.173158408
1716270366565838518,0.014,,,,14.180852776
1716270366573532886,0.019,,,,14.188547144
1716270366581227254,0.014,,,,14.196241512
1716270366588921622,0.002,,,,14.20393588
1716270366596615990,-0.009,,,,14.211630248
1716270366604310358,-0.055,,,,14.219324616
1716270366612004726,-0.016,,,,14.227018984
1716270366619699094,0.404,,,,14.234713352
1716270366627393462,1.147,,,,14.24240772
1716270366635087830,1.594,,,,14.250102088
1716270366642782198,1.029,,,,14.257796456
1716270366650476566,-0.098,,,,14.265490824
1716270366658170934,-0.37,,,,14.273185192
1716270366665865302,0.016,,,,14.28087956
1716270366673559670,-0.031,,,,14.288573928
1716270366681254038,-0.199,,,,14.296268296
1716270366688948406,-0.088,,,,14.303962664
1716270366696642774,-0.05,,,,14.311657032
1716270366704337142,-0.11,,,,14.3193514
1716270366712031510,-0.084,,,,14.327045768
1716270366719725878,-0.043,,,,14.334740136
1716270366727420246,-0.043,,,,14.342434504
1716270366735114614,-0.04,,,,14.350128872
1716270366742808982,-0.024,,,,14.35782324
1716270366750503350,-0.007,,,,14.365517608
1716270366758197718,0.004,,,,14.373211976
1716270366765892086,0.016,,,,14.380906344
1716270366773586454,0.033,,,,14.388600712
1716270366781280822,0.048,,,,14.39629508
1716270366788975190,0.043,,,,14.403989448
1716270366796669558,0.038,,,,14.411683816
1716270366804363926,0.05,,,,14.419378184
1716270366812058294,0.074,,,,14.427072552
1716270366819752662,0.093,,,,14.43476692
1716270366827447030,0.098,,,,14.442461288
1716270366835141398,0.086,,,,14.450155656
1716270366842835766,0.076,,,,14.457850024
1716270366850530134,0.074,,,,14.465544392
1716270366858224502,0.064,,499.0,,14.47323876
1716270366865918870,0.055,,,,14.480933128
1716270366873613238,0.062,,,,14.488627496
1716270366881307606,0.074,,,,14.496321864
1716270366889001974,0.076,,,,14.504016232
1716270366896696342,0.081,,,,14.5117106
1716270366904390710,0.096,,,,14.519404968
1716270366912085078,0.098,,,,14.527099336
1716270366919779446,0.098,,,,14.534793704
1716270366927473814,0.101,,,,14.542488072
1716270366935168182,0.103,,,,14.55018244
1716270366942862550,0.103,,,,14.557876808
1716270366950556918,0.101,,,,14.565571176
1716270366958251286,0.101,,,,14.573265544
1716270366965945654,0.101,,,,14.580959912
1716270366973640022,0.093,,,,14.58865428
1716270366981334390,0.088,,,,14.596348648
1716270366989028770,0.084,,,,14.604043028
1716270366996723138,0.076,,,,14.611737396
1716270367004417506,0.079,,,,14.619431764
1716270367012111874,0.084,,,,14.627126132
1716270367019806242,0.091,,,,14.6348205
1716270367027500610,0.11,,,,14.642514868
1716270367035194978,0.113,,,,14.650209236
1716270367042889346,0.086,,,,14.657903604
1716270367050583714,0.064,,,,14.665597972
1716270367058278082,0.074,,,,14.67329234
1716270367065972450,0.079,,,,14.680986708
1716270367073666818,0.069,,,,14.688681076
1716270367081361186,0.045,,,,14.696375444
1716270367089055554,-0.031,,,,14.704069812
1716270367096749922,-0.045,,,,14.71176418
1716270367104444290,0.319,,,,14.719458548
1716270367112138658,1.108,,,,14.727152916
1716270367119833026,1.729,,,,14.734847284
1716270367127527394,1.325,,,,14.742541652
1716270367135221762,0.129,,,,14.75023602
1716270367142916130,-0.353,,,,14.757930388
1716270367150610498,0.009,,,,14.765624756
1716270367158304866,0.033,,,,14.773319124
1716270367165999234,-0.173,,,,14.781013492
1716270367173693602,-0.091,,,,14.78870786
1716270367181387970,-0.021,,,,14.796402228
1716270367189082338,-0.086,,,,14.804096596
1716270367196776706,-0.074,,,,14.811790964
1716270367204471074,-0.026,,,,14.819485332
1716270367212165442,-0.038,,,,14.8271797
1716270367219859810,-0.04,,,,14.834874068
1716270367227554178,-0.014,,,,14.842568436
1716270367235248546,-0.009,,,,14.850262804
1716270367242942914,-0.016,,,,14.857957172
1716270367250637282,-0.007,,,,14.86565154
1716270367258331650,0.002,,,,14.873345908
1716270367266026018,-0.002,,,,14.881040276
1716270367273720386,-0.014,,,,14.888734644
1716270367281414754,-0.033,,,,14.896429012
1716270367289109122,-0.04,,,,14.90412338
1716270367296803490,-0.028,,,,14.911817748
1716270367304497858,-0.009,,,,14.919512116
1716270367312192226,0.012,,,,14.927206484
1716270367319886594,0.021,,,,14.934900852
1716270367327580962,0.012,,,,14.94259522
1716270367335275330,0.007,,,,14.950289588
1716270367342969698,0.007,,,,14.957983956
1716270367350664066,0.0,,492.0,,14.965678324
1716270367358358434,0.004,,,,14.973372692
1716270367366052802,0.019,,,,14.98106706
1716270367373747170,0.019,,,,14.988761428
1716270367381441538,0.026,,,,14.996455796
1716270367389135906,0.055,,,,15.004150164
1716270367396830274,0.069,,,,15.011844532
1716270367404524642,0.062,,,,15.0195389
1716270367412219010,0.057,,,,15.027233268
1716270367419913378,0.055,,,,15.034927636
1716270367427607746,0.045,,,,15.042622004
1716270367435302114,0.043,,,,15.050316372
1716270367442996482,0.043,,,,15.05801074
1716270367450690850,0.036,,,,15.065705108
1716270367458385218,0.033,,,,15.073399476
1716270367466079586,0.036,,,,15.081093844
1716270367473773954,0.031,,,,15.088788212
1716270367481468322,0.028,,,,15.09648258
1716270367489162690,0.036,,,,15.104176948
1716270367496857058,0.057,,,,15.111871316
1716270367504551426,0.076,,,,15.119565684
1716270367512245794,0.101,,,,15.127260052
1716270367519940162,0.125,,,,15.13495442
1716270367527634530,0.113,,,,15.142648788
1716270367535328898,0.093,,,,15.150343156
1716270367543023266,0.108,,,,15.158037524
1716270367550717646,0.139,121.0,,,15.165731904
1716270367558412014,0.158,,,,15.173426272
1716270367566106382,0.156,,,,15.18112064
1716270367573800750,0.113,,,,15.188815008
1716270367581495118,0.103,,,,15.196509376
1716270367589189486,0.432,,,,15.204203744
1716270367596883854,1.214,,,,15.211898112
1716270367604578222,1.916,,,,15.21959248
1716270367612272590,1.656,,,,15.227286848
1716270367619966958,0.442,,,,15.234981216
1716270367627661326,-0.238,,,,15.242675584
1716270367635355694,0.086,,,,15.250369952
1716270367643050062,0.206,,,,15.25806432
1716270367650744430,-0.028,,,,15.265758688
1716270367658438798,0.012,,,,15.273453056
1716270367666133166,0.096,,,,15.281147424
1716270367673827534,0.024,,,,15.288841792
1716270367681521902,0.012,,,,15.29653616
1716270367689216270,0.052,,,,15.304230528
1716270367696910638,0.038,,,,15.311924896
1716270367704605006,0.026,,,,15.319619264
1716270367712299374,0.04,,,,15.327313632
1716270367719993742,0.038,,,,15.335008
1716270367727688110,0.036,,,,15.342702368
1716270367735382478,0.048,,,,15.350396736
1716270367743076846,0.057,,,,15.358091104
1716270367750771214,0.06,,,,15.365785472
1716270367758465582,0.057,,,,15.37347984
1716270367766159950,0.048,,,,15.381174208
1716270367773854318,0.043,,,,15.388868576
1716270367781548686,0.062,,,,15.396562944
1716270367789243054,0.091,,,,15.404257312
1716270367796937422,0.101,,,,15.41195168
1716270367804631790,0.101,,,,15.419646048
1716270367812326158,0.098,,,,15.427340416
1716270367820020526,0.093,,,,15.435034784
1716270367827714894,0.086,,,,15.442729152
1716270367835409262,0.079,,,,15.45042352
1716270367843103630,0.084,,493.0,,15.458117888
1716270367850797998,0.093,,,,15.465812256
1716270367858492366,0.096,,,,15.473506624
1716270367866186734,0.103,,,,15.481200992
1716270367873881102,0.12,,,,15.48889536
1716270367881575470,0.125,,,,15.496589728
1716270367889269838,0.122,,,,15.504284096
1716270367896964206,0.125,,,,15.511978464
1716270367904658574,0.125,,,,15.519672832
1716270367912352942,0.115,,,,15.5273672
1716270367920047310,0.11,,,,15.535061568
1716270367927741678,0.113,,,,15.542755936
1716270367935436046,0.103,,,,15.550450304
1716270367943130414,0.086,,,,15.558144672
1716270367950824782,0.079,,,,15.56583904
1716270367958519150,0.074,,,,15.573533408
1716270367966213518,0.06,,,,15.581227776
1716270367973907886,0.057,,,,15.588922144
1716270367981602254,0.064,,,,15.596616512
1716270367989296622,0.072,,,,15.60431088
1716270367996990990,0.084,,,,15.612005248
1716270368004685358,0.093,,,,15.619699616
1716270368012379726,0.074,,,,15.627393984
1716270368020074094,0.048,,,,15.635088352
1716270368027768462,0.05,,,,15.64278272
1716270368035462830,0.064,,,,15.650477088
1716270368043157198,0.062,,,,15.658171456
1716270368050851566,0.033,,,,15.665865824
1716270368058545934,-0.055,,,,15.673560192
1716270368066240302,-0.057,,,,15.68125456
1716270368073934670,0.384,,,,15.688948928
1716270368081629038,1.262,,,,15.696643296
1716270368089323406,1.87,,,,15.704337664
1716270368097017774,1.356,,,,15.712032032
1716270368104712142,0.117,,,,15.7197264
1716270368112406522,-0.312,,,,15.72742078
1716270368120100890,0.045,,,,15.735115148
1716270368127795258,0.031,,,,15.742809516
1716270368135489626,-0.168,,,,15.750503884
1716270368143183994,-0.076,,,,15.758198252
1716270368150878362,-0.014,,,,15.76589262
1716270368158572730,-0.064,,,,15.773586988
1716270368166267098,-0.045,,,,15.781281356
1716270368173961466,-0.021,,,,15.788975724
1716270368181655834,-0.045,,,,15.796670092
1716270368189350202,-0.036,,,,15.80436446
1716270368197044570,-0.004,,,,15.812058828
1716270368204738938,0.0,,,,15.819753196
1716270368212433306,-0.002,,,,15.827447564
1716270368220127674,0.004,,,,15.835141932
1716270368227822042,0.007,,,,15.8428363
1716270368235516410,0.004,,,,15.850530668
1716270368243210778,0.004,,,,15.858225036
1716270368250905146,0.002,,,,15.865919404
1716270368258599514,0.012,,,,15.873613772
1716270368266293882,0.031,,,,15.88130814
1716270368273988250,0.05,,,,15.889002508
1716270368281682618,0.076,,,,15.896696876
1716270368289376986,0.096,,,,15.904391244
1716270368297071354,0.098,,,,15.912085612
1716270368304765722,0.091,,,,15.91977998
1716270368312460090,0.079,,,,15.927474348
1716270368320154458,0.074,,,,15.935168716
1716270368327848826,0.084,,,,15.942863084
1716270368335543194,0.086,,,,15.950557452
1716270368343237562,0.084,,500.0,,15.95825182
1716270368350931930,0.086,,,,15.965946188
1716270368358626298,0.093,,,,15.973640556
1716270368366320666,0.098,,,,15.981334924
1716270368374015034,0.101,,,,15.989029292
1716270368381709402,0.103,,,,15.99672366
1716270368389403770,0.103,,,,16.004418028
1716270368397098138,0.098,,,,16.012112396
1716270368404792506,0.096,,,,16.019806764
1716270368412486874,0.093,,,,16.027501132
1716270368420181242,0.093,,,,16.0351955
1716270368427875610,0.091,,,,16.042889868
1716270368435569978,0.081,,,,16.050584236
1716270368443264346,0.076,,,,16.058278604
1716270368450958714,0.079,,,,16.065972972
1716270368458653082,0.088,,,,16.07366734
1716270368466347450,0.096,,,,16.081361708
1716270368474041818,0.101,,,,16.089056076
1716270368481736186,0.122,,,,16.096750444
1716270368489430554,0.132,,,,16.104444812
1716270368497124922,0.113,,,,16.11213918
1716270368504819290,0.103,,,,16.119833548
1716270368512513658,0.103,,,,16.127527916
1716270368520208026,0.093,,,,16.135222284
1716270368527902394,0.093,,,,16.142916652
1716270368535596762,0.062,,,,16.15061102
1716270368543291130,-0.019,,,,16.158305388
1716270368550985498,0.074,,,,16.165999756
1716270368558679866,0.644,,,,16.173694124
1716270368566374234,1.498,,,,16.181388492
1716270368574068602,1.832,,,,16.18908286
1716270368581762970,0.995,,,,16.196777228
1716270368589457338,-0.161,,,,16.204471596
1716270368597151706,-0.266,,,,16.212165964
1716270368604846074,0.091,,,,16.219860332
1716270368612540442,-0.036,,,,16.2275547
1716270368620234810,-0.156,,,,16.235249068
1716270368627929178,-0.026,,,,16.242943436
1716270368635623546,-0.019,,,,16.250637804
1716270368643317914,-0.076,,,,16.258332172
1716270368651012282,-0.031,,,,16.26602654
1716270368658706650,0.002,,,,16.273720908
1716270368666401018,-0.012,,,,16.281415276
1716270368674095400,0.002,120.0,,,16.289109658
1716270368681790186,0.031,,,,16.296804444
1716270368689484972,0.036,,,,16.30449923
1716270368697179758,0.04,,,,16.312194016
1716270368704874544,0.057,,,,16.319888802
1716270368712569330,0.072,,,,16.327583588
1716270368720264116,0.072,,,,16.335278374
1716270368727958902,0.067,,,,16.34297316
1716270368735653688,0.067,,,,16.350667946
1716270368743348474,0.091,,,,16.358362732
1716270368751043260,0.12,,,,16.366057518
1716270368758738046,0.129,,,,16.373752304
1716270368766432832,0.127,,,,16.38144709
1716270368774127618,0.117,,,,16.389141876
1716270368781822404,0.098,,,,16.396836662
1716270368789517190,0.076,,,,16.404531448
1716270368797211976,0.064,,,,16.412226234
1716270368804906762,0.06,,,,16.41992102
1716270368812601548,0.064,,,,16.427615806
1716270368820296334,0.072,,,,16.435310592
1716270368827991120,0.067,,,,16.443005378
1716270368835685906,0.057,,,,16.450700164
1716270368843380692,0.055,,502.0,,16.45839495
1716270368851075478,0.064,,,,16.466089736
1716270368858770264,0.069,,,,16.473784522
1716270368866465050,0.06,,,,16.481479308
1716270368874159836,0.052,,,,16.489174094
1716270368881854622,0.062,,,,16.49686888
1716270368889549408,0.062,,,,16.504563666
1716270368897244194,0.05,,,,16.512258452
1716270368904938980,0.05,,,,16.519953238
1716270368912633766,0.05,,,,16.527648024
1716270368920328552,0.036,,,,16.53534281
1716270368928023338,0.033,,,,16.543037596
1716270368935718124,0.028,,,,16.550732382
1716270368943412910,0.014,,,,16.558427168
1716270368951107696,0.024,,,,16.566121954
1716270368958802482,0.057,,,,16.57381674
1716270368966497268,0.076,,,,16.581511526
1716270368974192054,0.081,,,,16.589206312
1716270368981886840,0.076,,,,16.596901098
1716270368989581626,0.064,,,,16.604595884
1716270368997276412,0.052,,,,16.61229067
1716270369004971198,0.048,,,,16.619985456
1716270369012665984,0.045,,,,16.627680242
1716270369020360770,0.04,,,,16.635375028
1716270369028055556,-0.009,,,,16.643069814
1716270369035750342,-0.043,,,,16.6507646
1716270369043445128,0.25,,,,16.658459386
1716270369051139914,0.971,,,,16.666154172
1716270369058834700,1.635,,,,16.673848958
1716270369066529486,1.45,,,,16.681543744
1716270369074224272,0.336,,,,16.68923853
1716270369081919058,-0.358,,,,16.696933316
1716270369089613844,-0.076,,,,16.704628102
1716270369097308630,0.06,,,,16.712322888
1716270369105003416,-0.158,,,,16.720017674
1716270369112698202,-0.134,,,,16.72771246
1716270369120392988,-0.043,,,,16.735407246
1716270369128087774,-0.088,,,,16.743102032
1716270369135782560,-0.086,,,,16.750796818
1716270369143477346,-0.036,,,,16.758491604
1716270369151172132,-0.033,,,,16.76618639
1716270369158866918,-0.031,,,,16.773881176
1716270369166561704,-0.012,,,,16.781575962
1716270369174256490,0.002,,,,16.789270748
1716270369181951276,0.016,,,,16.796965534
1716270369189646062,0.028,,,,16.80466032
1716270369197340848,0.031,,,,16.812355106
1716270369205035634,0.04,,,,16.820049892
1716270369212730420,0.055,,,,16.827744678
1716270369220425206,0.05,,,,16.835439464
1716270369228119992,0.055,,,,16.84313425
1716270369235814794,0.091,121.0,,,16.850829052
1716270369243509162,0.113,,,,16.85852342
1716270369251203530,0.108,,,,16.866217788
1716270369258897898,0.105,,,,16.873912156
1716270369266592266,0.105,,,,16.881606524
1716270369274286634,0.096,,,,16.889300892
1716270369281981002,0.079,,,,16.89699526
1716270369289675370,0.057,,,,16.904689628
1716270369297369738,0.048,,,,16.912383996
1716270369305064106,0.057,,,,16.920078364
1716270369312758474,0.064,,,,16.927772732
1716270369320452842,0.062,,,,16.9354671
1716270369328147210,0.067,,,,16.943161468
1716270369335841578,0.079,,493.0,,16.950855836
1716270369343535946,0.076,,,,16.958550204
1716270369351230314,0.074,,,,16.966244572
1716270369358924682,0.076,,,,16.97393894
1716270369366619050,0.072,,,,16.981633308
1716270369374313418,0.074,,,,16.989327676
1716270369382007786,0.076,,,,16.997022044
1716270369389702154,0.06,,,,17.004716412
1716270369397396522,0.048,,,,17.01241078
1716270369405090890,0.043,,,,17.020105148
1716270369412785258,0.04,,,,17.027799516
1716270369420479626,0.045,,,,17.035493884
1716270369428173994,0.036,,,,17.043188252
1716270369435868362,0.016,,,,17.05088262
1716270369443562730,0.024,,,,17.058576988
1716270369451257098,0.04,,,,17.066271356
1716270369458951466,0.048,,,,17.073965724
1716270369466645834,0.06,,,,17.081660092
1716270369474340202,0.064,,,,17.08935446
1716270369482034570,0.048,,,,17.097048828
1716270369489728938,0.043,,,,17.104743196
1716270369497423306,0.043,,,,17.112437564
1716270369505117674,0.038,,,,17.120131932
1716270369512812042,0.043,,,,17.1278263
1716270369520506410,0.012,,,,17.135520668
1716270369528200778,-0.057,,,,17.143215036
1716270369535895146,0.069,,,,17.150909404
1716270369543589514,0.62,,,,17.158603772
1716270369551283882,1.344,,,,17.16629814
1716270369558978250,1.551,,,,17.173992508
1716270369566672618,0.731,,,,17.181686876
1716270369574366986,-0.269,,,,17.189381244
1716270369582061354,-0.252,,,,17.197075612
1716270369589755722,0.086,,,,17.20476998
1716270369597450090,-0.081,,,,17.212464348
1716270369605144458,-0.18,,,,17.220158716
1716270369612838826,-0.045,,,,17.227853084
1716270369620533194,-0.052,,,,17.235547452
1716270369628227562,-0.098,,,,17.24324182
1716270369635921930,-0.045,,,,17.250936188
1716270369643616298,-0.024,,,,17.258630556
1716270369651310666,-0.055,,,,17.266324924
1716270369659005034,-0.048,,,,17.274019292
1716270369666699402,-0.019,,,,17.28171366
1716270369674393770,0.0,,,,17.289408028
1716270369682088138,0.014,,,,17.297102396
1716270369689782506,0.024,,,,17.304796764
1716270369697476874,0.024,,,,17.312491132
1716270369705171242,0.028,,,,17.3201855
1716270369712865610,0.033,,,,17.327879868
1716270369720559978,0.031,,,,17.335574236
1716270369728254346,0.036,,,,17.343268604
1716270369735948714,0.06,,,,17.350962972
1716270369743643082,0.079,,,,17.35865734
1716270369751337450,0.074,,,,17.366351708
1716270369759031818,0.081,,,,17.374046076
1716270369766726186,0.096,,,,17.381740444
1716270369774420554,0.079,,,,17.389434812
1716270369782114922,0.055,,,,17.39712918
1716270369789809290,0.057,,,,17.404823548
1716270369797503670,0.067,,,,17.412517928
1716270369805198177,0.055,,,,17.420212435
1716270369812892684,0.05,,,,17.427906942
1716270369820587191,0.074,,,,17.435601449
1716270369828281698,0.091,,486.0,,17.443295956
1716270369835976205,0.076,,,,17.450990463
1716270369843670712,0.072,,,,17.45868497
1716270369851365219,0.081,,,,17.466379477
1716270369859059726,0.081,,,,17.474073984
1716270369866754233,0.079,,,,17.481768491
1716270369874448740,0.084,,,,17.489462998
1716270369882143247,0.074,,,,17.497157505
1716270369889837754,0.064,,,,17.504852012
1716270369897532261,0.069,,,,17.512546519
1716270369905226768,0.067,,,,17.520241026
1716270369912921275,0.055,,,,17.527935533
1716270369920615782,0.04,,,,17.53563004
1716270369928310289,0.021,,,,17.543324547
1716270369936004796,0.024,,,,17.551019054
1716270369943699303,0.052,,,,17.558713561
1716270369951393810,0.079,,,,17.566408068
1716270369959088317,0.093,,,,17.574102575
1716270369966782824,0.091,,,,17.581797082
1716270369974477331,0.072,,,,17.589491589
1716270369982171838,0.057,,,,17.597186096
1716270369989866345,0.06,,,,17.604880603
1716270369997560852,0.06,,,,17.61257511
1716270370005255359,0.057,,,,17.620269617
1716270370012949866,0.028,,,,17.627964124
1716270370020644373,-0.05,,,,17.635658631
1716270370028338880,0.004,,,,17.643353138
1716270370036033387,0.507,,,,17.651047645
1716270370043727894,1.337,,,,17.658742152
1716270370051422401,1.781,,,,17.666436659
1716270370059116908,1.12,,,,17.674131166
1716270370066811415,-0.036,,,,17.681825673
1716270370074505922,-0.286,,,,17.68952018
1716270370082200429,0.055,,,,17.697214687
1716270370089894936,-0.024,,,,17.704909194
1716270370097589443,-0.175,,,,17.712603701
1716270370105283950,-0.069,,,,17.720298208
1716270370112978457,-0.048,,,,17.727992715
1716270370120672964,-0.103,,,,17.735687222
1716270370128367471,-0.064,,,,17.743381729
1716270370136061978,-0.026,,,,17.751076236
1716270370143756485,-0.036,,,,17.758770743
1716270370151450992,-0.036,,,,17.76646525
1716270370159145499,-0.012,,,,17.774159757
1716270370166840006,-0.007,,,,17.781854264
1716270370174534513,-0.004,,,,17.789548771
1716270370182229020,0.0,,,,17.797243278
1716270370189923527,0.0,,,,17.804937785
1716270370197618034,0.004,,,,17.812632292
1716270370205312541,0.009,,,,17.820326799
1716270370213007048,0.002,,,,17.828021306
1716270370220701555,0.009,,,,17.835715813
1716270370228396062,0.036,,,,17.84341032
1716270370236090569,0.06,,,,17.851104827
1716270370243785076,0.072,,,,17.858799334
1716270370251479583,0.079,,,,17.866493841
1716270370259174090,0.079,,,,17.874188348
1716270370266868597,0.072,,,,17.881882855
1716270370274563104,0.064,,,,17.889577362
1716270370282257611,0.067,,,,17.897271869
1716270370289952118,0.076,,,,17.904966376
1716270370297646625,0.079,,,,17.912660883
1716270370305341132,0.076,,,,17.92035539
1716270370313035639,0.091,,485.0,,17.928049897
1716270370320730146,0.098,,,,17.935744404
1716270370328424653,0.091,,,,17.943438911
1716270370336119160,0.096,,,,17.951133418
1716270370343813667,0.101,,,,17.958827925
1716270370351508174,0.096,,,,17.966522432
1716270370359202720,0.101,122.0,,,17.974216978
1716270370366897366,0.108,,,,17.981911624
1716270370374592012,0.103,,,,17.98960627
1716270370382286658,0.093,,,,17.997300916
1716270370389981304,0.084,,,,18.004995562
1716270370397675950,0.072,,,,18.012690208
1716270370405370596,0.062,,,,18.020384854
1716270370413065242,0.052,,,,18.0280795
1716270370420759888,0.045,,,,18.035774146
1716270370428454534,0.05,,,,18.043468792
1716270370436149180,0.062,,,,18.051163438
1716270370443843826,0.079,,,,18.058858084
1716270370451538472,0.098,,,,18.06655273
1716270370459233118,0.101,,,,18.074247376
1716270370466927764,0.081,,,,18.081942022
1716270370474622410,0.064,,,,18.089636668
1716270370482317056,0.062,,,,18.097331314
1716270370490011702,0.067,,,,18.10502596
1716270370497706348,0.057,,,,18.112720606
1716270370505400994,0.009,,,,18.120415252
1716270370513095640,-0.055,,,,18.128109898
1716270370520790286,0.108,,,,18.135804544
1716270370528484932,0.719,,,,18.14349919
1716270370536179578,1.5,,,,18.151193836
1716270370543874224,1.685,,,,18.158888482
1716270370551568870,0.798,,,,18.166583128
1716270370559263516,-0.192,,,,18.174277774
1716270370566958162,-0.189,,,,18.18197242
1716270370574652808,0.069,,,,18.189667066
1716270370582347454,-0.088,,,,18.197361712
1716270370590042100,-0.153,,,,18.205056358
1716270370597736746,-0.036,,,,18.212751004
1716270370605431392,-0.048,,,,18.22044565
1716270370613126038,-0.093,,,,18.228140296
1716270370620820684,-0.06,,,,18.235834942
1716270370628515330,-0.033,,,,18.243529588
1716270370636209976,-0.043,,,,18.251224234
1716270370643904622,-0.038,,,,18.25891888
1716270370651599268,-0.024,,,,18.266613526
1716270370659293914,-0.007,,,,18.274308172
1716270370666988560,0.007,,,,18.282002818
1716270370674683206,0.009,,,,18.289697464
1716270370682377852,0.009,,,,18.29739211
1716270370690072498,0.016,,,,18.305086756
1716270370697767144,0.012,,,,18.312781402
1716270370705461790,0.014,,,,18.320476048
1716270370713156436,0.033,,,,18.328170694
1716270370720851082,0.052,,,,18.33586534
1716270370728545728,0.072,,,,18.343559986
1716270370736240374,0.088,,,,18.351254632
1716270370743935020,0.084,,,,18.358949278
1716270370751629666,0.074,,,,18.366643924
1716270370759324312,0.074,,,,18.37433857
1716270370767018958,0.064,,,,18.382033216
1716270370774713604,0.057,,,,18.389727862
1716270370782408250,0.06,,,,18.397422508
1716270370790102896,0.062,,483.0,,18.405117154
1716270370797797542,0.067,,,,18.4128118
1716270370805492188,0.076,,,,18.420506446
1716270370813186834,0.076,,,,18.428201092
1716270370820881480,0.074,,,,18.435895738
1716270370828576126,0.081,,,,18.443590384
1716270370836270772,0.086,,,,18.45128503
1716270370843965418,0.088,,,,18.458979676
1716270370851660064,0.088,,,,18.466674322
1716270370859354710,0.086,,,,18.474368968
1716270370867049356,0.088,,,,18.482063614
1716270370874744002,0.084,,,,18.48975826
1716270370882438648,0.067,,,,18.497452906
1716270370890133294,0.064,,,,18.505147552
1716270370897827940,0.067,,,,18.512842198
1716270370905522586,0.045,,,,18.520536844
1716270370913217232,0.033,,,,18.52823149
1716270370920911940,0.048,,,,18.535926198
1716270370928606308,0.067,,,,18.543620566
1716270370936300676,0.088,,,,18.551314934
1716270370943995044,0.098,,,,18.559009302
1716270370951689412,0.079,,,,18.56670367
1716270370959383780,0.067,,,,18.574398038
1716270370967078148,0.072,,,,18.582092406
1716270370974772516,0.072,,,,18.589786774
1716270370982466884,0.064,,,,18.597481142
1716270370990161252,0.043,,,,18.60517551
1716270370997855620,-0.026,,,,18.612869878
1716270371005549988,-0.021,,,,18.620564246
1716270371013244356,0.353,,,,18.628258614
1716270371020938724,1.094,,,,18.635952982
1716270371028633092,1.623,,,,18.64364735
1716270371036327460,1.219,,,,18.651341718
1716270371044021828,0.158,,,,18.659036086
1716270371051716196,-0.286,,,,18.666730454
1716270371059410564,-0.021,,,,18.674424822
1716270371067104932,-0.007,,,,18.68211919
1716270371074799300,-0.173,,,,18.689813558
1716270371082493668,-0.103,,,,18.697507926
1716270371090188036,-0.043,,,,18.705202294
1716270371097882404,-0.091,,,,18.712896662
1716270371105576772,-0.079,,,,18.72059103
1716270371113271140,-0.04,,,,18.728285398
1716270371120965508,-0.05,,,,18.735979766
1716270371128659876,-0.055,,,,18.743674134
1716270371136354244,-0.033,,,,18.751368502
1716270371144048612,-0.019,,,,18.75906287
1716270371151742980,-0.016,,,,18.766757238
1716270371159437348,0.002,,,,18.774451606
1716270371167131716,0.014,,,,18.782145974
1716270371174826084,0.016,,,,18.789840342
1716270371182520452,0.021,,,,18.79753471
1716270371190214820,0.021,,,,18.805229078
1716270371197909188,0.036,,,,18.812923446
1716270371205603556,0.067,,,,18.820617814
1716270371213297924,0.081,,,,18.828312182
1716270371220992292,0.079,,,,18.83600655
1716270371228686660,0.069,,,,18.843700918
1716270371236381028,0.06,,,,18.851395286
1716270371244075396,0.062,,,,18.859089654
1716270371251769764,0.06,,,,18.866784022
1716270371259464132,0.048,,,,18.87447839
1716270371267158500,0.045,,,,18.882172758
1716270371274852868,0.052,,482.0,,18.889867126
1716270371282547236,0.05,,,,18.897561494
1716270371290241604,0.05,,,,18.905255862
1716270371297935972,0.055,,,,18.91295023
1716270371305630340,0.057,,,,18.920644598
1716270371313324708,0.062,,,,18.928338966
1716270371321019076,0.067,,,,18.936033334
1716270371328713444,0.067,,,,18.943727702
1716270371336407812,0.064,,,,18.95142207
1716270371344102180,0.064,,,,18.959116438
1716270371351796548,0.064,,,,18.966810806
1716270371359490916,0.057,,,,18.974505174
1716270371367185284,0.052,,,,18.982199542
1716270371374879652,0.057,,,,18.98989391
1716270371382574020,0.052,,,,18.997588278
1716270371390268388,0.033,,,,19.005282646
1716270371397962756,0.026,,,,19.012977014
1716270371405657124,0.04,,,,19.020671382
1716270371413351492,0.048,,,,19.02836575
1716270371421045860,0.05,,,,19.036060118
1716270371428740228,0.069,,,,19.043754486
1716270371436434596,0.079,,,,19.051448854
1716270371444128964,0.052,,,,19.059143222
1716270371451823332,0.033,,,,19.06683759
1716270371459517700,0.045,,,,19.074531958
1716270371467212068,0.043,,,,19.082226326
1716270371474906436,0.031,,,,19.089920694
1716270371482600818,0.007,122.0,,,19.097615076
1716270371490295604,-0.05,,,,19.105309862
1716270371497990390,0.052,,,,19.113004648
1716270371505685176,0.5650000000000001,,,,19.120699434
1716270371513379962,1.291,,,,19.12839422
1716270371521074748,1.536,,,,19.136089006
1716270371528769534,0.788,,,,19.143783792
1716270371536464320,-0.173,,,,19.151478578
1716270371544159106,-0.242,,,,19.159173364
1716270371551853892,0.033,,,,19.16686815
1716270371559548678,-0.079,,,,19.174562936
1716270371567243464,-0.161,,,,19.182257722
1716270371574938250,-0.057,,,,19.189952508
1716270371582633036,-0.057,,,,19.197647294
1716270371590327822,-0.096,,,,19.20534208
1716270371598022608,-0.062,,,,19.213036866
1716270371605717394,-0.04,,,,19.220731652
1716270371613412180,-0.043,,,,19.228426438
1716270371621106966,-0.036,,,,19.236121224
1716270371628801752,-0.031,,,,19.24381601
1716270371636496538,-0.016,,,,19.251510796
1716270371644191324,0.007,,,,19.259205582
1716270371651886110,0.012,,,,19.266900368
1716270371659580896,0.007,,,,19.274595154
1716270371667275682,0.016,,,,19.28228994
1716270371674970468,0.031,,,,19.289984726
1716270371682665254,0.038,,,,19.297679512
1716270371690360040,0.045,,,,19.305374298
1716270371698054826,0.072,,,,19.313069084
1716270371705749612,0.096,,,,19.32076387
1716270371713444398,0.091,,,,19.328458656
1716270371721139184,0.074,,,,19.336153442
1716270371728833970,0.067,,,,19.343848228
1716270371736528756,0.057,,,,19.351543014
1716270371744223542,0.04,,,,19.3592378
1716270371751918328,0.038,,,,19.366932586
1716270371759613114,0.043,,488.0,,19.374627372
1716270371767307900,0.033,,,,19.382322158
1716270371775002686,0.033,,,,19.390016944
1716270371782697472,0.043,,,,19.39771173
1716270371790392258,0.05,,,,19.405406516
1716270371798087044,0.052,,,,19.413101302
1716270371805781830,0.06,,,,19.420796088
1716270371813476616,0.062,,,,19.428490874
1716270371821171402,0.055,,,,19.43618566
1716270371828866188,0.055,,,,19.443880446
1716270371836560974,0.055,,,,19.451575232
1716270371844255760,0.045,,,,19.459270018
1716270371851950546,0.04,,,,19.466964804
1716270371859645332,0.04,,,,19.47465959
1716270371867340118,0.028,,,,19.482354376
1716270371875034904,0.014,,,,19.490049162
1716270371882729690,0.014,,,,19.497743948
1716270371890424476,0.021,,,,19.505438734
1716270371898119262,0.033,,,,19.51313352
1716270371905814048,0.043,,,,19.520828306
1716270371913508834,0.064,,,,19.528523092
1716270371921203620,0.079,,,,19.536217878
1716270371928898406,0.055,,,,19.543912664
1716270371936593192,0.036,,,,19.55160745
1716270371944287978,0.045,,,,19.559302236
1716270371951982764,0.055,,,,19.566997022
1716270371959677550,0.045,,,,19.574691808
1716270371967372336,0.024,,,,19.582386594
1716270371975067122,-0.036,,,,19.59008138
1716270371982761908,-0.031,,,,19.597776166
1716270371990456694,0.315,,,,19.605470952
1716270371998151480,1.007,,,,19.613165738
1716270372005846266,1.539,,,,19.620860524
1716270372013541052,1.178,,,,19.62855531
1716270372021235838,0.103,,,,19.636250096
1716270372028930624,-0.348,,,,19.643944882
1716270372036625410,-0.019,,,,19.651639668
1716270372044320212,0.016,,,,19.65933447
1716270372052014580,-0.17,,,,19.667028838
1716270372059708948,-0.101,,,,19.674723206
1716270372067403316,-0.036,,,,19.682417574
1716270372075097684,-0.084,,,,19.690111942
1716270372082792052,-0.072,,,,19.69780631
1716270372090486420,-0.036,,,,19.705500678
1716270372098180788,-0.045,,,,19.713195046
1716270372105875156,-0.04,,,,19.720889414
1716270372113569524,-0.012,,,,19.728583782
1716270372121263892,-0.007,,,,19.73627815
1716270372128958260,-0.021,,,,19.743972518
1716270372136652628,-0.012,,,,19.751666886
1716270372144346996,0.007,,,,19.759361254
1716270372152041364,0.012,,,,19.767055622
1716270372159735732,0.009,,,,19.77474999
1716270372167430100,0.014,,,,19.782444358
1716270372175124468,0.024,,,,19.790138726
1716270372182818836,0.045,,,,19.797833094
1716270372190513204,0.067,,,,19.805527462
1716270372198207572,0.064,,,,19.81322183
1716270372205901940,0.055,,,,19.820916198
1716270372213596308,0.048,,,,19.828610566
1716270372221290676,0.038,,,,19.836304934
1716270372228985044,0.028,,,,19.843999302
1716270372236679412,0.024,,,,19.85169367
1716270372244373780,0.026,,,,19.859388038
1716270372252068148,0.031,,,,19.867082406
1716270372259762516,0.028,,495.0,,19.874776774
1716270372267456884,0.031,,,,19.882471142
1716270372275151252,0.038,,,,19.89016551
1716270372282845620,0.045,,,,19.897859878
1716270372290539988,0.052,,,,19.905554246
1716270372298234356,0.048,,,,19.913248614
1716270372305928724,0.043,,,,19.920942982
1716270372313623092,0.05,,,,19.92863735
1716270372321317460,0.048,,,,19.936331718
1716270372329011828,0.04,,,,19.944026086
1716270372336706196,0.043,,,,19.951720454
1716270372344400564,0.038,,,,19.959414822
1716270372352094932,0.019,,,,19.96710919
1716270372359789300,0.016,,,,19.974803558
1716270372367483668,0.031,,,,19.982497926
1716270372375178036,0.038,,,,19.990192294
1716270372382872404,0.033,,,,19.997886662
1716270372390566772,0.05,,,,20.00558103
1716270372398261140,0.079,,,,20.013275398
1716270372405955508,0.074,,,,20.020969766
1716270372413649876,0.043,,,,20.028664134
1716270372421344244,0.04,,,,20.036358502
1716270372429038612,0.062,,,,20.04405287
1716270372436732980,0.062,,,,20.051747238
1716270372444427348,0.043,,,,20.059441606
1716270372452121716,-0.009,,,,20.067135974
1716270372459816084,-0.064,,,,20.074830342
1716270372467510452,0.113,,,,20.08252471
1716270372475204820,0.704,,,,20.090219078
1716270372482899188,1.435,,,,20.097913446
1716270372490593556,1.543,,,,20.105607814
1716270372498287924,0.601,,,,20.113302182
1716270372505982292,-0.305,,,,20.12099655
1716270372513676660,-0.168,,,,20.128690918
1716270372521371028,0.098,,,,20.136385286
1716270372529065396,-0.093,,,,20.144079654
1716270372536759764,-0.139,,,,20.151774022
1716270372544454132,-0.021,,,,20.15946839
1716270372552148500,-0.05,,,,20.167162758
1716270372559842868,-0.084,,,,20.174857126
1716270372567537236,-0.033,,,,20.182551494
1716270372575231604,-0.012,,,,20.190245862
1716270372582925972,-0.028,,,,20.19794023
1716270372590620340,-0.014,,,,20.205634598
1716270372598314708,0.019,,,,20.213328966
1716270372606009088,0.028,122.0,,,20.221023346
1716270372613703665,0.026,,,,20.228717923
1716270372621398242,0.036,,,,20.2364125
1716270372629092819,0.036,,,,20.244107077
1716270372636787396,0.031,,,,20.251801654
1716270372644481973,0.033,,,,20.259496231
1716270372652176550,0.036,,,,20.267190808
1716270372659871127,0.04,,,,20.274885385
1716270372667565704,0.057,,,,20.282579962
1716270372675260281,0.074,,,,20.290274539
1716270372682954858,0.072,,,,20.297969116
1716270372690649435,0.06,,,,20.305663693
1716270372698344012,0.048,,,,20.31335827
1716270372706038589,0.031,,,,20.321052847
1716270372713733166,0.021,,,,20.328747424
1716270372721427743,0.026,,,,20.336442001
1716270372729122320,0.026,,,,20.344136578
1716270372736816897,0.021,,,,20.351831155
1716270372744511474,0.024,,,,20.359525732
1716270372752206051,0.038,,494.0,,20.367220309
1716270372759900628,0.05,,,,20.374914886
1716270372767595205,0.052,,,,20.382609463
1716270372775289782,0.052,,,,20.39030404
1716270372782984359,0.055,,,,20.397998617
1716270372790678936,0.057,,,,20.405693194
1716270372798373513,0.055,,,,20.413387771
1716270372806068090,0.045,,,,20.421082348
1716270372813762667,0.036,,,,20.428776925
1716270372821457244,0.031,,,,20.436471502
1716270372829151821,0.024,,,,20.444166079
1716270372836846398,0.014,,,,20.451860656
1716270372844540975,0.007,,,,20.459555233
1716270372852235552,0.014,,,,20.46724981
1716270372859930129,0.028,,,,20.474944387
1716270372867624706,0.048,,,,20.482638964
1716270372875319283,0.057,,,,20.490333541
1716270372883013860,0.043,,,,20.498028118
1716270372890708437,0.021,,,,20.505722695
1716270372898403014,0.028,,,,20.513417272
1716270372906097591,0.05,,,,20.521111849
1716270372913792168,0.052,,,,20.528806426
1716270372921486745,0.04,,,,20.536501003
1716270372929181322,-0.026,,,,20.54419558
1716270372936875899,-0.091,,,,20.551890157
1716270372944570476,0.173,,,,20.559584734
1716270372952265053,0.909,,,,20.567279311
1716270372959959630,1.637,,,,20.574973888
1716270372967654207,1.486,,,,20.582668465
1716270372975348784,0.358,,,,20.590363042
1716270372983043361,-0.36,,,,20.598057619
1716270372990737938,-0.079,,,,20.605752196
1716270372998432515,0.064,,,,20.613446773
1716270373006127092,-0.156,,,,20.62114135
1716270373013821669,-0.125,,,,20.628835927
1716270373021516246,-0.019,,,,20.636530504
1716270373029210823,-0.076,,,,20.644225081
1716270373036905400,-0.088,,,,20.651919658
1716270373044599977,-0.036,,,,20.659614235
1716270373052294554,-0.028,,,,20.667308812
1716270373059989131,-0.033,,,,20.675003389
1716270373067683708,-0.014,,,,20.682697966
1716270373075378285,-0.009,,,,20.690392543
1716270373083072862,-0.007,,,,20.69808712
1716270373090767439,0.009,,,,20.705781697
1716270373098462016,0.012,,,,20.713476274
1716270373106156593,0.002,,,,20.721170851
1716270373113851170,0.007,,,,20.728865428
1716270373121545747,0.016,,,,20.736560005
1716270373129240324,0.007,,,,20.744254582
1716270373136934901,0.002,,,,20.751949159
1716270373144629478,0.026,,,,20.759643736
1716270373152324055,0.052,,,,20.767338313
1716270373160018632,0.064,,,,20.77503289
1716270373167713224,0.062,,,,20.782727482
1716270373175407801,0.057,,,,20.790422059
1716270373183102378,0.055,,,,20.798116636
1716270373190796955,0.055,,,,20.805811213
1716270373198491532,0.057,,,,20.81350579
1716270373206186109,0.062,,,,20.821200367
1716270373213880686,0.05,,,,20.828894944
1716270373221575263,0.043,,,,20.836589521
1716270373229269840,0.052,,,,20.844284098
1716270373236964417,0.06,,,,20.851978675
1716270373244658994,0.06,,490.0,,20.859673252
1716270373252353571,0.062,,,,20.867367829
1716270373260048148,0.062,,,,20.875062406
1716270373267742725,0.057,,,,20.882756983
1716270373275437302,0.06,,,,20.89045156
1716270373283131879,0.062,,,,20.898146137
1716270373290826456,0.06,,,,20.905840714
1716270373298521033,0.062,,,,20.913535291
1716270373306215610,0.05,,,,20.921229868
1716270373313910187,0.031,,,,20.928924445
1716270373321604764,0.028,,,,20.936619022
1716270373329299341,0.038,,,,20.944313599
1716270373336993918,0.045,,,,20.952008176
1716270373344688495,0.062,,,,20.959702753
1716270373352383072,0.081,,,,20.96739733
1716270373360077649,0.086,,,,20.975091907
1716270373367772226,0.069,,,,20.982786484
1716270373375466803,0.05,,,,20.990481061
1716270373383161380,0.055,,,,20.998175638
1716270373390855957,0.064,,,,21.005870215
1716270373398550534,0.06,,,,21.013564792
1716270373406245111,0.009,,,,21.021259369
1716270373413939688,-0.062,,,,21.028953946
1716270373421634265,0.088,,,,21.036648523
1716270373429328842,0.6990000000000001,,,,21.0443431
1716270373437023419,1.502,,,,21.052037677
1716270373444717996,1.69,,,,21.059732254
1716270373452412573,0.783,,,,21.067426831
1716270373460107150,-0.204,,,,21.075121408
1716270373467801727,-0.177,,,,21.082815985
1716270373475496304,0.091,,,,21.090510562
1716270373483190881,-0.081,,,,21.098205139
1716270373490885458,-0.153,,,,21.105899716
1716270373498580035,-0.028,,,,21.113594293
1716270373506274612,-0.026,,,,21.12128887
1716270373513969189,-0.057,,,,21.128983447
1716270373521663766,-0.016,,,,21.136678024
1716270373529358343,-0.007,,,,21.144372601
1716270373537052920,-0.021,,,,21.152067178
1716270373544747497,-0.007,,,,21.159761755
1716270373552442074,0.007,,,,21.167456332
1716270373560136651,0.012,,,,21.175150909
1716270373567831228,0.021,,,,21.182845486
1716270373575525805,0.028,,,,21.190540063
1716270373583220382,0.028,,,,21.19823464
1716270373590914959,0.038,,,,21.205929217
1716270373598609536,0.043,,,,21.213623794
1716270373606304113,0.028,,,,21.221318371
1716270373613998690,0.036,,,,21.229012948
1716270373621693267,0.072,,,,21.236707525
1716270373629387844,0.086,,,,21.244402102
1716270373637082421,0.074,,,,21.252096679
1716270373644776998,0.074,,,,21.259791256
1716270373652471575,0.081,,,,21.267485833
1716270373660166152,0.074,,,,21.27518041
1716270373667860729,0.062,,,,21.282874987
1716270373675555306,0.06,,,,21.290569564
1716270373683249883,0.057,,,,21.298264141
1716270373690944460,0.052,,,,21.305958718
1716270373698639037,0.055,,,,21.313653295
1716270373706333614,0.064,,,,21.321347872
1716270373714028191,0.069,,,,21.329042449
1716270373721722768,0.067,,,,21.336737026
1716270373729417358,0.069,122.0,488.0,,21.344431616
1716270373737111726,0.081,,,,21.352125984
1716270373744806094,0.084,,,,21.359820352
1716270373752500462,0.081,,,,21.36751472
1716270373760194830,0.081,,,,21.375209088
1716270373767889198,0.076,,,,21.382903456
1716270373775583566,0.074,,,,21.390597824
1716270373783277934,0.069,,,,21.398292192
1716270373790972302,0.055,,,,21.40598656
1716270373798666670,0.04,,,,21.413680928
1716270373806361038,0.033,,,,21.421375296
1716270373814055406,0.031,,,,21.429069664
1716270373821749774,0.043,,,,21.436764032
1716270373829444142,0.062,,,,21.4444584
1716270373837138510,0.079,,,,21.452152768
1716270373844832878,0.081,,,,21.459847136
1716270373852527246,0.067,,,,21.467541504
1716270373860221614,0.057,,,,21.475235872
1716270373867915982,0.062,,,,21.48293024
1716270373875610350,0.062,,,,21.490624608
1716270373883304718,0.064,,,,21.498318976
1716270373890999086,0.036,,,,21.506013344
1716270373898693454,-0.04,,,,21.513707712
1716270373906387822,0.004,,,,21.52140208
1716270373914082190,0.471,,,,21.529096448
1716270373921776558,1.279,,,,21.536790816
1716270373929470926,1.726,,,,21.544485184
1716270373937165294,1.108,,,,21.552179552
1716270373944859662,-0.007,,,,21.55987392
1716270373952554030,-0.281,,,,21.567568288
1716270373960248398,0.036,,,,21.575262656
1716270373967942766,-0.016,,,,21.582957024
1716270373975637134,-0.158,,,,21.590651392
1716270373983331502,-0.062,,,,21.59834576
1716270373991025870,-0.031,,,,21.606040128
1716270373998720238,-0.079,,,,21.613734496
1716270374006414606,-0.048,,,,21.621428864
1716270374014108974,-0.016,,,,21.629123232
1716270374021803342,-0.026,,,,21.6368176
1716270374029497710,-0.016,,,,21.644511968
1716270374037192078,0.004,,,,21.652206336
1716270374044886446,0.004,,,,21.659900704
1716270374052580814,0.012,,,,21.667595072
1716270374060275182,0.028,,,,21.67528944
1716270374067969550,0.033,,,,21.682983808
1716270374075663918,0.033,,,,21.690678176
1716270374083358286,0.036,,,,21.698372544
1716270374091052654,0.031,,,,21.706066912
1716270374098747022,0.045,,,,21.71376128
1716270374106441390,0.079,,,,21.721455648
1716270374114135758,0.101,,,,21.729150016
1716270374121830126,0.098,,,,21.736844384
1716270374129524494,0.093,,,,21.744538752
1716270374137218862,0.093,,,,21.75223312
1716270374144913230,0.079,,,,21.759927488
1716270374152607598,0.06,,,,21.767621856
1716270374160301966,0.06,,,,21.775316224
1716270374167996334,0.06,,,,21.783010592
1716270374175690702,0.05,,,,21.79070496
1716270374183385070,0.043,,,,21.798399328
1716270374191079438,0.043,,,,21.806093696
1716270374198773806,0.045,,,,21.813788064
1716270374206468174,0.057,,,,21.821482432
1716270374214162542,0.069,,,,21.8291768
1716270374221856910,0.072,,489.0,,21.836871168
1716270374229551278,0.069,,,,21.844565536
1716270374237245646,0.072,,,,21.852259904
1716270374244940014,0.074,,,,21.859954272
1716270374252634382,0.072,,,,21.86764864
1716270374260328750,0.069,,,,21.875343008
1716270374268023118,0.067,,,,21.883037376
1716270374275717486,0.064,,,,21.890731744
1716270374283411854,0.057,,,,21.898426112
1716270374291106234,0.043,123.0,,,21.906120492
1716270374298801020,0.033,,,,21.913815278
1716270374306495806,0.04,,,,21.921510064
1716270374314190592,0.052,,,,21.92920485
1716270374321885378,0.064,,,,21.936899636
1716270374329580164,0.079,,,,21.944594422
1716270374337274950,0.079,,,,21.952289208
1716270374344969736,0.057,,,,21.959983994
1716270374352664522,0.05,,,,21.96767878
1716270374360359308,0.052,,,,21.975373566
1716270374368054094,0.055,,,,21.983068352
1716270374375748880,0.055,,,,21.990763138
1716270374383443666,0.002,,,,21.998457924
1716270374391138452,-0.062,,,,22.00615271
1716270374398833238,0.153,,,,22.013847496
1716270374406528024,0.8290000000000001,,,,22.021542282
1716270374414222810,1.567,,,,22.029237068
1716270374421917596,1.551,,,,22.036931854
1716270374429612382,0.529,,,,22.04462664
1716270374437307168,-0.303,,,,22.052321426
1716270374445001954,-0.139,,,,22.060016212
1716270374452696740,0.06,,,,22.067710998
1716270374460391526,-0.125,,,,22.075405784
1716270374468086312,-0.137,,,,22.08310057
1716270374475781098,-0.033,,,,22.090795356
1716270374483475884,-0.062,,,,22.098490142
1716270374491170670,-0.079,,,,22.106184928
1716270374498865456,-0.036,,,,22.113879714
1716270374506560242,-0.036,,,,22.1215745
1716270374514255028,-0.043,,,,22.129269286
1716270374521949814,-0.012,,,,22.136964072
1716270374529644600,0.007,,,,22.144658858
1716270374537339386,0.009,,,,22.152353644
1716270374545034172,0.016,,,,22.16004843
1716270374552728958,0.026,,,,22.167743216
1716270374560423744,0.036,,,,22.175438002
1716270374568118530,0.04,,,,22.183132788
1716270374575813316,0.04,,,,22.190827574
