HRV_ULF,HRV_VLF,HRV_LF,HRV_HF,HRV_VHF,HRV_TP,HRV_LFHF,HRV_LFn,HRV_HFn,HRV_LnHF,time
,,0.021787480721245263,0.03431424944003763,0.0006081484434295834,0.05670987860471247,0.6349397430160247,0.3841919830777908,0.6050841631882137,-3.372194575510097,0.0
,,0.021787480721245263,0.03431424944003763,0.0006081484434295834,0.05670987860471247,0.6349397430160247,0.3841919830777908,0.6050841631882137,-3.372194575510097,0.1
,,0.022381824138795324,0.0357611553287022,0.0005347917473107734,0.0586777712148083,0.6319164007648618,0.38143616697470784,0.6094497897302085,-3.330893021349097,0.2
,,0.022381824138795324,0.0357611553287022,0.0005347917473107734,0.0586777712148083,0.6304047296392804,0.38143616697470784,0.6094497897302085,-3.330893021349097,0.3
,,0.02221191698776249,0.03705592870124788,0.0005927618239389405,0.05986060751294932,0.6242069860288688,0.3710606676178071,0.6190369633858422,-3.295326921114636,0.4
,,0.02221191698776249,0.03705592870124788,0.0005927618239389405,0.05986060751294932,0.6200751569552612,0.3710606676178071,0.6190369633858422,-3.295326921114636,0.5
,,0.02221191698776249,0.03705592870124788,0.0005927618239389405,0.05986060751294932,0.6171238504741128,0.3710606676178071,0.6190369633858422,-3.295326921114636,0.6
,,0.02221191698776249,0.03705592870124788,0.0005927618239389405,0.05986060751294932,0.6149103706132515,0.3710606676178071,0.6190369633858422,-3.295326921114636,0.7
,,0.013291397068128832,0.015210341706603042,0.00023580697101657474,0.02873754574574845,0.6436802715145693,0.4625098185392264,0.5292846452920679,-4.18577970704593,0.8
,,0.013291397068128832,0.015210341706603042,0.00023580697101657474,0.02873754574574845,0.6666961922356236,0.4625098185392264,0.5292846452920679,-4.18577970704593,0.9
,,0.022964837967099215,0.04005202259595922,0.0006956142076050979,0.06371247477066354,0.6582124690750835,0.3604449214971225,0.6286370564026686,-3.2175761049711746,1.0
,,0.022964837967099215,0.04005202259595922,0.0006956142076050979,0.06371247477066354,0.6511426997746335,0.3604449214971225,0.6286370564026686,-3.2175761049711746,1.1
,,0.022964837967099215,0.04005202259595922,0.0006956142076050979,0.06371247477066354,0.6451605872896372,0.3604449214971225,0.6286370564026686,-3.2175761049711746,1.2
,,0.022964837967099215,0.04005202259595922,0.0006956142076050979,0.06371247477066354,0.6400330623024976,0.3604449214971225,0.6286370564026686,-3.2175761049711746,1.3
,,0.022964837967099215,0.04005202259595922,0.0006956142076050979,0.06371247477066354,0.6355892073136432,0.3604449214971225,0.6286370564026686,-3.2175761049711746,1.4
,,0.024504020377849735,0.04296023575984627,0.0007427032088331223,0.06820695934652914,0.6315141572044906,0.35925982645488913,0.6298512083141615,-3.1474803409044476,1.5
,,0.024447324903124935,0.04393889450484009,0.0008345282457852635,0.06922074765375029,0.6270953078726779,0.3531791512194164,0.6347648067112367,-3.124955371540166,1.6
,,0.024447324903124935,0.04393889450484009,0.0008345282457852635,0.06922074765375029,0.6231674417999553,0.3531791512194164,0.6347648067112367,-3.124955371540166,1.7
,,0.024447324903124935,0.04393889450484009,0.0008345282457852635,0.06922074765375029,0.6196530353138353,0.3531791512194164,0.6347648067112367,-3.124955371540166,1.8
,,0.024447324903124935,0.04393889450484009,0.0008345282457852635,0.06922074765375029,0.6164900694763272,0.3531791512194164,0.6347648067112367,-3.124955371540166,1.9
,,0.024447324903124935,0.04393889450484009,0.0008345282457852635,0.06922074765375029,0.6136283384804865,0.3531791512194164,0.6347648067112367,-3.124955371540166,2.0
,,0.026262412021931567,0.04703977303930233,0.0008834190530527477,0.07418560411428665,0.61111351714128,0.35400954586112154,0.6340822266114488,-3.0567618002481685,2.1
,,0.026237075310206342,0.04769786986744276,0.000996419812422577,0.07493136499007168,0.6084593673467998,0.3501481030498073,0.6365541302198708,-3.042868538952017,2.2
,,0.026237075310206342,0.04769786986744276,0.000996419812422577,0.07493136499007168,0.6060263967018598,0.3501481030498073,0.6365541302198708,-3.042868538952017,2.3
,,0.026237075310206342,0.04769786986744276,0.000996419812422577,0.07493136499007168,0.6037880637085149,0.3501481030498073,0.6365541302198708,-3.042868538952017,2.4
,,0.026237075310206342,0.04769786986744276,0.000996419812422577,0.07493136499007168,0.6017219101761966,0.3501481030498073,0.6365541302198708,-3.042868538952017,2.5
,,0.026237075310206342,0.04769786986744276,0.000996419812422577,0.07493136499007168,0.5998088050536795,0.3501481030498073,0.6365541302198708,-3.042868538952017,2.6
,,0.026237075310206342,0.04769786986744276,0.000996419812422577,0.07493136499007168,0.5980323502970567,0.3501481030498073,0.6365541302198708,-3.042868538952017,2.7
,,0.026225775322146656,0.04810201754487991,0.0012394369535865363,0.0755672298206131,0.5962109432313862,0.347052226003299,0.6365459956527177,-3.034431157950082,2.8
,,0.028553261975725115,0.05156924396691603,0.0011795365175135588,0.0813020424601547,0.5947935055994221,0.3511998113665936,0.6342921088629426,-2.964829831354132,2.9
,,0.028553261975725115,0.05156924396691603,0.0011795365175135588,0.0813020424601547,0.593467515556617,0.3511998113665936,0.6342921088629426,-2.964829831354132,3.0
,,0.028553261975725115,0.05156924396691603,0.0011795365175135588,0.0813020424601547,0.5922243998914871,0.3511998113665936,0.6342921088629426,-2.964829831354132,3.1
,,0.028553261975725115,0.05156924396691603,0.0011795365175135588,0.0813020424601547,0.5910566245696984,0.3511998113665936,0.6342921088629426,-2.964829831354132,3.2
,,0.028553261975725115,0.05156924396691603,0.0011795365175135588,0.0813020424601547,0.5899575419138975,0.3511998113665936,0.6342921088629426,-2.964829831354132,3.3
,,0.028638375560290575,0.051695929614497906,0.0014474734166445846,0.08178177859143307,0.5889295372412428,0.3501803953587596,0.6321203879994025,-2.962376231427966,3.4
,,0.03172833568241923,0.055814463949878663,0.0013923401716624678,0.08893513980396035,0.5883609616317335,0.35675814703117315,0.6275861720452729,-2.8857222326128253,3.5
,,0.03172833568241923,0.055814463949878663,0.0013923401716624678,0.08893513980396035,0.5878231198389542,0.35675814703117315,0.6275861720452729,-2.8857222326128253,3.6
,,0.03172833568241923,0.055814463949878663,0.0013923401716624678,0.08893513980396035,0.5873135855089529,0.35675814703117315,0.6275861720452729,-2.8857222326128253,3.7
,,0.03172833568241923,0.055814463949878663,0.0013923401716624678,0.08893513980396035,0.5868301811445925,0.35675814703117315,0.6275861720452729,-2.8857222326128253,3.8
,,0.03172833568241923,0.055814463949878663,0.0013923401716624678,0.08893513980396035,0.5863709469984503,0.35675814703117315,0.6275861720452729,-2.8857222326128253,3.9
,,0.03200387443796151,0.05589381011187048,0.0016961134340506084,0.0895937979838826,0.5860346682466158,0.3572108243889696,0.6238580277836357,-2.8843016364035963,4.0
,,0.03200387443796151,0.05589381011187048,0.0016961134340506084,0.0895937979838826,0.585714402768678,0.3572108243889696,0.6238580277836357,-2.8843016364035963,4.1
,,0.036825068928927215,0.061927752147824595,0.0016738019312169821,0.1004266230079688,0.5859221063804074,0.3666863210764855,0.6166467645029811,-2.781786861351256,4.2
,,0.036825068928927215,0.061927752147824595,0.0016738019312169821,0.1004266230079688,0.5861203689188763,0.3666863210764855,0.6166467645029811,-2.781786861351256,4.3
,,0.036825068928927215,0.061927752147824595,0.0016738019312169821,0.1004266230079688,0.5863098197889689,0.3666863210764855,0.6166467645029811,-2.781786861351256,4.4
,,0.036825068928927215,0.061927752147824595,0.0016738019312169821,0.1004266230079688,0.5864910336647096,0.3666863210764855,0.6166467645029811,-2.781786861351256,4.5
,,0.03712674601343037,0.061504102574610045,0.002024066206590507,0.10065491479463093,0.5868560469626148,0.3688517951575551,0.6110392393664891,-2.7886513978643355,4.6
,,0.03712674601343037,0.061504102574610045,0.002024066206590507,0.10065491479463093,0.5872058513731074,0.3688517951575551,0.6110392393664891,-2.7886513978643355,4.7
,,0.04212280870580043,0.06686624243624223,0.0019620082750019235,0.11095105941704458,0.5880783089057956,0.37965215408596104,0.6026642989041172,-2.7050610365656347,4.8
,,0.04212280870580043,0.06686624243624223,0.0019620082750019235,0.11095105941704458,0.5889158681371761,0.37965215408596104,0.6026642989041172,-2.7050610365656347,4.9
,,0.04212280870580043,0.06686624243624223,0.0019620082750019235,0.11095105941704458,0.5897205819085025,0.37965215408596104,0.6026642989041172,-2.7050610365656347,5.0
,,0.04212280870580043,0.06686624243624223,0.0019620082750019235,0.11095105941704458,0.5904943451501624,0.37965215408596104,0.6026642989041172,-2.7050610365656347,5.1
,,0.041645786186060824,0.06487782506304371,0.0021426811023946175,0.10866629235149915,0.591464469730974,0.38324475129187824,0.5970372565320037,-2.7352493921930394,5.2
,,0.041645786186060824,0.06487782506304371,0.0021426811023946175,0.10866629235149915,0.5923986637717553,0.38324475129187824,0.5970372565320037,-2.7352493921930394,5.3
,,0.041645786186060824,0.06487782506304371,0.0021426811023946175,0.10866629235149915,0.5932988871201448,0.38324475129187824,0.5970372565320037,-2.7352493921930394,5.4
,,0.041645786186060824,0.06487782506304371,0.0021426811023946175,0.10866629235149915,0.594166959634663,0.38324475129187824,0.5970372565320037,-2.7352493921930394,5.5
,,0.04599753431549082,0.06824448466770298,0.0021777884326091737,0.11641980741580298,0.5955677325194749,0.3951005875761916,0.5861930730048552,-2.6846586589120576,5.6
,,0.04599753431549082,0.06824448466770298,0.0021777884326091737,0.11641980741580298,0.5969202028910175,0.3951005875761916,0.5861930730048552,-2.6846586589120576,5.7
,,0.02006586724883939,0.024200307294557542,0.0003573595490410495,0.04462353409243798,0.6008564289333747,0.44967005991217096,0.5423216198973938,-3.7213899477779044,5.8
,,0.02006586724883939,0.024200307294557542,0.0003573595490410495,0.04462353409243798,0.6046614474409865,0.44967005991217096,0.5423216198973938,-3.7213899477779044,5.9
,,0.02006586724883939,0.024200307294557542,0.0003573595490410495,0.04462353409243798,0.608341711243431,0.44967005991217096,0.5423216198973938,-3.7213899477779044,6.0
,,0.02006586724883939,0.024200307294557542,0.0003573595490410495,0.04462353409243798,0.6119032568586996,0.44967005991217096,0.5423216198973938,-3.7213899477779044,6.1
,,0.05002165030302043,0.06917830226163912,0.002395410603846128,0.12159536316850568,0.6136680137613699,0.41137794237845166,0.5689222060694247,-2.67106801665833,6.2
,,0.05002165030302043,0.06917830226163912,0.002395410603846128,0.12159536316850568,0.6153776220108317,0.41137794237845166,0.5689222060694247,-2.67106801665833,6.3
,,0.04926916350179432,0.06670070254773523,0.0025754453226900457,0.1185453113722196,0.617274279182905,0.4156146112526915,0.5626599801851476,-2.7075397931664766,6.4
,,0.04926916350179432,0.06670070254773523,0.0025754453226900457,0.1185453113722196,0.6191134618952187,0.4156146112526915,0.5626599801851476,-2.7075397931664766,6.5
,,0.04926916350179432,0.06670070254773523,0.0025754453226900457,0.1185453113722196,0.6208977436310452,0.4156146112526915,0.5626599801851476,-2.7075397931664766,6.6
,,0.04926916350179432,0.06670070254773523,0.0025754453226900457,0.1185453113722196,0.6226295464922886,0.4156146112526915,0.5626599801851476,-2.7075397931664766,6.7
,,0.04926916350179432,0.06670070254773523,0.0025754453226900457,0.1185453113722196,0.6243111521691482,0.4156146112526915,0.5626599801851476,-2.7075397931664766,6.8
,,0.05297078972368809,0.06839859368528102,0.002555172110428054,0.12392455551939716,0.6264558881811467,0.42744385486536524,0.5519373734979829,-2.6824030147217055,6.9
,,0.052313418179414053,0.06643074993747708,0.0027307565274620384,0.12147492464435317,0.6287239460458861,0.43065199120373254,0.5468680069732,-2.711595228230111,7.0
,,0.052313418179414053,0.06643074993747708,0.0027307565274620384,0.12147492464435317,0.6309290023032715,0.43065199120373254,0.5468680069732,-2.711595228230111,7.1
,,0.052313418179414053,0.06643074993747708,0.0027307565274620384,0.12147492464435317,0.6330736460604547,0.43065199120373254,0.5468680069732,-2.711595228230111,7.2
,,0.052313418179414053,0.06643074993747708,0.0027307565274620384,0.12147492464435317,0.6351603264728491,0.43065199120373254,0.5468680069732,-2.711595228230111,7.3
,,0.052313418179414053,0.06643074993747708,0.0027307565274620384,0.12147492464435317,0.6371913620742463,0.43065199120373254,0.5468680069732,-2.711595228230111,7.4
,,0.055708379156679026,0.06751354959973702,0.002689881726349706,0.12591181048276576,0.6396644189650844,0.4424396642625049,0.5361971155912969,-2.6954269664372705,7.5
,,0.055708379156679026,0.06751354959973702,0.002689881726349706,0.12591181048276576,0.6420732406120048,0.4424396642625049,0.5361971155912969,-2.6954269664372705,7.6
,,0.05467286673067618,0.06539339864725077,0.002837866143235041,0.12290413152116199,0.6445602624750713,0.4448415692296109,0.5320683514694634,-2.72733396372901,7.7
,,0.05467286673067618,0.06539339864725077,0.002837866143235041,0.12290413152116199,0.646984321759326,0.4448415692296109,0.5320683514694634,-2.72733396372901,7.8
,,0.05467286673067618,0.06539339864725077,0.002837866143235041,0.12290413152116199,0.6493477795614744,0.4448415692296109,0.5320683514694634,-2.72733396372901,7.9
,,0.05467286673067618,0.06539339864725077,0.002837866143235041,0.12290413152116199,0.6516528803808536,0.4448415692296109,0.5320683514694634,-2.72733396372901,8.0
,,0.04368677580409898,0.03509920120064968,0.0004882875241499805,0.07927426452889863,0.6588847454148936,0.5510839622885862,0.4427565668282501,-3.3495769065855283,8.1
,,0.04368677580409898,0.03509920120064968,0.0004882875241499805,0.07927426452889863,0.6659423486408844,0.5510839622885862,0.4427565668282501,-3.3495769065855283,8.2
,,0.04368677580409898,0.03509920120064968,0.0004882875241499805,0.07927426452889863,0.6728319136948279,0.5510839622885862,0.4427565668282501,-3.3495769065855283,8.3
,,0.05458857597880619,0.062132293009949054,0.003094637767626004,0.11981550675638125,0.6752525525022659,0.4556052672697882,0.5185663750209023,-2.7784894089410357,8.4
,,0.05458857597880619,0.062132293009949054,0.003094637767626004,0.11981550675638125,0.6776168973839496,0.4556052672697882,0.5185663750209023,-2.7784894089410357,8.5
,,0.05458857597880619,0.062132293009949054,0.003094637767626004,0.11981550675638125,0.6799268895097325,0.4556052672697882,0.5185663750209023,-2.7784894089410357,8.6
,,0.045759401895273874,0.0381620754396051,0.0005011895427857224,0.0844226668776647,0.685826362771938,0.5420274386923001,0.4520358909640351,-3.2659130460506933,8.7
,,0.045759401895273874,0.0381620754396051,0.0005011895427857224,0.0844226668776647,0.691593263601285,0.5420274386923001,0.4520358909640351,-3.2659130460506933,8.8
,,0.045759401895273874,0.0381620754396051,0.0005011895427857224,0.0844226668776647,0.6972320110788687,0.5420274386923001,0.4520358909640351,-3.2659130460506933,8.9
,,0.045759401895273874,0.0381620754396051,0.0005011895427857224,0.0844226668776647,0.7035002421185108,0.5420274386923001,0.4520358909640351,-3.2659130460506933,9.0
,,0.054778960333074736,0.06017437907277459,0.003058351242062817,0.11801169064791214,0.7065602110148,0.46418248931377276,0.5099018473712477,-2.810508614057148,9.1
,,0.054778960333074736,0.06017437907277459,0.003058351242062817,0.11801169064791214,0.7097209579861279,0.46418248931377276,0.5099018473712477,-2.810508614057148,9.2
,,0.06208894834952347,0.0660944581935701,0.0029066277587705388,0.1310900343018641,0.7132045965912651,0.4736359150425561,0.5041913257980606,-2.7166703753734325,9.3
,,0.06208894834952347,0.0660944581935701,0.0029066277587705388,0.1310900343018641,0.7169821652483503,0.4736359150425561,0.5041913257980606,-2.7166703753734325,9.4
,,0.06208894834952347,0.0660944581935701,0.0029066277587705388,0.1310900343018641,0.7207597339054357,0.4736359150425561,0.5041913257980606,-2.7166703753734325,9.5
,,0.06208894834952347,0.0660944581935701,0.0029066277587705388,0.1310900343018641,0.7245373025625208,0.4736359150425561,0.5041913257980606,-2.7166703753734325,9.6
,,0.0466085950840923,0.06224230321508027,0.0031435857444448126,0.11199448404361739,0.7261974028584689,0.4161686665384351,0.5557622212076032,-2.776720394413003,9.7
,,0.0466085950840923,0.06224230321508027,0.0031435857444448126,0.11199448404361739,0.7248083535195516,0.4161686665384351,0.5557622212076032,-2.776720394413003,9.8
,,0.0466085950840923,0.06224230321508027,0.0031435857444448126,0.11199448404361739,0.7234193041806344,0.4161686665384351,0.5557622212076032,-2.776720394413003,9.9
,,0.06690025900690316,0.07079079055223586,0.0030682109233227148,0.14075926048246173,0.7275489331052287,0.47528140441771344,0.5029210178399326,-2.648026363689024,10.0
,,0.06690025900690316,0.07079079055223586,0.0030682109233227148,0.14075926048246173,0.7316785620298234,0.47528140441771344,0.5029210178399326,-2.648026363689024,10.1
,,0.06690025900690316,0.07079079055223586,0.0030682109233227148,0.14075926048246173,0.735808190954418,0.47528140441771344,0.5029210178399326,-2.648026363689024,10.2
,,0.06690025900690316,0.07079079055223586,0.0030682109233227148,0.14075926048246173,0.7399378198790125,0.47528140441771344,0.5029210178399326,-2.648026363689024,10.3
,,0.06350611466450223,0.06873660202330345,0.002997660291105723,0.13524037697891142,0.7438325989579411,0.4695795448307941,0.5082550312176506,-2.6774734410880057,10.4
,,0.06350611466450223,0.06873660202330345,0.002997660291105723,0.13524037697891142,0.7477605650580087,0.4695795448307941,0.5082550312176506,-2.6774734410880057,10.5
,,0.06350611466450223,0.06873660202330345,0.002997660291105723,0.13524037697891142,0.7518440276803376,0.4695795448307941,0.5082550312176506,-2.6774734410880057,10.6
,,0.06812740420602136,0.07302446320059305,0.0030569483462344615,0.14420881575284886,0.7560278693950114,0.47242191020263957,0.5063800213555977,-2.616960781634453,10.7
,,0.06812740420602136,0.07302446320059305,0.0030569483462344615,0.14420881575284886,0.7602117111096851,0.47242191020263957,0.5063800213555977,-2.616960781634453,10.8
,,0.06812740420602136,0.07302446320059305,0.0030569483462344615,0.14420881575284886,0.764395552824359,0.47242191020263957,0.5063800213555977,-2.616960781634453,10.9
,,0.05270043892920406,0.05996354200195579,0.0006134621372813433,0.1132774430684412,0.767978674644143,0.46523330242688243,0.5293511256758008,-2.8140185347447044,11.0
,,0.05270043892920406,0.05996354200195579,0.0006134621372813433,0.1132774430684412,0.7715405903477685,0.46523330242688243,0.5293511256758008,-2.8140185347447044,11.1
,,0.05270043892920406,0.05996354200195579,0.0006134621372813433,0.1132774430684412,0.775193997130835,0.46523330242688243,0.5293511256758008,-2.8140185347447044,11.2
,,0.05270043892920406,0.05996354200195579,0.0006134621372813433,0.1132774430684412,0.7788474039139018,0.46523330242688243,0.5293511256758008,-2.8140185347447044,11.3
,,0.06713777827101713,0.07381523981080475,0.00293302590025724,0.1438860439820791,0.782841516135745,0.46660382350479446,0.5130118096790428,-2.606190067192791,11.4
,,0.06713777827101713,0.07381523981080475,0.00293302590025724,0.1438860439820791,0.7868356283575882,0.46660382350479446,0.5130118096790428,-2.606190067192791,11.5
,,0.06565626735700818,0.07450140727553238,0.002884675228551844,0.1430423498610924,0.7905157112517464,0.4589988029472852,0.5208346153980291,-2.596937264170568,11.6
,,0.06565626735700818,0.07450140727553238,0.002884675228551844,0.1430423498610924,0.7941957941459046,0.4589988029472852,0.5208346153980291,-2.596937264170568,11.7
,,0.06565626735700818,0.07450140727553238,0.002884675228551844,0.1430423498610924,0.7979298384453475,0.4589988029472852,0.5208346153980291,-2.596937264170568,11.8
,,0.06565626735700818,0.07450140727553238,0.002884675228551844,0.1430423498610924,0.8015697019794586,0.4589988029472852,0.5208346153980291,-2.596937264170568,11.9
,,0.06565626735700818,0.07450140727553238,0.002884675228551844,0.1430423498610924,0.8052095655135698,0.4589988029472852,0.5208346153980291,-2.596937264170568,12.0
,,0.06666292503721538,0.07596147253921251,0.002831671803251721,0.14545606937967961,0.8088084635273493,0.4583028079990746,0.5222296523146969,-2.5775290075069885,12.1
,,0.06666292503721538,0.07596147253921251,0.002831671803251721,0.14545606937967961,0.8124073615411285,0.4583028079990746,0.5222296523146969,-2.5775290075069885,12.2
,,0.0656215278060352,0.07729065519144775,0.0027688125978809863,0.1456809955953639,0.8156888612850144,0.4504467280571187,0.5305472747188407,-2.560182220846011,12.3
,,0.0656215278060352,0.07729065519144775,0.0027688125978809863,0.1456809955953639,0.8189671436500278,0.4504467280571187,0.5305472747188407,-2.560182220846011,12.4
,,0.0656215278060352,0.07729065519144775,0.0027688125978809863,0.1456809955953639,0.8220844989380646,0.4504467280571187,0.5305472747188407,-2.560182220846011,12.5
,,0.0656215278060352,0.07729065519144775,0.0027688125978809863,0.1456809955953639,0.8252018542261012,0.4504467280571187,0.5305472747188407,-2.560182220846011,12.6
,,0.0656215278060352,0.07729065519144775,0.0027688125978809863,0.1456809955953639,0.8283192095141375,0.4504467280571187,0.5305472747188407,-2.560182220846011,12.7
,,0.0669681339960818,0.07948796118023439,0.0027501936311501623,0.14920628880746636,0.8313640231848277,0.4488291648517343,0.5327386788823929,-2.5321497004839526,12.8
,,0.0669681339960818,0.07948796118023439,0.0027501936311501623,0.14920628880746636,0.8344088368555178,0.4488291648517343,0.5327386788823929,-2.5321497004839526,12.9
,,0.06654816527465342,0.08131407122940121,0.0026819250188503453,0.15054416152290495,0.8371402307637876,0.4420507882966173,0.5401343393647947,-2.5094361995522023,13.0
,,0.06654816527465342,0.08131407122940121,0.0026819250188503453,0.15054416152290495,0.8398716246720574,0.4420507882966173,0.5401343393647947,-2.5094361995522023,13.1
,,0.06654816527465342,0.08131407122940121,0.0026819250188503453,0.15054416152290495,0.8423578836925516,0.4420507882966173,0.5401343393647947,-2.5094361995522023,13.2
,,0.06654816527465342,0.08131407122940121,0.0026819250188503453,0.15054416152290495,0.8448441427130456,0.4420507882966173,0.5401343393647947,-2.5094361995522023,13.3
,,0.06654816527465342,0.08131407122940121,0.0026819250188503453,0.15054416152290495,0.8473304017335399,0.4420507882966173,0.5401343393647947,-2.5094361995522023,13.4
,,0.06765415131728707,0.08329385026638404,0.002665222377871576,0.1536132239615427,0.849748057199264,0.44041879710970966,0.5422309884417034,-2.485380558868563,13.5
,,0.06731071366321575,0.08471544035258682,0.0025845186763561972,0.15461067269215878,0.8518692133754419,0.43535619172446355,0.5479275064099973,-2.4684573993381616,13.6
,,0.06731071366321575,0.08471544035258682,0.0025845186763561972,0.15461067269215878,0.8539903695516196,0.43535619172446355,0.5479275064099973,-2.4684573993381616,13.7
,,0.06731071366321575,0.08471544035258682,0.0025845186763561972,0.15461067269215878,0.8558191967077022,0.43535619172446355,0.5479275064099973,-2.4684573993381616,13.8
,,0.06731071366321575,0.08471544035258682,0.0025845186763561972,0.15461067269215878,0.8576480238637848,0.43535619172446355,0.5479275064099973,-2.4684573993381616,13.9
,,0.06731071366321575,0.08471544035258682,0.0025845186763561972,0.15461067269215878,0.8594768510198675,0.43535619172446355,0.5479275064099973,-2.4684573993381616,14.0
,,0.06731071366321575,0.08471544035258682,0.0025845186763561972,0.15461067269215878,0.8613056781759502,0.43535619172446355,0.5479275064099973,-2.4684573993381616,14.1
,,0.06810097597917109,0.08624767125888118,0.0025597973112588828,0.15690844454931113,0.8629466437783876,0.43401727787677613,0.5496687670737593,-2.4505322233322016,14.2
,,0.06808853403586078,0.08752325662690912,0.0024848093251474746,0.15809659998791736,0.8644581655114101,0.4306767763573947,0.5536061916170123,-2.43585073091266,14.3
,,0.06808853403586078,0.08752325662690912,0.0024848093251474746,0.15809659998791736,0.8659696872444327,0.4306767763573947,0.5536061916170123,-2.43585073091266,14.4
,,0.06808853403586078,0.08752325662690912,0.0024848093251474746,0.15809659998791736,0.8674812089774553,0.4306767763573947,0.5536061916170123,-2.43585073091266,14.5
,,0.06808853403586078,0.08752325662690912,0.0024848093251474746,0.15809659998791736,0.8686360633089691,0.4306767763573947,0.5536061916170123,-2.43585073091266,14.6
,,0.06808853403586078,0.08752325662690912,0.0024848093251474746,0.15809659998791736,0.8697909176404832,0.4306767763573947,0.5536061916170123,-2.43585073091266,14.7
,,0.06911913544703603,0.08900827386764074,0.0024714819560821204,0.1605988912707589,0.869206359512103,0.43038364026128817,0.554227200221319,-2.419025948766005,14.8
,,0.06939110528432596,0.09013683392604589,0.002406803694017869,0.1619347429043897,0.8685472960872916,0.42851277026633006,0.5566244297510937,-2.406426386298711,14.9
,,0.06939110528432596,0.09013683392604589,0.002406803694017869,0.1619347429043897,0.86788823266248,0.42851277026633006,0.5566244297510937,-2.406426386298711,15.0
,,0.06939110528432596,0.09013683392604589,0.002406803694017869,0.1619347429043897,0.8672291692376685,0.42851277026633006,0.5566244297510937,-2.406426386298711,15.1
,,0.06939110528432596,0.09013683392604589,0.002406803694017869,0.1619347429043897,0.8677487124535587,0.42851277026633006,0.5566244297510937,-2.406426386298711,15.2
,,0.06939110528432596,0.09013683392604589,0.002406803694017869,0.1619347429043897,0.8682682556694489,0.42851277026633006,0.5566244297510937,-2.406426386298711,15.3
,,0.06939110528432596,0.09013683392604589,0.002406803694017869,0.1619347429043897,0.8686147167023539,0.42851277026633006,0.5566244297510937,-2.406426386298711,15.4
,,0.0706617990096697,0.09148931029969808,0.002396986501800468,0.16454809581116825,0.868989049945624,0.42942945441775043,0.5560034581298904,-2.3915331408512093,15.5
,,0.07111352934717828,0.09230120066257323,0.002357236873855054,0.16577196688360657,0.8693422767519733,0.4289840476894939,0.5567961965932434,-2.3826981292960387,15.6
,,0.07111352934717828,0.09230120066257323,0.002357236873855054,0.16577196688360657,0.8696955035583225,0.4289840476894939,0.5567961965932434,-2.3826981292960387,15.7
,,0.07111352934717828,0.09230120066257323,0.002357236873855054,0.16577196688360657,0.8700487303646718,0.4289840476894939,0.5567961965932434,-2.3826981292960387,15.8
,,0.07111352934717828,0.09230120066257323,0.002357236873855054,0.16577196688360657,0.870004375673094,0.4289840476894939,0.5567961965932434,-2.3826981292960387,15.9
,,0.07111352934717828,0.09230120066257323,0.002357236873855054,0.16577196688360657,0.8698150729418649,0.4289840476894939,0.5567961965932434,-2.3826981292960387,16.0
,,0.07226362086358737,0.09280158916965603,0.002328101014679342,0.16739331104792274,0.8697173116046397,0.4316995727678697,0.5543924580301063,-2.37729151466359,16.1
,,0.06908752909508492,0.0884557469556491,0.0021983947705874365,0.15974167082132149,0.8696456737919575,0.4324953453902617,0.5537424674529102,-2.4252528864265894,16.2
,,0.06908752909508492,0.0884557469556491,0.0021983947705874365,0.15974167082132149,0.8695740359792751,0.4324953453902617,0.5537424674529102,-2.4252528864265894,16.3
,,0.06908752909508492,0.0884557469556491,0.0021983947705874365,0.15974167082132149,0.8695023981665928,0.4324953453902617,0.5537424674529102,-2.4252528864265894,16.4
,,0.06908752909508492,0.0884557469556491,0.0021983947705874365,0.15974167082132149,0.8690123638072402,0.4324953453902617,0.5537424674529102,-2.4252528864265894,16.5
,,0.06908752909508492,0.0884557469556491,0.0021983947705874365,0.15974167082132149,0.8685223294478879,0.4324953453902617,0.5537424674529102,-2.4252528864265894,16.6
,,0.06908752909508492,0.0884557469556491,0.0021983947705874365,0.15974167082132149,0.8679109921979438,0.4324953453902617,0.5537424674529102,-2.4252528864265894,16.7
,,0.06939480688779073,0.08729351514031686,0.002135057757350397,0.158823379785458,0.867454309177534,0.43693067721849715,0.5496263538670113,-2.4384791013662572,16.8
,,0.06670673114851361,0.08344306854104032,0.0020565810966940695,0.152206380786248,0.8670472772107418,0.4382650109931569,0.548223196097305,-2.483590693545873,16.9
,,0.06670673114851361,0.08344306854104032,0.0020565810966940695,0.152206380786248,0.8666402452439494,0.4382650109931569,0.548223196097305,-2.483590693545873,17.0
,,0.06670673114851361,0.08344306854104032,0.0020565810966940695,0.152206380786248,0.8616931591967023,0.4382650109931569,0.548223196097305,-2.483590693545873,17.1
,,0.06670673114851361,0.08344306854104032,0.0020565810966940695,0.152206380786248,0.8567460731494551,0.4382650109931569,0.548223196097305,-2.483590693545873,17.2
,,0.06670673114851361,0.08344306854104032,0.0020565810966940695,0.152206380786248,0.8517989871022079,0.4382650109931569,0.548223196097305,-2.483590693545873,17.3
,,0.06699926212940278,0.08175887544943035,0.0019839096845206032,0.15074204726335375,0.8511421833064574,0.44446299719116716,0.5423760452622326,-2.5039809069091232,17.4
,,0.06354754070721186,0.07701436142840738,0.0019149478226567485,0.142476849958276,0.8505483235929913,0.44602011292235616,0.5405394732615217,-2.5637633624624256,17.5
,,0.06354754070721186,0.07701436142840738,0.0019149478226567485,0.142476849958276,0.8499544638795249,0.44602011292235616,0.5405394732615217,-2.5637633624624256,17.6
,,0.06354754070721186,0.07701436142840738,0.0019149478226567485,0.142476849958276,0.8457995561187612,0.44602011292235616,0.5405394732615217,-2.5637633624624256,17.7
,,0.06354754070721186,0.07701436142840738,0.0019149478226567485,0.142476849958276,0.8416446483579977,0.44602011292235616,0.5405394732615217,-2.5637633624624256,17.8
,,0.06354754070721186,0.07701436142840738,0.0019149478226567485,0.142476849958276,0.837489740597234,0.44602011292235616,0.5405394732615217,-2.5637633624624256,17.9
,,0.06354754070721186,0.07701436142840738,0.0019149478226567485,0.142476849958276,0.8333348328364704,0.44602011292235616,0.5405394732615217,-2.5637633624624256,18.0
,,0.06323765673838647,0.07432058220931059,0.0018204975493865236,0.13937873649708357,0.8326741642106422,0.45371093416182373,0.5332275501784716,-2.599367350689819,18.1
,,0.05982899742862348,0.06980617551803207,0.0017858862726180655,0.1314210592192736,0.8320823440719984,0.45524665364932043,0.5311643045089277,-2.662032798657072,18.2
,,0.05982899742862348,0.06980617551803207,0.0017858862726180655,0.1314210592192736,0.8311676322995453,0.45524665364932043,0.5311643045089277,-2.662032798657072,18.3
,,0.05982899742862348,0.06980617551803207,0.0017858862726180655,0.1314210592192736,0.8302529205270923,0.45524665364932043,0.5311643045089277,-2.662032798657072,18.4
,,0.05982899742862348,0.06980617551803207,0.0017858862726180655,0.1314210592192736,0.829338208754639,0.45524665364932043,0.5311643045089277,-2.662032798657072,18.5
,,0.05982899742862348,0.06980617551803207,0.0017858862726180655,0.1314210592192736,0.8284234969821861,0.45524665364932043,0.5311643045089277,-2.662032798657072,18.6
,,0.0595848483733586,0.06701516722637463,0.001690565184377696,0.1282905807841109,0.8299823834258103,0.4644522459028288,0.5223701289430488,-2.7028363086974134,18.7
,,0.0595848483733586,0.06701516722637463,0.001690565184377696,0.1282905807841109,0.8315412698694349,0.4644522459028288,0.5223701289430488,-2.7028363086974134,18.8
,,0.04216842464160932,0.08232998359490237,0.0020136574686375865,0.12651206570514928,0.8289119687705023,0.3333154383858344,0.650767838909387,-2.4970199169320875,18.9
,,0.04216842464160932,0.08232998359490237,0.0020136574686375865,0.12651206570514928,0.8241024809775627,0.3333154383858344,0.650767838909387,-2.4970199169320875,19.0
,,0.04216842464160932,0.08232998359490237,0.0020136574686375865,0.12651206570514928,0.8192929931846232,0.3333154383858344,0.650767838909387,-2.4970199169320875,19.1
,,0.04216842464160932,0.08232998359490237,0.0020136574686375865,0.12651206570514928,0.8144835053916835,0.3333154383858344,0.650767838909387,-2.4970199169320875,19.2
,,0.04216842464160932,0.08232998359490237,0.0020136574686375865,0.12651206570514928,0.8096740175987438,0.3333154383858344,0.650767838909387,-2.4970199169320875,19.3
,,0.05679474157782805,0.060853708600725254,0.0016088788150146285,0.11925732899356793,0.809778398045469,0.4762369076779444,0.510272275207567,-2.7992825148038754,19.4
,,0.05494058415771017,0.05871004760950227,0.0016640932398300338,0.11531472500704247,0.8099105080850169,0.4764403171785291,0.5091288003844847,-2.8351443979797444,19.5
,,0.05494058415771017,0.05871004760950227,0.0016640932398300338,0.11531472500704247,0.8100426181245646,0.4764403171785291,0.5091288003844847,-2.8351443979797444,19.6
,,0.05494058415771017,0.05871004760950227,0.0016640932398300338,0.11531472500704247,0.8100743490717676,0.4764403171785291,0.5091288003844847,-2.8351443979797444,19.7
,,0.05494058415771017,0.05871004760950227,0.0016640932398300338,0.11531472500704247,0.8101060800189704,0.4764403171785291,0.5091288003844847,-2.8351443979797444,19.8
,,0.05494058415771017,0.05871004760950227,0.0016640932398300338,0.11531472500704247,0.8101378109661734,0.4764403171785291,0.5091288003844847,-2.8351443979797444,19.9
,,0.055111651949307755,0.05625593323564343,0.001571372153792288,0.11293895733874347,0.8112576407968045,0.4879773396880991,0.4981091959872818,-2.8778437637154326,20.0
,,0.055111651949307755,0.05625593323564343,0.001571372153792288,0.11293895733874347,0.8123774706274355,0.4879773396880991,0.4981091959872818,-2.8778437637154326,20.1
,,0.05393267549802939,0.05514136720998907,0.001664096975090583,0.11073813968310904,0.8134797533567802,0.4870289102956258,0.49794377409429985,-2.897855078445623,20.2
,,0.05393267549802939,0.05514136720998907,0.001664096975090583,0.11073813968310904,0.8145820360861252,0.4870289102956258,0.49794377409429985,-2.897855078445623,20.3
,,0.05393267549802939,0.05514136720998907,0.001664096975090583,0.11073813968310904,0.8153436133766936,0.4870289102956258,0.49794377409429985,-2.897855078445623,20.4
,,0.05393267549802939,0.05514136720998907,0.001664096975090583,0.11073813968310904,0.816105190667262,0.4870289102956258,0.49794377409429985,-2.897855078445623,20.5
,,0.05393267549802939,0.05514136720998907,0.001664096975090583,0.11073813968310904,0.8171807972855153,0.4870289102956258,0.49794377409429985,-2.897855078445623,20.6
,,0.05427362033864175,0.0529485931473715,0.0015717352770173744,0.10879394876303061,0.8187780112105856,0.49886616816214435,0.48668693203425684,-2.938433776742436,20.7
,,0.05427362033864175,0.0529485931473715,0.0015717352770173744,0.10879394876303061,0.8203752251356555,0.49886616816214435,0.48668693203425684,-2.938433776742436,20.8
,,0.05326175280314577,0.05232600816525337,0.0016839426600135528,0.10727170362841269,0.8218930855973171,0.4965126030592704,0.48778947658470817,-2.9502617434634297,20.9
,,0.05326175280314577,0.05232600816525337,0.0016839426600135528,0.10727170362841269,0.8234109460589788,0.4965126030592704,0.48778947658470817,-2.9502617434634297,21.0
,,0.05326175280314577,0.05232600816525337,0.0016839426600135528,0.10727170362841269,0.8249697720409721,0.4965126030592704,0.48778947658470817,-2.9502617434634297,21.1
,,0.05326175280314577,0.05232600816525337,0.0016839426600135528,0.10727170362841269,0.8265285980229657,0.4965126030592704,0.48778947658470817,-2.9502617434634297,21.2
,,0.053195583528120996,0.0499157469907614,0.001577949777034205,0.1046892802959166,0.8289362053622522,0.5081282761497395,0.47679902707964605,-2.9974187550495635,21.3
,,0.053195583528120996,0.0499157469907614,0.001577949777034205,0.1046892802959166,0.8313438127015388,0.5081282761497395,0.47679902707964605,-2.9974187550495635,21.4
,,0.051611799327877995,0.04909570606616933,0.0016877323408084667,0.10239523773485579,0.8335907677301457,0.5040449191740985,0.47947255314059334,-3.0139837008333923,21.5
,,0.051611799327877995,0.04909570606616933,0.0016877323408084667,0.10239523773485579,0.8358377227587525,0.5040449191740985,0.47947255314059334,-3.0139837008333923,21.6
,,0.051611799327877995,0.04909570606616933,0.0016877323408084667,0.10239523773485579,0.8380846777873595,0.5040449191740985,0.47947255314059334,-3.0139837008333923,21.7
,,0.051611799327877995,0.04909570606616933,0.0016877323408084667,0.10239523773485579,0.8404041744333126,0.5040449191740985,0.47947255314059334,-3.0139837008333923,21.8
,,0.051611799327877995,0.04909570606616933,0.0016877323408084667,0.10239523773485579,0.842723671079266,0.5040449191740985,0.47947255314059334,-3.0139837008333923,21.9
,,0.051571591140561576,0.04704711906434694,0.0015806342807254303,0.10019934448563395,0.8458098930885125,0.5146899054609647,0.46953519811791095,-3.056605646188973,22.0
,,0.051571591140561576,0.04704711906434694,0.0015806342807254303,0.10019934448563395,0.8488961150977591,0.5146899054609647,0.46953519811791095,-3.056605646188973,22.1
,,0.051571591140561576,0.04704711906434694,0.0015806342807254303,0.10019934448563395,0.8519823371070055,0.5146899054609647,0.46953519811791095,-3.056605646188973,22.2
,,0.05013157474153226,0.04677835168165917,0.0018657629866491122,0.09877568940984055,0.8547964954852074,0.5075294846440007,0.4735816268268826,-3.0623347539821792,22.3
,,0.05013157474153226,0.04677835168165917,0.0018657629866491122,0.09877568940984055,0.857610653863409,0.5075294846440007,0.4735816268268826,-3.0623347539821792,22.4
,,0.05013157474153226,0.04677835168165917,0.0018657629866491122,0.09877568940984055,0.8604934157963806,0.5075294846440007,0.4735816268268826,-3.0623347539821792,22.5
,,0.050171653713016615,0.04503320715428906,0.0016103390157436459,0.09681519988304932,0.8640440023032181,0.5182208348856677,0.4651460432730419,-3.100355124591297,22.6
,,0.050171653713016615,0.04503320715428906,0.0016103390157436459,0.09681519988304932,0.8675945888100556,0.5182208348856677,0.4651460432730419,-3.100355124591297,22.7
,,0.050171653713016615,0.04503320715428906,0.0016103390157436459,0.09681519988304932,0.8711451753168932,0.5182208348856677,0.4651460432730419,-3.100355124591297,22.8
,,0.050171653713016615,0.04503320715428906,0.0016103390157436459,0.09681519988304932,0.8746957618237307,0.5182208348856677,0.4651460432730419,-3.100355124591297,22.9
,,0.04923049217909653,0.04544049562912253,0.0019199508274701008,0.09659093863568916,0.8779052617121761,0.5096802337202516,0.4704426343811595,-3.091351597297684,23.0
,,0.04923049217909653,0.04544049562912253,0.0019199508274701008,0.09659093863568916,0.8811147616006214,0.5096802337202516,0.4704426343811595,-3.091351597297684,23.1
,,0.06721815295536296,0.07586418672735785,0.0034933333095841846,0.146575672992305,0.8821862603136856,0.45859010286715046,0.5175769292312279,-2.5788105540603112,23.2
,,0.06721815295536296,0.07586418672735785,0.0034933333095841846,0.146575672992305,0.8833872028961647,0.45859010286715046,0.5175769292312279,-2.5788105540603112,23.3
,,0.06721815295536296,0.07586418672735785,0.0034933333095841846,0.146575672992305,0.8845881454786436,0.45859010286715046,0.5175769292312279,-2.5788105540603112,23.4
,,0.06721815295536296,0.07586418672735785,0.0034933333095841846,0.146575672992305,0.8857890880611227,0.45859010286715046,0.5175769292312279,-2.5788105540603112,23.5
,,0.06721815295536296,0.07586418672735785,0.0034933333095841846,0.146575672992305,0.8869900306436018,0.45859010286715046,0.5175769292312279,-2.5788105540603112,23.6
,,0.05719704862824301,0.06444024083668295,0.0034714901580235585,0.12510877962294953,0.8882083684486849,0.4571785353563706,0.5150736905186969,-2.7420169833016548,23.7
,,0.04682542988094656,0.04311839779071021,0.001906924368454077,0.09185075204011084,0.8916464353224262,0.5097990908174392,0.4694397904535456,-3.1438055100589732,23.8
,,0.056663408228104596,0.05996500481218495,0.002937490914776391,0.11956590395506593,0.8935919847217128,0.4739094202758612,0.5015226149648849,-2.813994140048561,23.9
,,0.056663408228104596,0.05996500481218495,0.002937490914776391,0.11956590395506593,0.8955375341209992,0.4739094202758612,0.5015226149648849,-2.813994140048561,24.0
,,0.056663408228104596,0.05996500481218495,0.002937490914776391,0.11956590395506593,0.8974830835202859,0.4739094202758612,0.5015226149648849,-2.813994140048561,24.1
,,0.056663408228104596,0.05996500481218495,0.002937490914776391,0.11956590395506593,0.8994286329195726,0.4739094202758612,0.5015226149648849,-2.813994140048561,24.2
,,0.043807114449619114,0.0406858628498705,0.0018663190732249222,0.08635929637271453,0.9028383445263183,0.5072657639607645,0.4711231397054934,-3.201874596999648,24.3
,,0.043807114449619114,0.0406858628498705,0.0018663190732249222,0.08635929637271453,0.9062480561330641,0.5072657639607645,0.4711231397054934,-3.201874596999648,24.4
,,0.043517778480677075,0.039669327641145245,0.001582254656979891,0.0847693607788022,0.9098554220330137,0.5133668353856375,0.46796775717890193,-3.227176993398491,24.5
,,0.043517778480677075,0.039669327641145245,0.001582254656979891,0.0847693607788022,0.9134838943698842,0.5133668353856375,0.46796775717890193,-3.227176993398491,24.6
,,0.043517778480677075,0.039669327641145245,0.001582254656979891,0.0847693607788022,0.9171123667067548,0.5133668353856375,0.46796775717890193,-3.227176993398491,24.7
,,0.043517778480677075,0.039669327641145245,0.001582254656979891,0.0847693607788022,0.9207408390436252,0.5133668353856375,0.46796775717890193,-3.227176993398491,24.8
,,0.043517778480677075,0.039669327641145245,0.001582254656979891,0.0847693607788022,0.9243693113804958,0.5133668353856375,0.46796775717890193,-3.227176993398491,24.9
,,0.04437145930155997,0.045040315780413905,0.002639917596982138,0.092051692678956,0.92675485667258,0.4820276304566397,0.48929372692253165,-3.100197284064847,25.0
,,0.040802212387521825,0.03828492163849849,0.0015497840460939483,0.08063691807211426,0.9299444346343707,0.5059991547672007,0.47478155854443704,-3.262699151212968,25.1
,,0.040802212387521825,0.03828492163849849,0.0015497840460939483,0.08063691807211426,0.9331078890716185,0.5059991547672007,0.47478155854443704,-3.262699151212968,25.2
,,0.040802212387521825,0.03828492163849849,0.0015497840460939483,0.08063691807211426,0.9362713435088663,0.5059991547672007,0.47478155854443704,-3.262699151212968,25.3
,,0.040802212387521825,0.03828492163849849,0.0015497840460939483,0.08063691807211426,0.9394347979461142,0.5059991547672007,0.47478155854443704,-3.262699151212968,25.4
,,0.040802212387521825,0.03828492163849849,0.0015497840460939483,0.08063691807211426,0.9425982523833621,0.5059991547672007,0.47478155854443704,-3.262699151212968,25.5
,,0.038603421156157676,0.0377739989592104,0.0017980934788018072,0.07817551359416988,0.945275106787432,0.4938045096391489,0.4831947655029859,-3.2761342712615513,25.6
,,0.038410495844513316,0.03749544112146141,0.0015213121873972645,0.07742724915337199,0.9479791493729157,0.49608498641644594,0.4842667346632509,-3.283535923490377,25.7
,,0.038410495844513316,0.03749544112146141,0.0015213121873972645,0.07742724915337199,0.9505285377288654,0.49608498641644594,0.4842667346632509,-3.283535923490377,25.8
,,0.038410495844513316,0.03749544112146141,0.0015213121873972645,0.07742724915337199,0.9530282750311974,0.49608498641644594,0.4842667346632509,-3.283535923490377,25.9
,,0.038410495844513316,0.03749544112146141,0.0015213121873972645,0.07742724915337199,0.9555280123335294,0.49608498641644594,0.4842667346632509,-3.283535923490377,26.0
,,0.038410495844513316,0.03749544112146141,0.0015213121873972645,0.07742724915337199,0.9580277496358615,0.49608498641644594,0.4842667346632509,-3.283535923490377,26.1
,,0.038410495844513316,0.03749544112146141,0.0015213121873972645,0.07742724915337199,0.9605274869381935,0.49608498641644594,0.4842667346632509,-3.283535923490377,26.2
,,0.03514431838014735,0.03607793361382555,0.0014525885344644435,0.07267484052843735,0.9624685335525986,0.48358301338680654,0.4964294844198304,-3.3220738577719184,26.3
,,0.03514431838014735,0.03607793361382555,0.0014525885344644435,0.07267484052843735,0.964186849036008,0.48358301338680654,0.4964294844198304,-3.3220738577719184,26.4
,,0.03514431838014735,0.03607793361382555,0.0014525885344644435,0.07267484052843735,0.9658422204371332,0.48358301338680654,0.4964294844198304,-3.3220738577719184,26.5
,,0.03514431838014735,0.03607793361382555,0.0014525885344644435,0.07267484052843735,0.9674975918382585,0.48358301338680654,0.4964294844198304,-3.3220738577719184,26.6
,,0.03514431838014735,0.03607793361382555,0.0014525885344644435,0.07267484052843735,0.9691529632393836,0.48358301338680654,0.4964294844198304,-3.3220738577719184,26.7
,,0.03514431838014735,0.03607793361382555,0.0014525885344644435,0.07267484052843735,0.970808334640509,0.48358301338680654,0.4964294844198304,-3.3220738577719184,26.8
,,0.030847125382632627,0.03353480237480745,0.0013298295720732644,0.06571175732951334,0.9718607264145381,0.46943083911070743,0.5103318452837337,-3.395171502550307,26.9
,,0.030847125382632627,0.03353480237480745,0.0013298295720732644,0.06571175732951334,0.9729131181885674,0.46943083911070743,0.5103318452837337,-3.395171502550307,27.0
,,0.030847125382632627,0.03353480237480745,0.0013298295720732644,0.06571175732951334,0.973679532971014,0.46943083911070743,0.5103318452837337,-3.395171502550307,27.1
,,0.030847125382632627,0.03353480237480745,0.0013298295720732644,0.06571175732951334,0.9743770992662764,0.46943083911070743,0.5103318452837337,-3.395171502550307,27.2
,,0.030847125382632627,0.03353480237480745,0.0013298295720732644,0.06571175732951334,0.9750746655615388,0.46943083911070743,0.5103318452837337,-3.395171502550307,27.3
,,0.030847125382632627,0.03353480237480745,0.0013298295720732644,0.06571175732951334,0.975772231856801,0.46943083911070743,0.5103318452837337,-3.395171502550307,27.4
,,0.028135346718746092,0.03192679521840649,0.001484690173434693,0.06154683211058727,0.9760408144642296,0.4571372035557011,0.5187398623708278,-3.444309646274695,27.5
,,0.027497251266435836,0.03180423831571945,0.0012370418614259815,0.06053853144358126,0.9761242041702916,0.45421074166726083,0.5253552994650907,-3.448155717708509,27.6
,,0.027497251266435836,0.03180423831571945,0.0012370418614259815,0.06053853144358126,0.9758514640214131,0.45421074166726083,0.5253552994650907,-3.448155717708509,27.7
,,0.027497251266435836,0.03180423831571945,0.0012370418614259815,0.06053853144358126,0.9755787238725345,0.45421074166726083,0.5253552994650907,-3.448155717708509,27.8
,,0.027497251266435836,0.03180423831571945,0.0012370418614259815,0.06053853144358126,0.9794941712662129,0.45421074166726083,0.5253552994650907,-3.448155717708509,27.9
,,0.027497251266435836,0.03180423831571945,0.0012370418614259815,0.06053853144358126,0.9834096186598914,0.45421074166726083,0.5253552994650907,-3.448155717708509,28.0
,,0.025060537006051934,0.030219002746323314,0.0013788718205219965,0.05665841157289724,0.9869330558610135,0.44230920547090896,0.5333542170952544,-3.499284322472806,28.1
,,0.024560076883491284,0.03027751815186342,0.0011577540318646498,0.055995349067219355,0.9902550282925429,0.4386092290273654,0.5407148746499806,-3.4973498170526627,28.2
,,0.024560076883491284,0.03027751815186342,0.0011577540318646498,0.055995349067219355,0.9935770007240724,0.4386092290273654,0.5407148746499806,-3.4973498170526627,28.3
,,0.024560076883491284,0.03027751815186342,0.0011577540318646498,0.055995349067219355,0.992219954761603,0.4386092290273654,0.5407148746499806,-3.4973498170526627,28.4
,,0.024560076883491284,0.03027751815186342,0.0011577540318646498,0.055995349067219355,0.9908351792063106,0.4386092290273654,0.5407148746499806,-3.4973498170526627,28.5
,,0.024560076883491284,0.03027751815186342,0.0011577540318646498,0.055995349067219355,0.9894504036510184,0.4386092290273654,0.5407148746499806,-3.4973498170526627,28.6
,,0.024560076883491284,0.03027751815186342,0.0011577540318646498,0.055995349067219355,0.9880656280957262,0.4386092290273654,0.5407148746499806,-3.4973498170526627,28.7
,,0.02202108904304485,0.02882426157108194,0.0010883654955282586,0.05193371610965505,0.9861565425683085,0.42402297953315315,0.5550202013316585,-3.546537830810592,28.8
,,0.02202108904304485,0.02882426157108194,0.0010883654955282586,0.05193371610965505,0.9842474570408909,0.42402297953315315,0.5550202013316585,-3.546537830810592,28.9
,,0.02202108904304485,0.02882426157108194,0.0010883654955282586,0.05193371610965505,0.9818509925249349,0.42402297953315315,0.5550202013316585,-3.546537830810592,29.0
,,0.02202108904304485,0.02882426157108194,0.0010883654955282586,0.05193371610965505,0.9794545280089791,0.42402297953315315,0.5550202013316585,-3.546537830810592,29.1
,,0.02202108904304485,0.02882426157108194,0.0010883654955282586,0.05193371610965505,0.9770756105943093,0.42402297953315315,0.5550202013316585,-3.546537830810592,29.2
,,0.02202108904304485,0.02882426157108194,0.0010883654955282586,0.05193371610965505,0.9746966931796394,0.42402297953315315,0.5550202013316585,-3.546537830810592,29.3
,,0.021662110763221595,0.02900767021432363,0.001050618052181144,0.05172039902972637,0.9721266009006034,0.41883108347194437,0.5608554991552064,-3.5401949938179254,29.4
,,0.02010945471540295,0.0276944929109531,0.00103891076985397,0.04884285839621002,0.9693270156473723,0.41171740098166226,0.567012124603708,-3.5865216974334952,29.5
,,0.02010945471540295,0.0276944929109531,0.00103891076985397,0.04884285839621002,0.9665274303941414,0.41171740098166226,0.567012124603708,-3.5865216974334952,29.6
,,0.02010945471540295,0.0276944929109531,0.00103891076985397,0.04884285839621002,0.9632062378340934,0.41171740098166226,0.567012124603708,-3.5865216974334952,29.7
,,0.02010945471540295,0.0276944929109531,0.00103891076985397,0.04884285839621002,0.9598850452740458,0.41171740098166226,0.567012124603708,-3.5865216974334952,29.8
,,0.02010945471540295,0.0276944929109531,0.00103891076985397,0.04884285839621002,0.9566432061774066,0.41171740098166226,0.567012124603708,-3.5865216974334952,29.9
,,0.02010945471540295,0.0276944929109531,0.00103891076985397,0.04884285839621002,0.9534013670807673,0.41171740098166226,0.567012124603708,-3.5865216974334952,30.0
,,0.01878751807274752,0.026831353247643255,0.0010062621880840613,0.04662513350847484,0.9498716409569878,0.40294829545812666,0.5754697354971915,-3.6181841779617883,30.1
,,0.01878751807274752,0.026831353247643255,0.0010062621880840613,0.04662513350847484,0.9463419148332082,0.40294829545812666,0.5754697354971915,-3.6181841779617883,30.2
,,0.01878751807274752,0.026831353247643255,0.0010062621880840613,0.04662513350847484,0.9422808056220291,0.40294829545812666,0.5754697354971915,-3.6181841779617883,30.3
,,0.01878751807274752,0.026831353247643255,0.0010062621880840613,0.04662513350847484,0.9382196964108497,0.40294829545812666,0.5754697354971915,-3.6181841779617883,30.4
,,0.01878751807274752,0.026831353247643255,0.0010062621880840613,0.04662513350847484,0.9343192395103502,0.40294829545812666,0.5754697354971915,-3.6181841779617883,30.5
,,0.01878751807274752,0.026831353247643255,0.0010062621880840613,0.04662513350847484,0.9304187826098507,0.40294829545812666,0.5754697354971915,-3.6181841779617883,30.6
,,0.018044144810771077,0.026350744356252193,0.000995156413276989,0.045390045580300256,0.9263467736283751,0.39753528730983295,0.5805401607194836,-3.636258755579631,30.7
,,0.018044144810771077,0.026350744356252193,0.000995156413276989,0.045390045580300256,0.9222747646468998,0.39753528730983295,0.5805401607194836,-3.636258755579631,30.8
,,0.018044144810771077,0.026350744356252193,0.000995156413276989,0.045390045580300256,0.9182027556654243,0.39753528730983295,0.5805401607194836,-3.636258755579631,30.9
,,0.018044144810771077,0.026350744356252193,0.000995156413276989,0.045390045580300256,0.9136316332733613,0.39753528730983295,0.5805401607194836,-3.636258755579631,31.0
,,0.018044144810771077,0.026350744356252193,0.000995156413276989,0.045390045580300256,0.9090605108812981,0.39753528730983295,0.5805401607194836,-3.636258755579631,31.1
,,0.018044144810771077,0.026350744356252193,0.000995156413276989,0.045390045580300256,0.9044893884892351,0.39753528730983295,0.5805401607194836,-3.636258755579631,31.2
,,0.01808426116081272,0.026643682735269646,0.0009913485667125757,0.04571929246279494,0.9001234060222733,0.3955498912309104,0.5827667336923797,-3.6252032020509044,31.3
,,0.017786204921891292,0.02616434938764944,0.0010017979974188533,0.044952352306959584,0.8957690121735846,0.39566794637213254,0.5820462788906965,-3.643357505217193,31.4
,,0.017786204921891292,0.02616434938764944,0.0010017979974188533,0.044952352306959584,0.8914146183248958,0.39566794637213254,0.5820462788906965,-3.643357505217193,31.5
,,0.017786204921891292,0.02616434938764944,0.0010017979974188533,0.044952352306959584,0.8865888880741852,0.39566794637213254,0.5820462788906965,-3.643357505217193,31.6
,,0.017786204921891292,0.02616434938764944,0.0010017979974188533,0.044952352306959584,0.8817631578234745,0.39566794637213254,0.5820462788906965,-3.643357505217193,31.7
,,0.017786204921891292,0.02616434938764944,0.0010017979974188533,0.044952352306959584,0.8769374275727638,0.39566794637213254,0.5820462788906965,-3.643357505217193,31.8
,,0.017996301522867943,0.02650877887034457,0.0010099215799680406,0.045515001973180556,0.8721016200098819,0.3953927439896005,0.5824184932687625,-3.630279322724233,31.9
,,0.017907764725753155,0.02614606919909493,0.0010241239037031243,0.04507795782855121,0.8676739156578441,0.39726211186991356,0.5800189373826222,-3.644056417204231,32.0
,,0.017907764725753155,0.02614606919909493,0.0010241239037031243,0.04507795782855121,0.8632462113058061,0.39726211186991356,0.5800189373826222,-3.644056417204231,32.1
,,0.017907764725753155,0.02614606919909493,0.0010241239037031243,0.04507795782855121,0.8610115399332575,0.39726211186991356,0.5800189373826222,-3.644056417204231,32.2
,,0.017907764725753155,0.02614606919909493,0.0010241239037031243,0.04507795782855121,0.858776868560709,0.39726211186991356,0.5800189373826222,-3.644056417204231,32.3
,,0.017907764725753155,0.02614606919909493,0.0010241239037031243,0.04507795782855121,0.8565421971881604,0.39726211186991356,0.5800189373826222,-3.644056417204231,32.4
,,0.018224115552623172,0.026423296802084762,0.0010385138472264806,0.045685926201934415,0.8543607087780566,0.3988999910403816,0.5783684166824653,-3.6335092033396137,32.5
,,0.018224115552623172,0.026423296802084762,0.0010385138472264806,0.045685926201934415,0.8521792203679528,0.3988999910403816,0.5783684166824653,-3.6335092033396137,32.6
,,0.01834288232942851,0.026228589493290006,0.0010580991137483387,0.04562957093646686,0.8500875378953844,0.4019955032005133,0.5748156065243272,-3.6409052611093036,32.7
,,0.01834288232942851,0.026228589493290006,0.0010580991137483387,0.04562957093646686,0.8457916885327058,0.4019955032005133,0.5748156065243272,-3.6409052611093036,32.8
,,0.01834288232942851,0.026228589493290006,0.0010580991137483387,0.04562957093646686,0.8430628619409131,0.4019955032005133,0.5748156065243272,-3.6409052611093036,32.9
,,0.01834288232942851,0.026228589493290006,0.0010580991137483387,0.04562957093646686,0.8403340353491208,0.4019955032005133,0.5748156065243272,-3.6409052611093036,33.0
,,0.01834288232942851,0.026228589493290006,0.0010580991137483387,0.04562957093646686,0.8376052087573282,0.4019955032005133,0.5748156065243272,-3.6409052611093036,33.1
,,0.018782481781264616,0.026492958328390354,0.0010787838153279126,0.04635422392498288,0.8349832088457381,0.405194612073781,0.5715327770618077,-3.6308763047576615,33.2
,,0.019070399169626377,0.026455021296279604,0.001103900157053837,0.04662932062295982,0.8310292683281393,0.4089787051333598,0.5673473458940642,-3.632309297626192,33.3
,,0.019070399169626377,0.026455021296279604,0.001103900157053837,0.04662932062295982,0.8270753278105403,0.4089787051333598,0.5673473458940642,-3.632309297626192,33.4
,,0.019070399169626377,0.026455021296279604,0.001103900157053837,0.04662932062295982,0.8228958607893726,0.4089787051333598,0.5673473458940642,-3.632309297626192,33.5
,,0.019070399169626377,0.026455021296279604,0.001103900157053837,0.04662932062295982,0.8187163937682047,0.4089787051333598,0.5673473458940642,-3.632309297626192,33.6
,,0.019070399169626377,0.026455021296279604,0.001103900157053837,0.04662932062295982,0.8145369267470368,0.4089787051333598,0.5673473458940642,-3.632309297626192,33.7
,,0.01961219050602822,0.026661754600007366,0.0011295815967094854,0.04740352670274507,0.8105211420903048,0.4137285107289814,0.562442426851406,-3.624525152443453,33.8
,,0.020027758049634026,0.02675691651087909,0.0011598243127997846,0.0479444988733129,0.8066488580836366,0.41772796713455634,0.5580810549627552,-3.6209622779069375,33.9
,,0.020027758049634026,0.02675691651087909,0.0011598243127997846,0.0479444988733129,0.8040195011217548,0.41772796713455634,0.5580810549627552,-3.6209622779069375,34.0
,,0.020027758049634026,0.02675691651087909,0.0011598243127997846,0.0479444988733129,0.8004945700961629,0.41772796713455634,0.5580810549627552,-3.6209622779069375,34.1
,,0.020027758049634026,0.02675691651087909,0.0011598243127997846,0.0479444988733129,0.7969696390705708,0.41772796713455634,0.5580810549627552,-3.6209622779069375,34.2
,,0.020027758049634026,0.02675691651087909,0.0011598243127997846,0.0479444988733129,0.7934447080449789,0.41772796713455634,0.5580810549627552,-3.6209622779069375,34.3
,,0.02066411436405014,0.02691455185267006,0.001189217842924242,0.04876788405964445,0.7901337732124972,0.42372382485935556,0.5518909087741604,-3.615088177575232,34.4
,,0.02066411436405014,0.02691455185267006,0.001189217842924242,0.04876788405964445,0.7868228383800157,0.42372382485935556,0.5518909087741604,-3.615088177575232,34.5
,,0.021175134913771446,0.027132876929763832,0.0012261707596322824,0.04953418260316756,0.7841391274375654,0.42748530006867136,0.5477606675602792,-3.6070091155535975,34.6
,,0.021175134913771446,0.027132876929763832,0.0012261707596322824,0.04953418260316756,0.7814282283137014,0.42748530006867136,0.5477606675602792,-3.6070091155535975,34.7
,,0.021175134913771446,0.027132876929763832,0.0012261707596322824,0.04953418260316756,0.7787173291898372,0.42748530006867136,0.5477606675602792,-3.6070091155535975,34.8
,,0.021175134913771446,0.027132876929763832,0.0012261707596322824,0.04953418260316756,0.7760064300659729,0.42748530006867136,0.5477606675602792,-3.6070091155535975,34.9
,,0.021854667569612008,0.02716551703437816,0.0012543843483968121,0.05027456895238698,0.77356305128178,0.43470621479240695,0.5403431118445894,-3.605806866051802,35.0
,,0.021854667569612008,0.02716551703437816,0.0012543843483968121,0.05027456895238698,0.7711196724975872,0.43470621479240695,0.5403431118445894,-3.605806866051802,35.1
,,0.022420532101109034,0.02748551771741103,0.0012980738374778985,0.05120412365599796,0.7688009750810678,0.43786575182373483,0.5367832853085345,-3.594096041484862,35.2
,,0.022420532101109034,0.02748551771741103,0.0012980738374778985,0.05120412365599796,0.7670409683524754,0.43786575182373483,0.5367832853085345,-3.594096041484862,35.3
,,0.022420532101109034,0.02748551771741103,0.0012980738374778985,0.05120412365599796,0.7652809616238828,0.43786575182373483,0.5367832853085345,-3.594096041484862,35.4
,,0.022420532101109034,0.02748551771741103,0.0012980738374778985,0.05120412365599796,0.7635209548952904,0.43786575182373483,0.5367832853085345,-3.594096041484862,35.5
,,0.022420532101109034,0.02748551771741103,0.0012980738374778985,0.05120412365599796,0.7617609481666978,0.43786575182373483,0.5367832853085345,-3.594096041484862,35.6
,,0.0231206838459889,0.027405421383284678,0.0013244955095398241,0.051850600738813396,0.7603112969244639,0.4459096619237746,0.5285458797542921,-3.5970144244561397,35.7
,,0.04858744758009845,0.05438183274436654,0.0016984257504814178,0.1046677060749464,0.7594149382522782,0.46420667273731814,0.5195664907896893,-2.9117251378012923,35.8
,,0.04858744758009845,0.05438183274436654,0.0016984257504814178,0.1046677060749464,0.7591215592071883,0.46420667273731814,0.5195664907896893,-2.9117251378012923,35.9
,,0.04858744758009845,0.05438183274436654,0.0016984257504814178,0.1046677060749464,0.7588281801620984,0.46420667273731814,0.5195664907896893,-2.9117251378012923,36.0
,,0.04858744758009845,0.05438183274436654,0.0016984257504814178,0.1046677060749464,0.7585348011170088,0.46420667273731814,0.5195664907896893,-2.9117251378012923,36.1
,,0.04858744758009845,0.05438183274436654,0.0016984257504814178,0.1046677060749464,0.7582414220719188,0.46420667273731814,0.5195664907896893,-2.9117251378012923,36.2
,,0.024360097906171194,0.02762493086961538,0.0013942606978724474,0.053379289473659025,0.7578187732696346,0.4563586017418258,0.5175215170903952,-3.589036621604713,36.3
,,0.024360097906171194,0.02762493086961538,0.0013942606978724474,0.053379289473659025,0.7573961244673503,0.4563586017418258,0.5175215170903952,-3.589036621604713,36.4
,,0.04672931243480191,0.05105171756676729,0.0016992175937697138,0.09948024759533892,0.7577748716981206,0.46973458112896155,0.5131844642610166,-2.974916090142778,36.5
,,0.04672931243480191,0.05105171756676729,0.0016992175937697138,0.09948024759533892,0.7583388118302576,0.46973458112896155,0.5131844642610166,-2.974916090142778,36.6
,,0.04672931243480191,0.05105171756676729,0.0016992175937697138,0.09948024759533892,0.7589027519623948,0.46973458112896155,0.5131844642610166,-2.974916090142778,36.7
,,0.04672931243480191,0.05105171756676729,0.0016992175937697138,0.09948024759533892,0.7594666920945317,0.46973458112896155,0.5131844642610166,-2.974916090142778,36.8
,,0.04672931243480191,0.05105171756676729,0.0016992175937697138,0.09948024759533892,0.7600306322266688,0.46973458112896155,0.5131844642610166,-2.974916090142778,36.9
,,0.025551385646729843,0.027870157385563296,0.0014667163766765897,0.054888259408969735,0.7606108845047569,0.46551641319772447,0.5077617269278685,-3.580198790372424,37.0
,,0.045296100521244484,0.048500035246169866,0.0017205035639780758,0.09551663933139243,0.761773576180267,0.4742220919654729,0.5077653023145035,-3.0261907543138116,37.1
,,0.045296100521244484,0.048500035246169866,0.0017205035639780758,0.09551663933139243,0.7631377326253699,0.4742220919654729,0.5077653023145035,-3.0261907543138116,37.2
,,0.045296100521244484,0.048500035246169866,0.0017205035639780758,0.09551663933139243,0.7645018890704723,0.4742220919654729,0.5077653023145035,-3.0261907543138116,37.3
,,0.045296100521244484,0.048500035246169866,0.0017205035639780758,0.09551663933139243,0.7658660455155751,0.4742220919654729,0.5077653023145035,-3.0261907543138116,37.4
,,0.045296100521244484,0.048500035246169866,0.0017205035639780758,0.09551663933139243,0.7672302019606779,0.4742220919654729,0.5077653023145035,-3.0261907543138116,37.5
,,0.02663262420846556,0.028076685423868316,0.0015346634145187031,0.05624397304685258,0.7687568885077636,0.4735196104706178,0.49919456081951685,-3.5728157472523803,37.6
,,0.027016350298103384,0.028576607106144115,0.0016006542873365408,0.05719361169158404,0.7702483935030704,0.47236657205334004,0.49964683573828444,-3.5551668291979337,37.7
,,0.027016350298103384,0.028576607106144115,0.0016006542873365408,0.05719361169158404,0.7722642084705026,0.47236657205334004,0.49964683573828444,-3.5551668291979337,37.8
,,0.027016350298103384,0.028576607106144115,0.0016006542873365408,0.05719361169158404,0.7742800234379348,0.47236657205334004,0.49964683573828444,-3.5551668291979337,37.9
,,0.027016350298103384,0.028576607106144115,0.0016006542873365408,0.05719361169158404,0.7762958384053671,0.47236657205334004,0.49964683573828444,-3.5551668291979337,38.0
,,0.027016350298103384,0.028576607106144115,0.0016006542873365408,0.05719361169158404,0.7783116533727992,0.47236657205334004,0.49964683573828444,-3.5551668291979337,38.1
,,0.027531161237617216,0.028221958784725353,0.0015966194772471167,0.057349739499589686,0.780662154844057,0.48005730240176925,0.4921026500029223,-3.567654923742881,38.2
,,0.027531161237617216,0.028221958784725353,0.0015966194772471167,0.057349739499589686,0.783012656315315,0.48005730240176925,0.4921026500029223,-3.567654923742881,38.3
,,0.028039572525921985,0.028992869355526387,0.0016873145671365373,0.05871975644858491,0.7854609650696216,0.47751513667250084,0.49374982304145926,-3.5407053635223553,38.4
,,0.028039572525921985,0.028992869355526387,0.0016873145671365373,0.05871975644858491,0.7881387667981234,0.47751513667250084,0.49374982304145926,-3.5407053635223553,38.5
,,0.028039572525921985,0.028992869355526387,0.0016873145671365373,0.05871975644858491,0.7908165685266253,0.47751513667250084,0.49374982304145926,-3.5407053635223553,38.6
,,0.028039572525921985,0.028992869355526387,0.0016873145671365373,0.05871975644858491,0.793494370255127,0.47751513667250084,0.49374982304145926,-3.5407053635223553,38.7
,,0.04319670134396273,0.04365761992248187,0.0017253293349439906,0.08857965060138859,0.7964202032575814,0.48765942347582,0.4928628598789877,-3.13137744326103,38.8
,,0.04319670134396273,0.04365761992248187,0.0017253293349439906,0.08857965060138859,0.7993460362600356,0.48765942347582,0.4928628598789877,-3.13137744326103,38.9
,,0.04319670134396273,0.04365761992248187,0.0017253293349439906,0.08857965060138859,0.8022718692624898,0.48765942347582,0.4928628598789877,-3.13137744326103,39.0
,,0.041250822676728735,0.04321453945883543,0.001958897113047319,0.08642425924861148,0.8050979944178932,0.47730606007353754,0.500027883774193,-3.1415782788090887,39.1
,,0.041250822676728735,0.04321453945883543,0.001958897113047319,0.08642425924861148,0.807924119573297,0.47730606007353754,0.500027883774193,-3.1415782788090887,39.2
,,0.041250822676728735,0.04321453945883543,0.001958897113047319,0.08642425924861148,0.8107502447287004,0.47730606007353754,0.500027883774193,-3.1415782788090887,39.3
,,0.029041820240470553,0.028723723658406995,0.0017279577220450733,0.059493501620922616,0.8142043194809181,0.4881511333038961,0.48280438830827643,-3.550031889362192,39.4
,,0.029041820240470553,0.028723723658406995,0.0017279577220450733,0.059493501620922616,0.8176583942331356,0.4881511333038961,0.48280438830827643,-3.550031889362192,39.5
,,0.029041820240470553,0.028723723658406995,0.0017279577220450733,0.059493501620922616,0.8211124689853534,0.4881511333038961,0.48280438830827643,-3.550031889362192,39.6
,,0.029300829422741946,0.02946143966877661,0.0019922151775721357,0.06075448426909069,0.8245544748025099,0.4822825800473294,0.4849261749682129,-3.524673000547773,39.7
,,0.029300829422741946,0.02946143966877661,0.0019922151775721357,0.06075448426909069,0.8279964806196662,0.4822825800473294,0.4849261749682129,-3.524673000547773,39.8
,,0.029300829422741946,0.02946143966877661,0.0019922151775721357,0.06075448426909069,0.8314384864368226,0.4822825800473294,0.4849261749682129,-3.524673000547773,39.9
,,0.029173282330166722,0.028619729477946623,0.001769078971399378,0.05956209077951272,0.8351559721777898,0.4897961429554335,0.48050243205684795,-3.5536589571016273,40.0
,,0.029173282330166722,0.028619729477946623,0.001769078971399378,0.05956209077951272,0.838873457918757,0.4897961429554335,0.48050243205684795,-3.5536589571016273,40.1
,,0.029173282330166722,0.028619729477946623,0.001769078971399378,0.05956209077951272,0.8425909436597241,0.4897961429554335,0.48050243205684795,-3.5536589571016273,40.2
,,0.029173282330166722,0.028619729477946623,0.001769078971399378,0.05956209077951272,0.8463753531066347,0.4897961429554335,0.48050243205684795,-3.5536589571016273,40.3
,,0.029136760286771732,0.029118582205618842,0.0020294652911594,0.06028480778354997,0.8499402031078956,0.48331845713742716,0.48301692045146544,-3.5363787448328092,40.4
,,0.029136760286771732,0.029118582205618842,0.0020294652911594,0.06028480778354997,0.8535050531091568,0.48331845713742716,0.48301692045146544,-3.5363787448328092,40.5
,,0.029136760286771732,0.029118582205618842,0.0020294652911594,0.06028480778354997,0.8570699031104178,0.48331845713742716,0.48301692045146544,-3.5363787448328092,40.6
,,0.03558821779356604,0.03697453111454789,0.0017133044399184106,0.07427605334803233,0.8602112196224648,0.4791344745635817,0.49779881197103737,-3.2975259516138102,40.7
,,0.03558821779356604,0.03697453111454789,0.0017133044399184106,0.07427605334803233,0.8633525361345116,0.4791344745635817,0.49779881197103737,-3.2975259516138102,40.8
,,0.03558821779356604,0.03697453111454789,0.0017133044399184106,0.07427605334803233,0.8665039299587297,0.4791344745635817,0.49779881197103737,-3.2975259516138102,40.9
,,0.02846090763953317,0.02843756524617508,0.002034782752248032,0.05893325563795628,0.8700140245890915,0.4829345898413725,0.4825385079839321,-3.560044287902608,41.0
,,0.02846090763953317,0.02843756524617508,0.002034782752248032,0.05893325563795628,0.8735241192194535,0.4829345898413725,0.4825385079839321,-3.560044287902608,41.1
,,0.02846090763953317,0.02843756524617508,0.002034782752248032,0.05893325563795628,0.8770342138498151,0.4829345898413725,0.4825385079839321,-3.560044287902608,41.2
,,0.027894353745186683,0.0273796396739215,0.0017659338997914038,0.05703992731889959,0.880744067644416,0.48903207027657236,0.48000831980109376,-3.597955619401217,41.3
,,0.027894353745186683,0.0273796396739215,0.0017659338997914038,0.05703992731889959,0.8844539214390171,0.48903207027657236,0.48000831980109376,-3.597955619401217,41.4
,,0.027894353745186683,0.0273796396739215,0.0017659338997914038,0.05703992731889959,0.8881105922711734,0.48903207027657236,0.48000831980109376,-3.597955619401217,41.5
,,0.027894353745186683,0.0273796396739215,0.0017659338997914038,0.05703992731889959,0.8917672631033295,0.48903207027657236,0.48000831980109376,-3.597955619401217,41.6
,,0.027325151051938498,0.027450677029444377,0.002006852542154046,0.05678268062353692,0.8950570445877364,0.48122333697314007,0.4834339754306321,-3.595364447234417,41.7
,,0.027325151051938498,0.027450677029444377,0.002006852542154046,0.05678268062353692,0.8983468260721433,0.48122333697314007,0.4834339754306321,-3.595364447234417,41.8
,,0.026614541094883776,0.02638164818996918,0.0017293863314605086,0.05472557561631347,0.9017855033358474,0.48632729386861107,0.4820716437033678,-3.635086654874057,41.9
,,0.026614541094883776,0.02638164818996918,0.0017293863314605086,0.05472557561631347,0.9052241805995512,0.48632729386861107,0.4820716437033678,-3.635086654874057,42.0
,,0.026614541094883776,0.02638164818996918,0.0017293863314605086,0.05472557561631347,0.908662857863255,0.48632729386861107,0.4820716437033678,-3.635086654874057,42.1
,,0.026614541094883776,0.02638164818996918,0.0017293863314605086,0.05472557561631347,0.9119947084467567,0.48632729386861107,0.4820716437033678,-3.635086654874057,42.2
,,0.025890243983305285,0.02632704142352875,0.0019614162040301622,0.054178701610864195,0.914911903580782,0.4778675607485145,0.4859297222111634,-3.6371586770160484,42.3
,,0.025890243983305285,0.02632704142352875,0.0019614162040301622,0.054178701610864195,0.9178290987148076,0.4778675607485145,0.4859297222111634,-3.6371586770160484,42.4
,,0.02502754360240952,0.025216526308844262,0.001674517290073409,0.05191858720132719,0.9208473695141783,0.48205363341955004,0.48569361510283265,-3.6802556935049644,42.5
,,0.02502754360240952,0.025216526308844262,0.001674517290073409,0.05191858720132719,0.923865640313549,0.48205363341955004,0.48569361510283265,-3.6802556935049644,42.6
,,0.02502754360240952,0.025216526308844262,0.001674517290073409,0.05191858720132719,0.9268839111129198,0.48205363341955004,0.48569361510283265,-3.6802556935049644,42.7
,,0.02502754360240952,0.025216526308844262,0.001674517290073409,0.05191858720132719,0.9297384995478547,0.48205363341955004,0.48569361510283265,-3.6802556935049644,42.8
,,0.024225997150198218,0.025056370835770607,0.001891290758669229,0.051173658744638056,0.9321646337453185,0.4734075644481176,0.48963414870929073,-3.6866271590050665,42.9
,,0.023275673792803417,0.023962784597001647,0.0016047481118253183,0.048843206501630376,0.9346403917391659,0.4765386111992152,0.49060629539548706,-3.731253293915054,43.0
,,0.023275673792803417,0.023962784597001647,0.0016047481118253183,0.048843206501630376,0.9371161497330132,0.4765386111992152,0.49060629539548706,-3.731253293915054,43.1
,,0.023275673792803417,0.023962784597001647,0.0016047481118253183,0.048843206501630376,0.9395919077268606,0.4765386111992152,0.49060629539548706,-3.731253293915054,43.2
,,0.023275673792803417,0.023962784597001647,0.0016047481118253183,0.048843206501630376,0.9420676657207079,0.4765386111992152,0.49060629539548706,-3.731253293915054,43.3
,,0.023275673792803417,0.023962784597001647,0.0016047481118253183,0.048843206501630376,0.9443294275214451,0.4765386111992152,0.49060629539548706,-3.731253293915054,43.4
,,0.022459908288171473,0.023719110053464772,0.0018072692742072925,0.047986287615843545,0.9463199227718669,0.4680484655944905,0.4942893320556324,-3.7414742243817236,43.5
,,0.021491176315743397,0.022680292031204006,0.0015260109661544491,0.045697479313101856,0.9481771119265746,0.47029238020972625,0.496313853020365,-3.7862589240501032,43.6
,,0.021491176315743397,0.022680292031204006,0.0015260109661544491,0.045697479313101856,0.9500343010812823,0.47029238020972625,0.496313853020365,-3.7862589240501032,43.7
,,0.021491176315743397,0.022680292031204006,0.0015260109661544491,0.045697479313101856,0.9518914902359898,0.47029238020972625,0.496313853020365,-3.7862589240501032,43.8
,,0.021491176315743397,0.022680292031204006,0.0015260109661544491,0.045697479313101856,0.9537486793906975,0.47029238020972625,0.496313853020365,-3.7862589240501032,43.9
,,0.021491176315743397,0.022680292031204006,0.0015260109661544491,0.045697479313101856,0.955338348205734,0.47029238020972625,0.496313853020365,-3.7862589240501032,44.0
,,0.020727248273105313,0.022402410515548705,0.0017132785507088374,0.04484293733936286,0.9566797224566514,0.46221879080412204,0.4995750021014793,-3.79858671360965,44.1
,,0.01579554694992147,0.019495111962487544,0.0010673889364678035,0.036358047848876814,0.9566187167852146,0.4344443083296462,0.5361979841029829,-3.9375915134254407,44.2
,,0.01579554694992147,0.019495111962487544,0.0010673889364678035,0.036358047848876814,0.9565577111137779,0.4344443083296462,0.5361979841029829,-3.9375915134254407,44.3
,,0.01579554694992147,0.019495111962487544,0.0010673889364678035,0.036358047848876814,0.9564967054423412,0.4344443083296462,0.5361979841029829,-3.9375915134254407,44.4
,,0.01579554694992147,0.019495111962487544,0.0010673889364678035,0.036358047848876814,0.9564356997709044,0.4344443083296462,0.5361979841029829,-3.9375915134254407,44.5
,,0.01579554694992147,0.019495111962487544,0.0010673889364678035,0.036358047848876814,0.9563746940994677,0.4344443083296462,0.5361979841029829,-3.9375915134254407,44.6
,,0.01579554694992147,0.019495111962487544,0.0010673889364678035,0.036358047848876814,0.9560033329416723,0.4344443083296462,0.5361979841029829,-3.9375915134254407,44.7
,,0.01916962824772174,0.02119607204158331,0.0016224192220564845,0.041988119511361534,0.9561249477320571,0.4565488636025875,0.5048111772628417,-3.853939395528217,44.8
,,0.018419330376776646,0.020410371193628554,0.0013755201994401435,0.040205221769845347,0.956224942955278,0.45813278887548586,0.5076547347622569,-3.89171211547478,44.9
,,0.018419330376776646,0.020410371193628554,0.0013755201994401435,0.040205221769845347,0.956324938178499,0.45813278887548586,0.5076547347622569,-3.89171211547478,45.0
,,0.018419330376776646,0.020410371193628554,0.0013755201994401435,0.040205221769845347,0.9564249334017195,0.45813278887548586,0.5076547347622569,-3.89171211547478,45.1
,,0.018419330376776646,0.020410371193628554,0.0013755201994401435,0.040205221769845347,0.9565249286249405,0.45813278887548586,0.5076547347622569,-3.89171211547478,45.2
,,0.018419330376776646,0.020410371193628554,0.0013755201994401435,0.040205221769845347,0.9567541936053559,0.45813278887548586,0.5076547347622569,-3.89171211547478,45.3
,,0.013670143703316652,0.017321946805739785,0.001122424704747017,0.03211451521380345,0.9557249142247817,0.4256686925618281,0.5393806099957714,-4.055780979985528,45.4
,,0.017248869445347665,0.019465570669750448,0.0013124293428377095,0.03802686945793582,0.95540034904307,0.453596882710207,0.5118899069849197,-3.9391079806124876,45.5
,,0.017248869445347665,0.019465570669750448,0.0013124293428377095,0.03802686945793582,0.9550757838613584,0.453596882710207,0.5118899069849197,-3.9391079806124876,45.6
,,0.017248869445347665,0.019465570669750448,0.0013124293428377095,0.03802686945793582,0.9547512186796467,0.453596882710207,0.5118899069849197,-3.9391079806124876,45.7
,,0.017248869445347665,0.019465570669750448,0.0013124293428377095,0.03802686945793582,0.9544266534979352,0.453596882710207,0.5118899069849197,-3.9391079806124876,45.8
,,0.017248869445347665,0.019465570669750448,0.0013124293428377095,0.03802686945793582,0.9541020883162238,0.453596882710207,0.5118899069849197,-3.9391079806124876,45.9
,,0.017248869445347665,0.019465570669750448,0.0013124293428377095,0.03802686945793582,0.953761210988561,0.453596882710207,0.5118899069849197,-3.9391079806124876,46.0
,,0.0164533392355829,0.01870269381761684,0.0012581690259683969,0.03641420207916814,0.9531588937194758,0.4518385216793076,0.5136098760850315,-3.9790877110784244,46.1
,,0.0164533392355829,0.01870269381761684,0.0012581690259683969,0.03641420207916814,0.9525565764503908,0.4518385216793076,0.5136098760850315,-3.9790877110784244,46.2
,,0.0164533392355829,0.01870269381761684,0.0012581690259683969,0.03641420207916814,0.9519542591813057,0.4518385216793076,0.5136098760850315,-3.9790877110784244,46.3
,,0.0164533392355829,0.01870269381761684,0.0012581690259683969,0.03641420207916814,0.9513519419122207,0.4518385216793076,0.5136098760850315,-3.9790877110784244,46.4
,,0.0164533392355829,0.01870269381761684,0.0012581690259683969,0.03641420207916814,0.9507496246431357,0.4518385216793076,0.5136098760850315,-3.9790877110784244,46.5
,,0.0164533392355829,0.01870269381761684,0.0012581690259683969,0.03641420207916814,0.9499847772720676,0.4518385216793076,0.5136098760850315,-3.9790877110784244,46.6
,,0.016195725176074743,0.0183056990007925,0.0011917585314022532,0.0356931827082695,0.9493107314001419,0.4537484176865648,0.5128626144216436,-4.000542846807823,46.7
,,0.016102588510701378,0.018193094215728175,0.0012186636357354379,0.03551434636216499,0.948640648527349,0.4534108088740212,0.5122745053562379,-4.006713195600718,46.8
,,0.016102588510701378,0.018193094215728175,0.0012186636357354379,0.03551434636216499,0.9479705656545558,0.4534108088740212,0.5122745053562379,-4.006713195600718,46.9
,,0.016102588510701378,0.018193094215728175,0.0012186636357354379,0.03551434636216499,0.9473004827817629,0.4534108088740212,0.5122745053562379,-4.006713195600718,47.0
,,0.016102588510701378,0.018193094215728175,0.0012186636357354379,0.03551434636216499,0.94663039990897,0.4534108088740212,0.5122745053562379,-4.006713195600718,47.1
,,0.016102588510701378,0.018193094215728175,0.0012186636357354379,0.03551434636216499,0.9456256305323513,0.4534108088740212,0.5122745053562379,-4.006713195600718,47.2
,,0.016102588510701378,0.018193094215728175,0.0012186636357354379,0.03551434636216499,0.9446208611557326,0.4534108088740212,0.5122745053562379,-4.006713195600718,47.3
,,0.012439430865155912,0.014251250098849814,0.0008707354248122309,0.027561416388817955,0.9435735981874042,0.4513349636923144,0.5170724863266367,-4.250910649880124,47.4
,,0.012439430865155912,0.014251250098849814,0.0008707354248122309,0.027561416388817955,0.9425263352190757,0.4513349636923144,0.5170724863266367,-4.250910649880124,47.5
,,0.012439430865155912,0.014251250098849814,0.0008707354248122309,0.027561416388817955,0.9414790722507471,0.4513349636923144,0.5170724863266367,-4.250910649880124,47.6
,,0.012439430865155912,0.014251250098849814,0.0008707354248122309,0.027561416388817955,0.9404318092824189,0.4513349636923144,0.5170724863266367,-4.250910649880124,47.7
,,0.012439430865155912,0.014251250098849814,0.0008707354248122309,0.027561416388817955,0.939136515040138,0.4513349636923144,0.5170724863266367,-4.250910649880124,47.8
,,0.012439430865155912,0.014251250098849814,0.0008707354248122309,0.027561416388817955,0.937841220797857,0.4513349636923144,0.5170724863266367,-4.250910649880124,47.9
,,0.012439430865155912,0.014251250098849814,0.0008707354248122309,0.027561416388817955,0.9365459265555762,0.4513349636923144,0.5170724863266367,-4.250910649880124,48.0
,,0.016711953446275598,0.017949057245611546,0.0011899506260644806,0.035850961317951624,0.9362850161292096,0.46615077621105333,0.5006576277390902,-4.0202176865629795,48.1
,,0.016711953446275598,0.017949057245611546,0.0011899506260644806,0.035850961317951624,0.9360241057028426,0.46615077621105333,0.5006576277390902,-4.0202176865629795,48.2
,,0.016711953446275598,0.017949057245611546,0.0011899506260644806,0.035850961317951624,0.9357631952764758,0.46615077621105333,0.5006576277390902,-4.0202176865629795,48.3
,,0.016711953446275598,0.017949057245611546,0.0011899506260644806,0.035850961317951624,0.9348743352532951,0.46615077621105333,0.5006576277390902,-4.0202176865629795,48.4
,,0.016711953446275598,0.017949057245611546,0.0011899506260644806,0.035850961317951624,0.9339854752301142,0.46615077621105333,0.5006576277390902,-4.0202176865629795,48.5
,,0.016711953446275598,0.017949057245611546,0.0011899506260644806,0.035850961317951624,0.9330966152069332,0.46615077621105333,0.5006576277390902,-4.0202176865629795,48.6
,,0.017584769350162253,0.018201851727961522,0.001198713616541931,0.03698533469466571,0.9327804970420127,0.475452486650025,0.49213700182052766,-4.0062319467802965,48.7
,,0.017584769350162253,0.018201851727961522,0.001198713616541931,0.03698533469466571,0.9324643788770921,0.475452486650025,0.49213700182052766,-4.0062319467802965,48.8
,,0.017584769350162253,0.018201851727961522,0.001198713616541931,0.03698533469466571,0.9321482607121717,0.475452486650025,0.49213700182052766,-4.0062319467802965,48.9
,,0.017584769350162253,0.018201851727961522,0.001198713616541931,0.03698533469466571,0.9315566626234405,0.475452486650025,0.49213700182052766,-4.0062319467802965,49.0
,,0.017584769350162253,0.018201851727961522,0.001198713616541931,0.03698533469466571,0.9309650645347093,0.475452486650025,0.49213700182052766,-4.0062319467802965,49.1
,,0.017584769350162253,0.018201851727961522,0.001198713616541931,0.03698533469466571,0.9303734664459782,0.475452486650025,0.49213700182052766,-4.0062319467802965,49.2
,,0.017584769350162253,0.018201851727961522,0.001198713616541931,0.03698533469466571,0.9297818683572469,0.475452486650025,0.49213700182052766,-4.0062319467802965,49.3
,,0.018833825772427655,0.018738887897096518,0.0012215414026539593,0.03879425507217813,0.9298312247818779,0.48547976336667975,0.48303254856246447,-3.9771543477376556,49.4
,,0.018833825772427655,0.018738887897096518,0.0012215414026539593,0.03879425507217813,0.929880581206509,0.48547976336667975,0.48303254856246447,-3.9771543477376556,49.5
,,0.018833825772427655,0.018738887897096518,0.0012215414026539593,0.03879425507217813,0.9299299376311401,0.48547976336667975,0.48303254856246447,-3.9771543477376556,49.6
,,0.018833825772427655,0.018738887897096518,0.0012215414026539593,0.03879425507217813,0.9304028275449852,0.48547976336667975,0.48303254856246447,-3.9771543477376556,49.7
,,0.018833825772427655,0.018738887897096518,0.0012215414026539593,0.03879425507217813,0.9308757174588305,0.48547976336667975,0.48303254856246447,-3.9771543477376556,49.8
,,0.018833825772427655,0.018738887897096518,0.0012215414026539593,0.03879425507217813,0.9313486073726757,0.48547976336667975,0.48303254856246447,-3.9771543477376556,49.9
,,0.02039320846919905,0.019521620113554423,0.0012559156125222454,0.041170744195275714,0.9318355685688468,0.49533251991930577,0.47416243002463143,-3.9362327038206866,50.0
,,0.02039320846919905,0.019521620113554423,0.0012559156125222454,0.041170744195275714,0.932322529765018,0.49533251991930577,0.47416243002463143,-3.9362327038206866,50.1
,,0.02039320846919905,0.019521620113554423,0.0012559156125222454,0.041170744195275714,0.9328094909611894,0.49533251991930577,0.47416243002463143,-3.9362327038206866,50.2
,,0.02039320846919905,0.019521620113554423,0.0012559156125222454,0.041170744195275714,0.9330966929931213,0.49533251991930577,0.47416243002463143,-3.9362327038206866,50.3
,,0.02039320846919905,0.019521620113554423,0.0012559156125222454,0.041170744195275714,0.9333838950250534,0.49533251991930577,0.47416243002463143,-3.9362327038206866,50.4
,,0.02039320846919905,0.019521620113554423,0.0012559156125222454,0.041170744195275714,0.9336710970569853,0.49533251991930577,0.47416243002463143,-3.9362327038206866,50.5
,,0.02228766226638161,0.0205805142750791,0.0013061865811328152,0.04417436312259353,0.9343838811713164,0.5045383949176239,0.46589272193837106,-3.8834105598175563,50.6
,,0.02228766226638161,0.0205805142750791,0.0013061865811328152,0.04417436312259353,0.9353563534732574,0.5045383949176239,0.46589272193837106,-3.8834105598175563,50.7
,,0.02228766226638161,0.0205805142750791,0.0013061865811328152,0.04417436312259353,0.9363288257751985,0.5045383949176239,0.46589272193837106,-3.8834105598175563,50.8
,,0.02228766226638161,0.0205805142750791,0.0013061865811328152,0.04417436312259353,0.9371524022978424,0.5045383949176239,0.46589272193837106,-3.8834105598175563,50.9
,,0.02228766226638161,0.0205805142750791,0.0013061865811328152,0.04417436312259353,0.9379759788204864,0.5045383949176239,0.46589272193837106,-3.8834105598175563,51.0
,,0.02228766226638161,0.0205805142750791,0.0013061865811328152,0.04417436312259353,0.9387995553431306,0.5045383949176239,0.46589272193837106,-3.8834105598175563,51.1
,,0.024543206824132382,0.021929756308190836,0.0013758937091150024,0.04784885684143822,0.9400256206417078,0.5129319370254505,0.45831306651403964,-3.8199108288716817,51.2
,,0.024543206824132382,0.021929756308190836,0.0013758937091150024,0.04784885684143822,0.9415341197883109,0.5129319370254505,0.45831306651403964,-3.8199108288716817,51.3
,,0.024543206824132382,0.021929756308190836,0.0013758937091150024,0.04784885684143822,0.9430426189349137,0.5129319370254505,0.45831306651403964,-3.8199108288716817,51.4
,,0.024543206824132382,0.021929756308190836,0.0013758937091150024,0.04784885684143822,0.9444500424161714,0.5129319370254505,0.45831306651403964,-3.8199108288716817,51.5
,,0.024543206824132382,0.021929756308190836,0.0013758937091150024,0.04784885684143822,0.945857465897429,0.5129319370254505,0.45831306651403964,-3.8199108288716817,51.6
,,0.024543206824132382,0.021929756308190836,0.0013758937091150024,0.04784885684143822,0.9472648893786867,0.5129319370254505,0.45831306651403964,-3.8199108288716817,51.7
,,0.0268983873508254,0.023402071223767418,0.0014506495762832148,0.05175110815087603,0.9490081826435498,0.5197644709830251,0.4522042533957077,-3.7549307466993853,51.8
,,0.0268983873508254,0.023402071223767418,0.0014506495762832148,0.05175110815087603,0.9510364294958203,0.5197644709830251,0.4522042533957077,-3.7549307466993853,51.9
,,0.0268983873508254,0.023402071223767418,0.0014506495762832148,0.05175110815087603,0.953015052551707,0.5197644709830251,0.4522042533957077,-3.7549307466993853,52.0
,,0.0268983873508254,0.023402071223767418,0.0014506495762832148,0.05175110815087603,0.954993675607594,0.5197644709830251,0.4522042533957077,-3.7549307466993853,52.1
,,0.0268983873508254,0.023402071223767418,0.0014506495762832148,0.05175110815087603,0.9569722986634808,0.5197644709830251,0.4522042533957077,-3.7549307466993853,52.2
,,0.0268983873508254,0.023402071223767418,0.0014506495762832148,0.05175110815087603,0.9589509217193677,0.5197644709830251,0.4522042533957077,-3.7549307466993853,52.3
,,0.02086840005056641,0.024388985729276832,0.0015331721506461871,0.04679055793048943,0.9576656175066669,0.4459959652878652,0.52123733522281,-3.7136236531345146,52.4
,,0.029313992896914262,0.025065834695548374,0.0015278620075980455,0.055907689600060685,0.9601385962958555,0.5243284619095124,0.44834323998824605,-3.68624952758243,52.5
,,0.029313992896914262,0.025065834695548374,0.0015278620075980455,0.055907689600060685,0.9626042573239051,0.5243284619095124,0.44834323998824605,-3.68624952758243,52.6
,,0.029313992896914262,0.025065834695548374,0.0015278620075980455,0.055907689600060685,0.9650699183519544,0.5243284619095124,0.44834323998824605,-3.68624952758243,52.7
,,0.029313992896914262,0.025065834695548374,0.0015278620075980455,0.055907689600060685,0.967535579380004,0.5243284619095124,0.44834323998824605,-3.68624952758243,52.8
,,0.029313992896914262,0.025065834695548374,0.0015278620075980455,0.055907689600060685,0.9700012404080535,0.5243284619095124,0.44834323998824605,-3.68624952758243,52.9
,,0.029313992896914262,0.025065834695548374,0.0015278620075980455,0.055907689600060685,0.9724669014361029,0.5243284619095124,0.44834323998824605,-3.68624952758243,53.0
,,0.032049110371575415,0.02720784248319706,0.0016246176320783255,0.060881570486850806,0.9752748177478692,0.5264172739843723,0.4468978422472431,-3.6042500206501806,53.1
,,0.032049110371575415,0.02720784248319706,0.0016246176320783255,0.060881570486850806,0.9793604326143162,0.5264172739843723,0.4468978422472431,-3.6042500206501806,53.2
,,0.032049110371575415,0.02720784248319706,0.0016246176320783255,0.060881570486850806,0.9834460474807629,0.5264172739843723,0.4468978422472431,-3.6042500206501806,53.3
,,0.032049110371575415,0.02720784248319706,0.0016246176320783255,0.060881570486850806,0.9875316623472098,0.5264172739843723,0.4468978422472431,-3.6042500206501806,53.4
,,0.032049110371575415,0.02720784248319706,0.0016246176320783255,0.060881570486850806,0.9916172772136566,0.5264172739843723,0.4468978422472431,-3.6042500206501806,53.5
,,0.032049110371575415,0.02720784248319706,0.0016246176320783255,0.060881570486850806,0.9957028920801033,0.5264172739843723,0.4468978422472431,-3.6042500206501806,53.6
,,0.032049110371575415,0.02720784248319706,0.0016246176320783255,0.060881570486850806,0.9997885069465503,0.5264172739843723,0.4468978422472431,-3.6042500206501806,53.7
,,0.03514851670379469,0.02985996603977105,0.0017435866617848302,0.06675206940535057,1.0028186894937074,0.526553214258513,0.44732644704161934,-3.5112366241868416,53.8
,,0.03514851670379469,0.02985996603977105,0.0017435866617848302,0.06675206940535057,1.0058704916080285,0.526553214258513,0.44732644704161934,-3.5112366241868416,53.9
,,0.03514851670379469,0.02985996603977105,0.0017435866617848302,0.06675206940535057,1.0089222937223499,0.526553214258513,0.44732644704161934,-3.5112366241868416,54.0
,,0.03514851670379469,0.02985996603977105,0.0017435866617848302,0.06675206940535057,1.0119740958366712,0.526553214258513,0.44732644704161934,-3.5112366241868416,54.1
,,0.03514851670379469,0.02985996603977105,0.0017435866617848302,0.06675206940535057,1.0150258979509923,0.526553214258513,0.44732644704161934,-3.5112366241868416,54.2
,,0.03514851670379469,0.02985996603977105,0.0017435866617848302,0.06675206940535057,1.0180777000653136,0.526553214258513,0.44732644704161934,-3.5112366241868416,54.3
,,0.037018591377691076,0.03173527290493044,0.001803086504876674,0.07055695078749818,1.022269926638072,0.5246625734887953,0.4497823750988051,-3.450326506767046,54.4
,,0.037018591377691076,0.03173527290493044,0.001803086504876674,0.07055695078749818,1.0253850266667464,0.5246625734887953,0.4497823750988051,-3.450326506767046,54.5
,,0.037018591377691076,0.03173527290493044,0.001803086504876674,0.07055695078749818,1.028500126695421,0.5246625734887953,0.4497823750988051,-3.450326506767046,54.6
,,0.037018591377691076,0.03173527290493044,0.001803086504876674,0.07055695078749818,1.0316152267240957,0.5246625734887953,0.4497823750988051,-3.450326506767046,54.7
,,0.037018591377691076,0.03173527290493044,0.001803086504876674,0.07055695078749818,1.03473032675277,0.5246625734887953,0.4497823750988051,-3.450326506767046,54.8
,,0.037018591377691076,0.03173527290493044,0.001803086504876674,0.07055695078749818,1.0378454267814445,0.5246625734887953,0.4497823750988051,-3.450326506767046,54.9
,,0.038148544001306246,0.033190578807330104,0.0018337678327600712,0.07317289064139643,1.0407705016709488,0.5213480520848017,0.45359119362920247,-3.4054892141938153,55.0
,,0.038148544001306246,0.033190578807330104,0.0018337678327600712,0.07317289064139643,1.0437665872970094,0.5213480520848017,0.45359119362920247,-3.4054892141938153,55.1
,,0.038148544001306246,0.033190578807330104,0.0018337678327600712,0.07317289064139643,1.0467626729230701,0.5213480520848017,0.45359119362920247,-3.4054892141938153,55.2
,,0.038148544001306246,0.033190578807330104,0.0018337678327600712,0.07317289064139643,1.0497587585491308,0.5213480520848017,0.45359119362920247,-3.4054892141938153,55.3
,,0.038148544001306246,0.033190578807330104,0.0018337678327600712,0.07317289064139643,1.0527548441751917,0.5213480520848017,0.45359119362920247,-3.4054892141938153,55.4
,,0.038148544001306246,0.033190578807330104,0.0018337678327600712,0.07317289064139643,1.0557509298012522,0.5213480520848017,0.45359119362920247,-3.4054892141938153,55.5
,,0.02998571254718098,0.034316851250833204,0.0018699425026128262,0.06617250630062702,1.0556849159839419,0.4531445795774075,0.5185968186686022,-3.3721187553419623,55.6
,,0.039341116224501586,0.03496640084569949,0.0018763414070818332,0.07618385847728291,1.0583557514636714,0.5163970033919012,0.4589738764166958,-3.353367654401787,55.7
,,0.039341116224501586,0.03496640084569949,0.0018763414070818332,0.07618385847728291,1.0610226239442686,0.5163970033919012,0.4589738764166958,-3.353367654401787,55.8
,,0.039341116224501586,0.03496640084569949,0.0018763414070818332,0.07618385847728291,1.0636894964248655,0.5163970033919012,0.4589738764166958,-3.353367654401787,55.9
,,0.039341116224501586,0.03496640084569949,0.0018763414070818332,0.07618385847728291,1.0663563689054627,0.5163970033919012,0.4589738764166958,-3.353367654401787,56.0
,,0.039341116224501586,0.03496640084569949,0.0018763414070818332,0.07618385847728291,1.0690232413860596,0.5163970033919012,0.4589738764166958,-3.353367654401787,56.1
,,0.039341116224501586,0.03496640084569949,0.0018763414070818332,0.07618385847728291,1.0716901138666566,0.5163970033919012,0.4589738764166958,-3.353367654401787,56.2
,,0.04092822281106994,0.037344643561905214,0.0019497158226811776,0.08022258219565633,1.0740330717497948,0.5101833136117377,0.4655128585966565,-3.2875657896849777,56.3
,,0.04092822281106994,0.037344643561905214,0.0019497158226811776,0.08022258219565633,1.07651189080596,0.5101833136117377,0.4655128585966565,-3.2875657896849777,56.4
,,0.04092822281106994,0.037344643561905214,0.0019497158226811776,0.08022258219565633,1.0789907098621252,0.5101833136117377,0.4655128585966565,-3.2875657896849777,56.5
,,0.04092822281106994,0.037344643561905214,0.0019497158226811776,0.08022258219565633,1.0814695289182905,0.5101833136117377,0.4655128585966565,-3.2875657896849777,56.6
,,0.04092822281106994,0.037344643561905214,0.0019497158226811776,0.08022258219565633,1.0839483479744556,0.5101833136117377,0.4655128585966565,-3.2875657896849777,56.7
,,0.04092822281106994,0.037344643561905214,0.0019497158226811776,0.08022258219565633,1.0864271670306207,0.5101833136117377,0.4655128585966565,-3.2875657896849777,56.8
,,0.04243031075864776,0.03992263730552224,0.002029836910393947,0.08438278497456396,1.0885376934518773,0.5028313627173813,0.4731135304144842,-3.220811764953463,56.9
,,0.04243031075864776,0.03992263730552224,0.002029836910393947,0.08438278497456396,1.090648219873134,0.5028313627173813,0.4731135304144842,-3.220811764953463,57.0
,,0.04243031075864776,0.03992263730552224,0.002029836910393947,0.08438278497456396,1.0921119573526676,0.5028313627173813,0.4731135304144842,-3.220811764953463,57.1
,,0.04243031075864776,0.03992263730552224,0.002029836910393947,0.08438278497456396,1.0935756948322013,0.5028313627173813,0.4731135304144842,-3.220811764953463,57.2
,,0.04243031075864776,0.03992263730552224,0.002029836910393947,0.08438278497456396,1.0950394323117352,0.5028313627173813,0.4731135304144842,-3.220811764953463,57.3
,,0.04243031075864776,0.03992263730552224,0.002029836910393947,0.08438278497456396,1.0965031697912686,0.5028313627173813,0.4731135304144842,-3.220811764953463,57.4
,,0.03326476519948368,0.02964373977886713,0.0017409635472725323,0.06464946852562334,1.0986262196682026,0.5145404279124033,0.4585302935184696,-3.518504313137358,57.5
,,0.044028803223912345,0.04290832943620137,0.002130404166820829,0.08906753682693454,1.0996821780195656,0.49433053604551663,0.4817504891773951,-3.14868931254264,57.6
,,0.044028803223912345,0.04290832943620137,0.002130404166820829,0.08906753682693454,1.1003490155287052,0.49433053604551663,0.4817504891773951,-3.14868931254264,57.7
,,0.044028803223912345,0.04290832943620137,0.002130404166820829,0.08906753682693454,1.101015853037845,0.49433053604551663,0.4817504891773951,-3.14868931254264,57.8
,,0.044028803223912345,0.04290832943620137,0.002130404166820829,0.08906753682693454,1.1016826905469845,0.49433053604551663,0.4817504891773951,-3.14868931254264,57.9
,,0.044028803223912345,0.04290832943620137,0.002130404166820829,0.08906753682693454,1.1023495280561242,0.49433053604551663,0.4817504891773951,-3.14868931254264,58.0
,,0.03413055836406154,0.031853588364048745,0.0018539079681536158,0.0678380546962639,1.1035204674580363,0.5031181763226658,0.4695533872052944,-3.4466052388188055,58.1
,,0.033749629097740805,0.03199082229102801,0.0019187067641297485,0.06765915815289857,1.1045080303087031,0.498818342100447,0.47282323878068383,-3.442306220723747,58.2
,,0.033749629097740805,0.03199082229102801,0.0019187067641297485,0.06765915815289857,1.1054955931593702,0.498818342100447,0.47282323878068383,-3.442306220723747,58.3
,,0.033749629097740805,0.03199082229102801,0.0019187067641297485,0.06765915815289857,1.1060501723240512,0.498818342100447,0.47282323878068383,-3.442306220723747,58.4
,,0.033749629097740805,0.03199082229102801,0.0019187067641297485,0.06765915815289857,1.1066047514887325,0.498818342100447,0.47282323878068383,-3.442306220723747,58.5
,,0.04796850893171019,0.049494472202029384,0.0023153310540116974,0.09977831218775128,1.1062058921587627,0.4807508553707403,0.4960443919806582,-3.005894288329626,58.6
,,0.04796850893171019,0.049494472202029384,0.0023153310540116974,0.09977831218775128,1.105807032828793,0.4807508553707403,0.4960443919806582,-3.005894288329626,58.7
,,0.04706717467978496,0.049920269566183256,0.0023712145456473983,0.09935865879161562,1.1051157062692758,0.47370984323066084,0.5024249539326086,-2.9973281549719375,58.8
,,0.04706717467978496,0.049920269566183256,0.0023712145456473983,0.09935865879161562,1.1044243797097586,0.47370984323066084,0.5024249539326086,-2.9973281549719375,58.9
,,0.04706717467978496,0.049920269566183256,0.0023712145456473983,0.09935865879161562,1.1032932644693199,0.47370984323066084,0.5024249539326086,-2.9973281549719375,59.0
,,0.04706717467978496,0.049920269566183256,0.0023712145456473983,0.09935865879161562,1.1021621492288811,0.47370984323066084,0.5024249539326086,-2.9973281549719375,59.1
,,0.04869287851416424,0.05273746397722444,0.0024003321613998868,0.10383067465278857,1.1008139251271944,0.46896428899257375,0.5079179553978568,-2.9424291845899946,59.2
,,0.04869287851416424,0.05273746397722444,0.0024003321613998868,0.10383067465278857,1.0994657010255076,0.46896428899257375,0.5079179553978568,-2.9424291845899946,59.3
,,0.04753359164922474,0.052983837594016814,0.002461875750676694,0.10297930499391825,1.097826661742288,0.46158392360515527,0.5145095667245563,-2.93776836299333,59.4
,,0.04753359164922474,0.052983837594016814,0.002461875750676694,0.10297930499391825,1.0961876224590685,0.46158392360515527,0.5145095667245563,-2.93776836299333,59.5
,,0.04753359164922474,0.052983837594016814,0.002461875750676694,0.10297930499391825,1.0941230010934497,0.46158392360515527,0.5145095667245563,-2.93776836299333,59.6
,,0.04753359164922474,0.052983837594016814,0.002461875750676694,0.10297930499391825,1.0920583797278312,0.46158392360515527,0.5145095667245563,-2.93776836299333,59.7
,,0.049419398401799514,0.0563347387851872,0.002516626297321016,0.10827076348430772,1.089772777687621,0.456442688787007,0.5203134897386412,-2.8764439041889136,59.8
,,0.049419398401799514,0.0563347387851872,0.002516626297321016,0.10827076348430772,1.087487175647411,0.456442688787007,0.5203134897386412,-2.8764439041889136,59.9
,,0.03352519852328932,0.038643763788507195,0.0023162692280189363,0.07448523153981544,1.0850937882277174,0.4500918884217835,0.5188110849578349,-3.253369867846663,60.0
,,0.03352519852328932,0.038643763788507195,0.0023162692280189363,0.07448523153981544,1.0827004008080239,0.4500918884217835,0.5188110849578349,-3.253369867846663,60.1
,,0.03352519852328932,0.038643763788507195,0.0023162692280189363,0.07448523153981544,1.0799045246123973,0.4500918884217835,0.5188110849578349,-3.253369867846663,60.2
,,0.03352519852328932,0.038643763788507195,0.0023162692280189363,0.07448523153981544,1.0771086484167707,0.4500918884217835,0.5188110849578349,-3.253369867846663,60.3
,,0.03352519852328932,0.038643763788507195,0.0023162692280189363,0.07448523153981544,1.074312772221144,0.4500918884217835,0.5188110849578349,-3.253369867846663,60.4
,,0.050109483374471506,0.06030191930468302,0.002658332891352218,0.11306973557050674,1.0711105819680884,0.44317326048069516,0.5333161787318467,-2.8083913464904793,60.5
,,0.03323409949421029,0.04128000285522662,0.0024985519226057478,0.07701265427204265,1.067620758072617,0.43154076181834733,0.5360158437002762,-3.1873770886415205,60.6
,,0.03323409949421029,0.04128000285522662,0.0024985519226057478,0.07701265427204265,1.0641309341771457,0.43154076181834733,0.5360158437002762,-3.1873770886415205,60.7
,,0.03323409949421029,0.04128000285522662,0.0024985519226057478,0.07701265427204265,1.0603052404980688,0.43154076181834733,0.5360158437002762,-3.1873770886415205,60.8
,,0.03323409949421029,0.04128000285522662,0.0024985519226057478,0.07701265427204265,1.0564795468189918,0.43154076181834733,0.5360158437002762,-3.1873770886415205,60.9
,,0.03323409949421029,0.04128000285522662,0.0024985519226057478,0.07701265427204265,1.052653853139915,0.43154076181834733,0.5360158437002762,-3.1873770886415205,61.0
,,0.049459952868660007,0.06280586337850116,0.0027615578363132404,0.11502737408347441,1.0486327792091297,0.42998419517746556,0.5460079731362334,-2.767706843966608,61.1
,,0.0477618600167788,0.06245335880725016,0.0028275696525436674,0.11304278847657263,1.0443589844841823,0.422511339824894,0.5524753913885733,-2.7733352599136976,61.2
,,0.0477618600167788,0.06245335880725016,0.0028275696525436674,0.11304278847657263,1.040085189759235,0.422511339824894,0.5524753913885733,-2.7733352599136976,61.3
,,0.0477618600167788,0.06245335880725016,0.0028275696525436674,0.11304278847657263,1.039075322302875,0.422511339824894,0.5524753913885733,-2.7733352599136976,61.4
,,0.0477618600167788,0.06245335880725016,0.0028275696525436674,0.11304278847657263,1.034578438394941,0.422511339824894,0.5524753913885733,-2.7733352599136976,61.5
,,0.0477618600167788,0.06245335880725016,0.0028275696525436674,0.11304278847657263,1.0300815544870068,0.422511339824894,0.5524753913885733,-2.7733352599136976,61.6
,,0.0477618600167788,0.06245335880725016,0.0028275696525436674,0.11304278847657263,1.0255846705790725,0.422511339824894,0.5524753913885733,-2.7733352599136976,61.7
,,0.0468180436302309,0.06263677182223731,0.0027678824579409787,0.11222269791040919,1.020895481562298,0.4171887194122456,0.5581470860043141,-2.77040276403248,61.8
,,0.02351172720167935,0.04127169493800886,0.002581374438625153,0.06736479657831336,1.0142310551945246,0.3490209782545152,0.6126596833114374,-3.1875783665671817,61.9
,,0.02351172720167935,0.04127169493800886,0.002581374438625153,0.06736479657831336,1.007566628826751,0.3490209782545152,0.6126596833114374,-3.1875783665671817,62.0
,,0.02351172720167935,0.04127169493800886,0.002581374438625153,0.06736479657831336,1.0008082417393798,0.3490209782545152,0.6126596833114374,-3.1875783665671817,62.1
,,0.02351172720167935,0.04127169493800886,0.002581374438625153,0.06736479657831336,0.9940498546520083,0.3490209782545152,0.6126596833114374,-3.1875783665671817,62.2
,,0.02351172720167935,0.04127169493800886,0.002581374438625153,0.06736479657831336,0.987291467564637,0.3490209782545152,0.6126596833114374,-3.1875783665671817,62.3
,,0.04334353931739263,0.0607340533220021,0.0027221046543040505,0.10679969729369877,0.982132853629013,0.40583953340427603,0.5686725230595334,-2.8012507279769503,62.4
,,0.04117734676475452,0.05901052700905183,0.0027104253592523135,0.10289829913305866,0.9767979663159985,0.40017519348408026,0.5734839886201114,-2.830039427109831,62.5
,,0.04117734676475452,0.05901052700905183,0.0027104253592523135,0.10289829913305866,0.9714630790029839,0.40017519348408026,0.5734839886201114,-2.830039427109831,62.6
,,0.04117734676475452,0.05901052700905183,0.0027104253592523135,0.10289829913305866,0.9661281916899693,0.40017519348408026,0.5734839886201114,-2.830039427109831,62.7
,,0.04117734676475452,0.05901052700905183,0.0027104253592523135,0.10289829913305866,0.9608024681780161,0.40017519348408026,0.5734839886201114,-2.830039427109831,62.8
,,0.04117734676475452,0.05901052700905183,0.0027104253592523135,0.10289829913305866,0.9554767446660626,0.40017519348408026,0.5734839886201114,-2.830039427109831,62.9
,,0.02487368903279132,0.03888161046126274,0.0024888148771427545,0.06624411437119682,0.9495058239309426,0.3754852679199903,0.5869443773282387,-3.2472338789189643,63.0
,,0.03687209017381229,0.054516137400450033,0.0025403304769881937,0.09392855805125051,0.9439418250644517,0.392554628100366,0.5804000245665886,-2.9092585220507967,63.1
,,0.03687209017381229,0.054516137400450033,0.0025403304769881937,0.09392855805125051,0.9383778261979608,0.392554628100366,0.5804000245665886,-2.9092585220507967,63.2
,,0.03687209017381229,0.054516137400450033,0.0025403304769881937,0.09392855805125051,0.9328138273314701,0.392554628100366,0.5804000245665886,-2.9092585220507967,63.3
,,0.03687209017381229,0.054516137400450033,0.0025403304769881937,0.09392855805125051,0.9273679483675317,0.392554628100366,0.5804000245665886,-2.9092585220507967,63.4
,,0.03687209017381229,0.054516137400450033,0.0025403304769881937,0.09392855805125051,0.9219220694035936,0.392554628100366,0.5804000245665886,-2.9092585220507967,63.5
,,0.0359259673877411,0.053448041345522626,0.002505070297183261,0.091879079030447,0.916429683372675,0.39101357748520654,0.5817215617475981,-2.9290452867938765,63.6
,,0.03323715392188867,0.05011123708027124,0.0023810591643992356,0.08572945016655914,0.9108384225594696,0.3876982047279434,0.5845276854442996,-2.993510003021851,63.7
,,0.03323715392188867,0.05011123708027124,0.0023810591643992356,0.08572945016655914,0.9052471617462643,0.3876982047279434,0.5845276854442996,-2.993510003021851,63.8
,,0.03323715392188867,0.05011123708027124,0.0023810591643992356,0.08572945016655914,0.899655900933059,0.3876982047279434,0.5845276854442996,-2.993510003021851,63.9
,,0.03323715392188867,0.05011123708027124,0.0023810591643992356,0.08572945016655914,0.8942546652590241,0.3876982047279434,0.5845276854442996,-2.993510003021851,64.0
,,0.03323715392188867,0.05011123708027124,0.0023810591643992356,0.08572945016655914,0.8888534295849894,0.3876982047279434,0.5845276854442996,-2.993510003021851,64.1
,,0.021420199952864465,0.03441849007195221,0.002344637028287472,0.058183327053104146,0.8829975076818657,0.36815013918530587,0.5915524569528023,-3.3691613569136574,64.2
,,0.03080905604105084,0.04675410147342666,0.0022740824193876697,0.07983723993386517,0.87754840478535,0.38589831094577115,0.5856177081291436,-3.0628532950437655,64.3
,,0.03080905604105084,0.04675410147342666,0.0022740824193876697,0.07983723993386517,0.8720993018888342,0.38589831094577115,0.5856177081291436,-3.0628532950437655,64.4
,,0.03080905604105084,0.04675410147342666,0.0022740824193876697,0.07983723993386517,0.8666501989923187,0.38589831094577115,0.5856177081291436,-3.0628532950437655,64.5
,,0.03080905604105084,0.04675410147342666,0.0022740824193876697,0.07983723993386517,0.864263195539174,0.38589831094577115,0.5856177081291436,-3.0628532950437655,64.6
,,0.03080905604105084,0.04675410147342666,0.0022740824193876697,0.07983723993386517,0.8590837228416259,0.38589831094577115,0.5856177081291436,-3.0628532950437655,64.7
,,0.021028405157010894,0.033233819400434954,0.002328692046304695,0.05659091660375055,0.8536129359426138,0.37158622653617246,0.5872642005984471,-3.404187264898691,64.8
,,0.02941302515244541,0.04443065074869688,0.002214803527572158,0.07605847942871444,0.848467230944096,0.386715924028072,0.5841643309519402,-3.1138257155357536,64.9
,,0.02941302515244541,0.04443065074869688,0.002214803527572158,0.07605847942871444,0.8433215259455783,0.386715924028072,0.5841643309519402,-3.1138257155357536,65.0
,,0.02941302515244541,0.04443065074869688,0.002214803527572158,0.07605847942871444,0.8381758209470606,0.386715924028072,0.5841643309519402,-3.1138257155357536,65.1
,,0.02941302515244541,0.04443065074869688,0.002214803527572158,0.07605847942871444,0.8330301159485427,0.386715924028072,0.5841643309519402,-3.1138257155357536,65.2
,,0.02941302515244541,0.04443065074869688,0.002214803527572158,0.07605847942871444,0.8282083255474837,0.386715924028072,0.5841643309519402,-3.1138257155357536,65.3
,,0.02941302515244541,0.04443065074869688,0.002214803527572158,0.07605847942871444,0.8233865351464248,0.386715924028072,0.5841643309519402,-3.1138257155357536,65.4
,,0.028597629833987708,0.04255244420447074,0.002175321732168134,0.07332539577062659,0.8186764956413359,0.39000989402696995,0.5803234166997407,-3.1570179824992506,65.5
,,0.028597629833987708,0.04255244420447074,0.002175321732168134,0.07332539577062659,0.8139664561362469,0.39000989402696995,0.5803234166997407,-3.1570179824992506,65.6
,,0.028597629833987708,0.04255244420447074,0.002175321732168134,0.07332539577062659,0.809256416631158,0.39000989402696995,0.5803234166997407,-3.1570179824992506,65.7
,,0.028597629833987708,0.04255244420447074,0.002175321732168134,0.07332539577062659,0.804546377126069,0.39000989402696995,0.5803234166997407,-3.1570179824992506,65.8
,,0.028597629833987708,0.04255244420447074,0.002175321732168134,0.07332539577062659,0.8002046302558886,0.39000989402696995,0.5803234166997407,-3.1570179824992506,65.9
,,0.021761697682509597,0.03180042672296614,0.002330522998342039,0.055892647403817775,0.795999159271477,0.3893481288385555,0.5689554565775318,-3.44827557032484,66.0
,,0.028077712031270123,0.04081523166060099,0.0021391323523685377,0.07103207604423965,0.7918337045635904,0.3952821541324933,0.5746028264073368,-3.1986999422257356,66.1
,,0.028077712031270123,0.04081523166060099,0.0021391323523685377,0.07103207604423965,0.7876682498557039,0.3952821541324933,0.5746028264073368,-3.1986999422257356,66.2
,,0.028077712031270123,0.04081523166060099,0.0021391323523685377,0.07103207604423965,0.7835027951478172,0.3952821541324933,0.5746028264073368,-3.1986999422257356,66.3
,,0.028077712031270123,0.04081523166060099,0.0021391323523685377,0.07103207604423965,0.7793373404399307,0.3952821541324933,0.5746028264073368,-3.1986999422257356,66.4
,,0.028077712031270123,0.04081523166060099,0.0021391323523685377,0.07103207604423965,0.7745125733346439,0.3952821541324933,0.5746028264073368,-3.1986999422257356,66.5
,,0.02760870286413683,0.03898741249533065,0.002092042138954227,0.0686881574984217,0.7709795824032254,0.4019426909911103,0.567600208176009,-3.244516441479573,66.6
,,0.02760870286413683,0.03898741249533065,0.002092042138954227,0.0686881574984217,0.7674465914718072,0.4019426909911103,0.567600208176009,-3.244516441479573,66.7
,,0.02760870286413683,0.03898741249533065,0.002092042138954227,0.0686881574984217,0.7639136005403887,0.4019426909911103,0.567600208176009,-3.244516441479573,66.8
,,0.02760870286413683,0.03898741249533065,0.002092042138954227,0.0686881574984217,0.7603806096089705,0.4019426909911103,0.567600208176009,-3.244516441479573,66.9
,,0.02760870286413683,0.03898741249533065,0.002092042138954227,0.0686881574984217,0.7568476186775522,0.4019426909911103,0.567600208176009,-3.244516441479573,67.0
,,0.02760870286413683,0.03898741249533065,0.002092042138954227,0.0686881574984217,0.7528105258533613,0.4019426909911103,0.567600208176009,-3.244516441479573,67.1
,,0.027352141638978117,0.03744713280493561,0.002050842926228156,0.06685011737014189,0.7492043225579937,0.4091562246260879,0.5601655506092065,-3.2848251325656936,67.2
,,0.027352141638978117,0.03744713280493561,0.002050842926228156,0.06685011737014189,0.7455981192626262,0.4091562246260879,0.5601655506092065,-3.2848251325656936,67.3
,,0.027352141638978117,0.03744713280493561,0.002050842926228156,0.06685011737014189,0.7419919159672587,0.4091562246260879,0.5601655506092065,-3.2848251325656936,67.4
,,0.027352141638978117,0.03744713280493561,0.002050842926228156,0.06685011737014189,0.738385712671891,0.4091562246260879,0.5601655506092065,-3.2848251325656936,67.5
,,0.027352141638978117,0.03744713280493561,0.002050842926228156,0.06685011737014189,0.7357329478711745,0.4091562246260879,0.5601655506092065,-3.2848251325656936,67.6
,,0.027352141638978117,0.03744713280493561,0.002050842926228156,0.06685011737014189,0.7330801830704577,0.4091562246260879,0.5601655506092065,-3.2848251325656936,67.7
,,0.027539441033283426,0.036504382567432166,0.0020355803022638775,0.06607940390297946,0.730986490686203,0.41676285509049055,0.5524320803654558,-3.3103229552609506,67.8
,,0.027539441033283426,0.036504382567432166,0.0020355803022638775,0.06607940390297946,0.7288927983019481,0.41676285509049055,0.5524320803654558,-3.3103229552609506,67.9
,,0.027539441033283426,0.036504382567432166,0.0020355803022638775,0.06607940390297946,0.7267991059176934,0.41676285509049055,0.5524320803654558,-3.3103229552609506,68.0
,,0.027539441033283426,0.036504382567432166,0.0020355803022638775,0.06607940390297946,0.7247054135334385,0.41676285509049055,0.5524320803654558,-3.3103229552609506,68.1
,,0.027539441033283426,0.036504382567432166,0.0020355803022638775,0.06607940390297946,0.7228288300104316,0.41676285509049055,0.5524320803654558,-3.3103229552609506,68.2
,,0.027539441033283426,0.036504382567432166,0.0020355803022638775,0.06607940390297946,0.720952246487425,0.41676285509049055,0.5524320803654558,-3.3103229552609506,68.3
,,0.02781001063811732,0.035681244556555795,0.0020206988938924675,0.06551195408856557,0.7196441082788073,0.42450284112302594,0.5446524234083805,-3.33313009080927,68.4
,,0.02781001063811732,0.035681244556555795,0.0020206988938924675,0.06551195408856557,0.7183359700701897,0.42450284112302594,0.5446524234083805,-3.33313009080927,68.5
,,0.02781001063811732,0.035681244556555795,0.0020206988938924675,0.06551195408856557,0.7170278318615722,0.42450284112302594,0.5446524234083805,-3.33313009080927,68.6
,,0.02781001063811732,0.035681244556555795,0.0020206988938924675,0.06551195408856557,0.7157196936529544,0.42450284112302594,0.5446524234083805,-3.33313009080927,68.7
,,0.02781001063811732,0.035681244556555795,0.0020206988938924675,0.06551195408856557,0.7146325361189284,0.42450284112302594,0.5446524234083805,-3.33313009080927,68.8
,,0.02781001063811732,0.035681244556555795,0.0020206988938924675,0.06551195408856557,0.7135453785849022,0.42450284112302594,0.5446524234083805,-3.33313009080927,68.9
,,0.02812471366512994,0.034975789820194246,0.002002919468456762,0.06510342295378095,0.7128406520938172,0.43200053682425565,0.5372342686962052,-3.353099176264006,69.0
,,0.02812471366512994,0.034975789820194246,0.002002919468456762,0.06510342295378095,0.7121359256027324,0.43200053682425565,0.5372342686962052,-3.353099176264006,69.1
,,0.02812471366512994,0.034975789820194246,0.002002919468456762,0.06510342295378095,0.7114311991116475,0.43200053682425565,0.5372342686962052,-3.353099176264006,69.2
,,0.02812471366512994,0.034975789820194246,0.002002919468456762,0.06510342295378095,0.7107264726205628,0.43200053682425565,0.5372342686962052,-3.353099176264006,69.3
,,0.02812471366512994,0.034975789820194246,0.002002919468456762,0.06510342295378095,0.710021746129478,0.43200053682425565,0.5372342686962052,-3.353099176264006,69.4
,,0.02812471366512994,0.034975789820194246,0.002002919468456762,0.06510342295378095,0.7097233336958221,0.43200053682425565,0.5372342686962052,-3.353099176264006,69.5
,,0.028219906950966787,0.0340221360499979,0.0019641256929695595,0.06420616869393425,0.7099940856152327,0.43952018201691584,0.5298888991831726,-3.3807439059197275,69.6
,,0.028219906950966787,0.0340221360499979,0.0019641256929695595,0.06420616869393425,0.7102648375346434,0.43952018201691584,0.5298888991831726,-3.3807439059197275,69.7
,,0.028219906950966787,0.0340221360499979,0.0019641256929695595,0.06420616869393425,0.7105355894540542,0.43952018201691584,0.5298888991831726,-3.3807439059197275,69.8
,,0.028219906950966787,0.0340221360499979,0.0019641256929695595,0.06420616869393425,0.7108063413734647,0.43952018201691584,0.5298888991831726,-3.3807439059197275,69.9
,,0.028219906950966787,0.0340221360499979,0.0019641256929695595,0.06420616869393425,0.7110770932928754,0.43952018201691584,0.5298888991831726,-3.3807439059197275,70.0
,,0.028219906950966787,0.0340221360499979,0.0019641256929695595,0.06420616869393425,0.7115432254639944,0.43952018201691584,0.5298888991831726,-3.3807439059197275,70.1
,,0.027876247987909417,0.03267053253511525,0.0018921225395429433,0.062438903062567615,0.7125264819530621,0.44645640170801376,0.5232400143605561,-3.4212817530699535,70.2
,,0.027876247987909417,0.03267053253511525,0.0018921225395429433,0.062438903062567615,0.7135097384421298,0.44645640170801376,0.5232400143605561,-3.4212817530699535,70.3
,,0.027876247987909417,0.03267053253511525,0.0018921225395429433,0.062438903062567615,0.7144929949311977,0.44645640170801376,0.5232400143605561,-3.4212817530699535,70.4
,,0.027876247987909417,0.03267053253511525,0.0018921225395429433,0.062438903062567615,0.7154762514202654,0.44645640170801376,0.5232400143605561,-3.4212817530699535,70.5
,,0.027876247987909417,0.03267053253511525,0.0018921225395429433,0.062438903062567615,0.7164595079093331,0.44645640170801376,0.5232400143605561,-3.4212817530699535,70.6
,,0.027876247987909417,0.03267053253511525,0.0018921225395429433,0.062438903062567615,0.7174427643984008,0.44645640170801376,0.5232400143605561,-3.4212817530699535,70.7
,,0.02761073380409119,0.031571672699706246,0.001823085178523171,0.06100549168232061,0.7188548572558305,0.45259423443173036,0.5175218136772384,-3.4554949939797126,70.8
,,0.02761073380409119,0.031571672699706246,0.001823085178523171,0.06100549168232061,0.7222421874642595,0.45259423443173036,0.5175218136772384,-3.4554949939797126,70.9
,,0.02761073380409119,0.031571672699706246,0.001823085178523171,0.06100549168232061,0.7256295176726881,0.45259423443173036,0.5175218136772384,-3.4554949939797126,71.0
,,0.02761073380409119,0.031571672699706246,0.001823085178523171,0.06100549168232061,0.7290168478811171,0.45259423443173036,0.5175218136772384,-3.4554949939797126,71.1
,,0.02761073380409119,0.031571672699706246,0.001823085178523171,0.06100549168232061,0.7324041780895457,0.45259423443173036,0.5175218136772384,-3.4554949939797126,71.2
,,0.02761073380409119,0.031571672699706246,0.001823085178523171,0.06100549168232061,0.7357915082979747,0.45259423443173036,0.5175218136772384,-3.4554949939797126,71.3
,,0.02707127586090164,0.03028842782600501,0.001731660461388026,0.05909136414829468,0.7377928590650294,0.45812575578664977,0.5125694466960297,-3.4969895593506344,71.4
,,0.02707127586090164,0.03028842782600501,0.001731660461388026,0.05909136414829468,0.7399704832094751,0.45812575578664977,0.5125694466960297,-3.4969895593506344,71.5
,,0.02707127586090164,0.03028842782600501,0.001731660461388026,0.05909136414829468,0.7421481073539208,0.45812575578664977,0.5125694466960297,-3.4969895593506344,71.6
,,0.02707127586090164,0.03028842782600501,0.001731660461388026,0.05909136414829468,0.7443257314983663,0.45812575578664977,0.5125694466960297,-3.4969895593506344,71.7
,,0.02707127586090164,0.03028842782600501,0.001731660461388026,0.05909136414829468,0.746503355642812,0.45812575578664977,0.5125694466960297,-3.4969895593506344,71.8
,,0.02707127586090164,0.03028842782600501,0.001731660461388026,0.05909136414829468,0.7486809797872577,0.45812575578664977,0.5125694466960297,-3.4969895593506344,71.9
,,0.02612561915767062,0.02860797812827796,0.001608921575138058,0.05634251886108664,0.7517198637791128,0.46369277919724783,0.5077511390431687,-3.5540696445229965,72.0
,,0.02612561915767062,0.02860797812827796,0.001608921575138058,0.05634251886108664,0.754351825902339,0.46369277919724783,0.5077511390431687,-3.5540696445229965,72.1
