HRV_ULF,HRV_VLF,HRV_LF,HRV_HF,HRV_VHF,HRV_TP,HRV_LFHF,HRV_LFn,HRV_HFn,HRV_LnHF,time
,,0.010487333334466196,0.07022275436634344,0.0012627150506017788,0.08197280275141142,0.14934380499738123,0.12793674221765736,0.8566591846236993,-2.6560828841984856,0.0
,,0.010487333334466196,0.07022275436634344,0.0012627150506017788,0.08197280275141142,0.14934380499738123,0.12793674221765736,0.8566591846236993,-2.6560828841984856,0.1
,,0.010487333334466196,0.07022275436634344,0.0012627150506017788,0.08197280275141142,0.14934380499738123,0.12793674221765736,0.8566591846236993,-2.6560828841984856,0.2
,,0.010487333334466196,0.07022275436634344,0.0012627150506017788,0.08197280275141142,0.14934380499738123,0.12793674221765736,0.8566591846236993,-2.6560828841984856,0.3
,,0.010373827387079513,0.06992420573964357,0.0011098760816239952,0.08140790920834708,0.14914667852659885,0.12743021517147432,0.85893626822778,-2.6603433987052307,0.4
,,0.010373827387079513,0.06992420573964357,0.0011098760816239952,0.08140790920834708,0.1490152608794106,0.12743021517147432,0.85893626822778,-2.6603433987052307,0.5
,,0.010373827387079513,0.06992420573964357,0.0011098760816239952,0.08140790920834708,0.14892139113141903,0.12743021517147432,0.85893626822778,-2.6603433987052307,0.6
,,0.010373827387079513,0.06992420573964357,0.0011098760816239952,0.08140790920834708,0.1488509888204253,0.12743021517147432,0.85893626822778,-2.6603433987052307,0.7
,,0.010373827387079513,0.06992420573964357,0.0011098760816239952,0.08140790920834708,0.14879623146743018,0.12743021517147432,0.85893626822778,-2.6603433987052307,0.8
,,0.010373827387079513,0.06992420573964357,0.0011098760816239952,0.08140790920834708,0.14875242558503413,0.12743021517147432,0.85893626822778,-2.6603433987052307,0.9
,,0.010373827387079513,0.06992420573964357,0.0011098760816239952,0.08140790920834708,0.14871658440852822,0.12743021517147432,0.85893626822778,-2.6603433987052307,1.0
,,0.010448513019900595,0.0696587908755607,0.0009697362764448693,0.08107704017190617,0.14882317010257032,0.1288714165902801,0.8591679065721249,-2.664146371709127,1.1
,,0.010448513019900595,0.0696587908755607,0.0009697362764448693,0.08107704017190617,0.148913357997529,0.1288714165902801,0.8591679065721249,-2.664146371709127,1.2
,,0.010448513019900595,0.0696587908755607,0.0009697362764448693,0.08107704017190617,0.1489906619074936,0.1288714165902801,0.8591679065721249,-2.664146371709127,1.3
,,0.010448513019900595,0.0696587908755607,0.0009697362764448693,0.08107704017190617,0.14905765862946294,0.1288714165902801,0.8591679065721249,-2.664146371709127,1.4
,,0.010448513019900595,0.0696587908755607,0.0009697362764448693,0.08107704017190617,0.14911628076118608,0.1288714165902801,0.8591679065721249,-2.664146371709127,1.5
,,0.010448513019900595,0.0696587908755607,0.0009697362764448693,0.08107704017190617,0.14916800617153003,0.1288714165902801,0.8591679065721249,-2.664146371709127,1.6
,,0.010448513019900595,0.0696587908755607,0.0009697362764448693,0.08107704017190617,0.14921398431405797,0.1288714165902801,0.8591679065721249,-2.664146371709127,1.7
,,0.01072410455933735,0.06953392367800325,0.0008550226992997979,0.0811130509366404,0.14947789999412797,0.13221182578515311,0.8572470505679546,-2.6659405350236915,1.8
,,0.01072410455933735,0.06953392367800325,0.0008550226992997979,0.0811130509366404,0.14971542410619093,0.13221182578515311,0.8572470505679546,-2.6659405350236915,1.9
,,0.01072410455933735,0.06953392367800325,0.0008550226992997979,0.0811130509366404,0.14993032687424793,0.13221182578515311,0.8572470505679546,-2.6659405350236915,2.0
,,0.01072410455933735,0.06953392367800325,0.0008550226992997979,0.0811130509366404,0.150125693027027,0.13221182578515311,0.8572470505679546,-2.6659405350236915,2.1
,,0.01072410455933735,0.06953392367800325,0.0008550226992997979,0.0811130509366404,0.15030407081869485,0.13221182578515311,0.8572470505679546,-2.6659405350236915,2.2
,,0.01072410455933735,0.06953392367800325,0.0008550226992997979,0.0811130509366404,0.15046758379439037,0.13221182578515311,0.8572470505679546,-2.6659405350236915,2.3
,,0.01072410455933735,0.06953392367800325,0.0008550226992997979,0.0811130509366404,0.15061801573203026,0.13221182578515311,0.8572470505679546,-2.6659405350236915,2.4
,,0.011243701377027626,0.06969522752501434,0.0007691976436974063,0.08170812654573936,0.15102988837752576,0.1376081162592012,0.852977916290856,-2.6636234352240202,2.5
,,0.011243701377027626,0.06969522752501434,0.0007691976436974063,0.08170812654573936,0.15141125193816973,0.1376081162592012,0.852977916290856,-2.6636234352240202,2.6
,,0.011243701377027626,0.06969522752501434,0.0007691976436974063,0.08170812654573936,0.151765375244482,0.1376081162592012,0.852977916290856,-2.6636234352240202,2.7
,,0.011243701377027626,0.06969522752501434,0.0007691976436974063,0.08170812654573936,0.15209507625380722,0.1376081162592012,0.852977916290856,-2.6636234352240202,2.8
,,0.011243701377027626,0.06969522752501434,0.0007691976436974063,0.08170812654573936,0.15240279719584407,0.1376081162592012,0.852977916290856,-2.6636234352240202,2.9
,,0.011243701377027626,0.06969522752501434,0.0007691976436974063,0.08170812654573936,0.15269066517387855,0.1376081162592012,0.852977916290856,-2.6636234352240202,3.0
,,0.011243701377027626,0.06969522752501434,0.0007691976436974063,0.08170812654573936,0.15296054140328588,0.1376081162592012,0.852977916290856,-2.6636234352240202,3.1
,,0.008388528834896625,0.06857940471312689,0.0007195110867468191,0.07768744463477034,0.15203199421665461,0.10797792197096152,0.8827604645195526,-2.6797630121669127,3.2
,,0.008388528834896625,0.06857940471312689,0.0007195110867468191,0.07768744463477034,0.15115806745276636,0.10797792197096152,0.8827604645195526,-2.6797630121669127,3.3
,,0.008388528834896625,0.06857940471312689,0.0007195110867468191,0.07768744463477034,0.15033407936110027,0.10797792197096152,0.8827604645195526,-2.6797630121669127,3.4
,,0.008388528834896625,0.06857940471312689,0.0007195110867468191,0.07768744463477034,0.14955586838563786,0.10797792197096152,0.8827604645195526,-2.6797630121669127,3.5
,,0.008388528834896625,0.06857940471312689,0.0007195110867468191,0.07768744463477034,0.14881972286830855,0.10797792197096152,0.8827604645195526,-2.6797630121669127,3.6
,,0.008388528834896625,0.06857940471312689,0.0007195110867468191,0.07768744463477034,0.14812232185189134,0.10797792197096152,0.8827604645195526,-2.6797630121669127,3.7
,,0.01270372088618732,0.07311793612817939,0.0005115676584923701,0.08633322467285909,0.14877925926962876,0.14714753137422235,0.846926967054038,-2.615681578052714,3.8
,,0.012989364038004022,0.0701557387248343,0.0006845956888161169,0.08382969845165443,0.1496885381267076,0.15494943054692176,0.8368840640085797,-2.657037669295896,3.9
,,0.012989364038004022,0.0701557387248343,0.0006845956888161169,0.08382969845165443,0.15055346191758748,0.15494943054692176,0.8368840640085797,-2.657037669295896,4.0
,,0.012989364038004022,0.0701557387248343,0.0006845956888161169,0.08382969845165443,0.1513771988612826,0.15494943054692176,0.8368840640085797,-2.657037669295896,4.1
,,0.012989364038004022,0.0701557387248343,0.0006845956888161169,0.08382969845165443,0.15216262245875933,0.15494943054692176,0.8368840640085797,-2.657037669295896,4.2
,,0.012989364038004022,0.0701557387248343,0.0006845956888161169,0.08382969845165443,0.1529123449836235,0.15494943054692176,0.8368840640085797,-2.657037669295896,4.3
,,0.012989364038004022,0.0701557387248343,0.0006845956888161169,0.08382969845165443,0.15362874650738256,0.15494943054692176,0.8368840640085797,-2.657037669295896,4.4
,,0.008714550264548086,0.0725734622293318,0.0005024845051647654,0.08179049699904464,0.15289940463938112,0.10654722228488081,0.8873092216346294,-2.623155958006478,4.5
,,0.014303327962379962,0.0703082963488763,0.0006849641933225297,0.08529658850457879,0.15397467839915047,0.16768933216610588,0.8242802857830837,-2.6548654736310335,4.6
,,0.014303327962379962,0.0703082963488763,0.0006849641933225297,0.08529658850457879,0.1550051490855961,0.16768933216610588,0.8242802857830837,-2.6548654736310335,4.7
,,0.014303327962379962,0.0703082963488763,0.0006849641933225297,0.08529658850457879,0.1559935597440235,0.16768933216610588,0.8242802857830837,-2.6548654736310335,4.8
,,0.014303327962379962,0.0703082963488763,0.0006849641933225297,0.08529658850457879,0.15694243397611388,0.16768933216610588,0.8242802857830837,-2.6548654736310335,4.9
,,0.014303327962379962,0.0703082963488763,0.0006849641933225297,0.08529658850457879,0.1578540974540046,0.16768933216610588,0.8242802857830837,-2.6548654736310335,5.0
,,0.015087609605523687,0.07253120645181702,0.000531115080930712,0.08814993113827141,0.15881873833379956,0.17115849565279137,0.822816371098975,-2.6237383759134043,5.1
,,0.015087609605523687,0.07253120645181702,0.000531115080930712,0.08814993113827141,0.15974697767096074,0.17115849565279137,0.822816371098975,-2.6237383759134043,5.2
,,0.01577734014879458,0.0706752059337493,0.0007190038546983787,0.08717154993724226,0.16092272385650255,0.18099185066863238,0.8107600012232291,-2.649660461593508,5.3
,,0.01577734014879458,0.0706752059337493,0.0007190038546983787,0.08717154993724226,0.1620557156352974,0.18099185066863238,0.8107600012232291,-2.649660461593508,5.4
,,0.01577734014879458,0.0706752059337493,0.0007190038546983787,0.08717154993724226,0.16314824342199244,0.18099185066863238,0.8107600012232291,-2.649660461593508,5.5
,,0.01577734014879458,0.0706752059337493,0.0007190038546983787,0.08717154993724226,0.16420243690038236,0.18099185066863238,0.8107600012232291,-2.649660461593508,5.6
,,0.009827067110552853,0.07320677657621837,0.0005958432065294564,0.08362968689330068,0.1636857935664239,0.11750692219009216,0.8753682967822128,-2.6144672861219345,5.7
,,0.009827067110552853,0.07320677657621837,0.0005958432065294564,0.08362968689330068,0.16318666356581996,0.11750692219009216,0.8753682967822128,-2.6144672861219345,5.8
,,0.017609624267220014,0.0712424384642596,0.0008020939505825509,0.08965415668206216,0.16458653339971263,0.19641726517676694,0.7946362009394,-2.6416665922826357,5.9
,,0.017609624267220014,0.0712424384642596,0.0008020939505825509,0.08965415668206216,0.16594050586200224,0.19641726517676694,0.7946362009394,-2.6416665922826357,6.0
,,0.017609624267220014,0.0712424384642596,0.0008020939505825509,0.08965415668206216,0.16725080179325025,0.19641726517676694,0.7946362009394,-2.6416665922826357,6.1
,,0.017609624267220014,0.0712424384642596,0.0008020939505825509,0.08965415668206216,0.16851950102826815,0.19641726517676694,0.7946362009394,-2.6416665922826357,6.2
,,0.017609624267220014,0.0712424384642596,0.0008020939505825509,0.08965415668206216,0.16974855341219178,0.19641726517676694,0.7946362009394,-2.6416665922826357,6.3
,,0.018763036954110204,0.07390240047576835,0.0006950379111622767,0.09336047534104083,0.17104302814968933,0.20097409407535505,0.7915812361259604,-2.605009968798182,6.4
,,0.018763036954110204,0.07390240047576835,0.0006950379111622767,0.09336047534104083,0.17229827637998998,0.20097409407535505,0.7915812361259604,-2.605009968798182,6.5
,,0.01959791921056456,0.07170734345552483,0.000933769357042922,0.09223903202313231,0.1738058277022015,0.21246882995963862,0.7774078053804987,-2.635162117436602,6.6
,,0.01959791921056456,0.07170734345552483,0.000933769357042922,0.09223903202313231,0.1752690392796421,0.21246882995963862,0.7774078053804987,-2.635162117436602,6.7
,,0.01959791921056456,0.07170734345552483,0.000933769357042922,0.09223903202313231,0.1766898389273018,0.21246882995963862,0.7774078053804987,-2.635162117436602,6.8
,,0.01959791921056456,0.07170734345552483,0.000933769357042922,0.09223903202313231,0.17807004429931408,0.21246882995963862,0.7774078053804987,-2.635162117436602,6.9
,,0.01959791921056456,0.07170734345552483,0.000933769357042922,0.09223903202313231,0.17941137064676263,0.21246882995963862,0.7774078053804987,-2.635162117436602,7.0
,,0.020911063700032317,0.0744711168945115,0.0008335737796223255,0.09621575437416614,0.18081946661948411,0.21733513223533923,0.774001278469495,-2.597343921459985,7.1
,,0.020911063700032317,0.0744711168945115,0.0008335737796223255,0.09621575437416614,0.18218898462035021,0.21733513223533923,0.774001278469495,-2.597343921459985,7.2
,,0.010325601242857335,0.0627160983212139,0.0006415236792375123,0.07368322324330875,0.18195184109556475,0.14013503737155003,0.8511584531816638,-2.7691371127637847,7.3
,,0.010325601242857335,0.0627160983212139,0.0006415236792375123,0.07368322324330875,0.18172102139810686,0.14013503737155003,0.8511584531816638,-2.7691371127637847,7.4
,,0.010325601242857335,0.0627160983212139,0.0006415236792375123,0.07368322324330875,0.1814962759032137,0.14013503737155003,0.8511584531816638,-2.7691371127637847,7.5
,,0.010325601242857335,0.0627160983212139,0.0006415236792375123,0.07368322324330875,0.1812773679536424,0.14013503737155003,0.8511584531816638,-2.7691371127637847,7.6
,,0.010325601242857335,0.0627160983212139,0.0006415236792375123,0.07368322324330875,0.18106407302841915,0.14013503737155003,0.8511584531816638,-2.7691371127637847,7.7
,,0.022230436639025457,0.07190753941293473,0.0009686965089912999,0.0951066725609515,0.18268545274983594,0.2337421343889255,0.756072497088477,-2.632374160045511,7.8
,,0.022758582200640847,0.06962966250872532,0.0012737885138799682,0.09366203322324614,0.18448753239138924,0.242986207083452,0.7434139545397336,-2.6645646169628043,7.9
,,0.022758582200640847,0.06962966250872532,0.0012737885138799682,0.09366203322324614,0.18624511623932397,0.242986207083452,0.7434139545397336,-2.6645646169628043,8.0
,,0.022758582200640847,0.06962966250872532,0.0012737885138799682,0.09366203322324614,0.18795983218852852,0.242986207083452,0.7434139545397336,-2.6645646169628043,8.1
,,0.022758582200640847,0.06962966250872532,0.0012737885138799682,0.09366203322324614,0.18963322968112578,0.242986207083452,0.7434139545397336,-2.6645646169628043,8.2
,,0.022758582200640847,0.06962966250872532,0.0012737885138799682,0.09366203322324614,0.19126678437628025,0.242986207083452,0.7434139545397336,-2.6645646169628043,8.3
,,0.022758582200640847,0.06962966250872532,0.0012737885138799682,0.09366203322324614,0.19286190249037222,0.242986207083452,0.7434139545397336,-2.6645646169628043,8.4
,,0.010943428686392776,0.0620237549023074,0.0006770078560363317,0.07364419144473651,0.19267094214403935,0.1485986670734902,0.8422083763232132,-2.780237823732203,8.5
,,0.010943428686392776,0.0620237549023074,0.0006770078560363317,0.07364419144473651,0.1924843716907257,0.1485986670734902,0.8422083763232132,-2.780237823732203,8.6
,,0.010943428686392776,0.0620237549023074,0.0006770078560363317,0.07364419144473651,0.19230204147498728,0.1485986670734902,0.8422083763232132,-2.780237823732203,8.7
,,0.010943428686392776,0.0620237549023074,0.0006770078560363317,0.07364419144473651,0.19212380856746772,0.1485986670734902,0.8422083763232132,-2.780237823732203,8.8
,,0.010943428686392776,0.0620237549023074,0.0006770078560363317,0.07364419144473651,0.19194953639122636,0.1485986670734902,0.8422083763232132,-2.780237823732203,8.9
,,0.010943428686392776,0.0620237549023074,0.0006770078560363317,0.07364419144473651,0.19225059758798596,0.1485986670734902,0.8422083763232132,-2.780237823732203,9.0
,,0.010627293225003928,0.05998583558002874,0.0006667117705921675,0.07127984057562485,0.19255970394754918,0.1490925504207438,0.8415540087577265,-2.8136468182959984,9.1
,,0.02617240392102187,0.06861736062001474,0.001757996386976344,0.09654776092801294,0.19513838828782196,0.27108245359036653,0.7107089792706491,-2.679209706004569,9.2
,,0.02617240392102187,0.06861736062001474,0.001757996386976344,0.09654776092801294,0.19771707262809474,0.27108245359036653,0.7107089792706491,-2.679209706004569,9.3
,,0.02617240392102187,0.06861736062001474,0.001757996386976344,0.09654776092801294,0.20030670843896653,0.27108245359036653,0.7107089792706491,-2.679209706004569,9.4
,,0.02617240392102187,0.06861736062001474,0.001757996386976344,0.09654776092801294,0.20289634424983835,0.27108245359036653,0.7107089792706491,-2.679209706004569,9.5
,,0.02617240392102187,0.06861736062001474,0.001757996386976344,0.09654776092801294,0.20548598006071014,0.27108245359036653,0.7107089792706491,-2.679209706004569,9.6
,,0.027898062149110406,0.07014023475630063,0.002252599876527384,0.10029089678193842,0.20825696611183053,0.27817142975367853,0.6993679088223321,-2.6572586873082034,9.7
,,0.027898062149110406,0.07014023475630063,0.002252599876527384,0.10029089678193842,0.21102795216295095,0.27817142975367853,0.6993679088223321,-2.6572586873082034,9.8
,,0.027898062149110406,0.07014023475630063,0.002252599876527384,0.10029089678193842,0.21379893821407134,0.27817142975367853,0.6993679088223321,-2.6572586873082034,9.9
,,0.02909903542599299,0.07125603566314222,0.002010244717933953,0.10236531580706916,0.21668799097411157,0.28426655255806343,0.6960954997436877,-2.6414757523595114,10.0
,,0.02909903542599299,0.07125603566314222,0.002010244717933953,0.10236531580706916,0.2195588499553344,0.28426655255806343,0.6960954997436877,-2.6414757523595114,10.1
,,0.02909903542599299,0.07125603566314222,0.002010244717933953,0.10236531580706916,0.22242970893655725,0.28426655255806343,0.6960954997436877,-2.6414757523595114,10.2
,,0.030569508306166143,0.07192274536699327,0.0027564394559498055,0.10524869312910921,0.22548567497409402,0.2904502412079012,0.6833599850856599,-2.632162717036294,10.3
,,0.030569508306166143,0.07192274536699327,0.0027564394559498055,0.10524869312910921,0.22854164101163083,0.2904502412079012,0.6833599850856599,-2.632162717036294,10.4
,,0.030569508306166143,0.07192274536699327,0.0027564394559498055,0.10524869312910921,0.2315976070491676,0.2904502412079012,0.6833599850856599,-2.632162717036294,10.5
,,0.030569508306166143,0.07192274536699327,0.0027564394559498055,0.10524869312910921,0.2346535730867044,0.2904502412079012,0.6833599850856599,-2.632162717036294,10.6
,,0.0319427974147312,0.07332613451162037,0.0024566112368681753,0.10772554316321975,0.23782724810850467,0.2965201796785861,0.6806754680319476,-2.6128381918670893,10.7
,,0.0319427974147312,0.07332613451162037,0.0024566112368681753,0.10772554316321975,0.24095389235810094,0.2965201796785861,0.6806754680319476,-2.6128381918670893,10.8
,,0.0319427974147312,0.07332613451162037,0.0024566112368681753,0.10772554316321975,0.24408053660769727,0.2965201796785861,0.6806754680319476,-2.6128381918670893,10.9
,,0.032341289687032794,0.0714809451089386,0.003300919576964484,0.10712315437293587,0.24739406911310635,0.3019075556199609,0.6672781951517841,-2.638324366773023,11.0
,,0.032341289687032794,0.0714809451089386,0.003300919576964484,0.10712315437293587,0.25070760161851546,0.3019075556199609,0.6672781951517841,-2.638324366773023,11.1
,,0.032341289687032794,0.0714809451089386,0.003300919576964484,0.10712315437293587,0.2540211341239245,0.3019075556199609,0.6672781951517841,-2.638324366773023,11.2
,,0.032341289687032794,0.0714809451089386,0.003300919576964484,0.10712315437293587,0.2573346666293336,0.3019075556199609,0.6672781951517841,-2.638324366773023,11.3
,,0.03358183231526923,0.0726736455161302,0.0028961006212504174,0.10915157845264985,0.26075536158496115,0.30766236083188747,0.665804805998808,-2.6217764702598267,11.4
,,0.03358183231526923,0.0726736455161302,0.0028961006212504174,0.10915157845264985,0.26409718629303847,0.30766236083188747,0.665804805998808,-2.6217764702598267,11.5
,,0.03358183231526923,0.0726736455161302,0.0028961006212504174,0.10915157845264985,0.2674390110011158,0.30766236083188747,0.665804805998808,-2.6217764702598267,11.6
,,0.033516820692428194,0.06996408102060746,0.003856806522585462,0.10733770823562111,0.2709693536414917,0.31225578823477523,0.6518126963082408,-2.6597732969051817,11.7
,,0.033516820692428194,0.06996408102060746,0.003856806522585462,0.10733770823562111,0.2744996962818677,0.31225578823477523,0.6518126963082408,-2.6597732969051817,11.8
,,0.033516820692428194,0.06996408102060746,0.003856806522585462,0.10733770823562111,0.27803003892224365,0.31225578823477523,0.6518126963082408,-2.6597732969051817,11.9
,,0.033516820692428194,0.06996408102060746,0.003856806522585462,0.10733770823562111,0.28156038156261964,0.31225578823477523,0.6518126963082408,-2.6597732969051817,12.0
,,0.024567931118153405,0.0708760462918114,0.0033513108109027873,0.0987952882208676,0.2836193332784041,0.24867512976154416,0.7174031025989853,-2.646822754548492,12.1
,,0.024567931118153405,0.0708760462918114,0.0033513108109027873,0.0987952882208676,0.28611170966386035,0.24867512976154416,0.7174031025989853,-2.646822754548492,12.2
,,0.024567931118153405,0.0708760462918114,0.0033513108109027873,0.0987952882208676,0.2886040860493166,0.24867512976154416,0.7174031025989853,-2.646822754548492,12.3
,,0.024567931118153405,0.0708760462918114,0.0033513108109027873,0.0987952882208676,0.29109646243477283,0.24867512976154416,0.7174031025989853,-2.646822754548492,12.4
,,0.01290303849883781,0.059145332519571846,0.0005519218811599817,0.07260029289956964,0.2921613480184763,0.17772708598692577,0.8146707149155654,-2.827757600892339,12.5
,,0.01290303849883781,0.059145332519571846,0.0005519218811599817,0.07260029289956964,0.29322623360217975,0.17772708598692577,0.8146707149155654,-2.827757600892339,12.6
,,0.01290303849883781,0.059145332519571846,0.0005519218811599817,0.07260029289956964,0.29429111918588324,0.17772708598692577,0.8146707149155654,-2.827757600892339,12.7
,,0.0348083319686776,0.06803509215498549,0.003748814225974369,0.10659223834963746,0.29804534501759405,0.32655597168812045,0.6382743547594981,-2.687731645817039,12.8
,,0.0348083319686776,0.06803509215498549,0.003748814225974369,0.10659223834963746,0.3016728204892034,0.32655597168812045,0.6382743547594981,-2.687731645817039,12.9
,,0.0348083319686776,0.06803509215498549,0.003748814225974369,0.10659223834963746,0.3053002959608128,0.32655597168812045,0.6382743547594981,-2.687731645817039,13.0
,,0.0348083319686776,0.06803509215498549,0.003748814225974369,0.10659223834963746,0.30892777143242217,0.32655597168812045,0.6382743547594981,-2.687731645817039,13.1
,,0.03284646420118126,0.062069383731374925,0.004503045252844234,0.09941889318540041,0.3127504276010537,0.3303845290243559,0.6243218139194671,-2.7795024272126807,13.2
,,0.03284646420118126,0.062069383731374925,0.004503045252844234,0.09941889318540041,0.31657308376968524,0.3303845290243559,0.6243218139194671,-2.7795024272126807,13.3
,,0.03284646420118126,0.062069383731374925,0.004503045252844234,0.09941889318540041,0.32039573993831677,0.3303845290243559,0.6243218139194671,-2.7795024272126807,13.4
,,0.03284646420118126,0.062069383731374925,0.004503045252844234,0.09941889318540041,0.3249414115844313,0.3303845290243559,0.6243218139194671,-2.7795024272126807,13.5
,,0.03195343918777906,0.059956131760700235,0.0037208511328475115,0.0956304220813268,0.32860263053857897,0.33413466648306706,0.6269566781762382,-2.8141421214929414,13.6
,,0.03195343918777906,0.059956131760700235,0.0037208511328475115,0.0956304220813268,0.33226384949272664,0.33413466648306706,0.6269566781762382,-2.8141421214929414,13.7
,,0.03195343918777906,0.059956131760700235,0.0037208511328475115,0.0956304220813268,0.33592506844687436,0.33413466648306706,0.6269566781762382,-2.8141421214929414,13.8
,,0.029002477259961308,0.052320432987972995,0.004236452914639548,0.08555936316257386,0.339823811058014,0.3389749080396128,0.6115103134715648,-2.950368296103428,13.9
,,0.029002477259961308,0.052320432987972995,0.004236452914639548,0.08555936316257386,0.34372255366915366,0.3389749080396128,0.6115103134715648,-2.950368296103428,14.0
,,0.029002477259961308,0.052320432987972995,0.004236452914639548,0.08555936316257386,0.34757042792635107,0.3389749080396128,0.6115103134715648,-2.950368296103428,14.1
,,0.029002477259961308,0.052320432987972995,0.004236452914639548,0.08555936316257386,0.3514183021835485,0.3389749080396128,0.6115103134715648,-2.950368296103428,14.2
,,0.02831005717926694,0.050861426360648956,0.003519661561345977,0.08269114510126188,0.3551224607915565,0.3423589931497384,0.6150770593195329,-2.9786504745397107,14.3
,,0.02831005717926694,0.050861426360648956,0.003519661561345977,0.08269114510126188,0.35882661939956456,0.3423589931497384,0.6150770593195329,-2.9786504745397107,14.4
,,0.02831005717926694,0.050861426360648956,0.003519661561345977,0.08269114510126188,0.3625307780075725,0.3423589931497384,0.6150770593195329,-2.9786504745397107,14.5
,,0.02641233857397473,0.04548293381863829,0.004005930696233597,0.07590120308884662,0.3665026835492733,0.34798313464224806,0.5992386413875148,-3.0904181042947196,14.6
,,0.02641233857397473,0.04548293381863829,0.004005930696233597,0.07590120308884662,0.37146347962607884,0.34798313464224806,0.5992386413875148,-3.0904181042947196,14.7
,,0.02641233857397473,0.04548293381863829,0.004005930696233597,0.07590120308884662,0.3764242757028842,0.34798313464224806,0.5992386413875148,-3.0904181042947196,14.8
,,0.02641233857397473,0.04548293381863829,0.004005930696233597,0.07590120308884662,0.38013016366781655,0.34798313464224806,0.5992386413875148,-3.0904181042947196,14.9
,,0.02542712696817365,0.0436463072558682,0.003267877659284324,0.07234131188332617,0.3838567568455637,0.35148833088876164,0.6033386196570781,-3.131636599224401,15.0
,,0.02542712696817365,0.0436463072558682,0.003267877659284324,0.07234131188332617,0.3875833500233109,0.35148833088876164,0.6033386196570781,-3.131636599224401,15.1
,,0.024130618127434153,0.039501053130837536,0.003699354484640733,0.06733102574291241,0.391624534289968,0.35838779910425256,0.5866694097556594,-3.2314279458902826,15.2
,,0.024130618127434153,0.039501053130837536,0.003699354484640733,0.06733102574291241,0.3956657185566252,0.35838779910425256,0.5866694097556594,-3.2314279458902826,15.3
,,0.024130618127434153,0.039501053130837536,0.003699354484640733,0.06733102574291241,0.39963234107050283,0.35838779910425256,0.5866694097556594,-3.2314279458902826,15.4
,,0.024130618127434153,0.039501053130837536,0.003699354484640733,0.06733102574291241,0.4035989635843805,0.35838779910425256,0.5866694097556594,-3.2314279458902826,15.5
,,0.024130618127434153,0.039501053130837536,0.003699354484640733,0.06733102574291241,0.4073498660580512,0.35838779910425256,0.5866694097556594,-3.2314279458902826,15.6
,,0.02319379182685703,0.03794410981839385,0.003007178047619451,0.06414507969287032,0.4111049523742294,0.36158333480775146,0.5915357810773958,-3.2716409961881414,15.7
,,0.02319379182685703,0.03794410981839385,0.003007178047619451,0.06414507969287032,0.41486003869040755,0.36158333480775146,0.5915357810773958,-3.2716409961881414,15.8
,,0.02245159726217802,0.03491256860189387,0.0033914753903606393,0.06075564125443253,0.4189686657312006,0.3695393020074498,0.5746391261954916,-3.3549083827462454,15.9
,,0.02245159726217802,0.03491256860189387,0.0033914753903606393,0.06075564125443253,0.4230772927719935,0.3695393020074498,0.5746391261954916,-3.3549083827462454,16.0
,,0.02245159726217802,0.03491256860189387,0.0033914753903606393,0.06075564125443253,0.42710269686040264,0.3695393020074498,0.5746391261954916,-3.3549083827462454,16.1
,,0.02245159726217802,0.03491256860189387,0.0033914753903606393,0.06075564125443253,0.4311281009488118,0.3695393020074498,0.5746391261954916,-3.3549083827462454,16.2
,,0.02245159726217802,0.03491256860189387,0.0033914753903606393,0.06075564125443253,0.4364441041138485,0.3695393020074498,0.5746391261954916,-3.3549083827462454,16.3
,,0.02245159726217802,0.03491256860189387,0.0033914753903606393,0.06075564125443253,0.4417601072788852,0.3695393020074498,0.5746391261954916,-3.3549083827462454,16.4
,,0.009986719112625365,0.039885669408802324,0.0001755479209444754,0.05004793644237217,0.442712810354115,0.19954307455062809,0.7969493298635556,-3.2217381822873437,16.5
,,0.009986719112625365,0.039885669408802324,0.0001755479209444754,0.05004793644237217,0.4436655134293449,0.19954307455062809,0.7969493298635556,-3.2217381822873437,16.6
,,0.021550985904018726,0.031578517877845956,0.0031669040132628035,0.056296407795127484,0.4494190334844216,0.38281280721225674,0.5609330881779478,-3.4552782035597973,16.7
,,0.021550985904018726,0.031578517877845956,0.0031669040132628035,0.056296407795127484,0.4535668567924524,0.38281280721225674,0.5609330881779478,-3.4552782035597973,16.8
,,0.021550985904018726,0.031578517877845956,0.0031669040132628035,0.056296407795127484,0.4575180272887748,0.38281280721225674,0.5609330881779478,-3.4552782035597973,16.9
,,0.021550985904018726,0.031578517877845956,0.0031669040132628035,0.056296407795127484,0.46146919778509715,0.38281280721225674,0.5609330881779478,-3.4552782035597973,17.0
,,0.021550985904018726,0.031578517877845956,0.0031669040132628035,0.056296407795127484,0.4654203682814196,0.38281280721225674,0.5609330881779478,-3.4552782035597973,17.1
,,0.02110742048783812,0.030892733117017755,0.002606091133578319,0.054606244738434194,0.46938033383786504,0.38653858343388003,0.5657362681685038,-3.4772342969427723,17.2
,,0.02110742048783812,0.030892733117017755,0.002606091133578319,0.054606244738434194,0.47334029939431044,0.38653858343388003,0.5657362681685038,-3.4772342969427723,17.3
,,0.021332679910496814,0.029437805528098014,0.002969357755636396,0.053739843194231224,0.4777604958302323,0.39696207957649565,0.5477836141371186,-3.5254755283855426,17.4
,,0.021332679910496814,0.029437805528098014,0.002969357755636396,0.053739843194231224,0.4838519423924691,0.39696207957649565,0.5477836141371186,-3.5254755283855426,17.5
,,0.021332679910496814,0.029437805528098014,0.002969357755636396,0.053739843194231224,0.489943388954706,0.39696207957649565,0.5477836141371186,-3.5254755283855426,17.6
,,0.021332679910496814,0.029437805528098014,0.002969357755636396,0.053739843194231224,0.4960348355169429,0.39696207957649565,0.5477836141371186,-3.5254755283855426,17.7
,,0.021332679910496814,0.029437805528098014,0.002969357755636396,0.053739843194231224,0.5021262820791799,0.39696207957649565,0.5477836141371186,-3.5254755283855426,17.8
,,0.009871108762429677,0.036192362522521955,0.00017004885547899904,0.04623352014043063,0.5031962908848558,0.2135054551859121,0.7828165022388635,-3.318907162450661,17.9
,,0.009871108762429677,0.036192362522521955,0.00017004885547899904,0.04623352014043063,0.5042662996905319,0.2135054551859121,0.7828165022388635,-3.318907162450661,18.0
,,0.021422724636612663,0.027840115716995663,0.0027618022558035006,0.05202464260941182,0.5108477201757458,0.41178033259063773,0.5351332430289312,-3.5812772870232754,18.1
,,0.021422724636612663,0.027840115716995663,0.0027618022558035006,0.05202464260941182,0.51515956268025,0.41178033259063773,0.5351332430289312,-3.5812772870232754,18.2
,,0.021422724636612663,0.027840115716995663,0.0027618022558035006,0.05202464260941182,0.5194714051847542,0.41178033259063773,0.5351332430289312,-3.5812772870232754,18.3
,,0.021422724636612663,0.027840115716995663,0.0027618022558035006,0.05202464260941182,0.5237832476892584,0.41178033259063773,0.5351332430289312,-3.5812772870232754,18.4
,,0.021422724636612663,0.027840115716995663,0.0027618022558035006,0.05202464260941182,0.5280950901937627,0.41178033259063773,0.5351332430289312,-3.5812772870232754,18.5
,,0.021422724636612663,0.027840115716995663,0.0027618022558035006,0.05202464260941182,0.5324069326982669,0.41178033259063773,0.5351332430289312,-3.5812772870232754,18.6
,,0.009941089237426187,0.034063480393101246,0.00018026486667899105,0.04418483449720642,0.5312301901908759,0.2249887172951776,0.7709314922353031,-3.3795294247900842,18.7
,,0.009941089237426187,0.034063480393101246,0.00018026486667899105,0.04418483449720642,0.530053447683485,0.2249887172951776,0.7709314922353031,-3.3795294247900842,18.8
,,0.021904484529889235,0.02685801360204717,0.002576355243377924,0.05133885337531433,0.5346958826845083,0.4266648569214392,0.5231518009508471,-3.6171910443802417,18.9
,,0.021904484529889235,0.02685801360204717,0.002576355243377924,0.05133885337531433,0.5392202509766117,0.4266648569214392,0.5231518009508471,-3.6171910443802417,19.0
,,0.021904484529889235,0.02685801360204717,0.002576355243377924,0.05133885337531433,0.5437446192687152,0.4266648569214392,0.5231518009508471,-3.6171910443802417,19.1
,,0.021904484529889235,0.02685801360204717,0.002576355243377924,0.05133885337531433,0.5482689875608188,0.4266648569214392,0.5231518009508471,-3.6171910443802417,19.2
,,0.021904484529889235,0.02685801360204717,0.002576355243377924,0.05133885337531433,0.5526082487966083,0.4266648569214392,0.5231518009508471,-3.6171910443802417,19.3
,,0.021966240286666893,0.02668983539571336,0.0020955347147243457,0.0507516103971046,0.5570303198329496,0.4328185867363152,0.5258913990488078,-3.6234724828491145,19.4
,,0.021966240286666893,0.02668983539571336,0.0020955347147243457,0.0507516103971046,0.5614523908692909,0.4328185867363152,0.5258913990488078,-3.6234724828491145,19.5
,,0.022503618631166705,0.026336220425681695,0.0024161761974958607,0.051256015254344256,0.5662239637417738,0.43904346679113704,0.5138171645804936,-3.6368100847745657,19.6
,,0.022503618631166705,0.026336220425681695,0.0024161761974958607,0.051256015254344256,0.5708778276299932,0.43904346679113704,0.5138171645804936,-3.6368100847745657,19.7
,,0.022503618631166705,0.026336220425681695,0.0024161761974958607,0.051256015254344256,0.5755316915182126,0.43904346679113704,0.5138171645804936,-3.6368100847745657,19.8
,,0.022503618631166705,0.026336220425681695,0.0024161761974958607,0.051256015254344256,0.5801855554064319,0.43904346679113704,0.5138171645804936,-3.6368100847745657,19.9
,,0.022503618631166705,0.026336220425681695,0.0024161761974958607,0.051256015254344256,0.5846525310388386,0.43904346679113704,0.5138171645804936,-3.6368100847745657,20.0
,,0.014379281806536668,0.04119787250154526,0.0003199427580527295,0.05589709706613465,0.5835034578156905,0.2572455916543183,0.7370306270610439,-3.189368662271968,20.1
,,0.014379281806536668,0.04119787250154526,0.0003199427580527295,0.05589709706613465,0.5823543845925424,0.2572455916543183,0.7370306270610439,-3.189368662271968,20.2
,,0.014379281806536668,0.04119787250154526,0.0003199427580527295,0.05589709706613465,0.5812053113693942,0.2572455916543183,0.7370306270610439,-3.189368662271968,20.3
,,0.023223861107671835,0.026200750162617772,0.002282079897514199,0.051706691167803805,0.5859196514276823,0.4491461469136248,0.506718754785303,-3.641967236463995,20.4
,,0.023223861107671835,0.026200750162617772,0.002282079897514199,0.051706691167803805,0.5906339914859705,0.4491461469136248,0.506718754785303,-3.641967236463995,20.5
,,0.023223861107671835,0.026200750162617772,0.002282079897514199,0.051706691167803805,0.5953483315442586,0.4491461469136248,0.506718754785303,-3.641967236463995,20.6
,,0.023223861107671835,0.026200750162617772,0.002282079897514199,0.051706691167803805,0.599874153670248,0.4491461469136248,0.506718754785303,-3.641967236463995,20.7
,,0.023588189021306494,0.026236847508140794,0.0018021403563898601,0.05162717688583715,0.6045407158980911,0.45689480704061947,0.5081983771097569,-3.640590462819574,20.8
,,0.023588189021306494,0.026236847508140794,0.0018021403563898601,0.05162717688583715,0.609207278125934,0.45689480704061947,0.5081983771097569,-3.640590462819574,20.9
,,0.023588189021306494,0.026236847508140794,0.0018021403563898601,0.05162717688583715,0.613873840353777,0.45689480704061947,0.5081983771097569,-3.640590462819574,21.0
,,0.02408928066278717,0.02649691259001915,0.00218872739788903,0.05277492065069535,0.6201238739070845,0.45645318582719224,0.5020739446563248,-3.6307270588143292,21.1
,,0.02408928066278717,0.02649691259001915,0.00218872739788903,0.05277492065069535,0.6263739074603919,0.45645318582719224,0.5020739446563248,-3.6307270588143292,21.2
,,0.02408928066278717,0.02649691259001915,0.00218872739788903,0.05277492065069535,0.6326239410136993,0.45645318582719224,0.5020739446563248,-3.6307270588143292,21.3
,,0.02408928066278717,0.02649691259001915,0.00218872739788903,0.05277492065069535,0.6388739745670068,0.45645318582719224,0.5020739446563248,-3.6307270588143292,21.4
,,0.02466535708571489,0.026699981883462894,0.0017096844419966799,0.05307502341117446,0.6467144032955741,0.4647262591790364,0.5030611418975174,-3.6230923920981524,21.5
,,0.02466535708571489,0.026699981883462894,0.0017096844419966799,0.05307502341117446,0.6545548320241412,0.4647262591790364,0.5030611418975174,-3.6230923920981524,21.6
,,0.02466535708571489,0.026699981883462894,0.0017096844419966799,0.05307502341117446,0.6623952607527084,0.4647262591790364,0.5030611418975174,-3.6230923920981524,21.7
,,0.02516242044824723,0.027302751440681824,0.0021698513012894287,0.054635023190218485,0.6669506417767821,0.46055476833314773,0.4997298407950514,-3.600767796496767,21.8
,,0.02516242044824723,0.027302751440681824,0.0021698513012894287,0.054635023190218485,0.6715060228008557,0.46055476833314773,0.4997298407950514,-3.600767796496767,21.9
,,0.02516242044824723,0.027302751440681824,0.0021698513012894287,0.054635023190218485,0.6760614038249294,0.46055476833314773,0.4997298407950514,-3.600767796496767,22.0
,,0.02516242044824723,0.027302751440681824,0.0021698513012894287,0.054635023190218485,0.6806167848490029,0.46055476833314773,0.4997298407950514,-3.600767796496767,22.1
,,0.02516242044824723,0.027302751440681824,0.0021698513012894287,0.054635023190218485,0.6849769851760544,0.46055476833314773,0.4997298407950514,-3.600767796496767,22.2
,,0.025684291040782545,0.027420372056108786,0.0016719784869247954,0.05477664158381613,0.6895047294455655,0.46889130655229916,0.5005851264932276,-3.5964690361541454,22.3
,,0.025684291040782545,0.027420372056108786,0.0016719784869247954,0.05477664158381613,0.6940324737150767,0.46889130655229916,0.5005851264932276,-3.5964690361541454,22.4
,,0.02032075922424558,0.041060772811024895,0.0010305648607808007,0.062412096896051275,0.6936514208326066,0.32559007363733117,0.6578976649256396,-3.192702046062751,22.5
,,0.02032075922424558,0.041060772811024895,0.0010305648607808007,0.062412096896051275,0.6932286178557785,0.32559007363733117,0.6578976649256396,-3.192702046062751,22.6
,,0.02032075922424558,0.041060772811024895,0.0010305648607808007,0.062412096896051275,0.6928058148789504,0.32559007363733117,0.6578976649256396,-3.192702046062751,22.7
,,0.02032075922424558,0.041060772811024895,0.0010305648607808007,0.062412096896051275,0.6923830119021224,0.32559007363733117,0.6578976649256396,-3.192702046062751,22.8
,,0.02032075922424558,0.041060772811024895,0.0010305648607808007,0.062412096896051275,0.6917226852683024,0.32559007363733117,0.6578976649256396,-3.192702046062751,22.9
,,0.02091762746690374,0.040707646798059306,0.000995124903301346,0.0626203991682644,0.6912729738379549,0.33403855204910055,0.6500700624516248,-3.2013393221650044,23.0
,,0.02091762746690374,0.040707646798059306,0.000995124903301346,0.0626203991682644,0.6908232624076075,0.33403855204910055,0.6500700624516248,-3.2013393221650044,23.1
,,0.027225094209949514,0.029671629180941763,0.002393699062787044,0.05929042245367832,0.6948590647989237,0.4591819906700715,0.5004455686603219,-3.5175639361450552,23.2
,,0.027225094209949514,0.029671629180941763,0.002393699062787044,0.05929042245367832,0.6988694511895751,0.4591819906700715,0.5004455686603219,-3.5175639361450552,23.3
,,0.027225094209949514,0.029671629180941763,0.002393699062787044,0.05929042245367832,0.7028798375802267,0.4591819906700715,0.5004455686603219,-3.5175639361450552,23.4
,,0.027225094209949514,0.029671629180941763,0.002393699062787044,0.05929042245367832,0.7068902239708782,0.4591819906700715,0.5004455686603219,-3.5175639361450552,23.5
,,0.027225094209949514,0.029671629180941763,0.002393699062787044,0.05929042245367832,0.7106328634278369,0.4591819906700715,0.5004455686603219,-3.5175639361450552,23.6
,,0.02752089764453914,0.02950644708245183,0.0018168132971136325,0.05884415802410461,0.7145439653756457,0.4676912469928727,0.5014337543986094,-3.5231464943460207,23.7
,,0.02752089764453914,0.02950644708245183,0.0018168132971136325,0.05884415802410461,0.7184550673234547,0.4676912469928727,0.5014337543986094,-3.5231464943460207,23.8
,,0.02752089764453914,0.02950644708245183,0.0018168132971136325,0.05884415802410461,0.7223661692712636,0.4676912469928727,0.5014337543986094,-3.5231464943460207,23.9
,,0.026260706705049826,0.029096225917601037,0.0025070349516795416,0.0578639675743304,0.7259214425889131,0.4538352243356986,0.5028384180574008,-3.537146806768855,24.0
,,0.026260706705049826,0.029096225917601037,0.0025070349516795416,0.0578639675743304,0.7294767159065627,0.4538352243356986,0.5028384180574008,-3.537146806768855,24.1
,,0.026260706705049826,0.029096225917601037,0.0025070349516795416,0.0578639675743304,0.7327173981353021,0.4538352243356986,0.5028384180574008,-3.537146806768855,24.2
,,0.026260706705049826,0.029096225917601037,0.0025070349516795416,0.0578639675743304,0.7359580803640419,0.4538352243356986,0.5028384180574008,-3.537146806768855,24.3
,,0.026418048924412633,0.028742952025251838,0.0019060094660677716,0.05706701041573225,0.7393828419043511,0.46293031178534805,0.5036701908135698,-3.5493626887399645,24.4
,,0.026418048924412633,0.028742952025251838,0.0019060094660677716,0.05706701041573225,0.7428076034446605,0.46293031178534805,0.5036701908135698,-3.5493626887399645,24.5
,,0.024556045970634315,0.039413568802809884,0.002320815498810682,0.06629043027225488,0.7429426022843877,0.3704312352444026,0.5945589527921045,-3.233645136107328,24.6
,,0.024556045970634315,0.039413568802809884,0.002320815498810682,0.06629043027225488,0.7430734172816077,0.3704312352444026,0.5945589527921045,-3.233645136107328,24.7
,,0.024556045970634315,0.039413568802809884,0.002320815498810682,0.06629043027225488,0.7432042322788274,0.3704312352444026,0.5945589527921045,-3.233645136107328,24.8
,,0.024556045970634315,0.039413568802809884,0.002320815498810682,0.06629043027225488,0.7429815065514324,0.3704312352444026,0.5945589527921045,-3.233645136107328,24.9
,,0.024556045970634315,0.039413568802809884,0.002320815498810682,0.06629043027225488,0.7427587808240373,0.3704312352444026,0.5945589527921045,-3.233645136107328,25.0
,,0.025537255115824765,0.028279535561888024,0.0020879463431634354,0.05590473702087623,0.7456471014957408,0.45679948563729966,0.5058522241384972,-3.5656168609355796,25.1
,,0.025537255115824765,0.028279535561888024,0.0020879463431634354,0.05590473702087623,0.7485354221674438,0.45679948563729966,0.5058522241384972,-3.5656168609355796,25.2
,,0.025032870836999677,0.03772846443843538,0.0028154568951102633,0.06557679217054532,0.7487623140631767,0.38173368974646976,0.5753325710155981,-3.2773404445238916,25.3
,,0.025032870836999677,0.03772846443843538,0.0028154568951102633,0.06557679217054532,0.7489892059589094,0.38173368974646976,0.5753325710155981,-3.2773404445238916,25.4
,,0.025032870836999677,0.03772846443843538,0.0028154568951102633,0.06557679217054532,0.7535793979444492,0.38173368974646976,0.5753325710155981,-3.2773404445238916,25.5
,,0.025032870836999677,0.03772846443843538,0.0028154568951102633,0.06557679217054532,0.758169589929989,0.38173368974646976,0.5753325710155981,-3.2773404445238916,25.6
,,0.025032870836999677,0.03772846443843538,0.0028154568951102633,0.06557679217054532,0.7579589649356818,0.38173368974646976,0.5753325710155981,-3.2773404445238916,25.7
,,0.025032870836999677,0.03772846443843538,0.0028154568951102633,0.06557679217054532,0.7577483399413748,0.38173368974646976,0.5753325710155981,-3.2773404445238916,25.8
,,0.024454201015688973,0.027757368108593448,0.002368439884332733,0.05458000900861515,0.7599543552727424,0.44804318393991127,0.5085629081558434,-3.584253956606416,25.9
,,0.024454201015688973,0.027757368108593448,0.002368439884332733,0.05458000900861515,0.7621603706041102,0.44804318393991127,0.5085629081558434,-3.584253956606416,26.0
,,0.023277009892225864,0.027581266313921098,0.003388405038581646,0.05424668124472861,0.7639546549010365,0.42909555678095596,0.5084415429856604,-3.5906184934606693,26.1
,,0.023277009892225864,0.027581266313921098,0.003388405038581646,0.05424668124472861,0.76574014413784,0.42909555678095596,0.5084415429856604,-3.5906184934606693,26.2
,,0.023277009892225864,0.027581266313921098,0.003388405038581646,0.05424668124472861,0.7675256333746435,0.42909555678095596,0.5084415429856604,-3.5906184934606693,26.3
,,0.023277009892225864,0.027581266313921098,0.003388405038581646,0.05424668124472861,0.7688508917319705,0.42909555678095596,0.5084415429856604,-3.5906184934606693,26.4
,,0.023277009892225864,0.027581266313921098,0.003388405038581646,0.05424668124472861,0.7701761500892975,0.42909555678095596,0.5084415429856604,-3.5906184934606693,26.5
,,0.023214989549529247,0.02702146551831387,0.0027256779075891637,0.052962132975432286,0.7716701711837005,0.43833184664783154,0.5102034982399293,-3.611123709641361,26.6
,,0.023214989549529247,0.02702146551831387,0.0027256779075891637,0.052962132975432286,0.7731641922781034,0.43833184664783154,0.5102034982399293,-3.611123709641361,26.7
,,0.02214145739796423,0.026858475114733677,0.003875133187352827,0.05287506570005074,0.7742720319473927,0.41875044701727876,0.5079610731284236,-3.6171738611019766,26.8
,,0.02214145739796423,0.026858475114733677,0.003875133187352827,0.05287506570005074,0.7804013093732427,0.41875044701727876,0.5079610731284236,-3.6171738611019766,26.9
,,0.02214145739796423,0.026858475114733677,0.003875133187352827,0.05287506570005074,0.7865305867990929,0.41875044701727876,0.5079610731284236,-3.6171738611019766,27.0
,,0.02214145739796423,0.026858475114733677,0.003875133187352827,0.05287506570005074,0.7871404073826018,0.41875044701727876,0.5079610731284236,-3.6171738611019766,27.1
,,0.022244853614855235,0.026468367466892344,0.0032107177912565838,0.051923938873004165,0.7879286343173907,0.42841229108719603,0.5097526890559827,-3.6318049394886063,27.2
,,0.022244853614855235,0.026468367466892344,0.0032107177912565838,0.051923938873004165,0.7887168612521797,0.42841229108719603,0.5097526890559827,-3.6318049394886063,27.3
,,0.022244853614855235,0.026468367466892344,0.0032107177912565838,0.051923938873004165,0.7895050881869687,0.42841229108719603,0.5097526890559827,-3.6318049394886063,27.4
,,0.021427625895285785,0.026319380987331963,0.004446839363845571,0.052193846246463324,0.7900011709799435,0.4105393151925018,0.5042621473621591,-3.6374496915199805,27.5
,,0.021427625895285785,0.026319380987331963,0.004446839363845571,0.052193846246463324,0.7904972537729181,0.4105393151925018,0.5042621473621591,-3.6374496915199805,27.6
,,0.021427625895285785,0.026319380987331963,0.004446839363845571,0.052193846246463324,0.7963005713375395,0.4105393151925018,0.5042621473621591,-3.6374496915199805,27.7
,,0.021427625895285785,0.026319380987331963,0.004446839363845571,0.052193846246463324,0.8021038889021609,0.4105393151925018,0.5042621473621591,-3.6374496915199805,27.8
,,0.021733977225927584,0.026140739504280513,0.0037893768847820624,0.051664093614990164,0.80228006223629,0.4206785739413716,0.5059749949178605,-3.6442602810454194,27.9
,,0.021733977225927584,0.026140739504280513,0.0037893768847820624,0.051664093614990164,0.8024562355704191,0.4206785739413716,0.5059749949178605,-3.6442602810454194,28.0
,,0.021733977225927584,0.026140739504280513,0.0037893768847820624,0.051664093614990164,0.8026324089045482,0.4206785739413716,0.5059749949178605,-3.6442602810454194,28.1
,,0.021733977225927584,0.026140739504280513,0.0037893768847820624,0.051664093614990164,0.8028085822386772,0.4206785739413716,0.5059749949178605,-3.6442602810454194,28.2
,,0.021119593645660246,0.025915371686549588,0.005137177356003247,0.05217214268821308,0.8028016776603207,0.4048059473400095,0.49672814554355044,-3.652918984917772,28.3
,,0.021119593645660246,0.025915371686549588,0.005137177356003247,0.05217214268821308,0.8027119632814126,0.4048059473400095,0.49672814554355044,-3.652918984917772,28.4
,,0.021119593645660246,0.025915371686549588,0.005137177356003247,0.05217214268821308,0.8026222489025043,0.4048059473400095,0.49672814554355044,-3.652918984917772,28.5
,,0.02140154238693373,0.025704938943297024,0.004415704768148241,0.05152218609837899,0.8023790347007832,0.41538498281242525,0.4989100985391954,-3.66107212876257,28.6
,,0.02140154238693373,0.025704938943297024,0.004415704768148241,0.05152218609837899,0.8021358204990623,0.41538498281242525,0.4989100985391954,-3.66107212876257,28.7
,,0.02140154238693373,0.025704938943297024,0.004415704768148241,0.05152218609837899,0.8018926062973413,0.41538498281242525,0.4989100985391954,-3.66107212876257,28.8
,,0.02140154238693373,0.025704938943297024,0.004415704768148241,0.05152218609837899,0.8016493920956201,0.41538498281242525,0.4989100985391954,-3.66107212876257,28.9
,,0.021041271451654527,0.025379024185259214,0.005795379426693796,0.05221567506360754,0.8013672484355919,0.4029684845790597,0.4860422498482163,-3.6738322656123814,29.0
,,0.02104314013529685,0.025381344713324535,0.005795916064469723,0.0522204009130911,0.8067011294565318,0.4029678012299893,0.4860427011191655,-3.673740834910939,29.1
,,0.021041271451654527,0.025379024185259214,0.005795379426693796,0.05221567506360754,0.8120350346520584,0.4029684845790597,0.4860422498482163,-3.6738322656123814,29.2
,,0.021452721879464103,0.025244561911798632,0.005060942497277201,0.05175822628853993,0.8175991018790869,0.41447946380291756,0.4877400892964558,-3.6791445162859375,29.3
,,0.021452721879464103,0.025244561911798632,0.005060942497277201,0.05175822628853993,0.8171925933744608,0.41447946380291756,0.4877400892964558,-3.6791445162859375,29.4
,,0.021452721879464103,0.025244561911798632,0.005060942497277201,0.05175822628853993,0.8167860848698348,0.41447946380291756,0.4877400892964558,-3.6791445162859375,29.5
,,0.021452721879464103,0.025244561911798632,0.005060942497277201,0.05175822628853993,0.8163795763652086,0.41447946380291756,0.4877400892964558,-3.6791445162859375,29.6
,,0.021428833775732466,0.024883343123908965,0.006441398238116844,0.052753575137758274,0.8160994683884623,0.40620628497261446,0.471690175669227,-3.6935566502059567,29.7
,,0.021428833775732466,0.024883343123908965,0.006441398238116844,0.052753575137758274,0.8156786203098624,0.40620628497261446,0.471690175669227,-3.6935566502059567,29.8
,,0.021428833775732466,0.024883343123908965,0.006441398238116844,0.052753575137758274,0.8152577722312625,0.40620628497261446,0.471690175669227,-3.6935566502059567,29.9
,,0.022015367194452306,0.02484671607989381,0.005658110843108815,0.05252019411745493,0.8151133190938721,0.4191790903365219,0.4730888089318025,-3.695029684874503,30.0
,,0.022015367194452306,0.02484671607989381,0.005658110843108815,0.05252019411745493,0.8148567855556089,0.4191790903365219,0.4730888089318025,-3.695029684874503,30.1
,,0.022015367194452306,0.02484671607989381,0.005658110843108815,0.05252019411745493,0.8146002520173455,0.4191790903365219,0.4730888089318025,-3.695029684874503,30.2
,,0.022015367194452306,0.02484671607989381,0.005658110843108815,0.05252019411745493,0.8143437184790822,0.4191790903365219,0.4730888089318025,-3.695029684874503,30.3
,,0.02219344205785359,0.024361641117972985,0.006970987221097326,0.0535260703969239,0.8143644305636998,0.4146286453176475,0.4551359914396598,-3.714745469034738,30.4
,,0.02219344205785359,0.024361641117972985,0.006970987221097326,0.0535260703969239,0.8142222382748103,0.4146286453176475,0.4551359914396598,-3.714745469034738,30.5
,,0.02219344205785359,0.024361641117972985,0.006970987221097326,0.0535260703969239,0.814080045985921,0.4146286453176475,0.4551359914396598,-3.714745469034738,30.6
,,0.02284418058461081,0.02429662087557093,0.006102283832991429,0.05324308529317316,0.8142625316459727,0.4290544107056075,0.45633382704601166,-3.7174179969236607,30.7
,,0.02284418058461081,0.02429662087557093,0.006102283832991429,0.05324308529317316,0.8144693425747418,0.4290544107056075,0.45633382704601166,-3.7174179969236607,30.8
,,0.02284418058461081,0.02429662087557093,0.006102283832991429,0.05324308529317316,0.814676153503511,0.4290544107056075,0.45633382704601166,-3.7174179969236607,30.9
,,0.02284418058461081,0.02429662087557093,0.006102283832991429,0.05324308529317316,0.81488296443228,0.4290544107056075,0.45633382704601166,-3.7174179969236607,31.0
,,0.022757190409089214,0.023214075056328623,0.007185614223283796,0.053156879688701635,0.8155353104148704,0.4281137369680147,0.43670876079023724,-3.762996500805445,31.1
,,0.022757190409089214,0.023214075056328623,0.007185614223283796,0.053156879688701635,0.8161876563974606,0.4281137369680147,0.43670876079023724,-3.762996500805445,31.2
,,0.022757190409089214,0.023214075056328623,0.007185614223283796,0.053156879688701635,0.8166724584375912,0.4281137369680147,0.43670876079023724,-3.762996500805445,31.3
,,0.022677413265009556,0.022425012230162963,0.00606969109061514,0.05117211658578766,0.8175010015759484,0.4431595716192809,0.43822717773591563,-3.797578325656692,31.4
,,0.022677413265009556,0.022425012230162963,0.00606969109061514,0.05117211658578766,0.823238341866287,0.4431595716192809,0.43822717773591563,-3.797578325656692,31.5
,,0.022677413265009556,0.022425012230162963,0.00606969109061514,0.05117211658578766,0.8289756821566253,0.4431595716192809,0.43822717773591563,-3.797578325656692,31.6
,,0.022677413265009556,0.022425012230162963,0.00606969109061514,0.05117211658578766,0.8347130224469639,0.4431595716192809,0.43822717773591563,-3.797578325656692,31.7
,,0.022591101522313653,0.021335328653313865,0.00692586477717887,0.05085229495280638,0.8409792906560999,0.444249400017824,0.419554882884129,-3.8473909580402035,31.8
,,0.022591101522313653,0.021335328653313865,0.00692586477717887,0.05085229495280638,0.8472455588652363,0.444249400017824,0.419554882884129,-3.8473909580402035,31.9
,,0.022591101522313653,0.021335328653313865,0.00692586477717887,0.05085229495280638,0.8533012118708999,0.444249400017824,0.419554882884129,-3.8473909580402035,32.0
,,0.022591101522313653,0.021335328653313865,0.00692586477717887,0.05085229495280638,0.8593568648765637,0.444249400017824,0.419554882884129,-3.8473909580402035,32.1
,,0.02265348384696271,0.020758028875750602,0.0058592093329231645,0.04927072205563648,0.8612875934799247,0.4597757634114314,0.42130555448955354,-3.8748221733738832,32.2
,,0.02265348384696271,0.020758028875750602,0.0058592093329231645,0.04927072205563648,0.8632183220832859,0.4597757634114314,0.42130555448955354,-3.8748221733738832,32.3
,,0.02265348384696271,0.020758028875750602,0.0058592093329231645,0.04927072205563648,0.865149050686647,0.4597757634114314,0.42130555448955354,-3.8748221733738832,32.4
,,0.022670524518222962,0.019774904913050263,0.006591637272863608,0.049037066704136836,0.8676921915882464,0.4623140420491433,0.4032644332574245,-3.923341573782445,32.5
,,0.022670524518222962,0.019774904913050263,0.006591637272863608,0.049037066704136836,0.8702353324898459,0.4623140420491433,0.4032644332574245,-3.923341573782445,32.6
,,0.022670524518222962,0.019774904913050263,0.006591637272863608,0.049037066704136836,0.8726100109005953,0.4623140420491433,0.4032644332574245,-3.923341573782445,32.7
,,0.022670524518222962,0.019774904913050263,0.006591637272863608,0.049037066704136836,0.8749846893113445,0.4623140420491433,0.4032644332574245,-3.923341573782445,32.8
,,0.022928680764797444,0.019466556268712493,0.005560216464371032,0.04795545349788097,0.8777084884664946,0.47812457379452383,0.40592997977951917,-3.939057348959929,32.9
,,0.022928680764797444,0.019466556268712493,0.005560216464371032,0.04795545349788097,0.880767411038989,0.47812457379452383,0.40592997977951917,-3.939057348959929,33.0
,,0.022928680764797444,0.019466556268712493,0.005560216464371032,0.04795545349788097,0.8838263336114836,0.47812457379452383,0.40592997977951917,-3.939057348959929,33.1
,,0.022928680764797444,0.019466556268712493,0.005560216464371032,0.04795545349788097,0.8868852561839783,0.47812457379452383,0.40592997977951917,-3.939057348959929,33.2
,,0.023011227127329333,0.018686602013149485,0.006193706612971934,0.047891535753450745,0.890539504505621,0.48048630651129826,0.3901859006850298,-3.9799484817938593,33.3
,,0.023011227127329333,0.018686602013149485,0.006193706612971934,0.047891535753450745,0.894009673515694,0.48048630651129826,0.3901859006850298,-3.9799484817938593,33.4
,,0.023011227127329333,0.018686602013149485,0.006193706612971934,0.047891535753450745,0.897479842525767,0.48048630651129826,0.3901859006850298,-3.9799484817938593,33.5
,,0.023454394297784318,0.018590531300279732,0.005209339307175355,0.04725426490523941,0.9045753521480675,0.49634449599032415,0.3934148872606517,-3.9851028977604774,33.6
,,0.023454394297784318,0.018590531300279732,0.005209339307175355,0.04725426490523941,0.9116708617703679,0.49634449599032415,0.3934148872606517,-3.9851028977604774,33.7
,,0.023454394297784318,0.018590531300279732,0.005209339307175355,0.04725426490523941,0.9187663713926685,0.49634449599032415,0.3934148872606517,-3.9851028977604774,33.8
,,0.023454394297784318,0.018590531300279732,0.005209339307175355,0.04725426490523941,0.925861881014969,0.49634449599032415,0.3934148872606517,-3.9851028977604774,33.9
,,0.019309220914322377,0.016840639597838658,0.0024393813403097977,0.03858924185247083,0.9316790970023869,0.5003783434808794,0.4364076304536252,-4.083960290019933,34.0
,,0.019309220914322377,0.016840639597838658,0.0024393813403097977,0.03858924185247083,0.9343852665907064,0.5003783434808794,0.4364076304536252,-4.083960290019933,34.1
,,0.019309220914322377,0.016840639597838658,0.0024393813403097977,0.03858924185247083,0.9370914361790261,0.5003783434808794,0.4364076304536252,-4.083960290019933,34.2
,,0.02414615617506275,0.01817347801952262,0.004853896875862458,0.047173531070447826,0.9444819598800753,0.5118581464466473,0.3852473539108781,-4.00779199939785,34.3
,,0.02414615617506275,0.01817347801952262,0.004853896875862458,0.047173531070447826,0.9518724835811246,0.5118581464466473,0.3852473539108781,-4.00779199939785,34.4
,,0.02414615617506275,0.01817347801952262,0.004853896875862458,0.047173531070447826,0.9592630072821738,0.5118581464466473,0.3852473539108781,-4.00779199939785,34.5
,,0.02414615617506275,0.01817347801952262,0.004853896875862458,0.047173531070447826,0.9666535309832232,0.5118581464466473,0.3852473539108781,-4.00779199939785,34.6
,,0.0242341096377407,0.017864833593370107,0.005416582130230262,0.04751552536134107,0.9743538086522511,0.5100250802963388,0.3759788712744624,-4.024921102222963,34.7
,,0.0242341096377407,0.017864833593370107,0.005416582130230262,0.04751552536134107,0.9820540863212789,0.5100250802963388,0.3759788712744624,-4.024921102222963,34.8
,,0.0242341096377407,0.017864833593370107,0.005416582130230262,0.04751552536134107,0.987337723664632,0.5100250802963388,0.3759788712744624,-4.024921102222963,34.9
,,0.024902655488495552,0.01813675311442174,0.00454638890881448,0.047585797511731774,0.9928049538198157,0.5233211754485373,0.38113794583247906,-4.0098148407005265,35.0
,,0.024902655488495552,0.01813675311442174,0.00454638890881448,0.047585797511731774,0.998683915009441,0.5233211754485373,0.38113794583247906,-4.0098148407005265,35.1
,,0.024902655488495552,0.01813675311442174,0.00454638890881448,0.047585797511731774,1.0045628761990661,0.5233211754485373,0.38113794583247906,-4.0098148407005265,35.2
,,0.024902655488495552,0.01813675311442174,0.00454638890881448,0.047585797511731774,1.0104418373886914,0.5233211754485373,0.38113794583247906,-4.0098148407005265,35.3
,,0.024954180084936876,0.018017265837890283,0.005119732164015359,0.04809117808684252,1.0164537491450454,0.5188930917823409,0.37464804470697105,-4.016424767620866,35.4
,,0.024954180084936876,0.018017265837890283,0.005119732164015359,0.04809117808684252,1.0224656609013996,0.5188930917823409,0.37464804470697105,-4.016424767620866,35.5
,,0.024954180084936876,0.018017265837890283,0.005119732164015359,0.04809117808684252,1.0283088099206779,0.5188930917823409,0.37464804470697105,-4.016424767620866,35.6
,,0.02566614794838169,0.018396362714768022,0.004265136129060994,0.04832764679221071,1.034264851469674,0.5310862343191615,0.38065918652867425,-3.9956023124533924,35.7
,,0.02566614794838169,0.018396362714768022,0.004265136129060994,0.04832764679221071,1.0406070744437839,0.5310862343191615,0.38065918652867425,-3.9956023124533924,35.8
,,0.02566614794838169,0.018396362714768022,0.004265136129060994,0.04832764679221071,1.0469492974178936,0.5310862343191615,0.38065918652867425,-3.9956023124533924,35.9
,,0.02566614794838169,0.018396362714768022,0.004265136129060994,0.04832764679221071,1.0532915203920032,0.5310862343191615,0.38065918652867425,-3.9956023124533924,36.0
,,0.02566158954578483,0.018469806794274676,0.004873750873535891,0.0490051472135954,1.0595693585522103,0.5236509020967819,0.37689524150945997,-3.9916179453414187,36.1
,,0.02566158954578483,0.018469806794274676,0.004873750873535891,0.0490051472135954,1.0656687903611375,0.5236509020967819,0.37689524150945997,-3.9916179453414187,36.2
,,0.02566158954578483,0.018469806794274676,0.004873750873535891,0.0490051472135954,1.0717682221700644,0.5236509020967819,0.37689524150945997,-3.9916179453414187,36.3
,,0.02649393190825584,0.01900789350663838,0.004037088915099141,0.04953891432999336,1.0779171861335557,0.534810507387625,0.38369620658259035,-3.962900938372396,36.4
,,0.02649393190825584,0.01900789350663838,0.004037088915099141,0.04953891432999336,1.084358294238861,0.534810507387625,0.38369620658259035,-3.962900938372396,36.5
,,0.02649393190825584,0.01900789350663838,0.004037088915099141,0.04953891432999336,1.0907994023441663,0.534810507387625,0.38369620658259035,-3.962900938372396,36.6
,,0.02649393190825584,0.01900789350663838,0.004037088915099141,0.04953891432999336,1.0972405104494716,0.534810507387625,0.38369620658259035,-3.962900938372396,36.7
,,0.02642983820243265,0.019272466638013186,0.004715702089180588,0.050418006929626426,1.1034320593695486,0.5242142601813571,0.38225363935773465,-3.9490778006992544,36.8
,,0.02642983820243265,0.019272466638013186,0.004715702089180588,0.050418006929626426,1.1094315750117034,0.5242142601813571,0.38225363935773465,-3.9490778006992544,36.9
,,0.02642983820243265,0.019272466638013186,0.004715702089180588,0.050418006929626426,1.1154310906538585,0.5242142601813571,0.38225363935773465,-3.9490778006992544,37.0
,,0.02740445175003002,0.01999184938149997,0.0038958152802269263,0.05129211641175692,1.1214239746075625,0.5342819455924909,0.38976456383690067,-3.912430619416443,37.1
,,0.02740445175003002,0.01999184938149997,0.0038958152802269263,0.05129211641175692,1.1274168585612665,0.5342819455924909,0.38976456383690067,-3.912430619416443,37.2
,,0.02740445175003002,0.01999184938149997,0.0038958152802269263,0.05129211641175692,1.1335928204274561,0.5342819455924909,0.38976456383690067,-3.912430619416443,37.3
,,0.02740445175003002,0.01999184938149997,0.0038958152802269263,0.05129211641175692,1.1397687822936458,0.5342819455924909,0.38976456383690067,-3.912430619416443,37.4
,,0.024313454574155857,0.021191292684961758,0.0021993087935814086,0.04770405605269902,1.1434619783449649,0.5096726900391154,0.44422412764129704,-3.854164904081185,37.5
,,0.024313454574155857,0.021191292684961758,0.0021993087935814086,0.04770405605269902,1.1469591723829553,0.5096726900391154,0.44422412764129704,-3.854164904081185,37.6
,,0.024313454574155857,0.021191292684961758,0.0021993087935814086,0.04770405605269902,1.1504563664209457,0.5096726900391154,0.44422412764129704,-3.854164904081185,37.7
,,0.025642148754016166,0.022219429918671908,0.0017130737443742734,0.04957465241706235,1.1540281093877278,0.5172431374464016,0.4482014262398447,-3.8067881513251662,37.8
,,0.025642148754016166,0.022219429918671908,0.0017130737443742734,0.04957465241706235,1.15759985235451,0.5172431374464016,0.4482014262398447,-3.8067881513251662,37.9
,,0.025642148754016166,0.022219429918671908,0.0017130737443742734,0.04957465241706235,1.1612105247795992,0.5172431374464016,0.4482014262398447,-3.8067881513251662,38.0
,,0.025642148754016166,0.022219429918671908,0.0017130737443742734,0.04957465241706235,1.164821221379275,0.5172431374464016,0.4482014262398447,-3.8067881513251662,38.1
,,0.025642148754016166,0.022219429918671908,0.0017130737443742734,0.04957465241706235,1.1684318938043643,0.5172431374464016,0.4482014262398447,-3.8067881513251662,38.2
,,0.028045227067260495,0.021840605180513402,0.004752857502406699,0.054638689750180595,1.1732573467899312,0.513285131753508,0.3997278353557373,-3.823984418758873,38.3
,,0.028045227067260495,0.021840605180513402,0.004752857502406699,0.054638689750180595,1.1780827997754983,0.513285131753508,0.3997278353557373,-3.823984418758873,38.4
,,0.02515950805972373,0.022310719825549472,0.001796589081372147,0.04926681696664535,1.18117047980745,0.5106785785807358,0.4528549072016219,-3.8026880063540456,38.5
,,0.02515950805972373,0.022310719825549472,0.001796589081372147,0.04926681696664535,1.184258159839402,0.5106785785807358,0.4528549072016219,-3.8026880063540456,38.6
,,0.02515950805972373,0.022310719825549472,0.001796589081372147,0.04926681696664535,1.1872194393434743,0.5106785785807358,0.4528549072016219,-3.8026880063540456,38.7
,,0.02515950805972373,0.022310719825549472,0.001796589081372147,0.04926681696664535,1.1901807188475462,0.5106785785807358,0.4528549072016219,-3.8026880063540456,38.8
,,0.02515950805972373,0.022310719825549472,0.001796589081372147,0.04926681696664535,1.1931419983516183,0.5106785785807358,0.4528549072016219,-3.8026880063540456,38.9
,,0.02791513602010505,0.022665682171171656,0.0048157277355018804,0.05539654592677858,1.1969815122544374,0.5039147396843551,0.40915334687347554,-3.786903297042187,39.0
,,0.02791513602010505,0.022665682171171656,0.0048157277355018804,0.05539654592677858,1.200821026157256,0.5039147396843551,0.40915334687347554,-3.786903297042187,39.1
,,0.02791513602010505,0.022665682171171656,0.0048157277355018804,0.05539654592677858,1.204660540060075,0.5039147396843551,0.40915334687347554,-3.786903297042187,39.2
,,0.02439697775097309,0.02219415532141711,0.0019541202567548207,0.04854525332914502,1.2070294845692382,0.5025615498503522,0.4571848697737137,-3.807926298576577,39.3
,,0.02439697775097309,0.02219415532141711,0.0019541202567548207,0.04854525332914502,1.2091211834555202,0.5025615498503522,0.4571848697737137,-3.807926298576577,39.4
,,0.02439697775097309,0.02219415532141711,0.0019541202567548207,0.04854525332914502,1.2112128823418025,0.5025615498503522,0.4571848697737137,-3.807926298576577,39.5
,,0.02711617416137511,0.022965753038829723,0.004886908614614145,0.054968835814818984,1.2142098014636649,0.4933008632877921,0.417795878308167,-3.7737511710243825,39.6
,,0.02711617416137511,0.022965753038829723,0.004886908614614145,0.054968835814818984,1.2168820426365863,0.4933008632877921,0.417795878308167,-3.7737511710243825,39.7
,,0.02711617416137511,0.022965753038829723,0.004886908614614145,0.054968835814818984,1.2195542838095077,0.4933008632877921,0.417795878308167,-3.7737511710243825,39.8
,,0.02747978210671715,0.023328034982345418,0.004054700685761999,0.054862517774824565,1.2221959721478581,0.5008844511931447,0.4252089756086666,-3.7580994235708762,39.9
,,0.02747978210671715,0.023328034982345418,0.004054700685761999,0.054862517774824565,1.2248376604862086,0.5008844511931447,0.4252089756086666,-3.7580994235708762,40.0
,,0.02747978210671715,0.023328034982345418,0.004054700685761999,0.054862517774824565,1.227033813770738,0.5008844511931447,0.4252089756086666,-3.7580994235708762,40.1
,,0.02747978210671715,0.023328034982345418,0.004054700685761999,0.054862517774824565,1.229229967055267,0.5008844511931447,0.4252089756086666,-3.7580994235708762,40.2
,,0.023569897654694798,0.022786207146082267,0.0031939626113635486,0.049550067412140616,1.2298307955028953,0.4756784175215828,0.45986228346682845,-3.7815998758108957,40.3
,,0.023569897654694798,0.022786207146082267,0.0031939626113635486,0.049550067412140616,1.2300878828522968,0.4756784175215828,0.45986228346682845,-3.7815998758108957,40.4
,,0.023569897654694798,0.022786207146082267,0.0031939626113635486,0.049550067412140616,1.2303449702016982,0.4756784175215828,0.45986228346682845,-3.7815998758108957,40.5
,,0.027254974525970768,0.024060386774018172,0.004415609869527212,0.055730971169516155,1.2316951747957146,0.4890453899155942,0.4317238022074658,-3.7271884931692103,40.6
,,0.027254974525970768,0.024060386774018172,0.004415609869527212,0.055730971169516155,1.2330453793897314,0.4890453899155942,0.4317238022074658,-3.7271884931692103,40.7
,,0.027254974525970768,0.024060386774018172,0.004415609869527212,0.055730971169516155,1.2338666560649503,0.4890453899155942,0.4317238022074658,-3.7271884931692103,40.8
,,0.027254974525970768,0.024060386774018172,0.004415609869527212,0.055730971169516155,1.234687932740169,0.4890453899155942,0.4317238022074658,-3.7271884931692103,40.9
,,0.02355399587821199,0.02328403708696613,0.0037802067691611618,0.05061823973433928,1.2341627695100086,0.465326253971511,0.4599930224592599,-3.7599872567648576,41.0
,,0.02355399587821199,0.02328403708696613,0.0037802067691611618,0.05061823973433928,1.233637606279848,0.465326253971511,0.4599930224592599,-3.7599872567648576,41.1
,,0.02355399587821199,0.02328403708696613,0.0037802067691611618,0.05061823973433928,1.2327518536303264,0.465326253971511,0.4599930224592599,-3.7599872567648576,41.2
,,0.02355399587821199,0.02328403708696613,0.0037802067691611618,0.05061823973433928,1.2318661009808045,0.465326253971511,0.4599930224592599,-3.7599872567648576,41.3
,,0.027101552459572593,0.02471336483173422,0.004924206465547677,0.05673912375685449,1.2319252518053665,0.47765193864662975,0.4355612705201263,-3.700411095377587,41.4
,,0.027101552459572593,0.02471336483173422,0.004924206465547677,0.05673912375685449,1.23137199033169,0.47765193864662975,0.4355612705201263,-3.700411095377587,41.5
,,0.027101552459572593,0.02471336483173422,0.004924206465547677,0.05673912375685449,1.2308187288580135,0.47765193864662975,0.4355612705201263,-3.700411095377587,41.6
,,0.026381061719689295,0.024789096283379847,0.00627147551679363,0.05744163351986277,1.2299052998302133,0.459267261446647,0.43155277390932856,-3.6973513884853806,41.7
,,0.026381061719689295,0.024789096283379847,0.00627147551679363,0.05744163351986277,1.2289918708024132,0.459267261446647,0.43155277390932856,-3.6973513884853806,41.8
,,0.026381061719689295,0.024789096283379847,0.00627147551679363,0.05744163351986277,1.2277293210302125,0.459267261446647,0.43155277390932856,-3.6973513884853806,41.9
,,0.026381061719689295,0.024789096283379847,0.00627147551679363,0.05744163351986277,1.2264667712580115,0.459267261446647,0.43155277390932856,-3.6973513884853806,42.0
,,0.027204006120796438,0.025343144009011557,0.005585206321032586,0.05813235645084058,1.2253065132378858,0.46796668467760133,0.4359559040143658,-3.675247038817462,42.1
,,0.027204006120796438,0.025343144009011557,0.005585206321032586,0.05813235645084058,1.22414625521776,0.46796668467760133,0.4359559040143658,-3.675247038817462,42.2
,,0.027204006120796438,0.025343144009011557,0.005585206321032586,0.05813235645084058,1.222390671448486,0.46796668467760133,0.4359559040143658,-3.675247038817462,42.3
,,0.024113683152505554,0.024243122824255767,0.0053777931949272936,0.053734599171688616,1.2197599112292123,0.4487552438133834,0.4511641139593509,-3.719622296695327,42.4
,,0.024113683152505554,0.024243122824255767,0.0053777931949272936,0.053734599171688616,1.2171291510099387,0.4487552438133834,0.4511641139593509,-3.719622296695327,42.5
,,0.024113683152505554,0.024243122824255767,0.0053777931949272936,0.053734599171688616,1.2141628128790194,0.4487552438133834,0.4511641139593509,-3.719622296695327,42.6
,,0.024113683152505554,0.024243122824255767,0.0053777931949272936,0.053734599171688616,1.2111964747481003,0.4487552438133834,0.4511641139593509,-3.719622296695327,42.7
,,0.027729140771390246,0.026039360508325973,0.006412412854795704,0.060180914134511924,1.2090104981885854,0.46076303708867106,0.43268469551866096,-3.6481460199953206,42.8
,,0.027729140771390246,0.026039360508325973,0.006412412854795704,0.060180914134511924,1.2068245216290705,0.46076303708867106,0.43268469551866096,-3.6481460199953206,42.9
,,0.027729140771390246,0.026039360508325973,0.006412412854795704,0.060180914134511924,1.2059168387044386,0.46076303708867106,0.43268469551866096,-3.6481460199953206,43.0
,,0.027181690214448176,0.02585954621588573,0.007997453777509132,0.06103869020784304,1.2048562066663662,0.44531902833910286,0.4236582752321733,-3.6550754535152916,43.1
,,0.027181690214448176,0.02585954621588573,0.007997453777509132,0.06103869020784304,1.2037955746282938,0.44531902833910286,0.4236582752321733,-3.6550754535152916,43.2
,,0.027181690214448176,0.02585954621588573,0.007997453777509132,0.06103869020784304,1.2007120172534624,0.44531902833910286,0.4236582752321733,-3.6550754535152916,43.3
,,0.027181690214448176,0.02585954621588573,0.007997453777509132,0.06103869020784304,1.197628459878631,0.44531902833910286,0.4236582752321733,-3.6550754535152916,43.4
,,0.02849584782213168,0.02654837144375843,0.007294933686672758,0.062339152952562864,1.1947918790259375,0.45710996175735125,0.42586994186399163,-3.628786872393654,43.5
,,0.02849584782213168,0.02654837144375843,0.007294933686672758,0.062339152952562864,1.1919552981732442,0.45710996175735125,0.42586994186399163,-3.628786872393654,43.6
,,0.02849584782213168,0.02654837144375843,0.007294933686672758,0.062339152952562864,1.1888089633525722,0.45710996175735125,0.42586994186399163,-3.628786872393654,43.7
,,0.028070750389333106,0.02619319212026439,0.008957884546766668,0.06322182705636417,1.1856440216382766,0.44400409947512565,0.41430615564008244,-3.6422557447180597,43.8
,,0.028070750389333106,0.02619319212026439,0.008957884546766668,0.06322182705636417,1.1824790799239813,0.44400409947512565,0.41430615564008244,-3.6422557447180597,43.9
,,0.028070750389333106,0.02619319212026439,0.008957884546766668,0.06322182705636417,1.179130545397855,0.44400409947512565,0.41430615564008244,-3.6422557447180597,44.0
,,0.028070750389333106,0.02619319212026439,0.008957884546766668,0.06322182705636417,1.1757820108717285,0.44400409947512565,0.41430615564008244,-3.6422557447180597,44.1
,,0.028070750389333106,0.02619319212026439,0.008957884546766668,0.06322182705636417,1.1724334763456021,0.44400409947512565,0.41430615564008244,-3.6422557447180597,44.2
,,0.02957969234234657,0.02685991398104412,0.008221822882536686,0.06466142920592738,1.1694135722667451,0.4574549728578387,0.41539313793240323,-3.617120290384946,44.3
,,0.02957969234234657,0.02685991398104412,0.008221822882536686,0.06466142920592738,1.166260717621159,0.4574549728578387,0.41539313793240323,-3.617120290384946,44.4
,,0.029340695095597287,0.026389062679089647,0.009860312353188213,0.06559007012787514,1.1632255596602872,0.4473344065404159,0.4023331981143065,-3.6348056471314227,44.5
,,0.029340695095597287,0.026389062679089647,0.009860312353188213,0.06559007012787514,1.1601904016994156,0.4473344065404159,0.4023331981143065,-3.6348056471314227,44.6
,,0.029340695095597287,0.026389062679089647,0.009860312353188213,0.06559007012787514,1.157042351208826,0.4473344065404159,0.4023331981143065,-3.6348056471314227,44.7
,,0.029340695095597287,0.026389062679089647,0.009860312353188213,0.06559007012787514,1.1538943007182363,0.4473344065404159,0.4023331981143065,-3.6348056471314227,44.8
,,0.029340695095597287,0.026389062679089647,0.009860312353188213,0.06559007012787514,1.1507462502276466,0.4473344065404159,0.4023331981143065,-3.6348056471314227,44.9
,,0.02905239006178556,0.02544250113734047,0.007787369234060019,0.06228226043318605,1.147931906438389,0.46646332133291496,0.40850317506754885,-3.671334230195802,45.0
,,0.02905239006178556,0.02544250113734047,0.007787369234060019,0.06228226043318605,1.1451819474630338,0.46646332133291496,0.40850317506754885,-3.671334230195802,45.1
,,0.030907378568122784,0.02641285037591365,0.010649166987054436,0.06796939593109087,1.1427462135004296,0.45472492648687773,0.3885991631099926,-3.6339046305940665,45.2
,,0.030907378568122784,0.02641285037591365,0.010649166987054436,0.06796939593109087,1.1403104795378254,0.45472492648687773,0.3885991631099926,-3.6339046305940665,45.3
,,0.030907378568122784,0.02641285037591365,0.010649166987054436,0.06796939593109087,1.1378252134206568,0.45472492648687773,0.3885991631099926,-3.6339046305940665,45.4
,,0.030907378568122784,0.02641285037591365,0.010649166987054436,0.06796939593109087,1.1353399473034886,0.45472492648687773,0.3885991631099926,-3.6339046305940665,45.5
,,0.030907378568122784,0.02641285037591365,0.010649166987054436,0.06796939593109087,1.1328546811863203,0.45472492648687773,0.3885991631099926,-3.6339046305940665,45.6
,,0.031192750639367967,0.025446119530725862,0.008551729396125118,0.06519059956621895,1.1309879796485718,0.47848540812518786,0.39033418468376474,-3.6711920218457235,45.7
,,0.031192750639367967,0.025446119530725862,0.008551729396125118,0.06519059956621895,1.1293708372960518,0.47848540812518786,0.39033418468376474,-3.6711920218457235,45.8
,,0.03135188790390637,0.024757209445161445,0.010037298867785044,0.06614639621685285,1.1282041260450077,0.47397726402392426,0.37427903651769584,-3.6986385416707472,45.9
,,0.03135188790390637,0.024757209445161445,0.010037298867785044,0.06614639621685285,1.1270374147939637,0.47397726402392426,0.37427903651769584,-3.6986385416707472,46.0
,,0.03135188790390637,0.024757209445161445,0.010037298867785044,0.06614639621685285,1.1258773352313707,0.47397726402392426,0.37427903651769584,-3.6986385416707472,46.1
,,0.03135188790390637,0.024757209445161445,0.010037298867785044,0.06614639621685285,1.1247172556687777,0.47397726402392426,0.37427903651769584,-3.6986385416707472,46.2
,,0.03135188790390637,0.024757209445161445,0.010037298867785044,0.06614639621685285,1.1235571761061844,0.47397726402392426,0.37427903651769584,-3.6986385416707472,46.3
,,0.03363647922456657,0.025353874383549073,0.009058601044680321,0.06804895465279596,1.1230671630218336,0.49429825037267533,0.37258286351217806,-3.6748237249801603,46.4
,,0.03363647922456657,0.025353874383549073,0.009058601044680321,0.06804895465279596,1.1250599157523533,0.49429825037267533,0.37258286351217806,-3.6748237249801603,46.5
,,0.03433220751710232,0.025806991101700233,0.011213967689728049,0.0713531663085306,1.1270933927552833,0.4811588510123026,0.3616796904304286,-3.6571098508269824,46.6
,,0.03433220751710232,0.025806991101700233,0.011213967689728049,0.0713531663085306,1.1291268697582129,0.4811588510123026,0.3616796904304286,-3.6571098508269824,46.7
,,0.03433220751710232,0.025806991101700233,0.011213967689728049,0.0713531663085306,1.1310857978323514,0.4811588510123026,0.3616796904304286,-3.6571098508269824,46.8
,,0.03433220751710232,0.025806991101700233,0.011213967689728049,0.0713531663085306,1.1330447259064897,0.4811588510123026,0.3616796904304286,-3.6571098508269824,46.9
,,0.03433220751710232,0.025806991101700233,0.011213967689728049,0.0713531663085306,1.1350036539806279,0.4811588510123026,0.3616796904304286,-3.6571098508269824,47.0
,,0.03433220751710232,0.025806991101700233,0.011213967689728049,0.0713531663085306,1.1369625820547662,0.4811588510123026,0.3616796904304286,-3.6571098508269824,47.1
,,0.03394500664958034,0.02471459683210234,0.009172644847660612,0.0678322483293433,1.139400786335027,0.5004257928289279,0.3643487786532817,-3.7003612450367314,47.2
,,0.03366851855674874,0.02389907129783567,0.010294650301982608,0.06786224015656701,1.1407862622366238,0.4961303735195167,0.35217038580950766,-3.7339156786308005,47.3
,,0.03366851855674874,0.02389907129783567,0.010294650301982608,0.06786224015656701,1.1421717381382206,0.4961303735195167,0.35217038580950766,-3.7339156786308005,47.4
,,0.03366851855674874,0.02389907129783567,0.010294650301982608,0.06786224015656701,1.1452949869934326,0.4961303735195167,0.35217038580950766,-3.7339156786308005,47.5
,,0.03366851855674874,0.02389907129783567,0.010294650301982608,0.06786224015656701,1.1484182358486443,0.4961303735195167,0.35217038580950766,-3.7339156786308005,47.6
,,0.03366851855674874,0.02389907129783567,0.010294650301982608,0.06786224015656701,1.151541484703856,0.4961303735195167,0.35217038580950766,-3.7339156786308005,47.7
,,0.03366851855674874,0.02389907129783567,0.010294650301982608,0.06786224015656701,1.154664733559068,0.4961303735195167,0.35217038580950766,-3.7339156786308005,47.8
,,0.03331441638456882,0.023094734737558235,0.00829714154507731,0.06470629266720437,1.1581627819267384,0.5148558974922364,0.356916364476921,-3.768150620874201,47.9
,,0.033066552386337975,0.02242873162214089,0.009312763317901217,0.06480804732638008,1.1608593457260845,0.5102229391330273,0.34607942296405664,-3.7974124803262015,48.0
,,0.033066552386337975,0.02242873162214089,0.009312763317901217,0.06480804732638008,1.1635559095254306,0.5102229391330273,0.34607942296405664,-3.7974124803262015,48.1
,,0.033066552386337975,0.02242873162214089,0.009312763317901217,0.06480804732638008,1.1662524733247768,0.5102229391330273,0.34607942296405664,-3.7974124803262015,48.2
,,0.033066552386337975,0.02242873162214089,0.009312763317901217,0.06480804732638008,1.1704196065177785,0.5102229391330273,0.34607942296405664,-3.7974124803262015,48.3
,,0.033066552386337975,0.02242873162214089,0.009312763317901217,0.06480804732638008,1.1745867397107805,0.5102229391330273,0.34607942296405664,-3.7974124803262015,48.4
,,0.033066552386337975,0.02242873162214089,0.009312763317901217,0.06480804732638008,1.1787538729037825,0.5102229391330273,0.34607942296405664,-3.7974124803262015,48.5
,,0.033066552386337975,0.02242873162214089,0.009312763317901217,0.06480804732638008,1.1820157858612041,0.5102229391330273,0.34607942296405664,-3.7974124803262015,48.6
,,0.032755539033162646,0.02055388743144732,0.007117567666128543,0.060426994130738515,1.1866037841902881,0.5420679864084168,0.34014413139560407,-3.8847051865166757,48.7
,,0.032497345026079136,0.02144703239089343,0.008341777203727621,0.06228615462070019,1.1903206195906353,0.5217426765864105,0.34433065456517553,-3.8421689932542638,48.8
,,0.032497345026079136,0.02144703239089343,0.008341777203727621,0.06228615462070019,1.1940680078255532,0.5217426765864105,0.34433065456517553,-3.8421689932542638,48.9
,,0.032497345026079136,0.02144703239089343,0.008341777203727621,0.06228615462070019,1.1978153960604714,0.5217426765864105,0.34433065456517553,-3.8421689932542638,49.0
,,0.032497345026079136,0.02144703239089343,0.008341777203727621,0.06228615462070019,1.2015627842953893,0.5217426765864105,0.34433065456517553,-3.8421689932542638,49.1
,,0.032497345026079136,0.02144703239089343,0.008341777203727621,0.06228615462070019,1.2053101725303073,0.5217426765864105,0.34433065456517553,-3.8421689932542638,49.2
,,0.032497345026079136,0.02144703239089343,0.008341777203727621,0.06228615462070019,1.2106528856021268,0.5217426765864105,0.34433065456517553,-3.8421689932542638,49.3
,,0.03250224556587973,0.02141476559080625,0.006593519269117936,0.06051053042580392,1.2160235090119909,0.5371337077557591,0.3539014687214542,-3.8436746140029037,49.4
,,0.03224645872447337,0.021140143667095233,0.007481333784559088,0.06086793617612769,1.2214787636096096,0.5297774288118607,0.34731165528471397,-3.8565815025794468,49.5
,,0.03224645872447337,0.021140143667095233,0.007481333784559088,0.06086793617612769,1.2258409009626132,0.5297774288118607,0.34731165528471397,-3.8565815025794468,49.6
,,0.03224645872447337,0.021140143667095233,0.007481333784559088,0.06086793617612769,1.2302030383156168,0.5297774288118607,0.34731165528471397,-3.8565815025794468,49.7
,,0.03224645872447337,0.021140143667095233,0.007481333784559088,0.06086793617612769,1.2345651756686207,0.5297774288118607,0.34731165528471397,-3.8565815025794468,49.8
,,0.03224645872447337,0.021140143667095233,0.007481333784559088,0.06086793617612769,1.238927313021624,0.5297774288118607,0.34731165528471397,-3.8565815025794468,49.9
,,0.03224645872447337,0.021140143667095233,0.007481333784559088,0.06086793617612769,1.2446358902800072,0.5297774288118607,0.34731165528471397,-3.8565815025794468,50.0
,,0.03233284868126252,0.019442797867986004,0.008261980826763415,0.06003762737601195,1.2518734334224861,0.5385430786390657,0.3238435414213983,-3.9402785670554925,50.1
,,0.024314655798567952,0.02131312785111778,0.0067942911745232405,0.05242207482420898,1.253309387308319,0.46382475092991227,0.4065678041662554,-3.848432065082334,50.2
,,0.024314655798567952,0.02131312785111778,0.0067942911745232405,0.05242207482420898,1.2547453411941518,0.46382475092991227,0.4065678041662554,-3.848432065082334,50.3
,,0.024314655798567952,0.02131312785111778,0.0067942911745232405,0.05242207482420898,1.255236391605901,0.46382475092991227,0.4065678041662554,-3.848432065082334,50.4
,,0.024314655798567952,0.02131312785111778,0.0067942911745232405,0.05242207482420898,1.2557274420176503,0.46382475092991227,0.4065678041662554,-3.848432065082334,50.5
,,0.024314655798567952,0.02131312785111778,0.0067942911745232405,0.05242207482420898,1.2562184924293995,0.46382475092991227,0.4065678041662554,-3.848432065082334,50.6
,,0.024314655798567952,0.02131312785111778,0.0067942911745232405,0.05242207482420898,1.2570697103952724,0.46382475092991227,0.4065678041662554,-3.848432065082334,50.7
,,0.024314655798567952,0.02131312785111778,0.0067942911745232405,0.05242207482420898,1.2579209283611452,0.46382475092991227,0.4065678041662554,-3.848432065082334,50.8
,,0.031138054129165725,0.019571027798450873,0.006007375189891597,0.056716457117508196,1.2637743467660534,0.5490126801230238,0.34506788317018056,-3.9337049798704067,50.9
,,0.031138054129165725,0.019571027798450873,0.006007375189891597,0.056716457117508196,1.2696277651709615,0.5490126801230238,0.34506788317018056,-3.9337049798704067,51.0
,,0.031138054129165725,0.019571027798450873,0.006007375189891597,0.056716457117508196,1.2753788918237947,0.5490126801230238,0.34506788317018056,-3.9337049798704067,51.1
,,0.031138054129165725,0.019571027798450873,0.006007375189891597,0.056716457117508196,1.2811300184766277,0.5490126801230238,0.34506788317018056,-3.9337049798704067,51.2
,,0.031138054129165725,0.019571027798450873,0.006007375189891597,0.056716457117508196,1.2868811451294608,0.5490126801230238,0.34506788317018056,-3.9337049798704067,51.3
,,0.031138054129165725,0.019571027798450873,0.006007375189891597,0.056716457117508196,1.2935074482322935,0.5490126801230238,0.34506788317018056,-3.9337049798704067,51.4
,,0.031138054129165725,0.019571027798450873,0.006007375189891597,0.056716457117508196,1.3001337513351263,0.5490126801230238,0.34506788317018056,-3.9337049798704067,51.5
,,0.03091620789849414,0.020290805346815623,0.005649687318871631,0.0568567005641814,1.3060114764632416,0.5437566301195245,0.35687623702171756,-3.89758743412257,51.6
,,0.03091620789849414,0.020290805346815623,0.005649687318871631,0.0568567005641814,1.3118892015913572,0.5437566301195245,0.35687623702171756,-3.89758743412257,51.7
,,0.03091620789849414,0.020290805346815623,0.005649687318871631,0.0568567005641814,1.3169865651480681,0.5437566301195245,0.35687623702171756,-3.89758743412257,51.8
,,0.03091620789849414,0.020290805346815623,0.005649687318871631,0.0568567005641814,1.3220839287047794,0.5437566301195245,0.35687623702171756,-3.89758743412257,51.9
,,0.03091620789849414,0.020290805346815623,0.005649687318871631,0.0568567005641814,1.3271812922614903,0.5437566301195245,0.35687623702171756,-3.89758743412257,52.0
,,0.03091620789849414,0.020290805346815623,0.005649687318871631,0.0568567005641814,1.3324316049316416,0.5437566301195245,0.35687623702171756,-3.89758743412257,52.1
,,0.023922106085531053,0.023079633201111546,0.006200060759510998,0.053201800046153595,1.332269104741191,0.44964843416535083,0.433813013489948,-3.768804729968025,52.2
,,0.03198019797257581,0.0240712470753929,0.005575581572719934,0.061627026620688655,1.3353517308196865,0.5189313800487629,0.39059562655116,-3.726737218168116,52.3
,,0.03198019797257581,0.0240712470753929,0.005575581572719934,0.061627026620688655,1.3384343568981818,0.5189313800487629,0.39059562655116,-3.726737218168116,52.4
,,0.03198019797257581,0.0240712470753929,0.005575581572719934,0.061627026620688655,1.341270006454539,0.5189313800487629,0.39059562655116,-3.726737218168116,52.5
,,0.03198019797257581,0.0240712470753929,0.005575581572719934,0.061627026620688655,1.3441056560108964,0.5189313800487629,0.39059562655116,-3.726737218168116,52.6
,,0.03198019797257581,0.0240712470753929,0.005575581572719934,0.061627026620688655,1.3469413055672537,0.5189313800487629,0.39059562655116,-3.726737218168116,52.7
,,0.03198019797257581,0.0240712470753929,0.005575581572719934,0.061627026620688655,1.3497955620172346,0.5189313800487629,0.39059562655116,-3.726737218168116,52.8
,,0.03168919725461967,0.02445464324068866,0.005991370610108382,0.06213521110541671,1.3522861669405968,0.5100038559594935,0.39357141958043174,-3.710935173496792,52.9
,,0.03168919725461967,0.02445464324068866,0.005991370610108382,0.06213521110541671,1.3547767718639592,0.5100038559594935,0.39357141958043174,-3.710935173496792,53.0
,,0.03195055862850961,0.025567267436259807,0.004732458110959428,0.06225028417572885,1.356754387248305,0.5132596429329557,0.41071728064863017,-3.6664423613943207,53.1
,,0.03195055862850961,0.025567267436259807,0.004732458110959428,0.06225028417572885,1.3587320026326508,0.5132596429329557,0.41071728064863017,-3.6664423613943207,53.2
,,0.03195055862850961,0.025567267436259807,0.004732458110959428,0.06225028417572885,1.3603809875697277,0.5132596429329557,0.41071728064863017,-3.6664423613943207,53.3
,,0.03195055862850961,0.025567267436259807,0.004732458110959428,0.06225028417572885,1.3620299725068046,0.5132596429329557,0.41071728064863017,-3.6664423613943207,53.4
,,0.031571835107109446,0.025970107755094094,0.0059287189968694086,0.06347066185907295,1.3631838441123745,0.4974240725141634,0.40916711744328127,-3.650809104101837,53.5
,,0.031571835107109446,0.025970107755094094,0.0059287189968694086,0.06347066185907295,1.3643377157179446,0.4974240725141634,0.40916711744328127,-3.650809104101837,53.6
,,0.031571835107109446,0.025970107755094094,0.0059287189968694086,0.06347066185907295,1.3654915873235147,0.4974240725141634,0.40916711744328127,-3.650809104101837,53.7
,,0.03056187096239297,0.024157018779437434,0.004729440210049719,0.059448329951880124,1.3671947386211407,0.514091329178313,0.4063531944293658,-3.7231803084201336,53.8
,,0.03056187096239297,0.024157018779437434,0.004729440210049719,0.059448329951880124,1.3688978899187667,0.514091329178313,0.4063531944293658,-3.7231803084201336,53.9
,,0.03056187096239297,0.024157018779437434,0.004729440210049719,0.059448329951880124,1.3702673345150609,0.514091329178313,0.4063531944293658,-3.7231803084201336,54.0
,,0.03056187096239297,0.024157018779437434,0.004729440210049719,0.059448329951880124,1.3716367791113548,0.514091329178313,0.4063531944293658,-3.7231803084201336,54.1
,,0.031287693579812946,0.027415916263756307,0.006008040148791699,0.06471164999236095,1.3713152152816401,0.4834939857584589,0.42366276036838324,-3.5966315486982583,54.2
,,0.031287693579812946,0.027415916263756307,0.006008040148791699,0.06471164999236095,1.3709936514519252,0.4834939857584589,0.42366276036838324,-3.5966315486982583,54.3
,,0.031287693579812946,0.027415916263756307,0.006008040148791699,0.06471164999236095,1.3706720876222103,0.4834939857584589,0.42366276036838324,-3.5966315486982583,54.4
,,0.03151917630075884,0.028524015344442058,0.004903162710219538,0.06494635435542043,1.3699480924428733,0.48531094029188176,0.4391934794113881,-3.557008902867758,54.5
,,0.03151917630075884,0.028524015344442058,0.004903162710219538,0.06494635435542043,1.3692240972635366,0.48531094029188176,0.4391934794113881,-3.557008902867758,54.6
,,0.03151917630075884,0.028524015344442058,0.004903162710219538,0.06494635435542043,1.3678815375047797,0.48531094029188176,0.4391934794113881,-3.557008902867758,54.7
,,0.023181556341110514,0.028679099582392873,0.0062646049054135644,0.058125260828916954,1.3632423498400248,0.3988206850261192,0.493401649702795,-3.551586659057617,54.8
,,0.023181556341110514,0.028679099582392873,0.0062646049054135644,0.058125260828916954,1.3581527310737938,0.3988206850261192,0.493401649702795,-3.551586659057617,54.9
,,0.023181556341110514,0.028679099582392873,0.0062646049054135644,0.058125260828916954,1.3530631123075627,0.3988206850261192,0.493401649702795,-3.551586659057617,55.0
,,0.023181556341110514,0.028679099582392873,0.0062646049054135644,0.058125260828916954,1.3479734935413317,0.3988206850261192,0.493401649702795,-3.551586659057617,55.1
,,0.023181556341110514,0.028679099582392873,0.0062646049054135644,0.058125260828916954,1.3428838747751008,0.3988206850261192,0.493401649702795,-3.551586659057617,55.2
,,0.028630865233186965,0.025773455086169288,0.005123135613611478,0.05952745593296773,1.341156011842599,0.48096907190906013,0.43296752199845534,-3.658410189336434,55.3
,,0.028630865233186965,0.025773455086169288,0.005123135613611478,0.05952745593296773,1.3387580824318548,0.48096907190906013,0.43296752199845534,-3.658410189336434,55.4
,,0.029773728442443026,0.029499095761075227,0.006646263432773083,0.06591908763629134,1.3352317471222666,0.4516708211545587,0.4475046123792934,-3.523395668273092,55.5
,,0.029773728442443026,0.029499095761075227,0.006646263432773083,0.06591908763629134,1.331664687540268,0.4516708211545587,0.4475046123792934,-3.523395668273092,55.6
,,0.029773728442443026,0.029499095761075227,0.006646263432773083,0.06591908763629134,1.3280976279582697,0.4516708211545587,0.4475046123792934,-3.523395668273092,55.7
,,0.029773728442443026,0.029499095761075227,0.006646263432773083,0.06591908763629134,1.3245305683762711,0.4516708211545587,0.4475046123792934,-3.523395668273092,55.8
,,0.029773728442443026,0.029499095761075227,0.006646263432773083,0.06591908763629134,1.3209635087942724,0.4516708211545587,0.4475046123792934,-3.523395668273092,55.9
,,0.028792406417121746,0.029113486505599487,0.0055079009020167526,0.06341379382473798,1.3171704665837054,0.45404011778096315,0.4591033708858812,-3.5365537583655633,56.0
,,0.028792406417121746,0.029113486505599487,0.0055079009020167526,0.06341379382473798,1.3133774243731384,0.45404011778096315,0.4591033708858812,-3.5365537583655633,56.1
,,0.025274169700182293,0.025297853984159055,0.006735089954302515,0.05730711363864387,1.3092172431971727,0.4410302333415581,0.44144352032240497,-3.677035709606828,56.2
,,0.025274169700182293,0.025297853984159055,0.006735089954302515,0.05730711363864387,1.3046648478078917,0.4410302333415581,0.44144352032240497,-3.677035709606828,56.3
,,0.025274169700182293,0.025297853984159055,0.006735089954302515,0.05730711363864387,1.3001124524186105,0.4410302333415581,0.44144352032240497,-3.677035709606828,56.4
,,0.025274169700182293,0.025297853984159055,0.006735089954302515,0.05730711363864387,1.2955600570293295,0.4410302333415581,0.44144352032240497,-3.677035709606828,56.5
,,0.025274169700182293,0.025297853984159055,0.006735089954302515,0.05730711363864387,1.2910076616400485,0.4410302333415581,0.44144352032240497,-3.677035709606828,56.6
,,0.02696682502863201,0.028476107215787527,0.005950425596426684,0.06139335784084622,1.2858767608482249,0.4392466217361782,0.46383042428804583,-3.558689886619507,56.7
,,0.02696682502863201,0.028476107215787527,0.005950425596426684,0.06139335784084622,1.2807458600564012,0.4392466217361782,0.46383042428804583,-3.558689886619507,56.8
,,0.025985721130898205,0.028215459133827274,0.007444721875207734,0.06164590213993321,1.2749510075439825,0.4215320115181683,0.4577021043471721,-3.5678852550077234,56.9
,,0.025985721130898205,0.028215459133827274,0.007444721875207734,0.06164590213993321,1.2688030102599317,0.4215320115181683,0.4577021043471721,-3.5678852550077234,57.0
,,0.025985721130898205,0.028215459133827274,0.007444721875207734,0.06164590213993321,1.262655012975881,0.4215320115181683,0.4577021043471721,-3.5678852550077234,57.1
,,0.025985721130898205,0.028215459133827274,0.007444721875207734,0.06164590213993321,1.25650701569183,0.4215320115181683,0.4577021043471721,-3.5678852550077234,57.2
,,0.022657871662186115,0.0237120995453174,0.006257022002137243,0.05262699320964075,1.2507430840832598,0.43053707385348805,0.45056914900799566,-3.7417698317785293,57.3
,,0.022657871662186115,0.0237120995453174,0.006257022002137243,0.05262699320964075,1.2449791524746894,0.43053707385348805,0.45056914900799566,-3.7417698317785293,57.4
,,0.022657871662186115,0.0237120995453174,0.006257022002137243,0.05262699320964075,1.2392152208661191,0.43053707385348805,0.45056914900799566,-3.7417698317785293,57.5
,,0.02444516560765742,0.027246836496698155,0.008073140595130514,0.05976514269948609,1.2328027775183314,0.4090204507763623,0.45589845963728365,-3.6028178564763538,57.6
,,0.02444516560765742,0.027246836496698155,0.008073140595130514,0.05976514269948609,1.2250642487988816,0.4090204507763623,0.45589845963728365,-3.6028178564763538,57.7
,,0.02444516560765742,0.027246836496698155,0.008073140595130514,0.05976514269948609,1.2181968830081684,0.4090204507763623,0.45589845963728365,-3.6028178564763538,57.8
,,0.02444516560765742,0.027246836496698155,0.008073140595130514,0.05976514269948609,1.2113295172174554,0.4090204507763623,0.45589845963728365,-3.6028178564763538,57.9
,,0.023977632050818487,0.02636596766759958,0.007172218210293897,0.05751581792871196,1.2045981682869034,0.4168876130830233,0.45841246142546227,-3.6356812039385624,58.0
,,0.023977632050818487,0.02636596766759958,0.007172218210293897,0.05751581792871196,1.1978668193563513,0.4168876130830233,0.45841246142546227,-3.6356812039385624,58.1
,,0.023977632050818487,0.02636596766759958,0.007172218210293897,0.05751581792871196,1.1911354704257993,0.4168876130830233,0.45841246142546227,-3.6356812039385624,58.2
,,0.02022491885458131,0.02265106122534621,0.00830104857288559,0.05117702865281311,1.1842205058882267,0.3951952543354543,0.44260211703598235,-3.7875485749345033,58.3
,,0.02022491885458131,0.02265106122534621,0.00830104857288559,0.05117702865281311,1.1772776310126092,0.3951952543354543,0.44260211703598235,-3.7875485749345033,58.4
,,0.02022491885458131,0.02265106122534621,0.00830104857288559,0.05117702865281311,1.1702501249492374,0.3951952543354543,0.44260211703598235,-3.7875485749345033,58.5
,,0.023194011601091757,0.025137740500250364,0.007958811631072408,0.05629056373241453,1.1635535777765176,0.4120408477582122,0.44657112726293363,-3.683384956539761,58.6
,,0.023194011601091757,0.025137740500250364,0.007958811631072408,0.05629056373241453,1.1568570306037977,0.4120408477582122,0.44657112726293363,-3.683384956539761,58.7
,,0.023194011601091757,0.025137740500250364,0.007958811631072408,0.05629056373241453,1.1501604834310777,0.4120408477582122,0.44657112726293363,-3.683384956539761,58.8
,,0.023194011601091757,0.025137740500250364,0.007958811631072408,0.05629056373241453,1.143463936258358,0.4120408477582122,0.44657112726293363,-3.683384956539761,58.9
,,0.02257714630950914,0.024617353701262293,0.009514237416808884,0.056708737427580314,1.1367056817438719,0.3981246512204791,0.43410160088116573,-3.7043036497354795,59.0
,,0.02257714630950914,0.024617353701262293,0.009514237416808884,0.056708737427580314,1.12841846134529,0.3981246512204791,0.43410160088116573,-3.7043036497354795,59.1
,,0.02257714630950914,0.024617353701262293,0.009514237416808884,0.056708737427580314,1.1259328302033538,0.3981246512204791,0.43410160088116573,-3.7043036497354795,59.2
,,0.022734280553312253,0.023502560766542634,0.008676164992157372,0.05491300631201226,1.1240048388692738,0.4140053892540047,0.4279962497955868,-3.750645894979643,59.3
,,0.022734280553312253,0.023502560766542634,0.008676164992157372,0.05491300631201226,1.1220768475351939,0.4140053892540047,0.4279962497955868,-3.750645894979643,59.4
,,0.022734280553312253,0.023502560766542634,0.008676164992157372,0.05491300631201226,1.1201488562011137,0.4140053892540047,0.4279962497955868,-3.750645894979643,59.5
,,0.02207257964399607,0.022696719289489558,0.010080780698609371,0.054850079632095,1.1182785326454594,0.40241654692294215,0.4137955576678651,-3.7855348896315695,59.6
,,0.02207257964399607,0.022696719289489558,0.010080780698609371,0.054850079632095,1.116408209089805,0.40241654692294215,0.4137955576678651,-3.7855348896315695,59.7
,,0.02207257964399607,0.022696719289489558,0.010080780698609371,0.054850079632095,1.114537885534151,0.40241654692294215,0.4137955576678651,-3.7855348896315695,59.8
,,0.02207257964399607,0.022696719289489558,0.010080780698609371,0.054850079632095,1.1076653615394614,0.40241654692294215,0.4137955576678651,-3.7855348896315695,59.9
,,0.017005379904047435,0.021394992973472523,0.00917235654130814,0.047572729418828105,1.0988187153504738,0.3574606736210752,0.4497322990470443,-3.8445983575325497,60.0
,,0.017005379904047435,0.021394992973472523,0.00917235654130814,0.047572729418828105,1.0899720691614865,0.3574606736210752,0.4497322990470443,-3.8445983575325497,60.1
,,0.017005379904047435,0.021394992973472523,0.00917235654130814,0.047572729418828105,1.081125422972499,0.3574606736210752,0.4497322990470443,-3.8445983575325497,60.2
,,0.016337455334346218,0.020548090243726506,0.01050534296006179,0.04739088853813451,1.0722815989076442,0.34473832076813227,0.43358735988230873,-3.8849872745371146,60.3
,,0.016337455334346218,0.020548090243726506,0.01050534296006179,0.04739088853813451,1.0634377748427897,0.34473832076813227,0.43358735988230873,-3.8849872745371146,60.4
,,0.016337455334346218,0.020548090243726506,0.01050534296006179,0.04739088853813451,1.054593950777935,0.34473832076813227,0.43358735988230873,-3.8849872745371146,60.5
,,0.016337455334346218,0.020548090243726506,0.01050534296006179,0.04739088853813451,1.0464987046877976,0.34473832076813227,0.43358735988230873,-3.8849872745371146,60.6
,,0.017120706920215313,0.019561717949190382,0.00962191630526133,0.04630434117466702,1.0392938031993006,0.36974301946405846,0.4224596971459027,-3.9341807885190594,60.7
,,0.017120706920215313,0.019561717949190382,0.00962191630526133,0.04630434117466702,1.0320889017108037,0.36974301946405846,0.4224596971459027,-3.9341807885190594,60.8
,,0.017120706920215313,0.019561717949190382,0.00962191630526133,0.04630434117466702,1.0248840002223065,0.36974301946405846,0.4224596971459027,-3.9341807885190594,60.9
,,0.022504179951075197,0.01890125444332057,0.010959496968304314,0.05236493136270008,1.0211835813164365,0.42975669719114895,0.3609525297073925,-3.968526986456644,61.0
,,0.022504179951075197,0.01890125444332057,0.010959496968304314,0.05236493136270008,1.0174831624105662,0.42975669719114895,0.3609525297073925,-3.968526986456644,61.1
,,0.022504179951075197,0.01890125444332057,0.010959496968304314,0.05236493136270008,1.019195556365298,0.42975669719114895,0.3609525297073925,-3.968526986456644,61.2
,,0.022504179951075197,0.01890125444332057,0.010959496968304314,0.05236493136270008,1.0176628240510834,0.42975669719114895,0.3609525297073925,-3.968526986456644,61.3
,,0.024331885517399697,0.018570347051750043,0.010270755749808305,0.053172988318958045,1.0174593853713865,0.4575986094940713,0.34924399848200854,-3.9861892149526286,61.4
,,0.024331885517399697,0.018570347051750043,0.010270755749808305,0.053172988318958045,1.0172559466916897,0.4575986094940713,0.34924399848200854,-3.9861892149526286,61.5
,,0.023811571698530057,0.017669629000864412,0.011411752785895738,0.0528929534852902,1.0174674423919214,0.4501841952378813,0.33406395061259764,-4.035907988860514,61.6
,,0.023811571698530057,0.017669629000864412,0.011411752785895738,0.0528929534852902,1.017678938092153,0.4501841952378813,0.33406395061259764,-4.035907988860514,61.7
,,0.023811571698530057,0.017669629000864412,0.011411752785895738,0.0528929534852902,1.0178904337923846,0.4501841952378813,0.33406395061259764,-4.035907988860514,61.8
,,0.023811571698530057,0.017669629000864412,0.011411752785895738,0.0528929534852902,1.0184655810192347,0.4501841952378813,0.33406395061259764,-4.035907988860514,61.9
,,0.023811571698530057,0.017669629000864412,0.011411752785895738,0.0528929534852902,1.0190407282460847,0.4501841952378813,0.33406395061259764,-4.035907988860514,62.0
,,0.024857860856844313,0.016600096345359763,0.010043175561496274,0.05150113276370035,1.0217939089850345,0.48266629339782074,0.3223248782026799,-4.098346779699147,62.1
,,0.024857860856844313,0.016600096345359763,0.010043175561496274,0.05150113276370035,1.0245470897239843,0.48266629339782074,0.3223248782026799,-4.098346779699147,62.2
,,0.02337063954799118,0.015111480002909107,0.010649451201951519,0.04913157075285181,1.0278457802420176,0.47567458540158003,0.30757168499506954,-4.192300558923051,62.3
,,0.02337063954799118,0.015111480002909107,0.010649451201951519,0.04913157075285181,1.0311444707600508,0.47567458540158003,0.30757168499506954,-4.192300558923051,62.4
,,0.02337063954799118,0.015111480002909107,0.010649451201951519,0.04913157075285181,1.0348205779248763,0.47567458540158003,0.30757168499506954,-4.192300558923051,62.5
,,0.02337063954799118,0.015111480002909107,0.010649451201951519,0.04913157075285181,1.0384966850897017,0.47567458540158003,0.30757168499506954,-4.192300558923051,62.6
,,0.02337063954799118,0.015111480002909107,0.010649451201951519,0.04913157075285181,1.0421727922545272,0.47567458540158003,0.30757168499506954,-4.192300558923051,62.7
,,0.022202373939645963,0.013138538446410792,0.008425994394355676,0.04376690678041244,1.0468920381533329,0.5072867966438623,0.3001934432407924,-4.332205501456803,62.8
,,0.02144306489570468,0.012235834876592092,0.0091679007757866,0.04284680054808337,1.0523069994975205,0.5004589519266655,0.2855717281121339,-4.403386347669132,62.9
,,0.02144306489570468,0.012235834876592092,0.0091679007757866,0.04284680054808337,1.0577219608417079,0.5004589519266655,0.2855717281121339,-4.403386347669132,63.0
,,0.02144306489570468,0.012235834876592092,0.0091679007757866,0.04284680054808337,1.0631369221858955,0.5004589519266655,0.2855717281121339,-4.403386347669132,63.1
,,0.02144306489570468,0.012235834876592092,0.0091679007757866,0.04284680054808337,1.069928666943341,0.5004589519266655,0.2855717281121339,-4.403386347669132,63.2
,,0.02144306489570468,0.012235834876592092,0.0091679007757866,0.04284680054808337,1.0767204117007867,0.5004589519266655,0.2855717281121339,-4.403386347669132,63.3
,,0.02144306489570468,0.012235834876592092,0.0091679007757866,0.04284680054808337,1.0835121564582324,0.5004589519266655,0.2855717281121339,-4.403386347669132,63.4
,,0.016402096465785332,0.009544249218111714,0.007240062666626094,0.03318640835052314,1.0903291229669085,0.4942413861886556,0.28759512380197844,-4.65181648198431,63.5
,,0.015773174745795624,0.009235896552078977,0.007960944658124889,0.03297001595599949,1.0970269795375818,0.4784096788683964,0.28013018144743534,-4.684657588063769,63.6
,,0.015773174745795624,0.009235896552078977,0.007960944658124889,0.03297001595599949,1.1037248361082552,0.4784096788683964,0.28013018144743534,-4.684657588063769,63.7
,,0.015773174745795624,0.009235896552078977,0.007960944658124889,0.03297001595599949,1.1137193205849267,0.4784096788683964,0.28013018144743534,-4.684657588063769,63.8
,,0.015773174745795624,0.009235896552078977,0.007960944658124889,0.03297001595599949,1.1237138050615982,0.4784096788683964,0.28013018144743534,-4.684657588063769,63.9
,,0.015773174745795624,0.009235896552078977,0.007960944658124889,0.03297001595599949,1.1337082895382695,0.4784096788683964,0.28013018144743534,-4.684657588063769,64.0
,,0.015773174745795624,0.009235896552078977,0.007960944658124889,0.03297001595599949,1.143702774014941,0.4784096788683964,0.28013018144743534,-4.684657588063769,64.1
,,0.02235407997157341,0.011178235090309118,0.007384281487707268,0.0409165965495898,1.1569414162294054,0.5463328296252812,0.27319562311986045,-4.4937866868377085,64.2
,,0.015907684739988676,0.008800283773863386,0.007547235864879223,0.032255204378731285,1.1646832690987678,0.49318195455236435,0.2728329875245247,-4.7329713109879705,64.3
,,0.015907684739988676,0.008800283773863386,0.007547235864879223,0.032255204378731285,1.1724251219681303,0.49318195455236435,0.2728329875245247,-4.7329713109879705,64.4
,,0.015907684739988676,0.008800283773863386,0.007547235864879223,0.032255204378731285,1.181295380736337,0.49318195455236435,0.2728329875245247,-4.7329713109879705,64.5
,,0.015907684739988676,0.008800283773863386,0.007547235864879223,0.032255204378731285,1.190165639504544,0.49318195455236435,0.2728329875245247,-4.7329713109879705,64.6
,,0.015907684739988676,0.008800283773863386,0.007547235864879223,0.032255204378731285,1.1990358982727503,0.49318195455236435,0.2728329875245247,-4.7329713109879705,64.7
,,0.015907684739988676,0.008800283773863386,0.007547235864879223,0.032255204378731285,1.207906157040957,0.49318195455236435,0.2728329875245247,-4.7329713109879705,64.8
,,0.021366703525761012,0.009904883511669117,0.007403403268258518,0.03867499030568865,1.2206603671174077,0.552468232231676,0.256105649500634,-4.614727359459172,64.9
,,0.021366703525761012,0.009904883511669117,0.007403403268258518,0.03867499030568865,1.2336405598224267,0.552468232231676,0.256105649500634,-4.614727359459172,65.0
,,0.021366703525761012,0.009904883511669117,0.007403403268258518,0.03867499030568865,1.2466207525274458,0.552468232231676,0.256105649500634,-4.614727359459172,65.1
,,0.021366703525761012,0.009904883511669117,0.007403403268258518,0.03867499030568865,1.2594888079917406,0.552468232231676,0.256105649500634,-4.614727359459172,65.2
,,0.021366703525761012,0.009904883511669117,0.007403403268258518,0.03867499030568865,1.2723568634560354,0.552468232231676,0.256105649500634,-4.614727359459172,65.3
,,0.021366703525761012,0.009904883511669117,0.007403403268258518,0.03867499030568865,1.2852249189203302,0.552468232231676,0.256105649500634,-4.614727359459172,65.4
,,0.021366703525761012,0.009904883511669117,0.007403403268258518,0.03867499030568865,1.298092974384625,0.552468232231676,0.256105649500634,-4.614727359459172,65.5
,,0.020940775688521346,0.009569835117988005,0.006799449255124904,0.03731006006163426,1.3113056715659164,0.5612635212574916,0.25649476581327235,-4.649139302716061,65.6
,,0.020940775688521346,0.009569835117988005,0.006799449255124904,0.03731006006163426,1.3250968741497506,0.5612635212574916,0.25649476581327235,-4.649139302716061,65.7
,,0.020940775688521346,0.009569835117988005,0.006799449255124904,0.03731006006163426,1.338888076733585,0.5612635212574916,0.25649476581327235,-4.649139302716061,65.8
,,0.020940775688521346,0.009569835117988005,0.006799449255124904,0.03731006006163426,1.3529684315255557,0.5612635212574916,0.25649476581327235,-4.649139302716061,65.9
,,0.020940775688521346,0.009569835117988005,0.006799449255124904,0.03731006006163426,1.3670487863175262,0.5612635212574916,0.25649476581327235,-4.649139302716061,66.0
,,0.020940775688521346,0.009569835117988005,0.006799449255124904,0.03731006006163426,1.381129141109497,0.5612635212574916,0.25649476581327235,-4.649139302716061,66.1
,,0.021786804786774243,0.010337692684246853,0.0057888415472169144,0.03791333901823801,1.3943128829303102,0.5746474816236526,0.27266637420866463,-4.571958579459305,66.2
,,0.015273966577282288,0.008584876898266139,0.00613919741257072,0.029998040888119144,1.403464336148524,0.5091654696467731,0.2861812519785656,-4.757753123900777,66.3
,,0.015273966577282288,0.008584876898266139,0.00613919741257072,0.029998040888119144,1.4126157893667377,0.5091654696467731,0.2861812519785656,-4.757753123900777,66.4
,,0.015273966577282288,0.008584876898266139,0.00613919741257072,0.029998040888119144,1.4217672425849512,0.5091654696467731,0.2861812519785656,-4.757753123900777,66.5
,,0.015273966577282288,0.008584876898266139,0.00613919741257072,0.029998040888119144,1.4315672075423822,0.5091654696467731,0.2861812519785656,-4.757753123900777,66.6
,,0.015273966577282288,0.008584876898266139,0.00613919741257072,0.029998040888119144,1.4413671724998132,0.5091654696467731,0.2861812519785656,-4.757753123900777,66.7
,,0.015273966577282288,0.008584876898266139,0.00613919741257072,0.029998040888119144,1.4511671374572437,0.5091654696467731,0.2861812519785656,-4.757753123900777,66.8
,,0.02098120135974053,0.009906302481115055,0.006218524829227786,0.03710602867008337,1.464731476232861,0.5654391513111875,0.2669728568689967,-4.614584110140441,66.9
,,0.02098120135974053,0.009906302481115055,0.006218524829227786,0.03710602867008337,1.4781597981483174,0.5654391513111875,0.2669728568689967,-4.614584110140441,67.0
,,0.02098120135974053,0.009906302481115055,0.006218524829227786,0.03710602867008337,1.4915881200637737,0.5654391513111875,0.2669728568689967,-4.614584110140441,67.1
,,0.02098120135974053,0.009906302481115055,0.006218524829227786,0.03710602867008337,1.50501644197923,0.5654391513111875,0.2669728568689967,-4.614584110140441,67.2
,,0.02098120135974053,0.009906302481115055,0.006218524829227786,0.03710602867008337,1.5186283795017068,0.5654391513111875,0.2669728568689967,-4.614584110140441,67.3
,,0.02098120135974053,0.009906302481115055,0.006218524829227786,0.03710602867008337,1.5322403170241836,0.5654391513111875,0.2669728568689967,-4.614584110140441,67.4
,,0.021981044782635933,0.011003534038405068,0.0054083143035225795,0.03839289312456358,1.5445152552556773,0.5725290019514724,0.286603408675265,-4.509538781563277,67.5
,,0.020681451071048233,0.010137872935698018,0.005965135236776684,0.036784459243522936,1.5569301653036531,0.5622333859560503,0.27560206522495256,-4.591477072478859,67.6
,,0.020681451071048233,0.010137872935698018,0.005965135236776684,0.036784459243522936,1.5693450753516287,0.5622333859560503,0.27560206522495256,-4.591477072478859,67.7
,,0.020681451071048233,0.010137872935698018,0.005965135236776684,0.036784459243522936,1.5817599853996045,0.5622333859560503,0.27560206522495256,-4.591477072478859,67.8
,,0.020681451071048233,0.010137872935698018,0.005965135236776684,0.036784459243522936,1.59417489544758,0.5622333859560503,0.27560206522495256,-4.591477072478859,67.9
,,0.020681451071048233,0.010137872935698018,0.005965135236776684,0.036784459243522936,1.606651512837322,0.5622333859560503,0.27560206522495256,-4.591477072478859,68.0
,,0.021530516721061817,0.01126400543584337,0.005141041964086644,0.03793556412099183,1.6176995227773217,0.5675549374300144,0.29692468523515053,-4.48614299698104,68.1
,,0.021530516721061817,0.01126400543584337,0.005141041964086644,0.03793556412099183,1.6287475327173215,0.5675549374300144,0.29692468523515053,-4.48614299698104,68.2
,,0.02020729844574385,0.010385994672897709,0.005747647310229685,0.036340940428871246,1.639617741519526,0.5560477579080496,0.28579322797729534,-4.567297046471974,68.3
,,0.02020729844574385,0.010385994672897709,0.005747647310229685,0.036340940428871246,1.6504879503217305,0.5560477579080496,0.28579322797729534,-4.567297046471974,68.4
,,0.02020729844574385,0.010385994672897709,0.005747647310229685,0.036340940428871246,1.6613581591239355,0.5560477579080496,0.28579322797729534,-4.567297046471974,68.5
,,0.02020729844574385,0.010385994672897709,0.005747647310229685,0.036340940428871246,1.6721707001477146,0.5560477579080496,0.28579322797729534,-4.567297046471974,68.6
,,0.02057654462572537,0.011362196802958349,0.004800485437304432,0.036739226865988156,1.6814869718749181,0.5600701588191119,0.3092660834808437,-4.47746350384263,68.7
,,0.02057654462572537,0.011362196802958349,0.004800485437304432,0.036739226865988156,1.6908032436021219,0.5600701588191119,0.3092660834808437,-4.47746350384263,68.8
,,0.02057654462572537,0.011362196802958349,0.004800485437304432,0.036739226865988156,1.7001195153293256,0.5600701588191119,0.3092660834808437,-4.47746350384263,68.9
,,0.019313218670182368,0.010530795181721645,0.0054219396582696954,0.03526595351017371,1.7116655758849435,0.5476448741024622,0.2986108167664789,-4.553451439854415,69.0
,,0.019313218670182368,0.010530795181721645,0.0054219396582696954,0.03526595351017371,1.7232116364405612,0.5476448741024622,0.2986108167664789,-4.553451439854415,69.1
,,0.019313218670182368,0.010530795181721645,0.0054219396582696954,0.03526595351017371,1.734757696996179,0.5476448741024622,0.2986108167664789,-4.553451439854415,69.2
,,0.01937947106157263,0.011389094055416774,0.004400914794063979,0.03516947991105338,1.7448298920967185,0.5510309254099,0.323834588518817,-4.475099043280194,69.3
,,0.01937947106157263,0.011389094055416774,0.004400914794063979,0.03516947991105338,1.7549020871972578,0.5510309254099,0.323834588518817,-4.475099043280194,69.4
,,0.01937947106157263,0.011389094055416774,0.004400914794063979,0.03516947991105338,1.7649742822977974,0.5510309254099,0.323834588518817,-4.475099043280194,69.5
,,0.01808097698493097,0.01053806020572138,0.004952029134059302,0.03357106632471165,1.7752042223551636,0.5385881047103221,0.31390305281915687,-4.552761794009486,69.6
,,0.01808097698493097,0.01053806020572138,0.004952029134059302,0.03357106632471165,1.784543817810889,0.5385881047103221,0.31390305281915687,-4.552761794009486,69.7
,,0.01808097698493097,0.01053806020572138,0.004952029134059302,0.03357106632471165,1.7938834132666146,0.5385881047103221,0.31390305281915687,-4.552761794009486,69.8
,,0.01808097698493097,0.01053806020572138,0.004952029134059302,0.03357106632471165,1.8032230087223402,0.5385881047103221,0.31390305281915687,-4.552761794009486,69.9
,,0.01677209529624498,0.014344706497624446,0.005224838887020298,0.03634164068088973,1.8029852321513902,0.4615117804811877,0.3947181863246922,-4.244374290014348,70.0
,,0.01677209529624498,0.014344706497624446,0.005224838887020298,0.03634164068088973,1.8027474555804406,0.4615117804811877,0.3947181863246922,-4.244374290014348,70.1
,,0.01677209529624498,0.014344706497624446,0.005224838887020298,0.03634164068088973,1.8025096790094906,0.4615117804811877,0.3947181863246922,-4.244374290014348,70.2
,,0.01671209246296549,0.010439037925970914,0.004510895932440791,0.0316620263213772,1.8070686161434075,0.5278276346982257,0.3297021428765223,-4.562202853458742,70.3
,,0.01671209246296549,0.010439037925970914,0.004510895932440791,0.0316620263213772,1.8102982596428072,0.5278276346982257,0.3297021428765223,-4.562202853458742,70.4
,,0.01671209246296549,0.010439037925970914,0.004510895932440791,0.0316620263213772,1.8135279031422067,0.5278276346982257,0.3297021428765223,-4.562202853458742,70.5
,,0.01671209246296549,0.010439037925970914,0.004510895932440791,0.0316620263213772,1.8163426122616775,0.5278276346982257,0.3297021428765223,-4.562202853458742,70.6
,,0.016591691512217333,0.011147950171393336,0.0035771883239015287,0.031316830007512196,1.8179061550074627,0.529801116787279,0.35597313549037995,-4.496499639107504,70.7
,,0.016591691512217333,0.011147950171393336,0.0035771883239015287,0.031316830007512196,1.8194696977532478,0.529801116787279,0.35597313549037995,-4.496499639107504,70.8
,,0.016591691512217333,0.011147950171393336,0.0035771883239015287,0.031316830007512196,1.8210332404990326,0.529801116787279,0.35597313549037995,-4.496499639107504,70.9
,,0.015388482835551722,0.01030793978658786,0.004161378066966371,0.02985780068910595,1.822647438526827,0.5153923758747051,0.3452343959931671,-4.574840827634394,71.0
,,0.015388482835551722,0.01030793978658786,0.004161378066966371,0.02985780068910595,1.8225965925815377,0.5153923758747051,0.3452343959931671,-4.574840827634394,71.1
,,0.015388482835551722,0.01030793978658786,0.004161378066966371,0.02985780068910595,1.8225457466362482,0.5153923758747051,0.3452343959931671,-4.574840827634394,71.2
,,0.015388482835551722,0.01030793978658786,0.004161378066966371,0.02985780068910595,1.8219493909118758,0.5153923758747051,0.3452343959931671,-4.574840827634394,71.3
,,0.013078341389517195,0.011057462255559604,0.0034099118709760667,0.027545715516052866,1.817907311812594,0.47478677335121344,0.40142221933264455,-4.5046497616972445,71.4
,,0.013078341389517195,0.011057462255559604,0.0034099118709760667,0.027545715516052866,1.8138652327133122,0.47478677335121344,0.40142221933264455,-4.5046497616972445,71.5
,,0.013078341389517195,0.011057462255559604,0.0034099118709760667,0.027545715516052866,1.8098231536140308,0.47478677335121344,0.40142221933264455,-4.5046497616972445,71.6
,,0.014328719551387861,0.010231611200231737,0.003979544834225214,0.028539875585844813,1.8081996824576267,0.5020596361146932,0.35850230564096797,-4.582273213841184,71.7
,,0.014328719551387861,0.010231611200231737,0.003979544834225214,0.028539875585844813,1.8049837928751868,0.5020596361146932,0.35850230564096797,-4.582273213841184,71.8
,,0.014328719551387861,0.010231611200231737,0.003979544834225214,0.028539875585844813,1.8010721878473652,0.5020596361146932,0.35850230564096797,-4.582273213841184,71.9
