HRV_ULF,HRV_VLF,HRV_LF,HRV_HF,HRV_VHF,HRV_TP,HRV_LFHF,HRV_LFn,HRV_HFn,HRV_LnHF,time
,,0.041300403430740075,0.05993468258603859,0.002031352401540114,0.10326643841831878,0.6890902170283746,0.39994023288996916,0.5803887836554511,-2.8144999333070886,0.0
,,0.041300403430740075,0.05993468258603859,0.002031352401540114,0.10326643841831878,0.6890902170283746,0.39994023288996916,0.5803887836554511,-2.8144999333070886,0.1
,,0.04093049013693442,0.059859616253715595,0.002184270656199276,0.1029743770468493,0.6873183723998522,0.39748227967732846,0.5813059323144225,-2.815753187307909,0.2
,,0.03828267402311988,0.05833506566261424,0.002066328138556609,0.09868406782429072,0.6795525100434652,0.3879316577350973,0.5911295201823377,-2.8415518970942952,0.3
,,0.03828267402311988,0.05833506566261424,0.002066328138556609,0.09868406782429072,0.6748929926296329,0.3879316577350973,0.5911295201823377,-2.8415518970942952,0.4
,,0.03828267402311988,0.05833506566261424,0.002066328138556609,0.09868406782429072,0.6717866476870782,0.3879316577350973,0.5911295201823377,-2.8415518970942952,0.5
,,0.03828267402311988,0.05833506566261424,0.002066328138556609,0.09868406782429072,0.6695678298709675,0.3879316577350973,0.5911295201823377,-2.8415518970942952,0.6
,,0.03828267402311988,0.05833506566261424,0.002066328138556609,0.09868406782429072,0.6679037165088846,0.3879316577350973,0.5911295201823377,-2.8415518970942952,0.7
,,0.03828267402311988,0.05833506566261424,0.002066328138556609,0.09868406782429072,0.6666094061161535,0.3879316577350973,0.5911295201823377,-2.8415518970942952,0.8
,,0.02136564867276672,0.05496200845599422,0.002179672115832356,0.07850732924459329,0.638821951523291,0.2721484589827407,0.7000876094607357,-2.9011130877766194,0.9
,,0.03439636358494672,0.05475555426251518,0.0021049728378864643,0.09125689068534837,0.6378545337739193,0.37691798752539774,0.6000155588393983,-2.904876467713826,1.0
,,0.03439636358494672,0.05475555426251518,0.0021049728378864643,0.09125689068534837,0.6370483523161096,0.37691798752539774,0.6000155588393983,-2.904876467713826,1.1
,,0.03439636358494672,0.05475555426251518,0.0021049728378864643,0.09125689068534837,0.6363661987748859,0.37691798752539774,0.6000155588393983,-2.904876467713826,1.2
,,0.03439636358494672,0.05475555426251518,0.0021049728378864643,0.09125689068534837,0.6357814957395513,0.37691798752539774,0.6000155588393983,-2.904876467713826,1.3
,,0.03439636358494672,0.05475555426251518,0.0021049728378864643,0.09125689068534837,0.6352747531089281,0.37691798752539774,0.6000155588393983,-2.904876467713826,1.4
,,0.03439636358494672,0.05475555426251518,0.0021049728378864643,0.09125689068534837,0.6348313533071327,0.37691798752539774,0.6000155588393983,-2.904876467713826,1.5
,,0.032934095499797075,0.05235400294171324,0.002310084231233851,0.08759818267274416,0.6344921837377815,0.37596779402187747,0.5976608343269088,-2.949726879608693,1.6
,,0.03255065247054212,0.05361681411685035,0.002293446240663507,0.08846091282805597,0.6329702762005096,0.36796649989144653,0.606107402724488,-2.925892563887855,1.7
,,0.03255065247054212,0.05361681411685035,0.002293446240663507,0.08846091282805597,0.6316085694566347,0.36796649989144653,0.606107402724488,-2.925892563887855,1.8
,,0.03255065247054212,0.05361681411685035,0.002293446240663507,0.08846091282805597,0.6303830333871473,0.36796649989144653,0.606107402724488,-2.925892563887855,1.9
,,0.03255065247054212,0.05361681411685035,0.002293446240663507,0.08846091282805597,0.6292742150385635,0.36796649989144653,0.606107402724488,-2.925892563887855,2.0
,,0.03255065247054212,0.05361681411685035,0.002293446240663507,0.08846091282805597,0.6282661983580327,0.36796649989144653,0.606107402724488,-2.925892563887855,2.1
,,0.030625066424715325,0.050077713879062055,0.002489305219950948,0.08319208552372832,0.6275394422895281,0.36812475888683355,0.6019528608256698,-2.9941792026120098,2.2
,,0.030625066424715325,0.050077713879062055,0.002489305219950948,0.08319208552372832,0.6268732492267322,0.36812475888683355,0.6019528608256698,-2.9941792026120098,2.3
,,0.040646722859975205,0.054686593000384295,0.0014404193512817633,0.09677373521164127,0.6315289867795467,0.42001812548706563,0.5650974707216411,-2.906136700137669,2.4
,,0.040646722859975205,0.054686593000384295,0.0014404193512817633,0.09677373521164127,0.6358265906744526,0.42001812548706563,0.5650974707216411,-2.906136700137669,2.5
,,0.040646722859975205,0.054686593000384295,0.0014404193512817633,0.09677373521164127,0.6398058535401061,0.42001812548706563,0.5650974707216411,-2.906136700137669,2.6
,,0.040646722859975205,0.054686593000384295,0.0014404193512817633,0.09677373521164127,0.6435008833439272,0.42001812548706563,0.5650974707216411,-2.906136700137669,2.7
,,0.02808801953358743,0.04687440424172458,0.0026378452644129483,0.07760026903972496,0.6419739114754874,0.36195775969808397,0.6040495068094254,-3.0602835042822045,2.8
,,0.02808801953358743,0.04687440424172458,0.0026378452644129483,0.07760026903972496,0.6405487377316103,0.36195775969808397,0.6040495068094254,-3.0602835042822045,2.9
,,0.02808801953358743,0.04687440424172458,0.0026378452644129483,0.07760026903972496,0.6392155106808866,0.36195775969808397,0.6040495068094254,-3.0602835042822045,3.0
,,0.02718243692925185,0.04669957305897978,0.002175535332812304,0.07605754532104393,0.6374297244724847,0.357393034635985,0.6140031585539316,-3.064020256555076,3.1
,,0.02718243692925185,0.04669957305897978,0.002175535332812304,0.07605754532104393,0.6357521677312588,0.357393034635985,0.6140031585539316,-3.064020256555076,3.2
,,0.02718243692925185,0.04669957305897978,0.002175535332812304,0.07605754532104393,0.6341732907983403,0.357393034635985,0.6140031585539316,-3.064020256555076,3.3
,,0.02718243692925185,0.04669957305897978,0.002175535332812304,0.07605754532104393,0.6326846354044456,0.357393034635985,0.6140031585539316,-3.064020256555076,3.4
,,0.025626505544180528,0.04318350992265419,0.0027981368370679164,0.07160815230390263,0.6315943030004575,0.3578713417352606,0.6030529839589325,-3.1422965713570687,3.5
,,0.025626505544180528,0.04318350992265419,0.0027981368370679164,0.07160815230390263,0.6305629074831712,0.3578713417352606,0.6030529839589325,-3.1422965713570687,3.6
,,0.025626505544180528,0.04318350992265419,0.0027981368370679164,0.07160815230390263,0.6295857959404791,0.3578713417352606,0.6030529839589325,-3.1422965713570687,3.7
,,0.02582271228618194,0.04431252566486148,0.0024139118908340987,0.07254914984187752,0.6283846396698836,0.3559340439200613,0.6107931762321351,-3.1164878955111384,3.8
,,0.02582271228618194,0.04431252566486148,0.0024139118908340987,0.07254914984187752,0.6272435412128178,0.3559340439200613,0.6107931762321351,-3.1164878955111384,3.9
,,0.02582271228618194,0.04431252566486148,0.0024139118908340987,0.07254914984187752,0.626158106095121,0.3559340439200613,0.6107931762321351,-3.1164878955111384,4.0
,,0.024618775150049482,0.04118708174746087,0.0031261908998221947,0.06893204779733254,0.6254812584370867,0.35714556489647986,0.5975026575237575,-3.1896306216125896,4.1
,,0.024618775150049482,0.04118708174746087,0.0031261908998221947,0.06893204779733254,0.6248358920654726,0.35714556489647986,0.5975026575237575,-3.1896306216125896,4.2
,,0.024618775150049482,0.04118708174746087,0.0031261908998221947,0.06893204779733254,0.6242198605289319,0.35714556489647986,0.5975026575237575,-3.1896306216125896,4.3
,,0.024618775150049482,0.04118708174746087,0.0031261908998221947,0.06893204779733254,0.6236312081717929,0.35714556489647986,0.5975026575237575,-3.1896306216125896,4.4
,,0.024618775150049482,0.04118708174746087,0.0031261908998221947,0.06893204779733254,0.6230681493953991,0.35714556489647986,0.5975026575237575,-3.1896306216125896,4.5
,,0.02517002330664273,0.04265298166142608,0.0027410202286324626,0.07056402519670127,0.6223669482388556,0.35669766905274813,0.6044578883153058,-3.154658097489772,4.6
,,0.02517002330664273,0.04265298166142608,0.0027410202286324626,0.07056402519670127,0.6216949637971682,0.35669766905274813,0.6044578883153058,-3.154658097489772,4.7
,,0.02411883141444101,0.03973178456903435,0.003483911273243417,0.06733452725671878,0.6213959080257088,0.3581941152194602,0.5900655456828774,-3.2256037927459533,4.8
,,0.02411883141444101,0.03973178456903435,0.003483911273243417,0.06733452725671878,0.6211088144851079,0.3581941152194602,0.5900655456828774,-3.2256037927459533,4.9
,,0.02411883141444101,0.03973178456903435,0.003483911273243417,0.06733452725671878,0.6208329795147265,0.3581941152194602,0.5900655456828774,-3.2256037927459533,5.0
,,0.02411883141444101,0.03973178456903435,0.003483911273243417,0.06733452725671878,0.6205677535816676,0.3581941152194602,0.5900655456828774,-3.2256037927459533,5.1
,,0.02461943017353302,0.04085382178538652,0.003075459786167802,0.06854871174508734,0.6202291629468321,0.359152339216607,0.5959823422693918,-3.1977549054944574,5.2
,,0.02461943017353302,0.04085382178538652,0.003075459786167802,0.06854871174508734,0.6199031127058791,0.359152339216607,0.5959823422693918,-3.1977549054944574,5.3
,,0.04232966905934405,0.04687031068297826,0.001345155454042185,0.09054513519636449,0.6250525704252138,0.46749799387392865,0.5176458191964814,-3.0603708384589035,5.4
,,0.04232966905934405,0.04687031068297826,0.001345155454042185,0.09054513519636449,0.6300181189402866,0.46749799387392865,0.5176458191964814,-3.0603708384589035,5.5
,,0.04232966905934405,0.04687031068297826,0.001345155454042185,0.09054513519636449,0.6348094376829005,0.46749799387392865,0.5176458191964814,-3.0603708384589035,5.6
,,0.04232966905934405,0.04687031068297826,0.001345155454042185,0.09054513519636449,0.6394355385378382,0.46749799387392865,0.5176458191964814,-3.0603708384589035,5.7
,,0.04232966905934405,0.04687031068297826,0.001345155454042185,0.09054513519636449,0.6439048224146424,0.46749799387392865,0.5176458191964814,-3.0603708384589035,5.8
,,0.023582323196265697,0.0381521023977154,0.0033168479449180318,0.06505127353889913,0.6434749642674544,0.3625190086734278,0.5864927821113501,-3.266174414048858,5.9
,,0.03333221575228487,0.0351922527946968,0.0010948112070175038,0.06961927975399917,0.6484531846231408,0.4787785204050485,0.505495789658399,-3.346929311661427,6.0
,,0.03333221575228487,0.0351922527946968,0.0010948112070175038,0.06961927975399917,0.6532708172254179,0.4787785204050485,0.505495789658399,-3.346929311661427,6.1
,,0.03333221575228487,0.0351922527946968,0.0010948112070175038,0.06961927975399917,0.6579355091101623,0.4787785204050485,0.505495789658399,-3.346929311661427,6.2
,,0.03333221575228487,0.0351922527946968,0.0010948112070175038,0.06961927975399917,0.6624544293735085,0.4787785204050485,0.505495789658399,-3.346929311661427,6.3
,,0.03333221575228487,0.0351922527946968,0.0010948112070175038,0.06961927975399917,0.6668343059364441,0.4787785204050485,0.505495789658399,-3.346929311661427,6.4
,,0.03333221575228487,0.0351922527946968,0.0010948112070175038,0.06961927975399917,0.6710814589671695,0.4787785204050485,0.505495789658399,-3.346929311661427,6.5
,,0.013867415408669106,0.03106902605745194,0.003990799478582145,0.04892724094470319,0.6677271406921886,0.2834293359059802,0.6350046611572819,-3.471543902787137,6.6
,,0.013867415408669106,0.03106902605745194,0.003990799478582145,0.04892724094470319,0.66447147883706,0.2834293359059802,0.6350046611572819,-3.471543902787137,6.7
,,0.013867415408669106,0.03106902605745194,0.003990799478582145,0.04892724094470319,0.6613101839922251,0.2834293359059802,0.6350046611572819,-3.471543902787137,6.8
,,0.013867415408669106,0.03106902605745194,0.003990799478582145,0.04892724094470319,0.6582392118572425,0.2834293359059802,0.6350046611572819,-3.471543902787137,6.9
,,0.013867415408669106,0.03106902605745194,0.003990799478582145,0.04892724094470319,0.6552547459795836,0.2834293359059802,0.6350046611572819,-3.471543902787137,7.0
,,0.013867415408669106,0.03106902605745194,0.003990799478582145,0.04892724094470319,0.6523531819318593,0.2834293359059802,0.6350046611572819,-3.471543902787137,7.1
,,0.018179956702064112,0.027130280219987896,0.003888629758972487,0.049198866681024495,0.6525962667751528,0.369519826949102,0.5514411621691231,-3.6071048235777643,7.2
,,0.018179956702064112,0.027130280219987896,0.003888629758972487,0.049198866681024495,0.6528327817578166,0.369519826949102,0.5514411621691231,-3.6071048235777643,7.3
,,0.018197865676989736,0.027136348990981635,0.003869132393312389,0.04920334706128376,0.6530697910320397,0.36985015784239084,0.5515142894076447,-3.6068811586438154,7.4
,,0.018197865676989736,0.027136348990981635,0.003869132393312389,0.04920334706128376,0.653300563220099,0.36985015784239084,0.5515142894076447,-3.6068811586438154,7.5
,,0.018197865676989736,0.027136348990981635,0.003869132393312389,0.04920334706128376,0.6535253413253516,0.36985015784239084,0.5515142894076447,-3.6068811586438154,7.6
,,0.018197865676989736,0.027136348990981635,0.003869132393312389,0.04920334706128376,0.6537443558894439,0.36985015784239084,0.5515142894076447,-3.6068811586438154,7.7
,,0.018197865676989736,0.027136348990981635,0.003869132393312389,0.04920334706128376,0.6539578257810275,0.36985015784239084,0.5515142894076447,-3.6068811586438154,7.8
,,0.016278776156283953,0.02369703355783965,0.00370104813172488,0.04367685784584848,0.6543702801560818,0.37270941544690955,0.5425535335319931,-3.742405405010891,7.9
,,0.015886264591000437,0.023107014658410426,0.0031127228543498097,0.04210600210376067,0.654779391632458,0.37729216257227055,0.548781967033309,-3.7676190426849807,8.0
,,0.015886264591000437,0.023107014658410426,0.0031127228543498097,0.04210600210376067,0.6551785247801423,0.37729216257227055,0.548781967033309,-3.7676190426849807,8.1
,,0.015886264591000437,0.023107014658410426,0.0031127228543498097,0.04210600210376067,0.6555680402616172,0.37729216257227055,0.548781967033309,-3.7676190426849807,8.2
,,0.015886264591000437,0.023107014658410426,0.0031127228543498097,0.04210600210376067,0.6559482815649619,0.37729216257227055,0.548781967033309,-3.7676190426849807,8.3
,,0.015886264591000437,0.023107014658410426,0.0031127228543498097,0.04210600210376067,0.6563195760141102,0.37729216257227055,0.548781967033309,-3.7676190426849807,8.4
,,0.014230497319191916,0.02027902272747833,0.003374937301610027,0.037884457348280276,0.6568476607945267,0.3756289073476169,0.5352860815993415,-3.8981682904006396,8.5
,,0.014230497319191916,0.02027902272747833,0.003374937301610027,0.037884457348280276,0.6573636056949337,0.3756289073476169,0.5352860815993415,-3.8981682904006396,8.6
,,0.014230497319191916,0.02027902272747833,0.003374937301610027,0.037884457348280276,0.6578678245748769,0.3756289073476169,0.5352860815993415,-3.8981682904006396,8.7
,,0.013571218002705738,0.019343729922657735,0.002788692123939475,0.035703640049302945,0.6583589981499395,0.3801074059665996,0.5417859326372911,-3.9453869470218006,8.8
,,0.013571218002705738,0.019343729922657735,0.002788692123939475,0.035703640049302945,0.6588392567566673,0.3801074059665996,0.5417859326372911,-3.9453869470218006,8.9
,,0.013571218002705738,0.019343729922657735,0.002788692123939475,0.035703640049302945,0.658978057375857,0.3801074059665996,0.5417859326372911,-3.9453869470218006,9.0
,,0.012179325215038133,0.017056593025846445,0.0029780270000922277,0.0322139452409768,0.6592554306176213,0.378076175517483,0.5294785503065333,-4.071218462264116,9.1
,,0.012179325215038133,0.017056593025846445,0.0029780270000922277,0.0322139452409768,0.6595918653470029,0.378076175517483,0.5294785503065333,-4.071218462264116,9.2
,,0.012179325215038133,0.017056593025846445,0.0029780270000922277,0.0322139452409768,0.660234075189368,0.378076175517483,0.5294785503065333,-4.071218462264116,9.3
,,0.012179325215038133,0.017056593025846445,0.0029780270000922277,0.0322139452409768,0.660876285031733,0.378076175517483,0.5294785503065333,-4.071218462264116,9.4
,,0.011809569256109227,0.01661244932432115,0.002506794056617126,0.030928812637047505,0.6614833047610966,0.3818306701487581,0.5371188839115743,-4.097602905402135,9.5
,,0.011809569256109227,0.01661244932432115,0.002506794056617126,0.030928812637047505,0.66209032449046,0.3818306701487581,0.5371188839115743,-4.097602905402135,9.6
,,0.010707798414243146,0.014861134205667521,0.0026653210299165146,0.028234253649827182,0.6628044212729158,0.3792485024412426,0.5263512324420335,-4.2090059165172224,9.7
,,0.010707798414243146,0.014861134205667521,0.0026653210299165146,0.028234253649827182,0.6635185180553717,0.3792485024412426,0.5263512324420335,-4.2090059165172224,9.8
,,0.010707798414243146,0.014861134205667521,0.0026653210299165146,0.028234253649827182,0.6672050599799028,0.3792485024412426,0.5263512324420335,-4.2090059165172224,9.9
,,0.010707798414243146,0.014861134205667521,0.0026653210299165146,0.028234253649827182,0.6682310963922931,0.3792485024412426,0.5263512324420335,-4.2090059165172224,10.0
,,0.010707798414243146,0.014861134205667521,0.0026653210299165146,0.028234253649827182,0.6692571328046834,0.3792485024412426,0.5263512324420335,-4.2090059165172224,10.1
,,0.01040169094427333,0.014578680461172895,0.0022535256174123844,0.02723389702285861,0.6702049782724316,0.3819391303250773,0.5353137837356279,-4.22819505984621,10.2
,,0.009507049601848346,0.013207107941659316,0.0023816206221621496,0.02509577816566981,0.6712234566343808,0.3788306359375488,0.5262681178671798,-4.327000113889636,10.3
,,0.009507049601848346,0.013207107941659316,0.0023816206221621496,0.02509577816566981,0.6722419349963301,0.3788306359375488,0.5262681178671798,-4.327000113889636,10.4
,,0.009507049601848346,0.013207107941659316,0.0023816206221621496,0.02509577816566981,0.6732604133582792,0.3788306359375488,0.5262681178671798,-4.327000113889636,10.5
,,0.009507049601848346,0.013207107941659316,0.0023816206221621496,0.02509577816566981,0.6742690571163623,0.3788306359375488,0.5262681178671798,-4.327000113889636,10.6
,,0.009507049601848346,0.013207107941659316,0.0023816206221621496,0.02509577816566981,0.6755217855695707,0.3788306359375488,0.5262681178671798,-4.327000113889636,10.7
,,0.009507049601848346,0.013207107941659316,0.0023816206221621496,0.02509577816566981,0.6767745140227788,0.3788306359375488,0.5262681178671798,-4.327000113889636,10.8
,,0.009507049601848346,0.013207107941659316,0.0023816206221621496,0.02509577816566981,0.6780272424759871,0.3788306359375488,0.5262681178671798,-4.327000113889636,10.9
,,0.0084289880262581,0.011869657554157888,0.002099570949312014,0.022398216529728003,0.6791720330314743,0.3763240709397883,0.5299376197387815,-4.433769920468558,11.0
,,0.0084289880262581,0.011869657554157888,0.002099570949312014,0.022398216529728003,0.6803168235869614,0.3763240709397883,0.5299376197387815,-4.433769920468558,11.1
,,0.0084289880262581,0.011869657554157888,0.002099570949312014,0.022398216529728003,0.6814121368011647,0.3763240709397883,0.5299376197387815,-4.433769920468558,11.2
,,0.0084289880262581,0.011869657554157888,0.002099570949312014,0.022398216529728003,0.6825074500153682,0.3763240709397883,0.5299376197387815,-4.433769920468558,11.3
,,0.0084289880262581,0.011869657554157888,0.002099570949312014,0.022398216529728003,0.6821392534599641,0.3763240709397883,0.5299376197387815,-4.433769920468558,11.4
,,0.0084289880262581,0.011869657554157888,0.002099570949312014,0.022398216529728003,0.68177105690456,0.3763240709397883,0.5299376197387815,-4.433769920468558,11.5
,,0.007790327058452986,0.010944358172047069,0.0018851748596134391,0.020619860090113493,0.6814215619740579,0.37780697950458825,0.5307678191907087,-4.514931190928503,11.6
,,0.0074891838779830725,0.0108078881243671,0.0018378298321309427,0.020134901834481116,0.6808623414751661,0.3719503546403096,0.5367738175836815,-4.527479029565165,11.7
,,0.0074891838779830725,0.0108078881243671,0.0018378298321309427,0.020134901834481116,0.6819036541861401,0.3719503546403096,0.5367738175836815,-4.527479029565165,11.8
,,0.0074891838779830725,0.0108078881243671,0.0018378298321309427,0.020134901834481116,0.682944966897114,0.3719503546403096,0.5367738175836815,-4.527479029565165,11.9
,,0.0074891838779830725,0.0108078881243671,0.0018378298321309427,0.020134901834481116,0.683986279608088,0.3719503546403096,0.5367738175836815,-4.527479029565165,12.0
,,0.0074891838779830725,0.0108078881243671,0.0018378298321309427,0.020134901834481116,0.6852181295095858,0.3719503546403096,0.5367738175836815,-4.527479029565165,12.1
,,0.0074891838779830725,0.0108078881243671,0.0018378298321309427,0.020134901834481116,0.6864499794110835,0.3719503546403096,0.5367738175836815,-4.527479029565165,12.2
,,0.006961085384172003,0.01005446851154458,0.0016348605595235461,0.01865041445524013,0.6876751697133859,0.3732402516243372,0.5391016127644078,-4.599738115280411,12.3
,,0.006747995436009046,0.010073597479590024,0.001613092300258309,0.01843468521585738,0.6886507155034007,0.3660488561098114,0.5464480332392544,-4.59783738882086,12.4
,,0.006747995436009046,0.010073597479590024,0.001613092300258309,0.01843468521585738,0.6895000133284285,0.3660488561098114,0.5464480332392544,-4.59783738882086,12.5
,,0.006747995436009046,0.010073597479590024,0.001613092300258309,0.01843468521585738,0.6903493111534561,0.3660488561098114,0.5464480332392544,-4.59783738882086,12.6
,,0.006747995436009046,0.010073597479590024,0.001613092300258309,0.01843468521585738,0.6911986089784837,0.3660488561098114,0.5464480332392544,-4.59783738882086,12.7
,,0.006747995436009046,0.010073597479590024,0.001613092300258309,0.01843468521585738,0.6921667064421072,0.3660488561098114,0.5464480332392544,-4.59783738882086,12.8
,,0.006747995436009046,0.010073597479590024,0.001613092300258309,0.01843468521585738,0.6931348039057307,0.3660488561098114,0.5464480332392544,-4.59783738882086,12.9
,,0.006331437593991837,0.009471015595379667,0.0014233649974741617,0.017225818186845668,0.6940877596953775,0.36755511554317805,0.5498151375249112,-4.6595191340940145,13.0
,,0.00394343880845911,0.009513142670481724,0.0014041535190814033,0.014860734998022236,0.6920521468836949,0.2653596076495495,0.6401529043985911,-4.655080997447621,13.1
,,0.00394343880845911,0.009513142670481724,0.0014041535190814033,0.014860734998022236,0.6900165340720121,0.2653596076495495,0.6401529043985911,-4.655080997447621,13.2
,,0.00394343880845911,0.009513142670481724,0.0014041535190814033,0.014860734998022236,0.6879809212603294,0.2653596076495495,0.6401529043985911,-4.655080997447621,13.3
,,0.00394343880845911,0.009513142670481724,0.0014041535190814033,0.014860734998022236,0.6859453084486467,0.2653596076495495,0.6401529043985911,-4.655080997447621,13.4
,,0.00394343880845911,0.009513142670481724,0.0014041535190814033,0.014860734998022236,0.683909695636964,0.2653596076495495,0.6401529043985911,-4.655080997447621,13.5
,,0.00394343880845911,0.009513142670481724,0.0014041535190814033,0.014860734998022236,0.6819587362632794,0.2653596076495495,0.6401529043985911,-4.655080997447621,13.6
,,0.005787452598907049,0.009014523774192566,0.0012348115516311966,0.016036787924730813,0.6825354311691634,0.3608860219434619,0.5621152949395183,-4.708918249657573,13.7
,,0.005535364632496472,0.009032433760336163,0.0012136054917949893,0.015781403884627624,0.6825997732761414,0.35075235846972835,0.572346657266309,-4.706933428450004,13.8
,,0.005535364632496472,0.009032433760336163,0.0012136054917949893,0.015781403884627624,0.6826641153831197,0.35075235846972835,0.572346657266309,-4.706933428450004,13.9
,,0.005535364632496472,0.009032433760336163,0.0012136054917949893,0.015781403884627624,0.6827284574900977,0.35075235846972835,0.572346657266309,-4.706933428450004,14.0
,,0.005535364632496472,0.009032433760336163,0.0012136054917949893,0.015781403884627624,0.6827927995970758,0.35075235846972835,0.572346657266309,-4.706933428450004,14.1
,,0.005535364632496472,0.009032433760336163,0.0012136054917949893,0.015781403884627624,0.6829062392713905,0.35075235846972835,0.572346657266309,-4.706933428450004,14.2
,,0.005535364632496472,0.009032433760336163,0.0012136054917949893,0.015781403884627624,0.6830196789457051,0.35075235846972835,0.572346657266309,-4.706933428450004,14.3
,,0.005236217945862125,0.00851714492253671,0.0010600089542908684,0.014813371822689702,0.6798159267271392,0.35347914090982235,0.5749632848269537,-4.765674097289115,14.4
,,0.0049605517310234645,0.008495418940473108,0.0010357438921619476,0.01449171456365852,0.6762691015130271,0.3423026108631237,0.5862259364242122,-4.768228208950274,14.5
,,0.0049605517310234645,0.008495418940473108,0.0010357438921619476,0.01449171456365852,0.6727222762989152,0.3423026108631237,0.5862259364242122,-4.768228208950274,14.6
,,0.0049605517310234645,0.008495418940473108,0.0010357438921619476,0.01449171456365852,0.669175451084803,0.3423026108631237,0.5862259364242122,-4.768228208950274,14.7
,,0.0049605517310234645,0.008495418940473108,0.0010357438921619476,0.01449171456365852,0.665628625870691,0.3423026108631237,0.5862259364242122,-4.768228208950274,14.8
,,0.0049605517310234645,0.008495418940473108,0.0010357438921619476,0.01449171456365852,0.6652485779197559,0.3423026108631237,0.5862259364242122,-4.768228208950274,14.9
,,0.0049605517310234645,0.008495418940473108,0.0010357438921619476,0.01449171456365852,0.6612126069423656,0.3423026108631237,0.5862259364242122,-4.768228208950274,15.0
,,0.004707620231641648,0.007982357073453973,0.000898768147161152,0.013588745452256773,0.6572415707693654,0.3464352355544214,0.5874241372391217,-4.830521538521042,15.1
,,0.004490518545320385,0.00800594933601864,0.000886776780685243,0.013383244662024268,0.6529499184481625,0.33553287403184756,0.5982069026008309,-4.8275703466832605,15.2
,,0.004490518545320385,0.00800594933601864,0.000886776780685243,0.013383244662024268,0.6486582661269598,0.33553287403184756,0.5982069026008309,-4.8275703466832605,15.3
,,0.004490518545320385,0.00800594933601864,0.000886776780685243,0.013383244662024268,0.6443666138057568,0.33553287403184756,0.5982069026008309,-4.8275703466832605,15.4
,,0.004490518545320385,0.00800594933601864,0.000886776780685243,0.013383244662024268,0.640074961484554,0.33553287403184756,0.5982069026008309,-4.8275703466832605,15.5
,,0.004490518545320385,0.00800594933601864,0.000886776780685243,0.013383244662024268,0.6413478010680275,0.33553287403184756,0.5982069026008309,-4.8275703466832605,15.6
,,0.004490518545320385,0.00800594933601864,0.000886776780685243,0.013383244662024268,0.6426206406515012,0.33553287403184756,0.5982069026008309,-4.8275703466832605,15.7
,,0.004319668614344722,0.007557155408865981,0.0007827126643913107,0.012659536687602014,0.6440123926282132,0.3412185391093455,0.5969535533055489,-4.885260428266034,15.8
,,0.006599001275382733,0.010499686084204068,0.0006158695165206594,0.017714556876107464,0.6460363144877017,0.3725185632096249,0.5927151414306917,-4.556409919008045,15.9
,,0.006599001275382733,0.010499686084204068,0.0006158695165206594,0.017714556876107464,0.6480602363471902,0.3725185632096249,0.5927151414306917,-4.556409919008045,16.0
,,0.006599001275382733,0.010499686084204068,0.0006158695165206594,0.017714556876107464,0.6500841582066789,0.3725185632096249,0.5927151414306917,-4.556409919008045,16.1
,,0.006599001275382733,0.010499686084204068,0.0006158695165206594,0.017714556876107464,0.6496218996111804,0.3725185632096249,0.5927151414306917,-4.556409919008045,16.2
,,0.006599001275382733,0.010499686084204068,0.0006158695165206594,0.017714556876107464,0.649159641015682,0.3725185632096249,0.5927151414306917,-4.556409919008045,16.3
,,0.006599001275382733,0.010499686084204068,0.0006158695165206594,0.017714556876107464,0.6486917146220472,0.3725185632096249,0.5927151414306917,-4.556409919008045,16.4
,,0.004006922692789365,0.007147885652287134,0.0006940164511677245,0.011848824796244224,0.6474691152893507,0.3381704735864993,0.6032569284468474,-4.9409386789747565,16.5
,,0.0038250123792270036,0.007166562722373077,0.0006899190788442991,0.01168149418044438,0.6459482477492428,0.32744204809264343,0.6134970930662613,-4.938329136476731,16.6
,,0.0038250123792270036,0.007166562722373077,0.0006899190788442991,0.01168149418044438,0.6444273802091348,0.32744204809264343,0.6134970930662613,-4.938329136476731,16.7
,,0.0038250123792270036,0.007166562722373077,0.0006899190788442991,0.01168149418044438,0.6429065126690268,0.32744204809264343,0.6134970930662613,-4.938329136476731,16.8
,,0.0038250123792270036,0.007166562722373077,0.0006899190788442991,0.01168149418044438,0.6412040262571318,0.32744204809264343,0.6134970930662613,-4.938329136476731,16.9
,,0.0038250123792270036,0.007166562722373077,0.0006899190788442991,0.01168149418044438,0.6394953828012682,0.32744204809264343,0.6134970930662613,-4.938329136476731,17.0
,,0.0038250123792270036,0.007166562722373077,0.0006899190788442991,0.01168149418044438,0.6377867393454043,0.32744204809264343,0.6134970930662613,-4.938329136476731,17.1
,,0.0037716951945197873,0.006770252979697,0.0006341411633300396,0.011176089337546827,0.6363377372168134,0.3374789768231829,0.6057801414446355,-4.995216825001753,17.2
,,0.005817635676847616,0.01076096590203776,0.0008369319041731857,0.017415533483058562,0.6347056885533086,0.33404866308039777,0.6178947037428273,-4.531829960430016,17.3
,,0.005817635676847616,0.01076096590203776,0.0008369319041731857,0.017415533483058562,0.6330736398898037,0.33404866308039777,0.6178947037428273,-4.531829960430016,17.4
,,0.005817635676847616,0.01076096590203776,0.0008369319041731857,0.017415533483058562,0.6312835183664393,0.33404866308039777,0.6178947037428273,-4.531829960430016,17.5
,,0.005817635676847616,0.01076096590203776,0.0008369319041731857,0.017415533483058562,0.6294933968430747,0.33404866308039777,0.6178947037428273,-4.531829960430016,17.6
,,0.005817635676847616,0.01076096590203776,0.0008369319041731857,0.017415533483058562,0.6277032753197103,0.33404866308039777,0.6178947037428273,-4.531829960430016,17.7
,,0.005817635676847616,0.01076096590203776,0.0008369319041731857,0.017415533483058562,0.6259148492893957,0.33404866308039777,0.6178947037428273,-4.531829960430016,17.8
,,0.005876446216407776,0.0106431048791344,0.0009570228842301404,0.017476573979772314,0.6242543402222759,0.3362470369312244,0.6089926373128344,-4.542843025688742,17.9
,,0.0035044600328539193,0.006429821033722595,0.0006052595288564278,0.010539540595432943,0.6225148958839918,0.33250595707866937,0.61006653710398,-5.046808574133548,18.0
,,0.0035044600328539193,0.006429821033722595,0.0006052595288564278,0.010539540595432943,0.6206368789231332,0.33250595707866937,0.61006653710398,-5.046808574133548,18.1
,,0.0035044600328539193,0.006429821033722595,0.0006052595288564278,0.010539540595432943,0.6187588619622747,0.33250595707866937,0.61006653710398,-5.046808574133548,18.2
,,0.0035045608216142583,0.006429844242294376,0.0006052647532375258,0.01053966981714616,0.6168809973108589,0.3325114431870497,0.6100612593986738,-5.046804964619414,18.3
,,0.0035044600328539193,0.006429821033722595,0.0006052595288564278,0.010539540595432943,0.6150029803500002,0.33250595707866937,0.61006653710398,-5.046808574133548,18.4
,,0.0035044600328539193,0.006429821033722595,0.0006052595288564278,0.010539540595432943,0.6131601535021431,0.33250595707866937,0.61006653710398,-5.046808574133548,18.5
,,0.003550678531065437,0.006111157272127612,0.0005932582804429419,0.010255094083635992,0.6117171427896504,0.3462355880996976,0.5959143058354929,-5.097639117493532,18.6
,,0.003456351006577427,0.006113124440550348,0.0006012152197132552,0.01017069066684103,0.6099935295012833,0.3398344438737073,0.6010530298085505,-5.097317271435669,18.7
,,0.003456351006577427,0.006113124440550348,0.0006012152197132552,0.01017069066684103,0.6082699162129163,0.3398344438737073,0.6010530298085505,-5.097317271435669,18.8
,,0.003456351006577427,0.006113124440550348,0.0006012152197132552,0.01017069066684103,0.606546302924549,0.3398344438737073,0.6010530298085505,-5.097317271435669,18.9
,,0.003456351006577427,0.006113124440550348,0.0006012152197132552,0.01017069066684103,0.604822689636182,0.3398344438737073,0.6010530298085505,-5.097317271435669,19.0
,,0.003456351006577427,0.006113124440550348,0.0006012152197132552,0.01017069066684103,0.6030990763478149,0.3398344438737073,0.6010530298085505,-5.097317271435669,19.1
,,0.0035477907595423998,0.005832938587052064,0.0006078334122205864,0.00998856275881505,0.6019296031580909,0.3551853099597761,0.5839617498427802,-5.144234359801624,19.2
,,0.0035477907595423998,0.005832938587052064,0.0006078334122205864,0.00998856275881505,0.6006894970741661,0.3551853099597761,0.5839617498427802,-5.144234359801624,19.3
,,0.005194451202991928,0.010598625763390598,0.0011357220810665793,0.016928799047449105,0.5981368603769708,0.3068410930056286,0.626070740971294,-4.547030931231902,19.4
,,0.005194451202991928,0.010598625763390598,0.0011357220810665793,0.016928799047449105,0.5955842236797756,0.3068410930056286,0.626070740971294,-4.547030931231902,19.5
,,0.005194451202991928,0.010598625763390598,0.0011357220810665793,0.016928799047449105,0.5930315869825803,0.3068410930056286,0.626070740971294,-4.547030931231902,19.6
,,0.005194451202991928,0.010598625763390598,0.0011357220810665793,0.016928799047449105,0.590478950285385,0.3068410930056286,0.626070740971294,-4.547030931231902,19.7
,,0.005194451202991928,0.010598625763390598,0.0011357220810665793,0.016928799047449105,0.5879263135881898,0.3068410930056286,0.626070740971294,-4.547030931231902,19.8
,,0.0036119277137611045,0.005595748769417072,0.0006434637540773916,0.009851140237255567,0.5871000213187002,0.3666507253750509,0.5680305664774491,-5.185748117858415,19.9
,,0.0036119277137611045,0.005595748769417072,0.0006434637540773916,0.009851140237255567,0.5863816669469316,0.3666507253750509,0.5680305664774491,-5.185748117858415,20.0
,,0.003569081485928361,0.005611742163002476,0.0005654047915692339,0.009746228440500071,0.5855580380837038,0.3662012959902707,0.5757860281299279,-5.182894061667211,20.1
,,0.003569081485928361,0.005611742163002476,0.0005654047915692339,0.009746228440500071,0.5847344092204759,0.3662012959902707,0.5757860281299279,-5.182894061667211,20.2
,,0.003569081485928361,0.005611742163002476,0.0005654047915692339,0.009746228440500071,0.5839107803572481,0.3662012959902707,0.5757860281299279,-5.182894061667211,20.3
,,0.003569081485928361,0.005611742163002476,0.0005654047915692339,0.009746228440500071,0.5830871514940204,0.3662012959902707,0.5757860281299279,-5.182894061667211,20.4
,,0.003569081485928361,0.005611742163002476,0.0005654047915692339,0.009746228440500071,0.5822635226307924,0.3662012959902707,0.5757860281299279,-5.182894061667211,20.5
,,0.004884732429573336,0.009631755585163625,0.0016033859546441434,0.016119873969381103,0.5799894844828672,0.3030254727085114,0.5975081196948974,-4.642689766032104,20.6
,,0.004884732429573336,0.009631755585163625,0.0016033859546441434,0.016119873969381103,0.5779251719033317,0.3030254727085114,0.5975081196948974,-4.642689766032104,20.7
,,0.004884732429573336,0.009631755585163625,0.0016033859546441434,0.016119873969381103,0.5758608593237962,0.3030254727085114,0.5975081196948974,-4.642689766032104,20.8
,,0.004784407895063793,0.009701410815361671,0.0014040214081404894,0.015889840118565954,0.5736411854980119,0.30109855475975567,0.6105417513941113,-4.635483959166235,20.9
,,0.004784407895063793,0.009701410815361671,0.0014040214081404894,0.015889840118565954,0.5714215116722277,0.30109855475975567,0.6105417513941113,-4.635483959166235,21.0
,,0.004784407895063793,0.009701410815361671,0.0014040214081404894,0.015889840118565954,0.5692018378464435,0.30109855475975567,0.6105417513941113,-4.635483959166235,21.1
,,0.003907251810804574,0.0052876541106457765,0.0007591770887512442,0.009954083010201594,0.5697129686567579,0.39252754942872864,0.5312045424200947,-5.24238058881306,21.2
,,0.003907251810804574,0.0052876541106457765,0.0007591770887512442,0.009954083010201594,0.5702307590662679,0.39252754942872864,0.5312045424200947,-5.24238058881306,21.3
,,0.003907251810804574,0.0052876541106457765,0.0007591770887512442,0.009954083010201594,0.5709981939880653,0.39252754942872864,0.5312045424200947,-5.24238058881306,21.4
,,0.003907251810804574,0.0052876541106457765,0.0007591770887512442,0.009954083010201594,0.5717656289098627,0.39252754942872864,0.5312045424200947,-5.24238058881306,21.5
,,0.003907251810804574,0.0052876541106457765,0.0007591770887512442,0.009954083010201594,0.5725330638316602,0.39252754942872864,0.5312045424200947,-5.24238058881306,21.6
,,0.0038989619207253504,0.005306669982602219,0.0006762221403428793,0.009881854043670448,0.5732537201977084,0.39455773213152484,0.5370115728435861,-5.238790762371978,21.7
,,0.0038989619207253504,0.005306669982602219,0.0006762221403428793,0.009881854043670448,0.5739743765637565,0.39455773213152484,0.5370115728435861,-5.238790762371978,21.8
,,0.0041315908435486754,0.005200097300397104,0.0008357531237328253,0.010167441267678606,0.5753594027946737,0.40635502431498044,0.5114460131604351,-5.259077941954988,21.9
,,0.0041315908435486754,0.005200097300397104,0.0008357531237328253,0.010167441267678606,0.5767595706995676,0.40635502431498044,0.5114460131604351,-5.259077941954988,22.0
,,0.0041315908435486754,0.005200097300397104,0.0008357531237328253,0.010167441267678606,0.5809817538383417,0.40635502431498044,0.5114460131604351,-5.259077941954988,22.1
,,0.0041315908435486754,0.005200097300397104,0.0008357531237328253,0.010167441267678606,0.5852039369771159,0.40635502431498044,0.5114460131604351,-5.259077941954988,22.2
,,0.0041315908435486754,0.005200097300397104,0.0008357531237328253,0.010167441267678606,0.58942612011589,0.40635502431498044,0.5114460131604351,-5.259077941954988,22.3
,,0.004336967009103195,0.008569172451253756,0.001536578486920342,0.014442717947277292,0.5904437573264207,0.3002874545452707,0.5933213182266152,-4.759584114482635,22.4
,,0.00279480372836095,0.008145937983240797,0.0018231117994106786,0.012763853511012425,0.5896500501125752,0.21896237887324882,0.638203656616133,-4.810235882939721,22.5
,,0.00279480372836095,0.008145937983240797,0.0018231117994106786,0.012763853511012425,0.5888563428987296,0.21896237887324882,0.638203656616133,-4.810235882939721,22.6
,,0.00279480372836095,0.008145937983240797,0.0018231117994106786,0.012763853511012425,0.5855349814053152,0.21896237887324882,0.638203656616133,-4.810235882939721,22.7
,,0.00279480372836095,0.008145937983240797,0.0018231117994106786,0.012763853511012425,0.5825378667557202,0.21896237887324882,0.638203656616133,-4.810235882939721,22.8
,,0.00279480372836095,0.008145937983240797,0.0018231117994106786,0.012763853511012425,0.579540752106125,0.21896237887324882,0.638203656616133,-4.810235882939721,22.9
,,0.00279480372836095,0.008145937983240797,0.0018231117994106786,0.012763853511012425,0.5765436374565299,0.21896237887324882,0.638203656616133,-4.810235882939721,23.0
,,0.0044187776941031305,0.005220875251229522,0.0008193032244462072,0.01045895616977886,0.5791384730514509,0.42248744734882654,0.4991774672806484,-5.255090218493743,23.1
,,0.004706585460605975,0.005194641128266219,0.001007768829222568,0.010908995418094761,0.5823964096740119,0.4314407771039263,0.4761796049203451,-5.260127737035339,23.2
,,0.004706585460605975,0.005194641128266219,0.001007768829222568,0.010908995418094761,0.585654346296573,0.4314407771039263,0.4761796049203451,-5.260127737035339,23.3
,,0.004706585460605975,0.005194641128266219,0.001007768829222568,0.010908995418094761,0.5888905766194156,0.4314407771039263,0.4761796049203451,-5.260127737035339,23.4
,,0.004706585460605975,0.005194641128266219,0.001007768829222568,0.010908995418094761,0.5924698799378043,0.4314407771039263,0.4761796049203451,-5.260127737035339,23.5
,,0.004706585460605975,0.005194641128266219,0.001007768829222568,0.010908995418094761,0.596049183256193,0.4314407771039263,0.4761796049203451,-5.260127737035339,23.6
,,0.004706585460605975,0.005194641128266219,0.001007768829222568,0.010908995418094761,0.5996284865745819,0.4314407771039263,0.4761796049203451,-5.260127737035339,23.7
,,0.004706585460605975,0.005194641128266219,0.001007768829222568,0.010908995418094761,0.6032077898929706,0.4314407771039263,0.4761796049203451,-5.260127737035339,23.8
,,0.005015982963594116,0.005282508325926205,0.0010896921541323126,0.011388183443652633,0.6072704194773764,0.4404550548744318,0.4638587314705127,-5.243354232341617,23.9
,,0.005015982963594116,0.005282508325926205,0.0010896921541323126,0.011388183443652633,0.611333049061782,0.4404550548744318,0.4638587314705127,-5.243354232341617,24.0
,,0.005015982963594116,0.005282508325926205,0.0010896921541323126,0.011388183443652633,0.6153307438417978,0.4404550548744318,0.4638587314705127,-5.243354232341617,24.1
,,0.005015982963594116,0.005282508325926205,0.0010896921541323126,0.011388183443652633,0.6196490547700161,0.4404550548744318,0.4638587314705127,-5.243354232341617,24.2
,,0.005015982963594116,0.005282508325926205,0.0010896921541323126,0.011388183443652633,0.6239673656982344,0.4404550548744318,0.4638587314705127,-5.243354232341617,24.3
,,0.005015982963594116,0.005282508325926205,0.0010896921541323126,0.011388183443652633,0.6282856766264527,0.4404550548744318,0.4638587314705127,-5.243354232341617,24.4
,,0.005317955359272385,0.00530909296419538,0.0011581291066148443,0.011785177430082611,0.6331831387269163,0.4512410093799587,0.45048901433112876,-5.238334274854806,24.5
,,0.005337193330967137,0.005433981434944103,0.0011680131842248553,0.011939187950136095,0.6378641461279435,0.44703151950181824,0.4551382772127447,-5.2150831844460726,24.6
,,0.005337193330967137,0.005433981434944103,0.0011680131842248553,0.011939187950136095,0.6425451535289706,0.44703151950181824,0.4551382772127447,-5.2150831844460726,24.7
,,0.005337193330967137,0.005433981434944103,0.0011680131842248553,0.011939187950136095,0.6471072485367592,0.44703151950181824,0.4551382772127447,-5.2150831844460726,24.8
,,0.005337193330967137,0.005433981434944103,0.0011680131842248553,0.011939187950136095,0.6510371736617713,0.44703151950181824,0.4551382772127447,-5.2150831844460726,24.9
,,0.005337193330967137,0.005433981434944103,0.0011680131842248553,0.011939187950136095,0.6549670987867835,0.44703151950181824,0.4551382772127447,-5.2150831844460726,25.0
,,0.005337193330967137,0.005433981434944103,0.0011680131842248553,0.011939187950136095,0.6588970239117955,0.44703151950181824,0.4551382772127447,-5.2150831844460726,25.1
,,0.005626273978695374,0.005491924487034039,0.001229116965993944,0.012347315431723356,0.6632966683224978,0.45566779352215,0.4447869269561143,-5.2044765408005755,25.2
,,0.005642536597657133,0.0056508625963240765,0.0012340264236313052,0.012527425617612513,0.667408129377689,0.45041469571563036,0.4510793173961804,-5.1759470735611925,25.3
,,0.005642536597657133,0.0056508625963240765,0.0012340264236313052,0.012527425617612513,0.6715195904328805,0.45041469571563036,0.4510793173961804,-5.1759470735611925,25.4
,,0.005642536597657133,0.0056508625963240765,0.0012340264236313052,0.012527425617612513,0.6763857244271333,0.45041469571563036,0.4510793173961804,-5.1759470735611925,25.5
,,0.005642536597657133,0.0056508625963240765,0.0012340264236313052,0.012527425617612513,0.6815501266287978,0.45041469571563036,0.4510793173961804,-5.1759470735611925,25.6
,,0.005642536597657133,0.0056508625963240765,0.0012340264236313052,0.012527425617612513,0.6867145288304624,0.45041469571563036,0.4510793173961804,-5.1759470735611925,25.7
,,0.005642536597657133,0.0056508625963240765,0.0012340264236313052,0.012527425617612513,0.6918789310321269,0.45041469571563036,0.4510793173961804,-5.1759470735611925,25.8
,,0.0059002883280307745,0.005733721459368324,0.0012835391245590634,0.012917548911958161,0.6973824865375851,0.45676531734040515,0.4438706985704112,-5.161390489720685,25.9
,,0.005898983148120103,0.005923825679222158,0.0012801857716945185,0.01310299459903678,0.7025166636248922,0.4502011432221567,0.4520970862384105,-5.128772809204317,26.0
,,0.005898983148120103,0.005923825679222158,0.0012801857716945185,0.01310299459903678,0.7076508407121993,0.4502011432221567,0.4520970862384105,-5.128772809204317,26.1
,,0.005898983148120103,0.005923825679222158,0.0012801857716945185,0.01310299459903678,0.7125253764722336,0.4502011432221567,0.4520970862384105,-5.128772809204317,26.2
,,0.005898983148120103,0.005923825679222158,0.0012801857716945185,0.01310299459903678,0.7175829587671817,0.4502011432221567,0.4520970862384105,-5.128772809204317,26.3
,,0.005898983148120103,0.005923825679222158,0.0012801857716945185,0.01310299459903678,0.7226405410621298,0.4502011432221567,0.4520970862384105,-5.128772809204317,26.4
,,0.005898983148120103,0.005923825679222158,0.0012801857716945185,0.01310299459903678,0.727698123357078,0.4502011432221567,0.4520970862384105,-5.128772809204317,26.5
,,0.006111430398362467,0.006016337276165372,0.0013173385983797018,0.01344510627290754,0.7329779220942024,0.4545468272480121,0.44747413326799407,-5.113276630713698,26.6
,,0.006088087375579708,0.006224133373689589,0.0013058689200373711,0.013618089669306667,0.7378392359628465,0.44705884036741467,0.45704893452992484,-5.079321063400941,26.7
,,0.006088087375579708,0.006224133373689589,0.0013058689200373711,0.013618089669306667,0.7427005498314905,0.44705884036741467,0.45704893452992484,-5.079321063400941,26.8
,,0.006088087375579708,0.006224133373689589,0.0013058689200373711,0.013618089669306667,0.7474339467369396,0.44705884036741467,0.45704893452992484,-5.079321063400941,26.9
,,0.006088087375579708,0.006224133373689589,0.0013058689200373711,0.013618089669306667,0.752246278913553,0.44705884036741467,0.45704893452992484,-5.079321063400941,27.0
,,0.006088087375579708,0.006224133373689589,0.0013058689200373711,0.013618089669306667,0.7570586110901663,0.44705884036741467,0.45704893452992484,-5.079321063400941,27.1
,,0.006088087375579708,0.006224133373689589,0.0013058689200373711,0.013618089669306667,0.7618709432667797,0.44705884036741467,0.45704893452992484,-5.079321063400941,27.2
,,0.0036077182888552685,0.007147580766972126,0.001377498663014584,0.012132797718841978,0.7614231741281071,0.2973525457572377,0.5891123327533999,-4.940981333800575,27.3
,,0.00619697048357201,0.006529096702433015,0.0013103338406136942,0.014036401026618718,0.7659131639667046,0.44149283508073306,0.4651546140674661,-5.0314866756707515,27.4
,,0.00619697048357201,0.006529096702433015,0.0013103338406136942,0.014036401026618718,0.7704031538053021,0.44149283508073306,0.4651546140674661,-5.0314866756707515,27.5
,,0.00619697048357201,0.006529096702433015,0.0013103338406136942,0.014036401026618718,0.7744933275085353,0.44149283508073306,0.4651546140674661,-5.0314866756707515,27.6
,,0.00619697048357201,0.006529096702433015,0.0013103338406136942,0.014036401026618718,0.7787570267345506,0.44149283508073306,0.4651546140674661,-5.0314866756707515,27.7
,,0.00619697048357201,0.006529096702433015,0.0013103338406136942,0.014036401026618718,0.7830207259605657,0.44149283508073306,0.4651546140674661,-5.0314866756707515,27.8
,,0.00619697048357201,0.006529096702433015,0.0013103338406136942,0.014036401026618718,0.7872844251865808,0.44149283508073306,0.4651546140674661,-5.0314866756707515,27.9
,,0.006281092032272045,0.006579847296175501,0.00131929262046754,0.014180231948915085,0.7916088360009542,0.4429470586165274,0.4640154914164798,-5.023743741182365,28.0
,,0.003401664525059138,0.007281141254665361,0.0011847772800454286,0.01186758305976993,0.7905176130454761,0.28663498775841595,0.6135319397382433,-4.9224676633092725,28.1
,,0.003401664525059138,0.007281141254665361,0.0011847772800454286,0.01186758305976993,0.7889504409359969,0.28663498775841595,0.6135319397382433,-4.9224676633092725,28.2
,,0.003401664525059138,0.007281141254665361,0.0011847772800454286,0.01186758305976993,0.7873832688265175,0.28663498775841595,0.6135319397382433,-4.9224676633092725,28.3
,,0.003401664525059138,0.007281141254665361,0.0011847772800454286,0.01186758305976993,0.7871286273303087,0.28663498775841595,0.6135319397382433,-4.9224676633092725,28.4
,,0.003401664525059138,0.007281141254665361,0.0011847772800454286,0.01186758305976993,0.7868739858340998,0.28663498775841595,0.6135319397382433,-4.9224676633092725,28.5
,,0.003401664525059138,0.007281141254665361,0.0011847772800454286,0.01186758305976993,0.786619344337891,0.28663498775841595,0.6135319397382433,-4.9224676633092725,28.6
,,0.006212012839739939,0.006823870802338593,0.0012892148214461387,0.014325098463524671,0.7912885614554096,0.4336453850950691,0.47635768924827265,-4.987328401806309,28.7
,,0.006113336985506548,0.007091711012852462,0.0012580688381514504,0.014463116836510461,0.7954211578071746,0.42268461595180773,0.49033075602004816,-4.948828639929167,28.8
,,0.006113336985506548,0.007091711012852462,0.0012580688381514504,0.014463116836510461,0.7978274097312341,0.42268461595180773,0.49033075602004816,-4.948828639929167,28.9
,,0.006113336985506548,0.007091711012852462,0.0012580688381514504,0.014463116836510461,0.8002336616552936,0.42268461595180773,0.49033075602004816,-4.948828639929167,29.0
,,0.006113336985506548,0.007091711012852462,0.0012580688381514504,0.014463116836510461,0.8027451880708125,0.42268461595180773,0.49033075602004816,-4.948828639929167,29.1
,,0.006113336985506548,0.007091711012852462,0.0012580688381514504,0.014463116836510461,0.8052567144863313,0.42268461595180773,0.49033075602004816,-4.948828639929167,29.2
,,0.006113336985506548,0.007091711012852462,0.0012580688381514504,0.014463116836510461,0.8077682409018501,0.42268461595180773,0.49033075602004816,-4.948828639929167,29.3
,,0.0031883125798783246,0.00699264491318167,0.000943890136611301,0.011124847629671296,0.8057676843083413,0.28659382006947354,0.6285609606491555,-4.962896409015425,29.4
,,0.00593281157982084,0.007267497156835743,0.0012158852070929932,0.014416193943749578,0.8077715316593999,0.4115379969893598,0.5041203791508859,-4.924343316747592,29.5
,,0.00593281157982084,0.007267497156835743,0.0012158852070929932,0.014416193943749578,0.8112070866702537,0.4115379969893598,0.5041203791508859,-4.924343316747592,29.6
,,0.00593281157982084,0.007267497156835743,0.0012158852070929932,0.014416193943749578,0.8146426416811077,0.4115379969893598,0.5041203791508859,-4.924343316747592,29.7
,,0.00593281157982084,0.007267497156835743,0.0012158852070929932,0.014416193943749578,0.8180781966919614,0.4115379969893598,0.5041203791508859,-4.924343316747592,29.8
,,0.00593281157982084,0.007267497156835743,0.0012158852070929932,0.014416193943749578,0.8216691129490641,0.4115379969893598,0.5041203791508859,-4.924343316747592,29.9
,,0.00593281157982084,0.007267497156835743,0.0012158852070929932,0.014416193943749578,0.8252600292061667,0.4115379969893598,0.5041203791508859,-4.924343316747592,30.0
,,0.0058200180118611975,0.0071259617456907185,0.0012058179721421937,0.014151797729694111,0.8288552313183618,0.41125644409468226,0.5035375633400001,-4.944010580085324,30.1
,,0.0058200180118611975,0.0071259617456907185,0.0012058179721421937,0.014151797729694111,0.8297196287944584,0.41125644409468226,0.5035375633400001,-4.944010580085324,30.2
,,0.0029907993296452657,0.007040530424695378,0.0008262227421044494,0.010857552496445093,0.8262291713282676,0.275457966298067,0.6484454417328898,-4.956071767233477,30.3
,,0.0029907993296452657,0.007040530424695378,0.0008262227421044494,0.010857552496445093,0.8227387138620765,0.275457966298067,0.6484454417328898,-4.956071767233477,30.4
,,0.0029907993296452657,0.007040530424695378,0.0008262227421044494,0.010857552496445093,0.8192482563958857,0.275457966298067,0.6484454417328898,-4.956071767233477,30.5
,,0.0029907993296452657,0.007040530424695378,0.0008262227421044494,0.010857552496445093,0.8157577989296947,0.275457966298067,0.6484454417328898,-4.956071767233477,30.6
,,0.0029907993296452657,0.007040530424695378,0.0008262227421044494,0.010857552496445093,0.8123141200192532,0.275457966298067,0.6484454417328898,-4.956071767233477,30.7
,,0.0029907993296452657,0.007040530424695378,0.0008262227421044494,0.010857552496445093,0.8088704411088117,0.275457966298067,0.6484454417328898,-4.956071767233477,30.8
,,0.0029924886781236624,0.006815860470233692,0.0007600404863268095,0.010568389634684164,0.8049207298388077,0.28315465095104747,0.6449289537797576,-4.988502960581073,30.9
,,0.00540418510934345,0.007406487521990021,0.001136962680919036,0.013947635312252507,0.8041999939255231,0.3874624614393282,0.5310210194185162,-4.905398970681314,31.0
,,0.00540418510934345,0.007406487521990021,0.001136962680919036,0.013947635312252507,0.8034792580122386,0.3874624614393282,0.5310210194185162,-4.905398970681314,31.1
,,0.00540418510934345,0.007406487521990021,0.001136962680919036,0.013947635312252507,0.8027585220989543,0.3874624614393282,0.5310210194185162,-4.905398970681314,31.2
,,0.00540418510934345,0.007406487521990021,0.001136962680919036,0.013947635312252507,0.8020377861856697,0.3874624614393282,0.5310210194185162,-4.905398970681314,31.3
,,0.00540418510934345,0.007406487521990021,0.001136962680919036,0.013947635312252507,0.8045215962006286,0.3874624614393282,0.5310210194185162,-4.905398970681314,31.4
,,0.005283306378042678,0.007182944815492264,0.0011457724929182737,0.013612023686453216,0.8088820758385952,0.38813526186416075,0.5276911781046034,-4.936045838573548,31.5
,,0.005283306378042678,0.007182944815492264,0.0011457724929182737,0.013612023686453216,0.8132425554765614,0.38813526186416075,0.5276911781046034,-4.936045838573548,31.6
,,0.0051716048059192304,0.007447439912541485,0.001001404722484648,0.013620449440945363,0.8171461339773859,0.37969413772591937,0.5467837125956525,-4.899884941547486,31.7
,,0.0051716048059192304,0.007447439912541485,0.001001404722484648,0.013620449440945363,0.8210497124782103,0.37969413772591937,0.5467837125956525,-4.899884941547486,31.8
,,0.0051716048059192304,0.007447439912541485,0.001001404722484648,0.013620449440945363,0.8249532909790348,0.37969413772591937,0.5467837125956525,-4.899884941547486,31.9
,,0.0051716048059192304,0.007447439912541485,0.001001404722484648,0.013620449440945363,0.8288568694798593,0.37969413772591937,0.5467837125956525,-4.899884941547486,32.0
,,0.0051716048059192304,0.007447439912541485,0.001001404722484648,0.013620449440945363,0.8271684977361674,0.37969413772591937,0.5467837125956525,-4.899884941547486,32.1
,,0.0029463785376649333,0.006611276564088761,0.0006972297480293594,0.010254884849783054,0.8220530892164223,0.28731463890862363,0.6446953486980037,-5.018978517579109,32.2
,,0.0029463785376649333,0.006611276564088761,0.0006972297480293594,0.010254884849783054,0.8169376806966768,0.28731463890862363,0.6446953486980037,-5.018978517579109,32.3
,,0.004998840179506807,0.007461065978406338,0.001016286397475187,0.01347619255538833,0.8143148336044973,0.3709386133331901,0.5536479200442339,-4.898056982426869,32.4
,,0.004998840179506807,0.007461065978406338,0.001016286397475187,0.01347619255538833,0.8116919865123174,0.3709386133331901,0.5536479200442339,-4.898056982426869,32.5
,,0.004998840179506807,0.007461065978406338,0.001016286397475187,0.01347619255538833,0.8090691394201379,0.3709386133331901,0.5536479200442339,-4.898056982426869,32.6
,,0.004998840179506807,0.007461065978406338,0.001016286397475187,0.01347619255538833,0.8064462923279581,0.3709386133331901,0.5536479200442339,-4.898056982426869,32.7
,,0.004998840179506807,0.007461065978406338,0.001016286397475187,0.01347619255538833,0.8038234452357785,0.3709386133331901,0.5536479200442339,-4.898056982426869,32.8
,,0.004998840179506807,0.007461065978406338,0.001016286397475187,0.01347619255538833,0.8007172718775818,0.3709386133331901,0.5536479200442339,-4.898056982426869,32.9
,,0.0049313708280494025,0.007178049608036131,0.0011684011827287294,0.013277821618814262,0.797800176202002,0.3713990871109311,0.5406044616433962,-4.936727575158267,33.0
,,0.0049313708280494025,0.007178049608036131,0.0011684011827287294,0.013277821618814262,0.794883080526422,0.3713990871109311,0.5406044616433962,-4.936727575158267,33.1
,,0.0048664901774541774,0.007423483800665705,0.0010466286989427244,0.013336602677062607,0.7916164998286094,0.3648972902089953,0.5566248002149173,-4.9031068170759715,33.2
,,0.0048664901774541774,0.007423483800665705,0.0010466286989427244,0.013336602677062607,0.7883499191307966,0.3648972902089953,0.5566248002149173,-4.9031068170759715,33.3
,,0.0048664901774541774,0.007423483800665705,0.0010466286989427244,0.013336602677062607,0.785083338432984,0.3648972902089953,0.5566248002149173,-4.9031068170759715,33.4
,,0.0048664901774541774,0.007423483800665705,0.0010466286989427244,0.013336602677062607,0.781237606562926,0.3648972902089953,0.5566248002149173,-4.9031068170759715,33.5
,,0.0048664901774541774,0.007423483800665705,0.0010466286989427244,0.013336602677062607,0.7776083293923043,0.3648972902089953,0.5566248002149173,-4.9031068170759715,33.6
,,0.004866734524421787,0.007158199820036335,0.0012174862228647029,0.013242420567322825,0.7742493749464106,0.3675109470870459,0.540550708508685,-4.939496751403973,33.7
,,0.004866734524421787,0.007158199820036335,0.0012174862228647029,0.013242420567322825,0.7708904205005167,0.3675109470870459,0.540550708508685,-4.939496751403973,33.8
,,0.003202983440152788,0.0066296007729301654,0.0007149033950105064,0.010547487608093459,0.7653453685020634,0.30367264311313585,0.6285478608045995,-5.016210691841695,33.9
,,0.003202983440152788,0.0066296007729301654,0.0007149033950105064,0.010547487608093459,0.7598003165036101,0.30367264311313585,0.6285478608045995,-5.016210691841695,34.0
,,0.003202983440152788,0.0066296007729301654,0.0007149033950105064,0.010547487608093459,0.7542552645051567,0.30367264311313585,0.6285478608045995,-5.016210691841695,34.1
,,0.003202983440152788,0.0066296007729301654,0.0007149033950105064,0.010547487608093459,0.7482404932210134,0.30367264311313585,0.6285478608045995,-5.016210691841695,34.2
,,0.003202983440152788,0.0066296007729301654,0.0007149033950105064,0.010547487608093459,0.7425139052923809,0.30367264311313585,0.6285478608045995,-5.016210691841695,34.3
,,0.004921870896434087,0.0072107513810285954,0.0012975051940382607,0.013430127471500942,0.7390033200865551,0.36647983475052015,0.53690863294708,-4.932182119380258,34.4
,,0.004921870896434087,0.0072107513810285954,0.0012975051940382607,0.013430127471500942,0.7354927348807294,0.36647983475052015,0.53690863294708,-4.932182119380258,34.5
,,0.004921870896434087,0.0072107513810285954,0.0012975051940382607,0.013430127471500942,0.7319821496749037,0.36647983475052015,0.53690863294708,-4.932182119380258,34.6
,,0.004979755162575326,0.007552460441679842,0.0011957520847297063,0.013727967688984877,0.7282135802133495,0.36274525664647433,0.5501513853168396,-4.885881882495404,34.7
,,0.004979755162575326,0.007552460441679842,0.0011957520847297063,0.013727967688984877,0.7244450107517952,0.36274525664647433,0.5501513853168396,-4.885881882495404,34.8
,,0.004979755162575326,0.007552460441679842,0.0011957520847297063,0.013727967688984877,0.7203372879864471,0.36274525664647433,0.5501513853168396,-4.885881882495404,34.9
,,0.004979755162575326,0.007552460441679842,0.0011957520847297063,0.013727967688984877,0.7165989436392503,0.36274525664647433,0.5501513853168396,-4.885881882495404,35.0
,,0.005120929456829531,0.007339121130347081,0.001417164537260275,0.013877215124436888,0.7132872939035498,0.3690170838248304,0.5288612350920004,-4.914536180534696,35.1
,,0.005120929456829531,0.007339121130347081,0.001417164537260275,0.013877215124436888,0.7099756441678492,0.3690170838248304,0.5288612350920004,-4.914536180534696,35.2
,,0.005120929456829531,0.007339121130347081,0.001417164537260275,0.013877215124436888,0.7066639944321487,0.3690170838248304,0.5288612350920004,-4.914536180534696,35.3
,,0.005179506971614724,0.007615778945329403,0.0013038169558779774,0.014099102872822105,0.7031561691695674,0.3673642939082963,0.5401605346117326,-4.877533006949838,35.4
,,0.005179506971614724,0.007615778945329403,0.0013038169558779774,0.014099102872822105,0.6996483439069862,0.3673642939082963,0.5401605346117326,-4.877533006949838,35.5
,,0.005179506971614724,0.007615778945329403,0.0013038169558779774,0.014099102872822105,0.6959183022022286,0.3673642939082963,0.5401605346117326,-4.877533006949838,35.6
,,0.005179506971614724,0.007615778945329403,0.0013038169558779774,0.014099102872822105,0.6926067453659515,0.3673642939082963,0.5401605346117326,-4.877533006949838,35.7
,,0.004070770345797519,0.006542700429017066,0.0011333783772195802,0.011746849152034163,0.6886516660825553,0.34654146768306776,0.5569749253044667,-5.029405289101117,35.8
,,0.004070770345797519,0.006542700429017066,0.0011333783772195802,0.011746849152034163,0.684696586799159,0.34654146768306776,0.5569749253044667,-5.029405289101117,35.9
,,0.004070770345797519,0.006542700429017066,0.0011333783772195802,0.011746849152034163,0.6807415075157628,0.34654146768306776,0.5569749253044667,-5.029405289101117,36.0
,,0.004070770345797519,0.006542700429017066,0.0011333783772195802,0.011746849152034163,0.6767864282323666,0.34654146768306776,0.5569749253044667,-5.029405289101117,36.1
,,0.005513068354315744,0.007760760404461079,0.0014387115507455532,0.014712540309522376,0.6738112633946571,0.3747189974220515,0.5274928898198561,-4.85867495932214,36.2
,,0.005513068354315744,0.007760760404461079,0.0014387115507455532,0.014712540309522376,0.6760960475627908,0.3747189974220515,0.5274928898198561,-4.85867495932214,36.3
,,0.00581214915972841,0.007662071768924322,0.0017290033940517817,0.015203224322704515,0.6739785995200109,0.3822971388410377,0.5039767621847014,-4.871472865881937,36.4
,,0.00581214915972841,0.007662071768924322,0.0017290033940517817,0.015203224322704515,0.6718611514772311,0.3822971388410377,0.5039767621847014,-4.871472865881937,36.5
,,0.00581214915972841,0.007662071768924322,0.0017290033940517817,0.015203224322704515,0.6697437034344512,0.3822971388410377,0.5039767621847014,-4.871472865881937,36.6
,,0.00581214915972841,0.007662071768924322,0.0017290033940517817,0.015203224322704515,0.6676262553916714,0.3822971388410377,0.5039767621847014,-4.871472865881937,36.7
,,0.006049526302656527,0.00810448787827077,0.0016101709689943068,0.015764185149921603,0.6653741460431146,0.38375128464452296,0.5141076307588962,-4.815337311692011,36.8
,,0.006049526302656527,0.00810448787827077,0.0016101709689943068,0.015764185149921603,0.6631220366945578,0.38375128464452296,0.5141076307588962,-4.815337311692011,36.9
,,0.006049526302656527,0.00810448787827077,0.0016101709689943068,0.015764185149921603,0.6608092157576431,0.38375128464452296,0.5141076307588962,-4.815337311692011,37.0
,,0.005231680565538865,0.007077338055894251,0.0015776264040203742,0.01388664502545349,0.6638317434522288,0.3767418664443046,0.5096506782539528,-4.95085742278091,37.1
,,0.005231680565538865,0.007077338055894251,0.0015776264040203742,0.01388664502545349,0.6668542711468146,0.3767418664443046,0.5096506782539528,-4.95085742278091,37.2
,,0.005231680565538865,0.007077338055894251,0.0015776264040203742,0.01388664502545349,0.6698767988414003,0.3767418664443046,0.5096506782539528,-4.95085742278091,37.3
,,0.005231680565538865,0.007077338055894251,0.0015776264040203742,0.01388664502545349,0.672899326535986,0.3767418664443046,0.5096506782539528,-4.95085742278091,37.4
,,0.005231680565538865,0.007077338055894251,0.0015776264040203742,0.01388664502545349,0.6759218542305718,0.3767418664443046,0.5096506782539528,-4.95085742278091,37.5
,,0.005623151654407238,0.007465103886526629,0.0015316472123049702,0.014619902753238836,0.6791004092773046,0.38462305456590723,0.5106124173687023,-4.897515931607358,37.6
,,0.0075288057376468554,0.008922915617239902,0.0022886214984595165,0.018740342853346276,0.6783606879094758,0.4017432229796432,0.47613406473225894,-4.7191325228789935,37.7
,,0.0075288057376468554,0.008922915617239902,0.0022886214984595165,0.018740342853346276,0.6781575873074004,0.4017432229796432,0.47613406473225894,-4.7191325228789935,37.8
,,0.0075288057376468554,0.008922915617239902,0.0022886214984595165,0.018740342853346276,0.6779544867053251,0.4017432229796432,0.47613406473225894,-4.7191325228789935,37.9
,,0.0075288057376468554,0.008922915617239902,0.0022886214984595165,0.018740342853346276,0.6777513861032497,0.4017432229796432,0.47613406473225894,-4.7191325228789935,38.0
,,0.0075288057376468554,0.008922915617239902,0.0022886214984595165,0.018740342853346276,0.6775482855011744,0.4017432229796432,0.47613406473225894,-4.7191325228789935,38.1
,,0.0075288057376468554,0.008922915617239902,0.0022886214984595165,0.018740342853346276,0.6773451848990991,0.4017432229796432,0.47613406473225894,-4.7191325228789935,38.2
,,0.008030765572372978,0.009596501377384041,0.002138788796274441,0.01976605574603146,0.677065221361905,0.40629074791440667,0.48550411375374086,-4.646356686788518,38.3
,,0.0031274852710850933,0.008274090711396754,0.002245460054049706,0.013647036036531553,0.6761989221055503,0.22916956199962932,0.6062921420627864,-4.7946262475758035,38.4
,,0.0031274852710850933,0.008274090711396754,0.002245460054049706,0.013647036036531553,0.6713282189046283,0.22916956199962932,0.6062921420627864,-4.7946262475758035,38.5
,,0.0031274852710850933,0.008274090711396754,0.002245460054049706,0.013647036036531553,0.6664575157037064,0.22916956199962932,0.6062921420627864,-4.7946262475758035,38.6
,,0.0031274852710850933,0.008274090711396754,0.002245460054049706,0.013647036036531553,0.6615868125027843,0.22916956199962932,0.6062921420627864,-4.7946262475758035,38.7
,,0.0031274852710850933,0.008274090711396754,0.002245460054049706,0.013647036036531553,0.6567161093018623,0.22916956199962932,0.6062921420627864,-4.7946262475758035,38.8
,,0.0031274852710850933,0.008274090711396754,0.002245460054049706,0.013647036036531553,0.6518454061009403,0.22916956199962932,0.6062921420627864,-4.7946262475758035,38.9
,,0.007894302615570658,0.008885315002539099,0.0021673223452439343,0.018946939963353688,0.6526467127787101,0.4166531709521147,0.46895778525316867,-4.72335536470751,39.0
,,0.009989760904611832,0.010755433477188872,0.0029765302637297366,0.02372172464553044,0.653892004305666,0.4211228759243719,0.45340014850966454,-4.532344212361605,39.1
,,0.009989760904611832,0.010755433477188872,0.0029765302637297366,0.02372172464553044,0.6551372958326217,0.4211228759243719,0.45340014850966454,-4.532344212361605,39.2
,,0.009989760904611832,0.010755433477188872,0.0029765302637297366,0.02372172464553044,0.660737442301865,0.4211228759243719,0.45340014850966454,-4.532344212361605,39.3
,,0.009989760904611832,0.010755433477188872,0.0029765302637297366,0.02372172464553044,0.6663375887711082,0.4211228759243719,0.45340014850966454,-4.532344212361605,39.4
,,0.009989760904611832,0.010755433477188872,0.0029765302637297366,0.02372172464553044,0.6719377352403514,0.4211228759243719,0.45340014850966454,-4.532344212361605,39.5
,,0.009989760904611832,0.010755433477188872,0.0029765302637297366,0.02372172464553044,0.6775378817095946,0.4211228759243719,0.45340014850966454,-4.532344212361605,39.6
,,0.00504798156273575,0.011896072759548484,0.0033180096344888103,0.020262063956773043,0.6775328009099881,0.2491346179493403,0.5871106114820035,-4.431546953539315,39.7
,,0.00504798156273575,0.011896072759548484,0.0033180096344888103,0.020262063956773043,0.6775277201103815,0.2491346179493403,0.5871106114820035,-4.431546953539315,39.8
,,0.00504798156273575,0.011896072759548484,0.0033180096344888103,0.020262063956773043,0.6773643018054684,0.2491346179493403,0.5871106114820035,-4.431546953539315,39.9
,,0.00504798156273575,0.011896072759548484,0.0033180096344888103,0.020262063956773043,0.6739719081438356,0.2491346179493403,0.5871106114820035,-4.431546953539315,40.0
,,0.00504798156273575,0.011896072759548484,0.0033180096344888103,0.020262063956773043,0.6705795144822029,0.2491346179493403,0.5871106114820035,-4.431546953539315,40.1
,,0.00504798156273575,0.011896072759548484,0.0033180096344888103,0.020262063956773043,0.6671871208205702,0.2491346179493403,0.5871106114820035,-4.431546953539315,40.2
,,0.00504798156273575,0.011896072759548484,0.0033180096344888103,0.020262063956773043,0.6637947271589375,0.2491346179493403,0.5871106114820035,-4.431546953539315,40.3
,,0.013007248376369705,0.013309687988886347,0.0036567381584173162,0.02997367452367337,0.666546073046691,0.43395574893884,0.44404592364457296,-4.319263088706655,40.4
,,0.013007248376369705,0.013309687988886347,0.0036567381584173162,0.02997367452367337,0.6692320937358135,0.43395574893884,0.44404592364457296,-4.319263088706655,40.5
,,0.013007248376369705,0.013309687988886347,0.0036567381584173162,0.02997367452367337,0.6719181144249359,0.43395574893884,0.44404592364457296,-4.319263088706655,40.6
,,0.013007248376369705,0.013309687988886347,0.0036567381584173162,0.02997367452367337,0.6750610362512003,0.43395574893884,0.44404592364457296,-4.319263088706655,40.7
,,0.013007248376369705,0.013309687988886347,0.0036567381584173162,0.02997367452367337,0.6782039580774648,0.43395574893884,0.44404592364457296,-4.319263088706655,40.8
,,0.013007248376369705,0.013309687988886347,0.0036567381584173162,0.02997367452367337,0.6813468799037292,0.43395574893884,0.44404592364457296,-4.319263088706655,40.9
,,0.013007248376369705,0.013309687988886347,0.0036567381584173162,0.02997367452367337,0.6844898017299936,0.43395574893884,0.44404592364457296,-4.319263088706655,41.0
,,0.012758850005908692,0.012324876938087525,0.0038082636063717025,0.028891990550367917,0.6882764392957447,0.441605087183798,0.426584555210945,-4.39613554384258,41.1
,,0.014638841320364042,0.014914983115093062,0.003956379535732363,0.033510203971189464,0.6942300622005311,0.4368472759207866,0.4450878045360834,-4.205388993091623,41.2
,,0.014638841320364042,0.014914983115093062,0.003956379535732363,0.033510203971189464,0.7001836851053175,0.4368472759207866,0.4450878045360834,-4.205388993091623,41.3
,,0.014638841320364042,0.014914983115093062,0.003956379535732363,0.033510203971189464,0.7036447465825383,0.4368472759207866,0.4450878045360834,-4.205388993091623,41.4
,,0.014638841320364042,0.014914983115093062,0.003956379535732363,0.033510203971189464,0.7071058080597591,0.4368472759207866,0.4450878045360834,-4.205388993091623,41.5
,,0.014638841320364042,0.014914983115093062,0.003956379535732363,0.033510203971189464,0.71056686953698,0.4368472759207866,0.4450878045360834,-4.205388993091623,41.6
,,0.014638841320364042,0.014914983115093062,0.003956379535732363,0.033510203971189464,0.7140279310142007,0.4368472759207866,0.4450878045360834,-4.205388993091623,41.7
,,0.01536826059214847,0.015292019736190066,0.004197527085084354,0.03485780741342289,0.7177501041761372,0.440884316385044,0.4386971204133018,-4.180424172526905,41.8
,,0.015910382688831198,0.015425232146294357,0.00390612042661105,0.03524173526173661,0.7217663449702716,0.45146422475132064,0.43769786112212705,-4.17175065930106,41.9
,,0.015910382688831198,0.015425232146294357,0.00390612042661105,0.03524173526173661,0.7255935080817894,0.45146422475132064,0.43769786112212705,-4.17175065930106,42.0
,,0.015910382688831198,0.015425232146294357,0.00390612042661105,0.03524173526173661,0.7294206711933073,0.45146422475132064,0.43769786112212705,-4.17175065930106,42.1
,,0.015910382688831198,0.015425232146294357,0.00390612042661105,0.03524173526173661,0.7335973193270579,0.45146422475132064,0.43769786112212705,-4.17175065930106,42.2
,,0.015910382688831198,0.015425232146294357,0.00390612042661105,0.03524173526173661,0.7377739674608086,0.45146422475132064,0.43769786112212705,-4.17175065930106,42.3
,,0.015910382688831198,0.015425232146294357,0.00390612042661105,0.03524173526173661,0.7419506155945592,0.45146422475132064,0.43769786112212705,-4.17175065930106,42.4
,,0.016935505961349014,0.017138754290528482,0.0044182962290124665,0.038492556480889964,0.7456460332770424,0.43996833439100946,0.44524853263610065,-4.066413046952635,42.5
,,0.016935505961349014,0.017138754290528482,0.0044182962290124665,0.038492556480889964,0.7493414509595258,0.43996833439100946,0.44524853263610065,-4.066413046952635,42.6
,,0.01762855359189115,0.018548390322521986,0.0038010664140170035,0.03997801032843014,0.7523472992701361,0.44095625187616455,0.4639648189127462,-3.987372268760067,42.7
,,0.01762855359189115,0.018548390322521986,0.0038010664140170035,0.03997801032843014,0.7553531475807463,0.44095625187616455,0.4639648189127462,-3.987372268760067,42.8
,,0.01762855359189115,0.018548390322521986,0.0038010664140170035,0.03997801032843014,0.7605450934439163,0.44095625187616455,0.4639648189127462,-3.987372268760067,42.9
,,0.01762855359189115,0.018548390322521986,0.0038010664140170035,0.03997801032843014,0.7657370393070861,0.44095625187616455,0.4639648189127462,-3.987372268760067,43.0
,,0.01762855359189115,0.018548390322521986,0.0038010664140170035,0.03997801032843014,0.770928985170256,0.44095625187616455,0.4639648189127462,-3.987372268760067,43.1
,,0.01806205211662228,0.017628488289082554,0.004846126937388967,0.0405366673430938,0.7769452164496089,0.4455731884357656,0.4348775921779348,-4.038239032755746,43.2
,,0.01806205211662228,0.017628488289082554,0.004846126937388967,0.0405366673430938,0.7829614477289618,0.4455731884357656,0.4348775921779348,-4.038239032755746,43.3
,,0.018382430785155897,0.01984292801065716,0.0037595221128895262,0.04198488090870258,0.785670593980266,0.4378345344155926,0.47262080018295677,-3.9199076068321252,43.4
,,0.018382430785155897,0.01984292801065716,0.0037595221128895262,0.04198488090870258,0.7883797402315703,0.4378345344155926,0.47262080018295677,-3.9199076068321252,43.5
,,0.018382430785155897,0.01984292801065716,0.0037595221128895262,0.04198488090870258,0.7910888864828746,0.4378345344155926,0.47262080018295677,-3.9199076068321252,43.6
,,0.018382430785155897,0.01984292801065716,0.0037595221128895262,0.04198488090870258,0.7940560169899072,0.4378345344155926,0.47262080018295677,-3.9199076068321252,43.7
,,0.018382430785155897,0.01984292801065716,0.0037595221128895262,0.04198488090870258,0.79702314749694,0.4378345344155926,0.47262080018295677,-3.9199076068321252,43.8
,,0.018691527334866846,0.019929741083258217,0.0044045075741493515,0.04302577599227442,0.8001177665152056,0.4344262689933365,0.46320468657757025,-3.915542136148484,43.9
,,0.018691527334866846,0.019929741083258217,0.0044045075741493515,0.04302577599227442,0.8032123855334711,0.4344262689933365,0.46320468657757025,-3.915542136148484,44.0
,,0.018691527334866846,0.019929741083258217,0.0044045075741493515,0.04302577599227442,0.8058803099402403,0.4344262689933365,0.46320468657757025,-3.915542136148484,44.1
,,0.019294425677529727,0.01967812735302542,0.00412810739934946,0.04310066042990461,0.8090219015832454,0.44765962945993837,0.45656208412463467,-3.9282475467114812,44.2
,,0.019294425677529727,0.01967812735302542,0.00412810739934946,0.04310066042990461,0.8121634932262503,0.44765962945993837,0.45656208412463467,-3.9282475467114812,44.3
,,0.019294425677529727,0.01967812735302542,0.00412810739934946,0.04310066042990461,0.8155012603961359,0.44765962945993837,0.45656208412463467,-3.9282475467114812,44.4
,,0.018708396978536386,0.020542492175282267,0.004166452297048021,0.04341734145086667,0.818063648657162,0.4308968802179605,0.47314025891081385,-3.885259749062873,44.5
,,0.018708396978536386,0.020542492175282267,0.004166452297048021,0.04341734145086667,0.8206260369181883,0.4308968802179605,0.47314025891081385,-3.885259749062873,44.6
,,0.018708396978536386,0.020542492175282267,0.004166452297048021,0.04341734145086667,0.8231884251792144,0.4308968802179605,0.47314025891081385,-3.885259749062873,44.7
,,0.018708396978536386,0.020542492175282267,0.004166452297048021,0.04341734145086667,0.8263943358873599,0.4308968802179605,0.47314025891081385,-3.885259749062873,44.8
,,0.018708396978536386,0.020542492175282267,0.004166452297048021,0.04341734145086667,0.8296002465955054,0.4308968802179605,0.47314025891081385,-3.885259749062873,44.9
,,0.019211324367598846,0.02010033421476428,0.0038794772797930807,0.04319113586215621,0.8333067615631289,0.44479784993178845,0.4653810050032988,-3.9070188364551313,45.0
,,0.01916130763744896,0.019964202346869058,0.004413054758096073,0.04353856474241409,0.8370578531033765,0.4400996622376606,0.4585406630876023,-3.9138144918386284,45.1
,,0.01916130763744896,0.019964202346869058,0.004413054758096073,0.04353856474241409,0.8398290301979375,0.4400996622376606,0.4585406630876023,-3.9138144918386284,45.2
,,0.01916130763744896,0.019964202346869058,0.004413054758096073,0.04353856474241409,0.8426002072924986,0.4400996622376606,0.4585406630876023,-3.9138144918386284,45.3
,,0.01916130763744896,0.019964202346869058,0.004413054758096073,0.04353856474241409,0.8448360099301458,0.4400996622376606,0.4585406630876023,-3.9138144918386284,45.4
,,0.01916130763744896,0.019964202346869058,0.004413054758096073,0.04353856474241409,0.8470718125677932,0.4400996622376606,0.4585406630876023,-3.9138144918386284,45.5
,,0.01916130763744896,0.019964202346869058,0.004413054758096073,0.04353856474241409,0.8493076152054406,0.4400996622376606,0.4585406630876023,-3.9138144918386284,45.6
,,0.01746369361005111,0.02031208637833105,0.0034087248579392554,0.04118450484632142,0.8504321433553572,0.4240355365498818,0.49319729481087393,-3.8965391820124404,45.7
,,0.01746369361005111,0.02031208637833105,0.0034087248579392554,0.04118450484632142,0.8516913328110508,0.4240355365498818,0.49319729481087393,-3.8965391820124404,45.8
,,0.01746369361005111,0.02031208637833105,0.0034087248579392554,0.04118450484632142,0.8529505222667443,0.4240355365498818,0.49319729481087393,-3.8965391820124404,45.9
,,0.01746369361005111,0.02031208637833105,0.0034087248579392554,0.04118450484632142,0.8542097117224381,0.4240355365498818,0.49319729481087393,-3.8965391820124404,46.0
,,0.01746369361005111,0.02031208637833105,0.0034087248579392554,0.04118450484632142,0.8555491863164824,0.4240355365498818,0.49319729481087393,-3.8965391820124404,46.1
,,0.01746369361005111,0.02031208637833105,0.0034087248579392554,0.04118450484632142,0.8568886609105266,0.4240355365498818,0.49319729481087393,-3.8965391820124404,46.2
,,0.01757526325434062,0.020012126752313335,0.003584624136943042,0.041172014143596995,0.8584332697379891,0.42687402158764426,0.4860613979805889,-3.9114168515608596,46.3
,,0.01757526325434062,0.020012126752313335,0.003584624136943042,0.041172014143596995,0.8599778785654512,0.42687402158764426,0.4860613979805889,-3.9114168515608596,46.4
,,0.018369586794992322,0.019632636004744908,0.003712553625138686,0.041714776424875914,0.8621606560408763,0.44036162648681787,0.4706398472517597,-3.930561995208619,46.5
,,0.018369586794992322,0.019632636004744908,0.003712553625138686,0.041714776424875914,0.8641874061641543,0.44036162648681787,0.4706398472517597,-3.930561995208619,46.6
,,0.018369586794992322,0.019632636004744908,0.003712553625138686,0.041714776424875914,0.8652085740882666,0.44036162648681787,0.4706398472517597,-3.930561995208619,46.7
,,0.018369586794992322,0.019632636004744908,0.003712553625138686,0.041714776424875914,0.8662297420123786,0.44036162648681787,0.4706398472517597,-3.930561995208619,46.8
,,0.018369586794992322,0.019632636004744908,0.003712553625138686,0.041714776424875914,0.8672509099364908,0.44036162648681787,0.4706398472517597,-3.930561995208619,46.9
,,0.017255054457459156,0.01975914168187498,0.003340203993932179,0.04035440013326632,0.8675787844880528,0.4275879309437406,0.4896403271173011,-3.9241390247579115,47.0
,,0.017255054457459156,0.01975914168187498,0.003340203993932179,0.04035440013326632,0.8679066590396152,0.4275879309437406,0.4896403271173011,-3.9241390247579115,47.1
,,0.017853830194461188,0.018948323492366408,0.003058351832835051,0.03986050551966265,0.8690008508612489,0.44790777140681604,0.4753658601499536,-3.9660398214272283,47.2
,,0.017853830194461188,0.018948323492366408,0.003058351832835051,0.03986050551966265,0.8701719056180014,0.44790777140681604,0.4753658601499536,-3.9660398214272283,47.3
,,0.017853830194461188,0.018948323492366408,0.003058351832835051,0.03986050551966265,0.876441379102942,0.44790777140681604,0.4753658601499536,-3.9660398214272283,47.4
,,0.017853830194461188,0.018948323492366408,0.003058351832835051,0.03986050551966265,0.8827108525878827,0.44790777140681604,0.4753658601499536,-3.9660398214272283,47.5
,,0.017853830194461188,0.018948323492366408,0.003058351832835051,0.03986050551966265,0.8889803260728235,0.44790777140681604,0.4753658601499536,-3.9660398214272283,47.6
,,0.017076482260277626,0.019386244785315306,0.003129817918979768,0.0395925449645727,0.8945677730171682,0.43130549641498456,0.4896438155885676,-3.943191496079477,47.7
,,0.017076482260277626,0.019386244785315306,0.003129817918979768,0.0395925449645727,0.9001552199615127,0.43130549641498456,0.4896438155885676,-3.943191496079477,47.8
,,0.01716179242518772,0.017744769490173822,0.002732366654592928,0.03763892856995447,0.9067014551466499,0.4559585800454277,0.47144725326583037,-4.031664483096321,47.9
,,0.01716179242518772,0.017744769490173822,0.002732366654592928,0.03763892856995447,0.9075756804530957,0.4559585800454277,0.47144725326583037,-4.031664483096321,48.0
,,0.01716179242518772,0.017744769490173822,0.002732366654592928,0.03763892856995447,0.9080016350552625,0.4559585800454277,0.47144725326583037,-4.031664483096321,48.1
,,0.01716179242518772,0.017744769490173822,0.002732366654592928,0.03763892856995447,0.9084275896574295,0.4559585800454277,0.47144725326583037,-4.031664483096321,48.2
,,0.01716179242518772,0.017744769490173822,0.002732366654592928,0.03763892856995447,0.9088535442595966,0.4559585800454277,0.47144725326583037,-4.031664483096321,48.3
,,0.01716179242518772,0.017744769490173822,0.002732366654592928,0.03763892856995447,0.9092794988617636,0.4559585800454277,0.47144725326583037,-4.031664483096321,48.4
,,0.01697366933616073,0.018854233246535006,0.002936353409674902,0.038764255992370635,0.9089622445243186,0.4378690858790478,0.4863819197315638,-3.9710178148884028,48.5
,,0.01697366933616073,0.018854233246535006,0.002936353409674902,0.038764255992370635,0.9086449901868737,0.4378690858790478,0.4863819197315638,-3.9710178148884028,48.6
,,0.01676559443199507,0.01887315851935547,0.002342979525855971,0.03798173247720651,0.9138004336160128,0.4414120509657213,0.4969009386467976,-3.9700145504949713,48.7
,,0.01676559443199507,0.01887315851935547,0.002342979525855971,0.03798173247720651,0.9189558770451518,0.4414120509657213,0.4969009386467976,-3.9700145504949713,48.8
,,0.01676559443199507,0.01887315851935547,0.002342979525855971,0.03798173247720651,0.924111320474291,0.4414120509657213,0.4969009386467976,-3.9700145504949713,48.9
,,0.01676559443199507,0.01887315851935547,0.002342979525855971,0.03798173247720651,0.9292667639034301,0.4414120509657213,0.4969009386467976,-3.9700145504949713,49.0
,,0.01676559443199507,0.01887315851935547,0.002342979525855971,0.03798173247720651,0.9344222073325691,0.4414120509657213,0.4969009386467976,-3.9700145504949713,49.1
,,0.017183379360667606,0.018475424937846277,0.0027911595523466555,0.03844996385086054,0.9400413920924856,0.44690235411711654,0.4805056516960232,-3.9913138117170504,49.2
,,0.017183379360667606,0.018475424937846277,0.0027911595523466555,0.03844996385086054,0.945660576852402,0.44690235411711654,0.4805056516960232,-3.9913138117170504,49.3
,,0.017037527678401686,0.018410279817780595,0.002269210121854096,0.03771701761803638,0.9450845638741624,0.45171990667295747,0.4881160012231919,-3.9948460846250318,49.4
,,0.017037527678401686,0.018410279817780595,0.002269210121854096,0.03771701761803638,0.9445085508959229,0.45171990667295747,0.4881160012231919,-3.9948460846250318,49.5
,,0.017037527678401686,0.018410279817780595,0.002269210121854096,0.03771701761803638,0.9439325379176832,0.45171990667295747,0.4881160012231919,-3.9948460846250318,49.6
,,0.017037527678401686,0.018410279817780595,0.002269210121854096,0.03771701761803638,0.9433565249394433,0.45171990667295747,0.4881160012231919,-3.9948460846250318,49.7
,,0.017037527678401686,0.018410279817780595,0.002269210121854096,0.03771701761803638,0.9427805119612038,0.45171990667295747,0.4881160012231919,-3.9948460846250318,49.8
,,0.017603414646660206,0.018267770521306535,0.0026917850466779856,0.03856297021464472,0.9426289077272783,0.45648492708622096,0.47371274618180587,-4.002616945523563,49.9
,,0.017603414646660206,0.018267770521306535,0.0026917850466779856,0.03856297021464472,0.9424773034933528,0.45648492708622096,0.47371274618180587,-4.002616945523563,50.0
,,0.017603414646660206,0.018267770521306535,0.0026917850466779856,0.03856297021464472,0.9416819835199408,0.45648492708622096,0.47371274618180587,-4.002616945523563,50.1
,,0.016190310317497257,0.014073940103704071,0.002029451235122513,0.032293701656323844,0.9435585334442752,0.5013457574420499,0.4358106807786178,-4.263430411258683,50.2
,,0.016190310317497257,0.014073940103704071,0.002029451235122513,0.032293701656323844,0.9454350833686098,0.5013457574420499,0.4358106807786178,-4.263430411258683,50.3
,,0.016190310317497257,0.014073940103704071,0.002029451235122513,0.032293701656323844,0.9473116332929444,0.5013457574420499,0.4358106807786178,-4.263430411258683,50.4
,,0.01835244002192772,0.018331015368234428,0.0026333295427846343,0.03931678493294678,0.947530335003372,0.46678384443761306,0.46623892059071587,-3.9991608248712263,50.5
,,0.01835244002192772,0.018331015368234428,0.0026333295427846343,0.03931678493294678,0.9477490367137997,0.46678384443761306,0.46623892059071587,-3.9991608248712263,50.6
,,0.01835244002192772,0.018331015368234428,0.0026333295427846343,0.03931678493294678,0.9479677384242273,0.46678384443761306,0.46623892059071587,-3.9991608248712263,50.7
,,0.018696880150812303,0.018569540440221244,0.00215737033170718,0.03942379092274073,0.947988536067587,0.474253736467221,0.4710237145030571,-3.986232651353942,50.8
,,0.018696880150812303,0.018569540440221244,0.00215737033170718,0.03942379092274073,0.9477152660787487,0.474253736467221,0.4710237145030571,-3.986232651353942,50.9
,,0.018696880150812303,0.018569540440221244,0.00215737033170718,0.03942379092274073,0.9474419960899101,0.474253736467221,0.4710237145030571,-3.986232651353942,51.0
,,0.018696880150812303,0.018569540440221244,0.00215737033170718,0.03942379092274073,0.9471687261010717,0.474253736467221,0.4710237145030571,-3.986232651353942,51.1
,,0.01723572090932284,0.013067363760442067,0.00218754391020658,0.03249062857997148,0.9503635945125416,0.5304828395947878,0.40218870276019564,-4.337637473263414,51.2
,,0.01723572090932284,0.013067363760442067,0.00218754391020658,0.03249062857997148,0.9535584629240115,0.5304828395947878,0.40218870276019564,-4.337637473263414,51.3
,,0.01723572090932284,0.013067363760442067,0.00218754391020658,0.03249062857997148,0.9567533313354815,0.5304828395947878,0.40218870276019564,-4.337637473263414,51.4
,,0.01703232454835336,0.012608528472920244,0.0017970911847856933,0.0314379442060593,0.9607835139466797,0.5417760282515731,0.40106084514553264,-4.373381831062925,51.5
,,0.01703232454835336,0.012608528472920244,0.0017970911847856933,0.0314379442060593,0.964813696557878,0.5417760282515731,0.40106084514553264,-4.373381831062925,51.6
,,0.01703232454835336,0.012608528472920244,0.0017970911847856933,0.0314379442060593,0.9692631258162213,0.5417760282515731,0.40106084514553264,-4.373381831062925,51.7
,,0.021223576379491176,0.0199512496078314,0.0026170638760698865,0.04379188986339246,0.9705227144004756,0.48464627687221334,0.45559234072949917,-3.9144635006238486,51.8
,,0.021223576379491176,0.0199512496078314,0.0026170638760698865,0.04379188986339246,0.9717823029847296,0.48464627687221334,0.45559234072949917,-3.9144635006238486,51.9
,,0.021223576379491176,0.0199512496078314,0.0026170638760698865,0.04379188986339246,0.9730418915689837,0.48464627687221334,0.45559234072949917,-3.9144635006238486,52.0
,,0.021223576379491176,0.0199512496078314,0.0026170638760698865,0.04379188986339246,0.9743014801532379,0.48464627687221334,0.45559234072949917,-3.9144635006238486,52.1
,,0.021223576379491176,0.0199512496078314,0.0026170638760698865,0.04379188986339246,0.9747367833213092,0.48464627687221334,0.45559234072949917,-3.9144635006238486,52.2
,,0.021409272253813474,0.01999277389896037,0.002147472623369727,0.043549518776143575,0.97525073907645,0.49160755056474864,0.45908139655293756,-3.912384375766524,52.3
,,0.022209298746299323,0.02061835563037214,0.0025689978770072164,0.04539665225367868,0.9769258991057614,0.48922767745499585,0.4541822933364288,-3.881573549917939,52.4
,,0.022209298746299323,0.02061835563037214,0.0025689978770072164,0.04539665225367868,0.9786010591350727,0.48922767745499585,0.4541822933364288,-3.881573549917939,52.5
,,0.022209298746299323,0.02061835563037214,0.0025689978770072164,0.04539665225367868,0.9802762191643839,0.48922767745499585,0.4541822933364288,-3.881573549917939,52.6
,,0.022209298746299323,0.02061835563037214,0.0025689978770072164,0.04539665225367868,0.9819513791936952,0.48922767745499585,0.4541822933364288,-3.881573549917939,52.7
,,0.022209298746299323,0.02061835563037214,0.0025689978770072164,0.04539665225367868,0.9836265392230066,0.48922767745499585,0.4541822933364288,-3.881573549917939,52.8
,,0.022209298746299323,0.02061835563037214,0.0025689978770072164,0.04539665225367868,0.985174210741085,0.48922767745499585,0.4541822933364288,-3.881573549917939,52.9
,,0.022548633131978614,0.020832843612613106,0.002104708094741255,0.04548618483933298,0.9867796415850861,0.49572487144448923,0.458003758420259,-3.8712245177787463,53.0
,,0.023357425965338595,0.02172874909514716,0.002514387017643873,0.04760056207812963,0.9883027957312992,0.4906964318404616,0.4564809352352284,-3.8291190521716403,53.1
,,0.023357425965338595,0.02172874909514716,0.002514387017643873,0.04760056207812963,0.9893522826412763,0.4906964318404616,0.4564809352352284,-3.8291190521716403,53.2
,,0.023357425965338595,0.02172874909514716,0.002514387017643873,0.04760056207812963,0.9904017695512536,0.4906964318404616,0.4564809352352284,-3.8291190521716403,53.3
,,0.023357425965338595,0.02172874909514716,0.002514387017643873,0.04760056207812963,0.9914512564612308,0.4906964318404616,0.4564809352352284,-3.8291190521716403,53.4
,,0.023357425965338595,0.02172874909514716,0.002514387017643873,0.04760056207812963,0.9932761222800673,0.4906964318404616,0.4564809352352284,-3.8291190521716403,53.5
,,0.023357425965338595,0.02172874909514716,0.002514387017643873,0.04760056207812963,0.995100988098904,0.4906964318404616,0.4564809352352284,-3.8291190521716403,53.6
,,0.02486500107434686,0.023454962743305913,0.002504985066070269,0.05082494888372304,0.9967609862916236,0.48922825542299775,0.4614852205157355,-3.752673175635895,53.7
,,0.02486500107434686,0.023454962743305913,0.002504985066070269,0.05082494888372304,0.9984209844843429,0.48922825542299775,0.4614852205157355,-3.752673175635895,53.8
,,0.02486500107434686,0.023454962743305913,0.002504985066070269,0.05082494888372304,1.0000809826770625,0.48922825542299775,0.4614852205157355,-3.752673175635895,53.9
,,0.02486500107434686,0.023454962743305913,0.002504985066070269,0.05082494888372304,1.001240376610304,0.48922825542299775,0.4614852205157355,-3.752673175635895,54.0
,,0.02486500107434686,0.023454962743305913,0.002504985066070269,0.05082494888372304,1.002355193970921,0.48922825542299775,0.4614852205157355,-3.752673175635895,54.1
,,0.02486500107434686,0.023454962743305913,0.002504985066070269,0.05082494888372304,1.003470011331538,0.48922825542299775,0.4614852205157355,-3.752673175635895,54.2
,,0.025680440539220722,0.02480006070448647,0.002818361673035952,0.05329886291674314,1.0043112982056424,0.48181966994934794,0.46530187225994,-3.696909178052645,54.3
,,0.02633154961981066,0.02546127713500143,0.0025134311741950993,0.05430625792900719,1.0051379310456448,0.48487136886200194,0.46884609814740197,-3.670596524699286,54.4
,,0.02633154961981066,0.02546127713500143,0.0025134311741950993,0.05430625792900719,1.005964563885647,0.48487136886200194,0.46884609814740197,-3.670596524699286,54.5
,,0.02633154961981066,0.02546127713500143,0.0025134311741950993,0.05430625792900719,1.006791196725649,0.48487136886200194,0.46884609814740197,-3.670596524699286,54.6
,,0.02633154961981066,0.02546127713500143,0.0025134311741950993,0.05430625792900719,1.008729104053382,0.48487136886200194,0.46884609814740197,-3.670596524699286,54.7
,,0.02633154961981066,0.02546127713500143,0.0025134311741950993,0.05430625792900719,1.010667011381115,0.48487136886200194,0.46884609814740197,-3.670596524699286,54.8
,,0.019060774334368716,0.010367919211275837,0.002129341569431074,0.03155803511507563,1.0215411135851815,0.6039911631020136,0.3285350045866121,-4.569038931524892,54.9
,,0.019060774334368716,0.010367919211275837,0.002129341569431074,0.03155803511507563,1.0324152157892479,0.6039911631020136,0.3285350045866121,-4.569038931524892,55.0
,,0.018957603462869826,0.010606487513048267,0.001987563901013536,0.03155165487693162,1.0427217787093335,0.6008433959110749,0.33616263725054224,-4.546289435544952,55.1
,,0.018957603462869826,0.010606487513048267,0.001987563901013536,0.03155165487693162,1.053028341629419,0.6008433959110749,0.33616263725054224,-4.546289435544952,55.2
,,0.018957603462869826,0.010606487513048267,0.001987563901013536,0.03155165487693162,1.0631297703160865,0.6008433959110749,0.33616263725054224,-4.546289435544952,55.3
,,0.018957603462869826,0.010606487513048267,0.001987563901013536,0.03155165487693162,1.073231199002754,0.6008433959110749,0.33616263725054224,-4.546289435544952,55.4
,,0.018957603462869826,0.010606487513048267,0.001987563901013536,0.03155165487693162,1.0826944590414591,0.6008433959110749,0.33616263725054224,-4.546289435544952,55.5
,,0.019263243859010886,0.010334137737056536,0.0021829823867144478,0.03178036398278187,1.0930097251045958,0.6061366656922944,0.3251736746204486,-4.572302520673306,55.6
,,0.019263243859010886,0.010334137737056536,0.0021829823867144478,0.03178036398278187,1.1033249911677327,0.6061366656922944,0.3251736746204486,-4.572302520673306,55.7
,,0.019184331907448553,0.010728301184622879,0.0020617406315755304,0.03197437372364696,1.1127975761301427,0.5999908574678537,0.33552811002170335,-4.534870058767568,55.8
,,0.019184331907448553,0.010728301184622879,0.0020617406315755304,0.03197437372364696,1.1222701610925532,0.5999908574678537,0.33552811002170335,-4.534870058767568,55.9
,,0.019184331907448553,0.010728301184622879,0.0020617406315755304,0.03197437372364696,1.1324360394275133,0.5999908574678537,0.33552811002170335,-4.534870058767568,56.0
,,0.019184331907448553,0.010728301184622879,0.0020617406315755304,0.03197437372364696,1.142601917762473,0.5999908574678537,0.33552811002170335,-4.534870058767568,56.1
,,0.03128384960957366,0.033127692789536284,0.0029396023627351196,0.06735114476184506,1.1426252882816421,0.4644887584345292,0.49186532621941975,-3.4073857062201607,56.2
,,0.03128384960957366,0.033127692789536284,0.0029396023627351196,0.06735114476184506,1.1426486588008111,0.4644887584345292,0.49186532621941975,-3.4073857062201607,56.3
,,0.03264177321941965,0.03467199524988772,0.0027154407461966604,0.07002920921550403,1.1426398467551793,0.46611654743907865,0.49510762206652986,-3.3618229711895355,56.4
,,0.03264177321941965,0.03467199524988772,0.0027154407461966604,0.07002920921550403,1.1426310347095472,0.46611654743907865,0.49510762206652986,-3.3618229711895355,56.5
,,0.03264177321941965,0.03467199524988772,0.0027154407461966604,0.07002920921550403,1.1426222226639153,0.46611654743907865,0.49510762206652986,-3.3618229711895355,56.6
,,0.03264177321941965,0.03467199524988772,0.0027154407461966604,0.07002920921550403,1.1432954371588795,0.46611654743907865,0.49510762206652986,-3.3618229711895355,56.7
,,0.03264177321941965,0.03467199524988772,0.0027154407461966604,0.07002920921550403,1.1439686516538439,0.46611654743907865,0.49510762206652986,-3.3618229711895355,56.8
,,0.02242637548578786,0.037049484916597514,0.003074642558830706,0.06255050296121607,1.1399482311839275,0.3585322966898148,0.5923131415836855,-3.2955008297227124,56.9
,,0.02242637548578786,0.037049484916597514,0.003074642558830706,0.06255050296121607,1.1359278107140114,0.3585322966898148,0.5923131415836855,-3.2955008297227124,57.0
,,0.03587214855897194,0.03908108306498264,0.0028580426161200875,0.07781127424007467,1.1353805195789024,0.4610147939268282,0.5022547625219964,-3.24211673814392,57.1
,,0.03587214855897194,0.03908108306498264,0.0028580426161200875,0.07781127424007467,1.1348332284437934,0.4610147939268282,0.5022547625219964,-3.24211673814392,57.2
,,0.03587214855897194,0.03908108306498264,0.0028580426161200875,0.07781127424007467,1.1342859373086849,0.4610147939268282,0.5022547625219964,-3.24211673814392,57.3
,,0.03587214855897194,0.03908108306498264,0.0028580426161200875,0.07781127424007467,1.133738646173576,0.4610147939268282,0.5022547625219964,-3.24211673814392,57.4
,,0.03587214855897194,0.03908108306498264,0.0028580426161200875,0.07781127424007467,1.133934563978079,0.4610147939268282,0.5022547625219964,-3.24211673814392,57.5
,,0.020338727238642374,0.01140864337750944,0.002630362974215603,0.034377733590367415,1.1437400026635238,0.591625017547441,0.33186141685344034,-4.4733840198536905,57.6
,,0.020338727238642374,0.01140864337750944,0.002630362974215603,0.034377733590367415,1.1536779708512344,0.591625017547441,0.33186141685344034,-4.4733840198536905,57.7
,,0.03978777538735619,0.0440666639023264,0.0030221937987173287,0.08687663308839992,1.1538398549469868,0.4579801722618645,0.5072326393851736,-3.1220517029635313,57.8
,,0.03978777538735619,0.0440666639023264,0.0030221937987173287,0.08687663308839992,1.1540017390427393,0.4579801722618645,0.5072326393851736,-3.1220517029635313,57.9
,,0.03978777538735619,0.0440666639023264,0.0030221937987173287,0.08687663308839992,1.1541636231384915,0.4579801722618645,0.5072326393851736,-3.1220517029635313,58.0
,,0.03978777538735619,0.0440666639023264,0.0030221937987173287,0.08687663308839992,1.154325507234244,0.4579801722618645,0.5072326393851736,-3.1220517029635313,58.1
,,0.03978777538735619,0.0440666639023264,0.0030221937987173287,0.08687663308839992,1.1540236499992191,0.4579801722618645,0.5072326393851736,-3.1220517029635313,58.2
,,0.042000872055520826,0.046905400655703915,0.0034948946944633923,0.09240116740568813,1.153638884104474,0.4545491494833137,0.507627792728693,-3.059622457585808,58.3
,,0.044899454462257855,0.05003541344090553,0.003268295302275603,0.09820316320543898,1.1533268614174779,0.45720985960838273,0.5095091828786867,-2.9950242554398696,58.4
,,0.044899454462257855,0.05003541344090553,0.003268295302275603,0.09820316320543898,1.1530148387304813,0.45720985960838273,0.5095091828786867,-2.9950242554398696,58.5
,,0.044899454462257855,0.05003541344090553,0.003268295302275603,0.09820316320543898,1.1527028160434853,0.45720985960838273,0.5095091828786867,-2.9950242554398696,58.6
,,0.044899454462257855,0.05003541344090553,0.003268295302275603,0.09820316320543898,1.152390793356489,0.45720985960838273,0.5095091828786867,-2.9950242554398696,58.7
,,0.044899454462257855,0.05003541344090553,0.003268295302275603,0.09820316320543898,1.1520787706694928,0.45720985960838273,0.5095091828786867,-2.9950242554398696,58.8
,,0.044899454462257855,0.05003541344090553,0.003268295302275603,0.09820316320543898,1.1513423392381825,0.45720985960838273,0.5095091828786867,-2.9950242554398696,58.9
,,0.04818795134845717,0.05355293196433639,0.003863880629243834,0.1056047639420374,1.1506333031844953,0.4563047115460225,0.507107160371379,-2.9270847316855035,59.0
,,0.02208390063834416,0.015122367254835378,0.0031364126438322647,0.0403426805370118,1.1561523526297341,0.5474078654263841,0.37484785476665544,-4.191580356012449,59.1
,,0.02208390063834416,0.015122367254835378,0.0031364126438322647,0.0403426805370118,1.1595964825866045,0.5474078654263841,0.37484785476665544,-4.191580356012449,59.2
,,0.02208390063834416,0.015122367254835378,0.0031364126438322647,0.0403426805370118,1.163040612543475,0.5474078654263841,0.37484785476665544,-4.191580356012449,59.3
,,0.02208390063834416,0.015122367254835378,0.0031364126438322647,0.0403426805370118,1.1664847425003453,0.5474078654263841,0.37484785476665544,-4.191580356012449,59.4
,,0.02208390063834416,0.015122367254835378,0.0031364126438322647,0.0403426805370118,1.1715867206711226,0.5474078654263841,0.37484785476665544,-4.191580356012449,59.5
,,0.02208390063834416,0.015122367254835378,0.0031364126438322647,0.0403426805370118,1.1766886988418999,0.5474078654263841,0.37484785476665544,-4.191580356012449,59.6
,,0.05573057600292454,0.06072146537900412,0.004281541695323799,0.12073358307725246,1.1757624551810701,0.4615996194469341,0.5029376568750631,-2.8014580128031596,59.7
,,0.04317351605521841,0.06272936147793287,0.0038580996844382147,0.1097609772175895,1.1722223782424281,0.3933412142425763,0.571508773592445,-2.768925655820032,59.8
,,0.04317351605521841,0.06272936147793287,0.0038580996844382147,0.1097609772175895,1.1686823013037861,0.3933412142425763,0.571508773592445,-2.768925655820032,59.9
,,0.04317351605521841,0.06272936147793287,0.0038580996844382147,0.1097609772175895,1.1651422243651441,0.3933412142425763,0.571508773592445,-2.768925655820032,60.0
,,0.04317351605521841,0.06272936147793287,0.0038580996844382147,0.1097609772175895,1.1616021474265021,0.3933412142425763,0.571508773592445,-2.768925655820032,60.1
,,0.04317351605521841,0.06272936147793287,0.0038580996844382147,0.1097609772175895,1.1545939320875518,0.3933412142425763,0.571508773592445,-2.768925655820032,60.2
,,0.04317351605521841,0.06272936147793287,0.0038580996844382147,0.1097609772175895,1.1475857167486014,0.3933412142425763,0.571508773592445,-2.768925655820032,60.3
,,0.05853073704580054,0.06169190091720117,0.004321885159327022,0.12454452312232873,1.143472038352938,0.46995833761642924,0.49534013516280306,-2.78560262221035,60.4
,,0.0234615492850817,0.01824274604038018,0.003865881975664973,0.045570177301126856,1.1427522393075553,0.5148443713538403,0.4003220334174358,-4.003987755208096,60.5
,,0.0234615492850817,0.01824274604038018,0.003865881975664973,0.045570177301126856,1.1420324402621729,0.5148443713538403,0.4003220334174358,-4.003987755208096,60.6
,,0.0234615492850817,0.01824274604038018,0.003865881975664973,0.045570177301126856,1.1413126412167902,0.5148443713538403,0.4003220334174358,-4.003987755208096,60.7
,,0.0234615492850817,0.01824274604038018,0.003865881975664973,0.045570177301126856,1.1437826828454971,0.5148443713538403,0.4003220334174358,-4.003987755208096,60.8
,,0.0234615492850817,0.01824274604038018,0.003865881975664973,0.045570177301126856,1.1462527244742038,0.5148443713538403,0.4003220334174358,-4.003987755208096,60.9
,,0.0234615492850817,0.01824274604038018,0.003865881975664973,0.045570177301126856,1.1487227661029102,0.5148443713538403,0.4003220334174358,-4.003987755208096,61.0
,,0.0234615492850817,0.01824274604038018,0.003865881975664973,0.045570177301126856,1.1511928077316171,0.5148443713538403,0.4003220334174358,-4.003987755208096,61.1
,,0.06182888803916872,0.0611660605042544,0.0038637713940828885,0.12685871993750603,1.1506046381904922,0.4873838240652852,0.48215889719198196,-2.794162810216916,61.2
,,0.06182888803916872,0.0611660605042544,0.0038637713940828885,0.12685871993750603,1.1499378160622973,0.4873838240652852,0.48215889719198196,-2.794162810216916,61.3
,,0.06182888803916872,0.0611660605042544,0.0038637713940828885,0.12685871993750603,1.1492008719651743,0.4873838240652852,0.48215889719198196,-2.794162810216916,61.4
,,0.06182888803916872,0.0611660605042544,0.0038637713940828885,0.12685871993750603,1.148463927868051,0.4873838240652852,0.48215889719198196,-2.794162810216916,61.5
,,0.06182888803916872,0.0611660605042544,0.0038637713940828885,0.12685871993750603,1.1477269837709279,0.4873838240652852,0.48215889719198196,-2.794162810216916,61.6
,,0.06182888803916872,0.0611660605042544,0.0038637713940828885,0.12685871993750603,1.1469900396738049,0.4873838240652852,0.48215889719198196,-2.794162810216916,61.7
,,0.061531311254240044,0.0598750703977491,0.003115234205882143,0.12452161585787128,1.1464400409691204,0.4941416061005164,0.48084077599900715,-2.8154950475064613,61.8
,,0.061254039013418554,0.05684467974106548,0.0037027615989421443,0.12180148035342618,1.1464445637964824,0.5029006120096432,0.4666994159358465,-2.867432647314985,61.9
,,0.061254039013418554,0.05684467974106548,0.0037027615989421443,0.12180148035342618,1.1463913272979218,0.5029006120096432,0.4666994159358465,-2.867432647314985,62.0
,,0.061254039013418554,0.05684467974106548,0.0037027615989421443,0.12180148035342618,1.1464203674971492,0.5029006120096432,0.4666994159358465,-2.867432647314985,62.1
,,0.061254039013418554,0.05684467974106548,0.0037027615989421443,0.12180148035342618,1.146449407696377,0.5029006120096432,0.4666994159358465,-2.867432647314985,62.2
,,0.061254039013418554,0.05684467974106548,0.0037027615989421443,0.12180148035342618,1.1464784478956045,0.5029006120096432,0.4666994159358465,-2.867432647314985,62.3
,,0.061254039013418554,0.05684467974106548,0.0037027615989421443,0.12180148035342618,1.1465074880948323,0.5029006120096432,0.4666994159358465,-2.867432647314985,62.4
,,0.06113430289614828,0.05284233755499201,0.0035560364933140275,0.11753267694445431,1.147418199682534,0.5201472857207211,0.4495969880781766,-2.940442561945561,62.5
,,0.06113430289614828,0.05284233755499201,0.0035560364933140275,0.11753267694445431,1.1483289112702355,0.5201472857207211,0.4495969880781766,-2.940442561945561,62.6
,,0.06113430289614828,0.05284233755499201,0.0035560364933140275,0.11753267694445431,1.1494044904840544,0.5201472857207211,0.4495969880781766,-2.940442561945561,62.7
,,0.06113430289614828,0.05284233755499201,0.0035560364933140275,0.11753267694445431,1.1504800696978732,0.5201472857207211,0.4495969880781766,-2.940442561945561,62.8
,,0.06113430289614828,0.05284233755499201,0.0035560364933140275,0.11753267694445431,1.151555648911692,0.5201472857207211,0.4495969880781766,-2.940442561945561,62.9
,,0.06113430289614828,0.05284233755499201,0.0035560364933140275,0.11753267694445431,1.1526312281255109,0.5201472857207211,0.4495969880781766,-2.940442561945561,63.0
,,0.06150664979006809,0.05204764163801135,0.0028693900844922217,0.11642368151257165,1.1539825687245622,0.5283001618826706,0.44705373478840854,-2.9555957944959608,63.1
,,0.0615167485744081,0.04915752465797373,0.0034673185353562013,0.11414159176773803,1.1561081681795853,0.5389512063191301,0.4306714484760501,-3.0127253483190573,63.2
,,0.0615167485744081,0.04915752465797373,0.0034673185353562013,0.11414159176773803,1.1585072981211209,0.5389512063191301,0.4306714484760501,-3.0127253483190573,63.3
,,0.0615167485744081,0.04915752465797373,0.0034673185353562013,0.11414159176773803,1.1609210820967586,0.5389512063191301,0.4306714484760501,-3.0127253483190573,63.4
,,0.0615167485744081,0.04915752465797373,0.0034673185353562013,0.11414159176773803,1.1633348660723966,0.5389512063191301,0.4306714484760501,-3.0127253483190573,63.5
,,0.0615167485744081,0.04915752465797373,0.0034673185353562013,0.11414159176773803,1.1657486500480343,0.5389512063191301,0.4306714484760501,-3.0127253483190573,63.6
,,0.0615167485744081,0.04915752465797373,0.0034673185353562013,0.11414159176773803,1.168162434023672,0.5389512063191301,0.4306714484760501,-3.0127253483190573,63.7
,,0.03064972696684797,0.033416741569073385,0.005737305154121336,0.06980377369004269,1.166862617570182,0.4390840974149234,0.4787239973222277,-3.39869825999755,63.8
,,0.0323565323013333,0.033630085006041144,0.007224600757378585,0.07321121806475303,1.1571258706558993,0.4419613982206246,0.45935699329980256,-3.392334225548314,63.9
,,0.0323565323013333,0.033630085006041144,0.007224600757378585,0.07321121806475303,1.1473891237416163,0.4419613982206246,0.45935699329980256,-3.392334225548314,64.0
,,0.0323565323013333,0.033630085006041144,0.007224600757378585,0.07321121806475303,1.1382199161113147,0.4419613982206246,0.45935699329980256,-3.392334225548314,64.1
,,0.0323565323013333,0.033630085006041144,0.007224600757378585,0.07321121806475303,1.129050708481013,0.4419613982206246,0.45935699329980256,-3.392334225548314,64.2
,,0.0323565323013333,0.033630085006041144,0.007224600757378585,0.07321121806475303,1.119881500850711,0.4419613982206246,0.45935699329980256,-3.392334225548314,64.3
,,0.060612654608763736,0.04355352198403797,0.0026525717796084133,0.10681874837241011,1.1154850875874465,0.5674346079907747,0.4077329368454506,-3.1337647067598513,64.4
,,0.060612654608763736,0.04355352198403797,0.0026525717796084133,0.10681874837241011,1.1110886743241817,0.5674346079907747,0.4077329368454506,-3.1337647067598513,64.5
,,0.05916575027137945,0.03994496658592884,0.003175029858050975,0.10228574671535927,1.106834694728465,0.5784359226122274,0.3905232925276253,-3.2202526075504507,64.6
,,0.05916575027137945,0.03994496658592884,0.003175029858050975,0.10228574671535927,1.1025807151327485,0.5784359226122274,0.3905232925276253,-3.2202526075504507,64.7
,,0.05916575027137945,0.03994496658592884,0.003175029858050975,0.10228574671535927,1.0991694166377588,0.5784359226122274,0.3905232925276253,-3.2202526075504507,64.8
,,0.05916575027137945,0.03994496658592884,0.003175029858050975,0.10228574671535927,1.095758118142769,0.5784359226122274,0.3905232925276253,-3.2202526075504507,64.9
,,0.03490898036232113,0.04148968756506244,0.006760714900622294,0.08315938282800586,1.085238016422633,0.41978402406522813,0.49891769460186297,-3.1823103750329724,65.0
,,0.03490898036232113,0.04148968756506244,0.006760714900622294,0.08315938282800586,1.0747179147024972,0.41978402406522813,0.49891769460186297,-3.1823103750329724,65.1
,,0.05792364638530434,0.035977821507554845,0.003004027772903753,0.09690549566576294,1.0821139225193739,0.5977333482209201,0.37126709130765984,-3.324852599609243,65.2
,,0.05792364638530434,0.035977821507554845,0.003004027772903753,0.09690549566576294,1.0895099303362505,0.5977333482209201,0.37126709130765984,-3.324852599609243,65.3
,,0.05792364638530434,0.035977821507554845,0.003004027772903753,0.09690549566576294,1.0969381207179278,0.5977333482209201,0.37126709130765984,-3.324852599609243,65.4
,,0.05792364638530434,0.035977821507554845,0.003004027772903753,0.09690549566576294,1.1043663110996056,0.5977333482209201,0.37126709130765984,-3.324852599609243,65.5
,,0.05792326163779162,0.03518454522927361,0.0023468013136910865,0.09545460818075632,1.1121977011762973,0.6068147231625112,0.3685997554214132,-3.347148348777932,65.6
,,0.05792326163779162,0.03518454522927361,0.0023468013136910865,0.09545460818075632,1.1200290912529893,0.6068147231625112,0.3685997554214132,-3.347148348777932,65.7
,,0.05792326163779162,0.03518454522927361,0.0023468013136910865,0.09545460818075632,1.1278604813296813,0.6068147231625112,0.3685997554214132,-3.347148348777932,65.8
,,0.039367346466438,0.04786246529917149,0.008841433825617232,0.09607124559122672,1.1302738268363361,0.4097724165453419,0.49819761370453514,-3.039423687189768,65.9
,,0.039367346466438,0.04786246529917149,0.008841433825617232,0.09607124559122672,1.1326871723429908,0.4097724165453419,0.49819761370453514,-3.039423687189768,66.0
,,0.039367346466438,0.04786246529917149,0.008841433825617232,0.09607124559122672,1.1316273885148382,0.4097724165453419,0.49819761370453514,-3.039423687189768,66.1
,,0.057198580283566836,0.03227781436541138,0.0023256912485436106,0.09180208589752183,1.1411182852724693,0.6230640592133964,0.3516021890988722,-3.4333751465031006,66.2
,,0.057198580283566836,0.03227781436541138,0.0023256912485436106,0.09180208589752183,1.1506091820301003,0.6230640592133964,0.3516021890988722,-3.4333751465031006,66.3
,,0.057198580283566836,0.03227781436541138,0.0023256912485436106,0.09180208589752183,1.1601000787877314,0.6230640592133964,0.3516021890988722,-3.4333751465031006,66.4
,,0.05654508780041287,0.030414928320241827,0.0027862524253069692,0.08974626854596167,1.170558217651927,0.6300550286550854,0.33889908531033197,-3.49282172793617,66.5
,,0.05654508780041287,0.030414928320241827,0.0027862524253069692,0.08974626854596167,1.1714068356351808,0.6300550286550854,0.33889908531033197,-3.49282172793617,66.6
,,0.05654508780041287,0.030414928320241827,0.0027862524253069692,0.08974626854596167,1.1722554536184349,0.6300550286550854,0.33889908531033197,-3.49282172793617,66.7
,,0.05654508780041287,0.030414928320241827,0.0027862524253069692,0.08974626854596167,1.1828801556936468,0.6300550286550854,0.33889908531033197,-3.49282172793617,66.8
,,0.05681447472538347,0.030176009358483146,0.0022848881981739418,0.08927537228204056,1.1937676001989985,0.6363958309341353,0.3380104567153244,-3.5007080624011295,66.9
,,0.05681447472538347,0.030176009358483146,0.0022848881981739418,0.08927537228204056,1.2046550447043503,0.6363958309341353,0.3380104567153244,-3.5007080624011295,67.0
,,0.05681447472538347,0.030176009358483146,0.0022848881981739418,0.08927537228204056,1.2155424892097018,0.6363958309341353,0.3380104567153244,-3.5007080624011295,67.1
,,0.05641639146998638,0.028935666388136157,0.0027686499682875202,0.08812070782641006,1.2271738049349077,0.6402171846045727,0.32836398052018423,-3.5426803137001524,67.2
,,0.05641639146998638,0.028935666388136157,0.0027686499682875202,0.08812070782641006,1.238888029319834,0.6402171846045727,0.32836398052018423,-3.5426803137001524,67.3
,,0.05641639146998638,0.028935666388136157,0.0027686499682875202,0.08812070782641006,1.2505809686857814,0.6402171846045727,0.32836398052018423,-3.5426803137001524,67.4
,,0.05689349732464676,0.02905390365845617,0.002245075280048924,0.08819247626315187,1.2623682065344153,0.6451060196437381,0.32943744057899105,-3.5386024274846206,67.5
,,0.05689349732464676,0.02905390365845617,0.002245075280048924,0.08819247626315187,1.2741554443830496,0.6451060196437381,0.32943744057899105,-3.5386024274846206,67.6
,,0.05689349732464676,0.02905390365845617,0.002245075280048924,0.08819247626315187,1.2859426822316837,0.6451060196437381,0.32943744057899105,-3.5386024274846206,67.7
,,0.05689349732464676,0.02905390365845617,0.002245075280048924,0.08819247626315187,1.2977299200803178,0.6451060196437381,0.32943744057899105,-3.5386024274846206,67.8
,,0.056738202911826206,0.02843913189234884,0.002749225541258573,0.08792656034543363,1.3099268261179182,0.6452908278104028,0.3234418790024441,-3.559989198691983,67.9
,,0.056738202911826206,0.02843913189234884,0.002749225541258573,0.08792656034543363,1.3220963367778955,0.6452908278104028,0.3234418790024441,-3.559989198691983,68.0
,,0.05741560749379941,0.02896547075653732,0.0022312138414836563,0.08861229209182038,1.3278948020813282,0.647941793834936,0.3268786990243204,-3.5416508219663703,68.1
,,0.05741560749379941,0.02896547075653732,0.0022312138414836563,0.08861229209182038,1.3336932673847608,0.647941793834936,0.3268786990243204,-3.5416508219663703,68.2
,,0.05741560749379941,0.02896547075653732,0.0022312138414836563,0.08861229209182038,1.3394917326881937,0.647941793834936,0.3268786990243204,-3.5416508219663703,68.3
,,0.05741560749379941,0.02896547075653732,0.0022312138414836563,0.08861229209182038,1.3452901979916265,0.647941793834936,0.3268786990243204,-3.5416508219663703,68.4
,,0.05741560749379941,0.02896547075653732,0.0022312138414836563,0.08861229209182038,1.3510886632950592,0.647941793834936,0.3268786990243204,-3.5416508219663703,68.5
,,0.05749417061573416,0.02897024556921667,0.0027586669662360594,0.08922308315118689,1.3569136302903135,0.6443867280209465,0.32469451341562716,-3.54148599056381,68.6
,,0.058470905873258525,0.02994223074361816,0.002218604348215873,0.09063174096509256,1.3684134495715239,0.6451482146390523,0.33037245477994975,-3.5084853956312982,68.7
,,0.058470905873258525,0.02994223074361816,0.002218604348215873,0.09063174096509256,1.382463894512899,0.6451482146390523,0.33037245477994975,-3.5084853956312982,68.8
,,0.058470905873258525,0.02994223074361816,0.002218604348215873,0.09063174096509256,1.3965143394542743,0.6451482146390523,0.33037245477994975,-3.5084853956312982,68.9
,,0.058470905873258525,0.02994223074361816,0.002218604348215873,0.09063174096509256,1.4105647843956495,0.6451482146390523,0.33037245477994975,-3.5084853956312982,69.0
,,0.058470905873258525,0.02994223074361816,0.002218604348215873,0.09063174096509256,1.4246152293370244,0.6451482146390523,0.33037245477994975,-3.5084853956312982,69.1
,,0.058470905873258525,0.02994223074361816,0.002218604348215873,0.09063174096509256,1.4386656742783994,0.6451482146390523,0.33037245477994975,-3.5084853956312982,69.2
,,0.03240099136327389,0.06631592835892343,0.004645696984495368,0.10336261670669268,1.4364471723683816,0.3134691477017913,0.6415852314101632,-2.713325163904021,69.3
,,0.03240099136327389,0.06631592835892343,0.004645696984495368,0.10336261670669268,1.4313341335150764,0.3134691477017913,0.6415852314101632,-2.713325163904021,69.4
,,0.03240099136327389,0.06631592835892343,0.004645696984495368,0.10336261670669268,1.4224731315630297,0.3134691477017913,0.6415852314101632,-2.713325163904021,69.5
,,0.03240099136327389,0.06631592835892343,0.004645696984495368,0.10336261670669268,1.4136121296109825,0.3134691477017913,0.6415852314101632,-2.713325163904021,69.6
,,0.03240099136327389,0.06631592835892343,0.004645696984495368,0.10336261670669268,1.4047511276589357,0.3134691477017913,0.6415852314101632,-2.713325163904021,69.7
,,0.03240099136327389,0.06631592835892343,0.004645696984495368,0.10336261670669268,1.395890125706889,0.3134691477017913,0.6415852314101632,-2.713325163904021,69.8
,,0.03240099136327389,0.06631592835892343,0.004645696984495368,0.10336261670669268,1.387029123754842,0.3134691477017913,0.6415852314101632,-2.713325163904021,69.9
,,0.05986101268785428,0.03274331374094513,0.0016336278874772186,0.09423795431627661,1.3930526225947317,0.6352112916941278,0.3474535708940974,-3.419056498326313,70.0
,,0.04010517366168537,0.06665661132471458,0.003907746078424916,0.11066953106482486,1.3854480984225264,0.36238676784664153,0.6023031875473509,-2.708201042607499,70.1
,,0.04010517366168537,0.06665661132471458,0.003907746078424916,0.11066953106482486,1.3809017854201526,0.36238676784664153,0.6023031875473509,-2.708201042607499,70.2
,,0.04010517366168537,0.06665661132471458,0.003907746078424916,0.11066953106482486,1.376355472417779,0.36238676784664153,0.6023031875473509,-2.708201042607499,70.3
,,0.04010517366168537,0.06665661132471458,0.003907746078424916,0.11066953106482486,1.3718091594154052,0.36238676784664153,0.6023031875473509,-2.708201042607499,70.4
,,0.04010517366168537,0.06665661132471458,0.003907746078424916,0.11066953106482486,1.3672628464130314,0.36238676784664153,0.6023031875473509,-2.708201042607499,70.5
,,0.05981761537144277,0.03497427048818569,0.0016203833716292105,0.09641226923125767,1.375035018797141,0.620435716827308,0.3627574661093729,-3.353142616741458,70.6
,,0.05981761537144277,0.03497427048818569,0.0016203833716292105,0.09641226923125767,1.3828071911812505,0.620435716827308,0.3627574661093729,-3.353142616741458,70.7
,,0.05970058124837601,0.03645337315331943,0.0022354301460643165,0.09838938454775975,1.3895856674079827,0.6067786837247306,0.37050107916494174,-3.3117212828800078,70.8
,,0.05970058124837601,0.03645337315331943,0.0022354301460643165,0.09838938454775975,1.3958096221026688,0.6067786837247306,0.37050107916494174,-3.3117212828800078,70.9
,,0.05970058124837601,0.03645337315331943,0.0022354301460643165,0.09838938454775975,1.4020335767973546,0.6067786837247306,0.37050107916494174,-3.3117212828800078,71.0
,,0.05970058124837601,0.03645337315331943,0.0022354301460643165,0.09838938454775975,1.4082575314920405,0.6067786837247306,0.37050107916494174,-3.3117212828800078,71.1
,,0.05970058124837601,0.03645337315331943,0.0022354301460643165,0.09838938454775975,1.4144814861867263,0.6067786837247306,0.37050107916494174,-3.3117212828800078,71.2
,,0.05966915027062785,0.03762954567355469,0.0015697699652615306,0.09886846590944408,1.4201273852130332,0.603520543398339,0.38060209923779403,-3.2799657479666924,71.3
,,0.05966915027062785,0.03762954567355469,0.0015697699652615306,0.09886846590944408,1.42577328423934,0.603520543398339,0.38060209923779403,-3.2799657479666924,71.4
,,0.05975538036832336,0.03936442384931684,0.002161094353637013,0.10128089857127721,1.4297853478589675,0.5899965463504458,0.38866582351275075,-3.2348928185682264,71.5
,,0.05975538036832336,0.03936442384931684,0.002161094353637013,0.10128089857127721,1.4337974114785952,0.5899965463504458,0.38866582351275075,-3.2348928185682264,71.6
,,0.05975538036832336,0.03936442384931684,0.002161094353637013,0.10128089857127721,1.4378094750982229,0.5899965463504458,0.38866582351275075,-3.2348928185682264,71.7
,,0.05975538036832336,0.03936442384931684,0.002161094353637013,0.10128089857127721,1.4418215387178501,0.5899965463504458,0.38866582351275075,-3.2348928185682264,71.8
