HRV_ULF,HRV_VLF,HRV_LF,HRV_HF,HRV_VHF,HRV_TP,HRV_LFHF,HRV_LFn,HRV_HFn,HRV_LnHF,time
,,0.03136527669290035,0.022690009996314073,0.0005497882915208285,0.05460507498073526,1.3823386017897548,0.5744022273381377,0.41552932587894326,-3.7858305396301457,0.0
,,0.041995917035000725,0.036121323958747995,0.0010505914762958509,0.07916783247004458,1.2724868224087862,0.5304669298719412,0.45626263637337217,-3.320871896654723,0.1
,,0.041995917035000725,0.036121323958747995,0.0010505914762958509,0.07916783247004458,1.2358695626151301,0.5304669298719412,0.45626263637337217,-3.320871896654723,0.2
,,0.041995917035000725,0.036121323958747995,0.0010505914762958509,0.07916783247004458,1.2175609327183021,0.5304669298719412,0.45626263637337217,-3.320871896654723,0.3
,,0.041995917035000725,0.036121323958747995,0.0010505914762958509,0.07916783247004458,1.2065757547802052,0.5304669298719412,0.45626263637337217,-3.320871896654723,0.4
,,0.041995917035000725,0.036121323958747995,0.0010505914762958509,0.07916783247004458,1.1992523028214739,0.5304669298719412,0.45626263637337217,-3.320871896654723,0.5
,,0.041995917035000725,0.036121323958747995,0.0010505914762958509,0.07916783247004458,1.1940212657080946,0.5304669298719412,0.45626263637337217,-3.320871896654723,0.6
,,0.041995917035000725,0.036121323958747995,0.0010505914762958509,0.07916783247004458,1.19009798787306,0.5304669298719412,0.45626263637337217,-3.320871896654723,0.7
,,0.04594090414412,0.03803536481014974,0.0010968761370024514,0.08507314509127219,1.1920701086988952,0.5400165245428685,0.447090145419484,-3.269238899145986,0.8
,,0.029887560816127316,0.031239001234536566,0.0008390605625235362,0.06196562261318742,1.1685369658625484,0.48232486910841904,0.5041343880225668,-3.4660879252471886,0.9
,,0.029887560816127316,0.031239001234536566,0.0008390605625235362,0.06196562261318742,1.1492825762691739,0.48232486910841904,0.5041343880225668,-3.4660879252471886,1.0
,,0.029887560816127316,0.031239001234536566,0.0008390605625235362,0.06196562261318742,1.1332372516080282,0.48232486910841904,0.5041343880225668,-3.4660879252471886,1.1
,,0.029887560816127316,0.031239001234536566,0.0008390605625235362,0.06196562261318742,1.1196604384332127,0.48232486910841904,0.5041343880225668,-3.4660879252471886,1.2
,,0.029887560816127316,0.031239001234536566,0.0008390605625235362,0.06196562261318742,1.1080231699976568,0.48232486910841904,0.5041343880225668,-3.4660879252471886,1.3
,,0.029887560816127316,0.031239001234536566,0.0008390605625235362,0.06196562261318742,1.0979375373535083,0.48232486910841904,0.5041343880225668,-3.4660879252471886,1.4
,,0.05069648253657189,0.033486083838942304,0.0007365236257717312,0.08491909000128592,1.1239387379153476,0.5969974776673208,0.39432928259635414,-3.396625334249603,1.5
,,0.05069648253657189,0.033486083838942304,0.0007365236257717312,0.08491909000128592,1.1468809737052057,0.5969974776673208,0.39432928259635414,-3.396625334249603,1.6
,,0.05069648253657189,0.033486083838942304,0.0007365236257717312,0.08491909000128592,1.1672740721850796,0.5969974776673208,0.39432928259635414,-3.396625334249603,1.7
,,0.04959676063268093,0.039099538153824685,0.0011609123145161634,0.08985721110102178,1.1726004017721898,0.5519508120157645,0.43512966488429194,-3.2416446239832206,1.8
,,0.04959676063268093,0.039099538153824685,0.0011609123145161634,0.08985721110102178,1.177394098400589,0.5519508120157645,0.43512966488429194,-3.2416446239832206,1.9
,,0.04959676063268093,0.039099538153824685,0.0011609123145161634,0.08985721110102178,1.18173125249295,0.5519508120157645,0.43512966488429194,-3.2416446239832206,2.0
,,0.04959676063268093,0.039099538153824685,0.0011609123145161634,0.08985721110102178,1.1856741198496419,0.5519508120157645,0.43512966488429194,-3.2416446239832206,2.1
,,0.04959676063268093,0.039099538153824685,0.0011609123145161634,0.08985721110102178,1.189274129175317,0.5519508120157645,0.43512966488429194,-3.2416446239832206,2.2
,,0.051617643933222775,0.039812541427114045,0.0009713795952932264,0.09240156495563004,1.193742589619551,0.5586230488413141,0.430864363024928,-3.2235733050948414,2.3
,,0.051617643933222775,0.039812541427114045,0.0009713795952932264,0.09240156495563004,1.197853573228246,0.5586230488413141,0.430864363024928,-3.2235733050948414,2.4
,,0.051617643933222775,0.039812541427114045,0.0009713795952932264,0.09240156495563004,1.2016483273285798,0.5586230488413141,0.430864363024928,-3.2235733050948414,2.5
,,0.051617643933222775,0.039812541427114045,0.0009713795952932264,0.09240156495563004,1.2051619885325928,0.5586230488413141,0.430864363024928,-3.2235733050948414,2.6
,,0.05179461808895977,0.03888706658892875,0.0011775869872742407,0.09185927166516276,1.2096892039713725,0.5638474717909467,0.42333306027807865,-3.247093562074653,2.7
,,0.05179461808895977,0.03888706658892875,0.0011775869872742407,0.09185927166516276,1.2139041976557536,0.5638474717909467,0.42333306027807865,-3.247093562074653,2.8
,,0.05179461808895977,0.03888706658892875,0.0011775869872742407,0.09185927166516276,1.2178381917611758,0.5638474717909467,0.42333306027807865,-3.247093562074653,2.9
,,0.05435910997333721,0.03982600573012585,0.0009721789204229293,0.09515729462388599,1.2225826027936206,0.5712553114103794,0.41852814214128464,-3.223235169766644,3.0
,,0.05435910997333721,0.03982600573012585,0.0009721789204229293,0.09515729462388599,1.2270304881365373,0.5712553114103794,0.41852814214128464,-3.223235169766644,3.1
,,0.05435910997333721,0.03982600573012585,0.0009721789204229293,0.09515729462388599,1.2312088046707925,0.5712553114103794,0.41852814214128464,-3.223235169766644,3.2
,,0.05435910997333721,0.03982600573012585,0.0009721789204229293,0.09515729462388599,1.235141337879503,0.5712553114103794,0.41852814214128464,-3.223235169766644,3.3
,,0.05435910997333721,0.03982600573012585,0.0009721789204229293,0.09515729462388599,1.238849154904859,0.5712553114103794,0.41852814214128464,-3.223235169766644,3.4
,,0.05435910997333721,0.03982600573012585,0.0009721789204229293,0.09515729462388599,1.2423509820954728,0.5712553114103794,0.41852814214128464,-3.223235169766644,3.5
,,0.05455169980703607,0.03909716190393979,0.0012072555707616723,0.09485611728173754,1.2464843451708478,0.5750994387110424,0.4121733318243998,-3.2417054002022647,3.6
,,0.05455169980703607,0.03909716190393979,0.0012072555707616723,0.09485611728173754,1.2504001628212027,0.5750994387110424,0.4121733318243998,-3.2417054002022647,3.7
,,0.057227702164687505,0.04005981766136911,0.0009981151249385727,0.09828563495099518,1.2549682671538434,0.5822590675964092,0.4075856831096708,-3.2173815003931385,3.8
,,0.057227702164687505,0.04005981766136911,0.0009981151249385727,0.09828563495099518,1.2593079662698519,0.5822590675964092,0.4075856831096708,-3.2173815003931385,3.9
,,0.057227702164687505,0.04005981766136911,0.0009981151249385727,0.09828563495099518,1.2634359727460551,0.5822590675964092,0.4075856831096708,-3.2173815003931385,4.0
,,0.057227702164687505,0.04005981766136911,0.0009981151249385727,0.09828563495099518,1.2673674074852963,0.5822590675964092,0.4075856831096708,-3.2173815003931385,4.1
,,0.057227702164687505,0.04005981766136911,0.0009981151249385727,0.09828563495099518,1.2711159847948053,0.5822590675964092,0.4075856831096708,-3.2173815003931385,4.2
,,0.057227702164687505,0.04005981766136911,0.0009981151249385727,0.09828563495099518,1.2746941722266092,0.5822590675964092,0.4075856831096708,-3.2173815003931385,4.3
,,0.0571610664557753,0.03945759579463405,0.0012432923874628034,0.09786195463787216,1.2785603192794892,0.5840989653976747,0.4031964816219206,-3.2325287079013583,4.4
,,0.0571610664557753,0.03945759579463405,0.0012432923874628034,0.09786195463787216,1.282258372982244,0.5840989653976747,0.4031964816219206,-3.2325287079013583,4.5
,,0.059794619165954715,0.04045038883863131,0.0010224806640149312,0.10126748866860096,1.2864277931696808,0.5904621508057073,0.39944101873608895,-3.207679022702299,4.6
,,0.059794619165954715,0.04045038883863131,0.0010224806640149312,0.10126748866860096,1.2904234875159741,0.5904621508057073,0.39944101873608895,-3.207679022702299,4.7
,,0.059794619165954715,0.04045038883863131,0.0010224806640149312,0.10126748866860096,1.294256092297113,0.5904621508057073,0.39944101873608895,-3.207679022702299,4.8
,,0.059794619165954715,0.04045038883863131,0.0010224806640149312,0.10126748866860096,1.297935392887006,0.5904621508057073,0.39944101873608895,-3.207679022702299,4.9
,,0.059794619165954715,0.04045038883863131,0.0010224806640149312,0.10126748866860096,1.3014704071792562,0.5904621508057073,0.39944101873608895,-3.207679022702299,5.0
,,0.059794619165954715,0.04045038883863131,0.0010224806640149312,0.10126748866860096,1.3048694593833428,0.5904621508057073,0.39944101873608895,-3.207679022702299,5.1
,,0.05979690478858982,0.04045212387880641,0.001022533838738596,0.10127156250613484,1.3081401152635017,0.5904609676084285,0.3994420830265742,-3.2076361305814713,5.2
,,0.05932539826780941,0.03992448145758536,0.0013110343065331942,0.10056091403192796,1.3114327123501757,0.5899448989591888,0.3970178855465593,-3.220765572878107,5.3
,,0.061774111674313424,0.04083740458122668,0.0011409483274753638,0.10375246458301547,1.315091836983715,0.5953989808587737,0.3936041880581202,-3.1981568386055406,5.4
,,0.061774111674313424,0.04083740458122668,0.0011409483274753638,0.10375246458301547,1.318620278594628,0.5953989808587737,0.3936041880581202,-3.1981568386055406,5.5
,,0.061774111674313424,0.04083740458122668,0.0011409483274753638,0.10375246458301547,1.322024915236737,0.5953989808587737,0.3936041880581202,-3.1981568386055406,5.6
,,0.061774111674313424,0.04083740458122668,0.0011409483274753638,0.10375246458301547,1.325312150615325,0.5953989808587737,0.3936041880581202,-3.1981568386055406,5.7
,,0.061774111674313424,0.04083740458122668,0.0011409483274753638,0.10375246458301547,1.328487954286164,0.5953989808587737,0.3936041880581202,-3.1981568386055406,5.8
,,0.061774111674313424,0.04083740458122668,0.0011409483274753638,0.10375246458301547,1.331557897834642,0.5953989808587737,0.3936041880581202,-3.1981568386055406,5.9
,,0.06106244991042879,0.04054243243514679,0.001373254757202206,0.10297813710277778,1.3344198472357989,0.5929651829833078,0.39369941597101565,-3.2054061388912976,6.0
,,0.06307528970793375,0.04145845763999166,0.0012055469637968247,0.10573929431172223,1.3374358087543428,0.5965170291565038,0.3920818453523156,-3.183063373824427,6.1
,,0.06307528970793375,0.04145845763999166,0.0012055469637968247,0.10573929431172223,1.3403560254627738,0.5965170291565038,0.3920818453523156,-3.183063373824427,6.2
,,0.06307528970793375,0.04145845763999166,0.0012055469637968247,0.10573929431172223,1.3431849853990667,0.5965170291565038,0.3920818453523156,-3.183063373824427,6.3
,,0.06307528970793375,0.04145845763999166,0.0012055469637968247,0.10573929431172223,1.345926900414243,0.5965170291565038,0.3920818453523156,-3.183063373824427,6.4
,,0.06307528970793375,0.04145845763999166,0.0012055469637968247,0.10573929431172223,1.3485857270956256,0.5965170291565038,0.3920818453523156,-3.183063373824427,6.5
,,0.06307528970793375,0.04145845763999166,0.0012055469637968247,0.10573929431172223,1.3511651858163702,0.5965170291565038,0.3920818453523156,-3.183063373824427,6.6
,,0.06307528970793375,0.04145845763999166,0.0012055469637968247,0.10573929431172223,1.3536687781041516,0.5965170291565038,0.3920818453523156,-3.183063373824427,6.7
,,0.06381489687294001,0.0423419460124722,0.0012303927911856485,0.10738723567659786,1.3558928810905237,0.5942502986586025,0.3942921683912894,-3.1619770527711033,6.8
,,0.06504964401791567,0.040241975363715994,0.001988762946739778,0.10728038232837145,1.3596153041881758,0.6063517169318718,0.3751102903468454,-3.2128446648399396,6.9
,,0.06362465443183592,0.042336930255341444,0.0012669200575739343,0.1072285047447513,1.3616322281227466,0.5933557926904717,0.39482906486592395,-3.162095518139509,7.0
,,0.06362465443183592,0.042336930255341444,0.0012669200575739343,0.1072285047447513,1.3635931263924685,0.5933557926904717,0.39482906486592395,-3.162095518139509,7.1
,,0.06362465443183592,0.042336930255341444,0.0012669200575739343,0.1072285047447513,1.3655003014219238,0.5933557926904717,0.39482906486592395,-3.162095518139509,7.2
,,0.06362465443183592,0.042336930255341444,0.0012669200575739343,0.1072285047447513,1.3673559311803127,0.5933557926904717,0.39482906486592395,-3.162095518139509,7.3
,,0.06362465443183592,0.042336930255341444,0.0012669200575739343,0.1072285047447513,1.369162077478478,0.5933557926904717,0.39482906486592395,-3.162095518139509,7.4
,,0.06362465443183592,0.042336930255341444,0.0012669200575739343,0.1072285047447513,1.3709206936109022,0.5933557926904717,0.39482906486592395,-3.162095518139509,7.5
,,0.06496585271240912,0.041002824046406025,0.0021253096555302153,0.10809398641434537,1.3736934619947656,0.6010126452676314,0.37932567209829965,-3.1941143354692563,7.6
,,0.06496585271240912,0.041002824046406025,0.0021253096555302153,0.10809398641434537,1.3763951337534017,0.6010126452676314,0.37932567209829965,-3.1941143354692563,7.7
,,0.0557746034282037,0.05041709114091538,0.0015824522480078404,0.10777414681712692,1.3729757499319064,0.517513755157283,0.467803203549957,-2.987425051450797,7.8
,,0.0557746034282037,0.05041709114091538,0.0015824522480078404,0.10777414681712692,1.3696418507059485,0.517513755157283,0.467803203549957,-2.987425051450797,7.9
,,0.0557746034282037,0.05041709114091538,0.0015824522480078404,0.10777414681712692,1.366390269979397,0.517513755157283,0.467803203549957,-2.987425051450797,8.0
,,0.0557746034282037,0.05041709114091538,0.0015824522480078404,0.10777414681712692,1.3632179960998347,0.517513755157283,0.467803203549957,-2.987425051450797,8.1
,,0.0557746034282037,0.05041709114091538,0.0015824522480078404,0.10777414681712692,1.3601221625547195,0.517513755157283,0.467803203549957,-2.987425051450797,8.2
,,0.0557746034282037,0.05041709114091538,0.0015824522480078404,0.10777414681712692,1.3571000393321069,0.517513755157283,0.467803203549957,-2.987425051450797,8.3
,,0.0555215802020336,0.04872668094977403,0.0028644555475529523,0.10711271669936058,1.3545394418440708,0.5183472318965563,0.45491032672187753,-3.0215285354709263,8.4
,,0.0555215802020336,0.04872668094977403,0.0028644555475529523,0.10711271669936058,1.3520383931348263,0.5183472318965563,0.45491032672187753,-3.0215285354709263,8.5
,,0.06176464432230883,0.04535364141394232,0.0014813601010844556,0.10859964583733561,1.3521511164366316,0.5687370695004116,0.4176223694308783,-3.093264809857484,8.6
,,0.06176464432230883,0.04535364141394232,0.0014813601010844556,0.10859964583733561,1.3522612778452139,0.5687370695004116,0.4176223694308783,-3.093264809857484,8.7
,,0.06176464432230883,0.04535364141394232,0.0014813601010844556,0.10859964583733561,1.3523689637165248,0.5687370695004116,0.4176223694308783,-3.093264809857484,8.8
,,0.06176464432230883,0.04535364141394232,0.0014813601010844556,0.10859964583733561,1.3524742565684733,0.5687370695004116,0.4176223694308783,-3.093264809857484,8.9
,,0.06176464432230883,0.04535364141394232,0.0014813601010844556,0.10859964583733561,1.3522465534418302,0.5687370695004116,0.4176223694308783,-3.093264809857484,9.0
,,0.06176464432230883,0.04535364141394232,0.0014813601010844556,0.10859964583733561,1.3544600009680976,0.5687370695004116,0.4176223694308783,-3.093264809857484,9.1
,,0.06180799145170912,0.04620149025161979,0.0011510722805326472,0.10916055398386156,1.3564061911597498,0.5662117788523399,0.4232434571415814,-3.0747432248861077,9.2
,,0.06180799145170912,0.04620149025161979,0.0011510722805326472,0.10916055398386156,1.358352381351402,0.5662117788523399,0.4232434571415814,-3.0747432248861077,9.3
,,0.06180799145170912,0.04620149025161979,0.0011510722805326472,0.10916055398386156,1.3602985715430542,0.5662117788523399,0.4232434571415814,-3.0747432248861077,9.4
,,0.059710285524703734,0.04733272336459302,0.0016169507610528924,0.10865995965034965,1.3613970839759955,0.5495150717600289,0.43560409480090134,-3.0505533967955474,9.5
,,0.059710285524703734,0.04733272336459302,0.0016169507610528924,0.10865995965034965,1.3624955964089362,0.5495150717600289,0.43560409480090134,-3.0505533967955474,9.6
,,0.059710285524703734,0.04733272336459302,0.0016169507610528924,0.10865995965034965,1.3635941088418773,0.5495150717600289,0.43560409480090134,-3.0505533967955474,9.7
,,0.059710285524703734,0.04733272336459302,0.0016169507610528924,0.10865995965034965,1.3641902653606208,0.5495150717600289,0.43560409480090134,-3.0505533967955474,9.8
,,0.059710285524703734,0.04733272336459302,0.0016169507610528924,0.10865995965034965,1.3675765151568104,0.5495150717600289,0.43560409480090134,-3.0505533967955474,9.9
,,0.05939719059715959,0.048312628562945145,0.0012556483316801775,0.10896546749178491,1.3706064637079198,0.5451010486568842,0.4433755911393443,-3.030062291568021,10.0
,,0.05939719059715959,0.048312628562945145,0.0012556483316801775,0.10896546749178491,1.373636412259029,0.5451010486568842,0.4433755911393443,-3.030062291568021,10.1
,,0.04811263831495188,0.06526346197974861,0.0020771915234639483,0.11545329181816444,1.3711971640966056,0.41672816389443346,0.565280218103583,-2.729322940193234,10.2
,,0.04811263831495188,0.06526346197974861,0.0020771915234639483,0.11545329181816444,1.368757915934182,0.41672816389443346,0.565280218103583,-2.729322940193234,10.3
,,0.04811263831495188,0.06526346197974861,0.0020771915234639483,0.11545329181816444,1.366318667771759,0.41672816389443346,0.565280218103583,-2.729322940193234,10.4
,,0.04811263831495188,0.06526346197974861,0.0020771915234639483,0.11545329181816444,1.3576881077648075,0.41672816389443346,0.565280218103583,-2.729322940193234,10.5
,,0.04811263831495188,0.06526346197974861,0.0020771915234639483,0.11545329181816444,1.3490575477578564,0.41672816389443346,0.565280218103583,-2.729322940193234,10.6
,,0.05700331181928136,0.048463419409143026,0.0027709027088091962,0.10823763393723358,1.3453048412731174,0.5266496480543659,0.44775017381890203,-3.0269460046067698,10.7
,,0.05700331181928136,0.048463419409143026,0.0027709027088091962,0.10823763393723358,1.3442797171439647,0.5266496480543659,0.44775017381890203,-3.0269460046067698,10.8
,,0.05700331181928136,0.048463419409143026,0.0027709027088091962,0.10823763393723358,1.343254593014812,0.5266496480543659,0.44775017381890203,-3.0269460046067698,10.9
,,0.05486221234360823,0.05235357275428964,0.0018222564831954873,0.10903804158109336,1.340803958819763,0.5031474478822725,0.4801404353484599,-2.9497350965389533,11.0
,,0.05486221234360823,0.05235357275428964,0.0018222564831954873,0.10903804158109336,1.338353324624714,0.5031474478822725,0.4801404353484599,-2.9497350965389533,11.1
,,0.05486221234360823,0.05235357275428964,0.0018222564831954873,0.10903804158109336,1.3359026904296647,0.5031474478822725,0.4801404353484599,-2.9497350965389533,11.2
,,0.05486221234360823,0.05235357275428964,0.0018222564831954873,0.10903804158109336,1.3331404690624293,0.5031474478822725,0.4801404353484599,-2.9497350965389533,11.3
,,0.05486221234360823,0.05235357275428964,0.0018222564831954873,0.10903804158109336,1.330378247695194,0.5031474478822725,0.4801404353484599,-2.9497350965389533,11.4
,,0.05476621726142633,0.051365472074255715,0.002807334322983334,0.10893902365866537,1.3278192438318426,0.5027235918051121,0.47150663140875265,-2.9687890817739233,11.5
,,0.05476621726142633,0.051365472074255715,0.002807334322983334,0.10893902365866537,1.3252602399684912,0.5027235918051121,0.47150663140875265,-2.9687890817739233,11.6
,,0.0527984732656327,0.05480187158058584,0.0016984463465552116,0.10929879119277375,1.3211660051274092,0.4830654821471022,0.5013950381567354,-2.904030932680967,11.7
,,0.042766831217263004,0.07018129423867053,0.002039627015748264,0.1149877524716818,1.3131376993039074,0.3719250989603893,0.6103371248686175,-2.6566734672947696,11.8
,,0.042766831217263004,0.07018129423867053,0.002039627015748264,0.1149877524716818,1.3051093934804059,0.3719250989603893,0.6103371248686175,-2.6566734672947696,11.9
,,0.042766831217263004,0.07018129423867053,0.002039627015748264,0.1149877524716818,1.2967145219574763,0.3719250989603893,0.6103371248686175,-2.6566734672947696,12.0
,,0.042766831217263004,0.07018129423867053,0.002039627015748264,0.1149877524716818,1.2883196504345462,0.3719250989603893,0.6103371248686175,-2.6566734672947696,12.1
,,0.042766831217263004,0.07018129423867053,0.002039627015748264,0.1149877524716818,1.2799247789116166,0.3719250989603893,0.6103371248686175,-2.6566734672947696,12.2
,,0.042766831217263004,0.07018129423867053,0.002039627015748264,0.1149877524716818,1.2715299073886868,0.3719250989603893,0.6103371248686175,-2.6566734672947696,12.3
,,0.04582665815609236,0.06978832589007006,0.003046035291614673,0.11866101933777709,1.2636603215257767,0.38619808267147526,0.588131858967203,-2.66228853406039,12.4
,,0.04582665815609236,0.06978832589007006,0.003046035291614673,0.11866101933777709,1.2557907356628666,0.38619808267147526,0.588131858967203,-2.66228853406039,12.5
,,0.051118234338799445,0.05678992110734259,0.0017225289748372403,0.10963068442097929,1.2502889936864365,0.4662767053656859,0.5180111882661483,-2.8683964142935743,12.6
,,0.051118234338799445,0.05678992110734259,0.0017225289748372403,0.10963068442097929,1.2447872517100063,0.4662767053656859,0.5180111882661483,-2.8683964142935743,12.7
,,0.051118234338799445,0.05678992110734259,0.0017225289748372403,0.10963068442097929,1.2389158340012445,0.4662767053656859,0.5180111882661483,-2.8683964142935743,12.8
,,0.051118234338799445,0.05678992110734259,0.0017225289748372403,0.10963068442097929,1.233044416292483,0.4662767053656859,0.5180111882661483,-2.8683964142935743,12.9
,,0.051118234338799445,0.05678992110734259,0.0017225289748372403,0.10963068442097929,1.2271729985837212,0.4662767053656859,0.5180111882661483,-2.8683964142935743,13.0
,,0.051118234338799445,0.05678992110734259,0.0017225289748372403,0.10963068442097929,1.2213015808749594,0.4662767053656859,0.5180111882661483,-2.8683964142935743,13.1
,,0.051118234338799445,0.05678992110734259,0.0017225289748372403,0.10963068442097929,1.2154301631661977,0.4662767053656859,0.5180111882661483,-2.8683964142935743,13.2
,,0.04939137267319171,0.057556810055560965,0.002179267320618007,0.10912745004937068,1.2090921223520332,0.4526026462713681,0.5274274257258051,-2.85498281796427,13.3
,,0.050670732128834016,0.057554334441949205,0.0016819456299872449,0.10990701220077047,1.2027779824065037,0.4610327504515568,0.5236638981397562,-2.8550258305435112,13.4
,,0.050670732128834016,0.057554334441949205,0.0016819456299872449,0.10990701220077047,1.1964638424609741,0.4610327504515568,0.5236638981397562,-2.8550258305435112,13.5
,,0.050670732128834016,0.057554334441949205,0.0016819456299872449,0.10990701220077047,1.189821365491161,0.4610327504515568,0.5236638981397562,-2.8550258305435112,13.6
,,0.050670732128834016,0.057554334441949205,0.0016819456299872449,0.10990701220077047,1.1831788885213474,0.4610327504515568,0.5236638981397562,-2.8550258305435112,13.7
,,0.050670732128834016,0.057554334441949205,0.0016819456299872449,0.10990701220077047,1.1765364115515342,0.4610327504515568,0.5236638981397562,-2.8550258305435112,13.8
,,0.050670732128834016,0.057554334441949205,0.0016819456299872449,0.10990701220077047,1.1698939345817208,0.4610327504515568,0.5236638981397562,-2.8550258305435112,13.9
,,0.050670732128834016,0.057554334441949205,0.0016819456299872449,0.10990701220077047,1.1632514576119073,0.4610327504515568,0.5236638981397562,-2.8550258305435112,14.0
,,0.050670732128834016,0.057554334441949205,0.0016819456299872449,0.10990701220077047,1.156608980642094,0.4610327504515568,0.5236638981397562,-2.8550258305435112,14.1
,,0.050670732128834016,0.057554334441949205,0.0016819456299872449,0.10990701220077047,1.1499665803473917,0.4610327504515568,0.5236638981397562,-2.8550258305435112,14.2
,,0.04354002597659215,0.05160536778814963,0.001922983377930248,0.09706837714267202,1.1428307006410587,0.4485500557261466,0.5316393382398839,-2.9641295850029183,14.3
,,0.05000202975102836,0.06619442768183108,0.0015098934783167243,0.11770635091117616,1.1344162193767775,0.4248031594213723,0.5623692109169443,-2.7151589935724707,14.4
,,0.043918911311636735,0.048902297601565656,0.001344840714480297,0.09416604962768269,1.127587446941245,0.4663985744892666,0.5193198376157588,-3.0179308978880157,14.5
,,0.043918911311636735,0.048902297601565656,0.001344840714480297,0.09416604962768269,1.1207586745057123,0.4663985744892666,0.5193198376157588,-3.0179308978880157,14.6
,,0.043918911311636735,0.048902297601565656,0.001344840714480297,0.09416604962768269,1.1139299020701796,0.4663985744892666,0.5193198376157588,-3.0179308978880157,14.7
,,0.043918911311636735,0.048902297601565656,0.001344840714480297,0.09416604962768269,1.107101129634647,0.4663985744892666,0.5193198376157588,-3.0179308978880157,14.8
,,0.043918911311636735,0.048902297601565656,0.001344840714480297,0.09416604962768269,1.1002723571991144,0.4663985744892666,0.5193198376157588,-3.0179308978880157,14.9
,,0.043918911311636735,0.048902297601565656,0.001344840714480297,0.09416604962768269,1.0935163376067996,0.4663985744892666,0.5193198376157588,-3.0179308978880157,15.0
,,0.03828114367881285,0.043837485849109535,0.0015330631093877682,0.08365169263731015,1.0863145808086776,0.4576254523000384,0.5240478042587418,-3.127265986319211,15.1
,,0.03828114367881285,0.043837485849109535,0.0015330631093877682,0.08365169263731015,1.0791128240105559,0.4576254523000384,0.5240478042587418,-3.127265986319211,15.2
,,0.028358105163375596,0.039968148962058664,0.0020737081294234998,0.07039996225485776,1.0700918033383282,0.4028142097678301,0.5677296930553506,-3.2196724180128222,15.3
,,0.028358105163375596,0.039968148962058664,0.0020737081294234998,0.07039996225485776,1.0610707826661008,0.4028142097678301,0.5677296930553506,-3.2196724180128222,15.4
,,0.028358105163375596,0.039968148962058664,0.0020737081294234998,0.07039996225485776,1.0520497619938733,0.4028142097678301,0.5677296930553506,-3.2196724180128222,15.5
,,0.028358105163375596,0.039968148962058664,0.0020737081294234998,0.07039996225485776,1.0430287413216457,0.4028142097678301,0.5677296930553506,-3.2196724180128222,15.6
,,0.028358105163375596,0.039968148962058664,0.0020737081294234998,0.07039996225485776,1.0340077206494183,0.4028142097678301,0.5677296930553506,-3.2196724180128222,15.7
,,0.028358105163375596,0.039968148962058664,0.0020737081294234998,0.07039996225485776,1.0251453397240984,0.4028142097678301,0.5677296930553506,-3.2196724180128222,15.8
,,0.034901816186031664,0.037409818573152766,0.0012258212482143575,0.07353745600739878,1.0175508532238673,0.4746127766851237,0.5087178779938876,-3.285822080322354,15.9
,,0.05121612080156576,0.056733527215098126,0.0015434537501764609,0.10949310176684035,1.01088342930052,0.46775659813371373,0.5181470457920637,-2.8693899340944014,16.0
,,0.05121612080156576,0.056733527215098126,0.0015434537501764609,0.10949310176684035,1.0042160053771725,0.46775659813371373,0.5181470457920637,-2.8693899340944014,16.1
,,0.05121612080156576,0.056733527215098126,0.0015434537501764609,0.10949310176684035,0.9975485814538252,0.46775659813371373,0.5181470457920637,-2.8693899340944014,16.2
,,0.03619574029282855,0.03409083722796909,0.0017145506413139696,0.07200112816211161,0.9926477708965826,0.50271073824473,0.47347643152497637,-3.378726633791892,16.3
,,0.03619574029282855,0.03409083722796909,0.0017145506413139696,0.07200112816211161,0.9877469603393398,0.50271073824473,0.47347643152497637,-3.378726633791892,16.4
,,0.03619574029282855,0.03409083722796909,0.0017145506413139696,0.07200112816211161,0.9828461497820972,0.50271073824473,0.47347643152497637,-3.378726633791892,16.5
,,0.03619574029282855,0.03409083722796909,0.0017145506413139696,0.07200112816211161,0.977038595273458,0.50271073824473,0.47347643152497637,-3.378726633791892,16.6
,,0.03619574029282855,0.03409083722796909,0.0017145506413139696,0.07200112816211161,0.9712310407648191,0.50271073824473,0.47347643152497637,-3.378726633791892,16.7
,,0.03619574029282855,0.03409083722796909,0.0017145506413139696,0.07200112816211161,0.9707363756707701,0.50271073824473,0.47347643152497637,-3.378726633791892,16.8
,,0.03619574029282855,0.03409083722796909,0.0017145506413139696,0.07200112816211161,0.9702417105767213,0.50271073824473,0.47347643152497637,-3.378726633791892,16.9
,,0.0334120710933146,0.03297649165831086,0.0010555021324241307,0.0674440648840496,0.969207765849598,0.4954041716014139,0.48894579107893815,-3.411960345365157,17.0
,,0.0334120710933146,0.03297649165831086,0.0010555021324241307,0.0674440648840496,0.9681738211224749,0.4954041716014139,0.48894579107893815,-3.411960345365157,17.1
,,0.0334120710933146,0.03297649165831086,0.0010555021324241307,0.0674440648840496,0.9671398763953515,0.4954041716014139,0.48894579107893815,-3.411960345365157,17.2
,,0.03535792163957517,0.03058823709724899,0.0015362237326412456,0.0674823824694654,0.9676917449909708,0.523957814553658,0.4532773737069765,-3.487139752514357,17.3
,,0.03535792163957517,0.03058823709724899,0.0015362237326412456,0.0674823824694654,0.9678748864644372,0.523957814553658,0.4532773737069765,-3.487139752514357,17.4
,,0.03535792163957517,0.03058823709724899,0.0015362237326412456,0.0674823824694654,0.9680580279379035,0.523957814553658,0.4532773737069765,-3.487139752514357,17.5
,,0.03535792163957517,0.03058823709724899,0.0015362237326412456,0.0674823824694654,0.9657701019942272,0.523957814553658,0.4532773737069765,-3.487139752514357,17.6
,,0.03535792163957517,0.03058823709724899,0.0015362237326412456,0.0674823824694654,0.9634821760505509,0.523957814553658,0.4532773737069765,-3.487139752514357,17.7
,,0.03535792163957517,0.03058823709724899,0.0015362237326412456,0.0674823824694654,0.9611942501068745,0.523957814553658,0.4532773737069765,-3.487139752514357,17.8
,,0.03275703926104934,0.0296215003714111,0.0009318527981099473,0.06331039243057038,0.9583498963219304,0.5174038258722292,0.46787737738153573,-3.5192548174276808,17.9
,,0.03275703926104934,0.0296215003714111,0.0009318527981099473,0.06331039243057038,0.955505542536986,0.5174038258722292,0.46787737738153573,-3.5192548174276808,18.0
,,0.03275703926104934,0.0296215003714111,0.0009318527981099473,0.06331039243057038,0.952661188752042,0.5174038258722292,0.46787737738153573,-3.5192548174276808,18.1
,,0.03469854505307976,0.028737142127717268,0.0006525913202072775,0.0640882785010043,0.9512128972083028,0.5414179607357688,0.44839934540084325,-3.5495648421163626,18.2
,,0.03469854505307976,0.028737142127717268,0.0006525913202072775,0.0640882785010043,0.9497646056645636,0.5414179607357688,0.44839934540084325,-3.5495648421163626,18.3
,,0.03469854505307976,0.028737142127717268,0.0006525913202072775,0.0640882785010043,0.9483163141208244,0.5414179607357688,0.44839934540084325,-3.5495648421163626,18.4
,,0.03469854505307976,0.028737142127717268,0.0006525913202072775,0.0640882785010043,0.9477157003357962,0.5414179607357688,0.44839934540084325,-3.5495648421163626,18.5
,,0.03469854505307976,0.028737142127717268,0.0006525913202072775,0.0640882785010043,0.9471150865507683,0.5414179607357688,0.44839934540084325,-3.5495648421163626,18.6
,,0.03469854505307976,0.028737142127717268,0.0006525913202072775,0.0640882785010043,0.9465144727657405,0.5414179607357688,0.44839934540084325,-3.5495648421163626,18.7
,,0.03253084858052021,0.02693677579118954,0.0008567535039244499,0.0603243778756342,0.9459163951736302,0.5392653803672269,0.4465321772024383,-3.6142627962613996,18.8
,,0.03253084858052021,0.02693677579118954,0.0008567535039244499,0.0603243778756342,0.94531831758152,0.5392653803672269,0.4465321772024383,-3.6142627962613996,18.9
,,0.03253084858052021,0.02693677579118954,0.0008567535039244499,0.0603243778756342,0.9450765412344901,0.5392653803672269,0.4465321772024383,-3.6142627962613996,19.0
,,0.03418149031609558,0.02612856802630753,0.0005920622287512323,0.06090212057115434,0.9459517599718383,0.5612528758528204,0.42902558697903626,-3.644726002853035,19.1
,,0.03418149031609558,0.02612856802630753,0.0005920622287512323,0.06090212057115434,0.9522961754227192,0.5612528758528204,0.42902558697903626,-3.644726002853035,19.2
,,0.03418149031609558,0.02612856802630753,0.0005920622287512323,0.06090212057115434,0.9586405908736002,0.5612528758528204,0.42902558697903626,-3.644726002853035,19.3
,,0.03418149031609558,0.02612856802630753,0.0005920622287512323,0.06090212057115434,0.9649850063244811,0.5612528758528204,0.42902558697903626,-3.644726002853035,19.4
,,0.03418149031609558,0.02612856802630753,0.0005920622287512323,0.06090212057115434,0.971329421775362,0.5612528758528204,0.42902558697903626,-3.644726002853035,19.5
,,0.03418149031609558,0.02612856802630753,0.0005920622287512323,0.06090212057115434,0.977673837226243,0.5612528758528204,0.42902558697903626,-3.644726002853035,19.6
,,0.03246357212537894,0.024700077041804665,0.0008138983839317035,0.05797754755111531,0.9792082527680448,0.5599335173112965,0.42602831760050036,-3.7009489162516664,19.7
,,0.03246357212537894,0.024700077041804665,0.0008138983839317035,0.05797754755111531,0.9807426683098467,0.5599335173112965,0.42602831760050036,-3.7009489162516664,19.8
,,0.03246357212537894,0.024700077041804665,0.0008138983839317035,0.05797754755111531,0.9822770838516484,0.5599335173112965,0.42602831760050036,-3.7009489162516664,19.9
,,0.033600691588900757,0.023975469481888084,0.0005710385145784662,0.05814719958536731,0.9862053505168252,0.577855714952717,0.41232371727015193,-3.7307240762609597,20.0
,,0.033600691588900757,0.023975469481888084,0.0005710385145784662,0.05814719958536731,0.9901336171820022,0.577855714952717,0.41232371727015193,-3.7307240762609597,20.1
,,0.033600691588900757,0.023975469481888084,0.0005710385145784662,0.05814719958536731,0.9940618838471794,0.577855714952717,0.41232371727015193,-3.7307240762609597,20.2
,,0.033600691588900757,0.023975469481888084,0.0005710385145784662,0.05814719958536731,0.9979901505123563,0.577855714952717,0.41232371727015193,-3.7307240762609597,20.3
,,0.033600691588900757,0.023975469481888084,0.0005710385145784662,0.05814719958536731,1.001918417177533,0.577855714952717,0.41232371727015193,-3.7307240762609597,20.4
,,0.033600691588900757,0.023975469481888084,0.0005710385145784662,0.05814719958536731,1.0056434663388263,0.577855714952717,0.41232371727015193,-3.7307240762609597,20.5
,,0.06673898755807145,0.04092612384749445,0.0012346358186779607,0.10889974722424385,1.0119158182763888,0.6128479565764654,0.37581468176615984,-3.195986694953682,20.6
,,0.06673898755807145,0.04092612384749445,0.0012346358186779607,0.10889974722424385,1.0193299918474426,0.6128479565764654,0.37581468176615984,-3.195986694953682,20.7
,,0.06673898755807145,0.04092612384749445,0.0012346358186779607,0.10889974722424385,1.0306782364009164,0.6128479565764654,0.37581468176615984,-3.195986694953682,20.8
,,0.067706541377417,0.03895075228413855,0.0008984256043317347,0.10755571926588728,1.0432213883522123,0.6295020091868887,0.3621448729086069,-3.245457192753344,20.9
,,0.067706541377417,0.03895075228413855,0.0008984256043317347,0.10755571926588728,1.0557645403035085,0.6295020091868887,0.3621448729086069,-3.245457192753344,21.0
,,0.067706541377417,0.03895075228413855,0.0008984256043317347,0.10755571926588728,1.0683076922548045,0.6295020091868887,0.3621448729086069,-3.245457192753344,21.1
,,0.067706541377417,0.03895075228413855,0.0008984256043317347,0.10755571926588728,1.0808508442061004,0.6295020091868887,0.3621448729086069,-3.245457192753344,21.2
,,0.067706541377417,0.03895075228413855,0.0008984256043317347,0.10755571926588728,1.0933939961573964,0.6295020091868887,0.3621448729086069,-3.245457192753344,21.3
,,0.04986642466351266,0.03911430657487652,0.0012526126316203569,0.09023334387000953,1.1002633011021397,0.552638553829396,0.4334795198460641,-3.241266981859155,21.4
,,0.04986642466351266,0.03911430657487652,0.0012526126316203569,0.09023334387000953,1.1071326060468831,0.552638553829396,0.4334795198460641,-3.241266981859155,21.5
,,0.04986642466351266,0.03911430657487652,0.0012526126316203569,0.09023334387000953,1.1112966173038423,0.552638553829396,0.4334795198460641,-3.241266981859155,21.6
,,0.04986642466351266,0.03911430657487652,0.0012526126316203569,0.09023334387000953,1.1154606285608015,0.552638553829396,0.4334795198460641,-3.241266981859155,21.7
,,0.03277002344895905,0.019634206545304712,0.0013643694739298362,0.0537685994681936,1.1240039451661454,0.6094639580178001,0.3651612044855134,-3.9304820019899824,21.8
,,0.03277002344895905,0.019634206545304712,0.0013643694739298362,0.0537685994681936,1.1325472617714891,0.6094639580178001,0.3651612044855134,-3.9304820019899824,21.9
,,0.03277002344895905,0.019634206545304712,0.0013643694739298362,0.0537685994681936,1.141090578376833,0.6094639580178001,0.3651612044855134,-3.9304820019899824,22.0
,,0.03287769570463359,0.02094758850592442,0.0008690139801911903,0.0546942981907492,1.1485282795864908,0.6011174252564851,0.3829940084955221,-3.8657317463551024,22.1
,,0.03287769570463359,0.02094758850592442,0.0008690139801911903,0.0546942981907492,1.1559659807961487,0.6011174252564851,0.3829940084955221,-3.8657317463551024,22.2
,,0.03287769570463359,0.02094758850592442,0.0008690139801911903,0.0546942981907492,1.1638703051112094,0.6011174252564851,0.3829940084955221,-3.8657317463551024,22.3
,,0.03287769570463359,0.02094758850592442,0.0008690139801911903,0.0546942981907492,1.1715272334708344,0.6011174252564851,0.3829940084955221,-3.8657317463551024,22.4
,,0.03287769570463359,0.02094758850592442,0.0008690139801911903,0.0546942981907492,1.1791841618304595,0.6011174252564851,0.3829940084955221,-3.8657317463551024,22.5
,,0.03287769570463359,0.02094758850592442,0.0008690139801911903,0.0546942981907492,1.1868410901900848,0.6011174252564851,0.3829940084955221,-3.8657317463551024,22.6
,,0.03252175866241717,0.018937676763812913,0.0014072233002954306,0.05286665872652551,1.196140049806724,0.6151657669657035,0.3582158816159693,-3.966601861693383,22.7
,,0.03252175866241717,0.018937676763812913,0.0014072233002954306,0.05286665872652551,1.2054390094233631,0.6151657669657035,0.3582158816159693,-3.966601861693383,22.8
,,0.03311334518638929,0.020486967980358893,0.0008142383255561994,0.05441455149230438,1.213615836532827,0.6085384199311533,0.37649796641724187,-3.8879663032611322,22.9
,,0.03311334518638929,0.020486967980358893,0.0008142383255561994,0.05441455149230438,1.2217926636422909,0.6085384199311533,0.37649796641724187,-3.8879663032611322,23.0
,,0.03311334518638929,0.020486967980358893,0.0008142383255561994,0.05441455149230438,1.2299694907517549,0.6085384199311533,0.37649796641724187,-3.8879663032611322,23.1
,,0.03311334518638929,0.020486967980358893,0.0008142383255561994,0.05441455149230438,1.2381463178612189,0.6085384199311533,0.37649796641724187,-3.8879663032611322,23.2
,,0.03311334518638929,0.020486967980358893,0.0008142383255561994,0.05441455149230438,1.246730778416623,0.6085384199311533,0.37649796641724187,-3.8879663032611322,23.3
,,0.03311334518638929,0.020486967980358893,0.0008142383255561994,0.05441455149230438,1.2562966826494095,0.6085384199311533,0.37649796641724187,-3.8879663032611322,23.4
,,0.03311334518638929,0.020486967980358893,0.0008142383255561994,0.05441455149230438,1.2642768780534475,0.6085384199311533,0.37649796641724187,-3.8879663032611322,23.5
,,0.03225313017595302,0.018544369819450665,0.0014820470947845355,0.05227954709018822,1.273622945305335,0.6169359141599423,0.3547155790668863,-3.9875890497745656,23.6
,,0.033318997606225545,0.02021315510631901,0.0009049682345058151,0.05443712094705037,1.2819594651064674,0.6120639193728504,0.3713119789340043,-3.9014216436545244,23.7
,,0.033318997606225545,0.02021315510631901,0.0009049682345058151,0.05443712094705037,1.2902959849076,0.6120639193728504,0.3713119789340043,-3.9014216436545244,23.8
,,0.033318997606225545,0.02021315510631901,0.0009049682345058151,0.05443712094705037,1.2986325047087324,0.6120639193728504,0.3713119789340043,-3.9014216436545244,23.9
,,0.033318997606225545,0.02021315510631901,0.0009049682345058151,0.05443712094705037,1.3069690245098649,0.6120639193728504,0.3713119789340043,-3.9014216436545244,24.0
,,0.033318997606225545,0.02021315510631901,0.0009049682345058151,0.05443712094705037,1.3155815854048014,0.6120639193728504,0.3713119789340043,-3.9014216436545244,24.1
,,0.033318997606225545,0.02021315510631901,0.0009049682345058151,0.05443712094705037,1.324194146299738,0.6120639193728504,0.3713119789340043,-3.9014216436545244,24.2
,,0.033318997606225545,0.02021315510631901,0.0009049682345058151,0.05443712094705037,1.3346259710687802,0.6120639193728504,0.3713119789340043,-3.9014216436545244,24.3
,,0.033318997606225545,0.02021315510631901,0.0009049682345058151,0.05443712094705037,1.3450577958378223,0.6120639193728504,0.3713119789340043,-3.9014216436545244,24.4
,,0.055320458181475476,0.03655835120923617,0.0012955189709769955,0.09317432836168864,1.353987710030501,0.5937306890663041,0.39236506291005596,-3.3088456316287838,24.5
,,0.055320458181475476,0.03655835120923617,0.0012955189709769955,0.09317432836168864,1.3629176242231793,0.5937306890663041,0.39236506291005596,-3.3088456316287838,24.6
,,0.055320458181475476,0.03655835120923617,0.0012955189709769955,0.09317432836168864,1.371847538415858,0.5937306890663041,0.39236506291005596,-3.3088456316287838,24.7
,,0.055320458181475476,0.03655835120923617,0.0012955189709769955,0.09317432836168864,1.3807774526085363,0.5937306890663041,0.39236506291005596,-3.3088456316287838,24.8
,,0.055320458181475476,0.03655835120923617,0.0012955189709769955,0.09317432836168864,1.3872246877787668,0.5937306890663041,0.39236506291005596,-3.3088456316287838,24.9
,,0.055320458181475476,0.03655835120923617,0.0012955189709769955,0.09317432836168864,1.3940075891985966,0.5937306890663041,0.39236506291005596,-3.3088456316287838,25.0
,,0.055320458181475476,0.03655835120923617,0.0012955189709769955,0.09317432836168864,1.4007904906184259,0.5937306890663041,0.39236506291005596,-3.3088456316287838,25.1
,,0.055320458181475476,0.03655835120923617,0.0012955189709769955,0.09317432836168864,1.4075733920382554,0.5937306890663041,0.39236506291005596,-3.3088456316287838,25.2
,,0.055320458181475476,0.03655835120923617,0.0012955189709769955,0.09317432836168864,1.4125896800919802,0.5937306890663041,0.39236506291005596,-3.3088456316287838,25.3
,,0.03598604569286821,0.020339675413027395,0.0015165818657183491,0.057842302971613954,1.420450899341186,0.6221406106622055,0.3516401382394658,-3.8951818465506376,25.4
,,0.03442561128290399,0.02008140964198794,0.0011589053680670942,0.05566592629295902,1.4277015501523822,0.6184323800115827,0.36074868378733804,-3.907960785328384,25.5
,,0.03442561128290399,0.02008140964198794,0.0011589053680670942,0.05566592629295902,1.4349522009635785,0.6184323800115827,0.36074868378733804,-3.907960785328384,25.6
,,0.03442561128290399,0.02008140964198794,0.0011589053680670942,0.05566592629295902,1.4422028517747747,0.6184323800115827,0.36074868378733804,-3.907960785328384,25.7
,,0.03442561128290399,0.02008140964198794,0.0011589053680670942,0.05566592629295902,1.4494535025859712,0.6184323800115827,0.36074868378733804,-3.907960785328384,25.8
,,0.03442561128290399,0.02008140964198794,0.0011589053680670942,0.05566592629295902,1.4567041533971674,0.6184323800115827,0.36074868378733804,-3.907960785328384,25.9
,,0.03442561128290399,0.02008140964198794,0.0011589053680670942,0.05566592629295902,1.4644940838414382,0.6184323800115827,0.36074868378733804,-3.907960785328384,26.0
,,0.03442561128290399,0.02008140964198794,0.0011589053680670942,0.05566592629295902,1.472284014285709,0.6184323800115827,0.36074868378733804,-3.907960785328384,26.1
,,0.03442561128290399,0.02008140964198794,0.0011589053680670942,0.05566592629295902,1.4800739447299798,0.6184323800115827,0.36074868378733804,-3.907960785328384,26.2
,,0.03442561128290399,0.02008140964198794,0.0011589053680670942,0.05566592629295902,1.4862780618515077,0.6184323800115827,0.36074868378733804,-3.907960785328384,26.3
,,0.022553767356812394,0.020017435482072916,0.0013140772845662864,0.043885280123451595,1.485953330175386,0.513925564411745,0.4561309720654128,-3.911151611098842,26.4
,,0.022553767356812394,0.020017435482072916,0.0013140772845662864,0.043885280123451595,1.485628598499264,0.513925564411745,0.4561309720654128,-3.911151611098842,26.5
,,0.022553767356812394,0.020017435482072916,0.0013140772845662864,0.043885280123451595,1.4853038668231424,0.513925564411745,0.4561309720654128,-3.911151611098842,26.6
,,0.022553767356812394,0.020017435482072916,0.0013140772845662864,0.043885280123451595,1.4849791351470205,0.513925564411745,0.4561309720654128,-3.911151611098842,26.7
,,0.022553767356812394,0.020017435482072916,0.0013140772845662864,0.043885280123451595,1.4846544034708986,0.513925564411745,0.4561309720654128,-3.911151611098842,26.8
,,0.022553767356812394,0.020017435482072916,0.0013140772845662864,0.043885280123451595,1.484886099636045,0.513925564411745,0.4561309720654128,-3.911151611098842,26.9
,,0.022553767356812394,0.020017435482072916,0.0013140772845662864,0.043885280123451595,1.485117795801191,0.513925564411745,0.4561309720654128,-3.911151611098842,27.0
,,0.022553767356812394,0.020017435482072916,0.0013140772845662864,0.043885280123451595,1.4853494919663366,0.513925564411745,0.4561309720654128,-3.911151611098842,27.1
,,0.03879273551867168,0.020225637484173834,0.0018259650112834782,0.060844338014128994,1.493244516861871,0.637573466731833,0.3324160989224195,-3.9008042969212693,27.2
,,0.03692278259061674,0.0197553719658142,0.001399266532566363,0.0580774210889973,1.5005951134537785,0.6357510698354979,0.3401558057397427,-3.9243298263507556,27.3
,,0.03692278259061674,0.0197553719658142,0.001399266532566363,0.0580774210889973,1.5079457100456861,0.6357510698354979,0.3401558057397427,-3.9243298263507556,27.4
,,0.03692278259061674,0.0197553719658142,0.001399266532566363,0.0580774210889973,1.5152963066375937,0.6357510698354979,0.3401558057397427,-3.9243298263507556,27.5
,,0.03692278259061674,0.0197553719658142,0.001399266532566363,0.0580774210889973,1.522646903229501,0.6357510698354979,0.3401558057397427,-3.9243298263507556,27.6
,,0.03692278259061674,0.0197553719658142,0.001399266532566363,0.0580774210889973,1.5299974998214085,0.6357510698354979,0.3401558057397427,-3.9243298263507556,27.7
,,0.03692278259061674,0.0197553719658142,0.001399266532566363,0.0580774210889973,1.5373455602203987,0.6357510698354979,0.3401558057397427,-3.9243298263507556,27.8
,,0.03692278259061674,0.0197553719658142,0.001399266532566363,0.0580774210889973,1.5446936206193884,0.6357510698354979,0.3401558057397427,-3.9243298263507556,27.9
,,0.03692278259061674,0.0197553719658142,0.001399266532566363,0.0580774210889973,1.5520416810183781,0.6357510698354979,0.3401558057397427,-3.9243298263507556,28.0
,,0.040212756212447666,0.01992355875433645,0.0018832665633391806,0.0620195815301233,1.5599322181481245,0.6483880610016061,0.3212462622737861,-3.9158523904559845,28.1
,,0.03863184986803412,0.019418049387080867,0.0014219791956716088,0.059471878450786594,1.5675019709902431,0.6495818002453421,0.326508089081959,-3.9415522646714245,28.2
,,0.03863184986803412,0.019418049387080867,0.0014219791956716088,0.059471878450786594,1.5750717238323615,0.6495818002453421,0.326508089081959,-3.9415522646714245,28.3
,,0.03863184986803412,0.019418049387080867,0.0014219791956716088,0.059471878450786594,1.5826414766744799,0.6495818002453421,0.326508089081959,-3.9415522646714245,28.4
,,0.03863184986803412,0.019418049387080867,0.0014219791956716088,0.059471878450786594,1.5902112295165987,0.6495818002453421,0.326508089081959,-3.9415522646714245,28.5
,,0.03863184986803412,0.019418049387080867,0.0014219791956716088,0.059471878450786594,1.5977809823587172,0.6495818002453421,0.326508089081959,-3.9415522646714245,28.6
,,0.03863184986803412,0.019418049387080867,0.0014219791956716088,0.059471878450786594,1.6052828815877025,0.6495818002453421,0.326508089081959,-3.9415522646714245,28.7
,,0.03863184986803412,0.019418049387080867,0.0014219791956716088,0.059471878450786594,1.612784780816688,0.6495818002453421,0.326508089081959,-3.9415522646714245,28.8
,,0.041540963901689584,0.019497396707831977,0.0018304851897828207,0.06286884579930438,1.6218545554616137,0.6607559495254678,0.31012811607951785,-3.9374743244871055,28.9
,,0.041540963901689584,0.019497396707831977,0.0018304851897828207,0.06286884579930438,1.629955989049061,0.6607559495254678,0.31012811607951785,-3.9374743244871055,29.0
,,0.0402153899747897,0.018914246920902135,0.001361554430815701,0.060491191326507536,1.6380085936830926,0.6648139851920409,0.3126777057309139,-3.967839835546352,29.1
,,0.0402153899747897,0.018914246920902135,0.001361554430815701,0.060491191326507536,1.6460611983171236,0.6648139851920409,0.3126777057309139,-3.967839835546352,29.2
,,0.0402153899747897,0.018914246920902135,0.001361554430815701,0.060491191326507536,1.6541138029511548,0.6648139851920409,0.3126777057309139,-3.967839835546352,29.3
,,0.0402153899747897,0.018914246920902135,0.001361554430815701,0.060491191326507536,1.662166407585186,0.6648139851920409,0.3126777057309139,-3.967839835546352,29.4
,,0.0402153899747897,0.018914246920902135,0.001361554430815701,0.060491191326507536,1.670219012219217,0.6648139851920409,0.3126777057309139,-3.967839835546352,29.5
,,0.0402153899747897,0.018914246920902135,0.001361554430815701,0.060491191326507536,1.6757243140769793,0.6648139851920409,0.3126777057309139,-3.967839835546352,29.6
,,0.0402153899747897,0.018914246920902135,0.001361554430815701,0.060491191326507536,1.6812296159347413,0.6648139851920409,0.3126777057309139,-3.967839835546352,29.7
,,0.018044611644870527,0.021616756957714173,0.0009863134971875107,0.04064768209977221,1.6723855336380564,0.4439271986180892,0.5318078631065488,-3.83428647997836,29.8
,,0.018044611644870527,0.021616756957714173,0.0009863134971875107,0.04064768209977221,1.66234654394355,0.4439271986180892,0.5318078631065488,-3.83428647997836,29.9
,,0.018044611644870527,0.021616756957714173,0.0009863134971875107,0.04064768209977221,1.652307554249043,0.4439271986180892,0.5318078631065488,-3.83428647997836,30.0
,,0.027011056039541056,0.01744840232194492,0.002182875200460103,0.046642333561946074,1.650194144076025,0.5791103055267903,0.37408939453622214,-4.048507192007009,30.1
,,0.027011056039541056,0.01744840232194492,0.002182875200460103,0.046642333561946074,1.6480807339030068,0.5791103055267903,0.37408939453622214,-4.048507192007009,30.2
,,0.027011056039541056,0.01744840232194492,0.002182875200460103,0.046642333561946074,1.6459673237299888,0.5791103055267903,0.37408939453622214,-4.048507192007009,30.3
,,0.027011056039541056,0.01744840232194492,0.002182875200460103,0.046642333561946074,1.6490024749035035,0.5791103055267903,0.37408939453622214,-4.048507192007009,30.4
,,0.027011056039541056,0.01744840232194492,0.002182875200460103,0.046642333561946074,1.652037626077018,0.5791103055267903,0.37408939453622214,-4.048507192007009,30.5
,,0.04390861492855844,0.01832328578026135,0.0016159537904186594,0.06384785449923845,1.6644980595500884,0.6877069757932455,0.2869835787587804,-3.999582581000546,30.6
,,0.04390861492855844,0.01832328578026135,0.0016159537904186594,0.06384785449923845,1.6769584930231585,0.6877069757932455,0.2869835787587804,-3.999582581000546,30.7
,,0.04390861492855844,0.01832328578026135,0.0016159537904186594,0.06384785449923845,1.6850396211478438,0.6877069757932455,0.2869835787587804,-3.999582581000546,30.8
,,0.04390861492855844,0.01832328578026135,0.0016159537904186594,0.06384785449923845,1.6931207492725295,0.6877069757932455,0.2869835787587804,-3.999582581000546,30.9
,,0.04350382467514451,0.01703989378535708,0.0019971092828904883,0.06254082774339208,1.7029433063341097,0.6956067939113746,0.27246031752685707,-4.072197990854087,31.0
,,0.04350382467514451,0.01703989378535708,0.0019971092828904883,0.06254082774339208,1.7138714787913758,0.6956067939113746,0.27246031752685707,-4.072197990854087,31.1
,,0.04350382467514451,0.01703989378535708,0.0019971092828904883,0.06254082774339208,1.724799651248642,0.6956067939113746,0.27246031752685707,-4.072197990854087,31.2
,,0.04350382467514451,0.01703989378535708,0.0019971092828904883,0.06254082774339208,1.7357278237059086,0.6956067939113746,0.27246031752685707,-4.072197990854087,31.3
,,0.04488027772964367,0.0177814977757481,0.0014912874407088997,0.06415306294610067,1.7463329984984193,0.6995812151221934,0.2771730134021433,-4.029596813088403,31.4
,,0.04488027772964367,0.0177814977757481,0.0014912874407088997,0.06415306294610067,1.75693817329093,0.6995812151221934,0.2771730134021433,-4.029596813088403,31.5
,,0.04488027772964367,0.0177814977757481,0.0014912874407088997,0.06415306294610067,1.767543348083441,0.6995812151221934,0.2771730134021433,-4.029596813088403,31.6
,,0.04488027772964367,0.0177814977757481,0.0014912874407088997,0.06415306294610067,1.776506491618938,0.6995812151221934,0.2771730134021433,-4.029596813088403,31.7
,,0.04488027772964367,0.0177814977757481,0.0014912874407088997,0.06415306294610067,1.7854696351544346,0.6995812151221934,0.2771730134021433,-4.029596813088403,31.8
,,0.045022124621103526,0.01663327283611456,0.001841775335717972,0.06349717279293605,1.7975856148162954,0.7090414051649266,0.26195296742353513,-4.096350202006729,31.9
,,0.045022124621103526,0.01663327283611456,0.001841775335717972,0.06349717279293605,1.8097015944781567,0.7090414051649266,0.26195296742353513,-4.096350202006729,32.0
,,0.045022124621103526,0.01663327283611456,0.001841775335717972,0.06349717279293605,1.8218175741400175,0.7090414051649266,0.26195296742353513,-4.096350202006729,32.1
,,0.045022124621103526,0.01663327283611456,0.001841775335717972,0.06349717279293605,1.8339335538018786,0.7090414051649266,0.26195296742353513,-4.096350202006729,32.2
,,0.04595575746504504,0.017436961941645953,0.0014082658921112587,0.06480098529880224,1.8452582684023147,0.7091830047512329,0.26908482735629413,-4.049163076269685,32.3
,,0.04595575746504504,0.017436961941645953,0.0014082658921112587,0.06480098529880224,1.8565829830027512,0.7091830047512329,0.26908482735629413,-4.049163076269685,32.4
,,0.04595575746504504,0.017436961941645953,0.0014082658921112587,0.06480098529880224,1.8679076976031872,0.7091830047512329,0.26908482735629413,-4.049163076269685,32.5
,,0.04595575746504504,0.017436961941645953,0.0014082658921112587,0.06480098529880224,1.877866540355774,0.7091830047512329,0.26908482735629413,-4.049163076269685,32.6
,,0.04595575746504504,0.017436961941645953,0.0014082658921112587,0.06480098529880224,1.8888349305591157,0.7091830047512329,0.26908482735629413,-4.049163076269685,32.7
,,0.04691200393356172,0.016529152374589816,0.0017661689925117165,0.06520732530066324,1.902054435808375,0.7194284341100641,0.2534861274922082,-4.102629646468212,32.8
,,0.04691200393356172,0.016529152374589816,0.0017661689925117165,0.06520732530066324,1.9152739410576345,0.7194284341100641,0.2534861274922082,-4.102629646468212,32.9
,,0.04691200393356172,0.016529152374589816,0.0017661689925117165,0.06520732530066324,1.928493446306894,0.7194284341100641,0.2534861274922082,-4.102629646468212,33.0
,,0.04691200393356172,0.016529152374589816,0.0017661689925117165,0.06520732530066324,1.9417129515561533,0.7194284341100641,0.2534861274922082,-4.102629646468212,33.1
,,0.04721412173586857,0.017401479849000055,0.0013887159039201683,0.0660043174887888,1.9535445369517874,0.7153186872038811,0.26364153908501203,-4.051200027584991,33.2
,,0.04721412173586857,0.017401479849000055,0.0013887159039201683,0.0660043174887888,1.965376122347421,0.7153186872038811,0.26364153908501203,-4.051200027584991,33.3
,,0.04721412173586857,0.017401479849000055,0.0013887159039201683,0.0660043174887888,1.9772077077430548,0.7153186872038811,0.26364153908501203,-4.051200027584991,33.4
,,0.04721412173586857,0.017401479849000055,0.0013887159039201683,0.0660043174887888,1.990541203715052,0.7153186872038811,0.26364153908501203,-4.051200027584991,33.5
,,0.04721412173586857,0.017401479849000055,0.0013887159039201683,0.0660043174887888,2.0038746996870493,0.7153186872038811,0.26364153908501203,-4.051200027584991,33.6
,,0.04846045632856508,0.016466165499919895,0.0017243437092686266,0.0666509655377536,2.0197616150831452,0.7270780841294079,0.24705066711438475,-4.106447579147067,33.7
,,0.04846045632856508,0.016466165499919895,0.0017243437092686266,0.0666509655377536,2.0356485304792407,0.7270780841294079,0.24705066711438475,-4.106447579147067,33.8
,,0.04846045632856508,0.016466165499919895,0.0017243437092686266,0.0666509655377536,2.051535445875337,0.7270780841294079,0.24705066711438475,-4.106447579147067,33.9
,,0.014988636265142768,0.013870491998168576,0.0004681731653220892,0.02932730142863343,2.0467288157339025,0.511081331557794,0.472954936952578,-4.27799157317431,34.0
,,0.014988636265142768,0.013870491998168576,0.0004681731653220892,0.02932730142863343,2.0419221855924694,0.511081331557794,0.472954936952578,-4.27799157317431,34.1
,,0.014988636265142768,0.013870491998168576,0.0004681731653220892,0.02932730142863343,2.0371155554510354,0.511081331557794,0.472954936952578,-4.27799157317431,34.2
,,0.014988636265142768,0.013870491998168576,0.0004681731653220892,0.02932730142863343,2.032308925309602,0.511081331557794,0.472954936952578,-4.27799157317431,34.3
,,0.014988636265142768,0.013870491998168576,0.0004681731653220892,0.02932730142863343,2.0246573639726875,0.511081331557794,0.472954936952578,-4.27799157317431,34.4
,,0.04956986383999608,0.016388146465721235,0.0017245394221179252,0.06768254972783523,2.039217767938201,0.7323876544150035,0.24213252206988622,-4.111196981961246,34.5
,,0.04956986383999608,0.016388146465721235,0.0017245394221179252,0.06768254972783523,2.053778171903714,0.7323876544150035,0.24213252206988622,-4.111196981961246,34.6
,,0.04956986383999608,0.016388146465721235,0.0017245394221179252,0.06768254972783523,2.068338575869227,0.7323876544150035,0.24213252206988622,-4.111196981961246,34.7
,,0.04956986383999608,0.016388146465721235,0.0017245394221179252,0.06768254972783523,2.08289897983474,0.7323876544150035,0.24213252206988622,-4.111196981961246,34.8
,,0.04880357979092037,0.01745820251150623,0.001442870072336988,0.06770465237476359,2.094911759823356,0.7208305201949688,0.2578582401526907,-4.047945682810365,34.9
,,0.04880357979092037,0.01745820251150623,0.001442870072336988,0.06770465237476359,2.1069245398119714,0.7208305201949688,0.2578582401526907,-4.047945682810365,35.0
,,0.04880357979092037,0.01745820251150623,0.001442870072336988,0.06770465237476359,2.1189373198005867,0.7208305201949688,0.2578582401526907,-4.047945682810365,35.1
,,0.04880357979092037,0.01745820251150623,0.001442870072336988,0.06770465237476359,2.1309500997892026,0.7208305201949688,0.2578582401526907,-4.047945682810365,35.2
,,0.05061565010480501,0.01644557220533753,0.00179346160002035,0.06885468391016289,2.1460997122638514,0.7351083068051698,0.23884464021060126,-4.107699004851437,35.3
,,0.05061565010480501,0.01644557220533753,0.00179346160002035,0.06885468391016289,2.167778173536151,0.7351083068051698,0.23884464021060126,-4.107699004851437,35.4
,,0.05061565010480501,0.01644557220533753,0.00179346160002035,0.06885468391016289,2.1894566348084497,0.7351083068051698,0.23884464021060126,-4.107699004851437,35.5
,,0.05061565010480501,0.01644557220533753,0.00179346160002035,0.06885468391016289,2.2111350960807488,0.7351083068051698,0.23884464021060126,-4.107699004851437,35.6
,,0.049826232954482325,0.017706320188289725,0.001533733659994158,0.0690662868027662,2.229883212295913,0.7214262596275367,0.25636704980034575,-4.033833630352938,35.7
,,0.049826232954482325,0.017706320188289725,0.001533733659994158,0.0690662868027662,2.248631328511077,0.7214262596275367,0.25636704980034575,-4.033833630352938,35.8
,,0.049826232954482325,0.017706320188289725,0.001533733659994158,0.0690662868027662,2.267379444726241,0.7214262596275367,0.25636704980034575,-4.033833630352938,35.9
,,0.049826232954482325,0.017706320188289725,0.001533733659994158,0.0690662868027662,2.2861275609414053,0.7214262596275367,0.25636704980034575,-4.033833630352938,36.0
,,0.049826232954482325,0.017706320188289725,0.001533733659994158,0.0690662868027662,2.3048756771565695,0.7214262596275367,0.25636704980034575,-4.033833630352938,36.1
,,0.05246816057307015,0.01682277736065754,0.0019370816333190513,0.07122801956704675,2.318218766894389,0.7366224821635257,0.23618201745483466,-4.0850215155562175,36.2
,,0.05246816057307015,0.01682277736065754,0.0019370816333190513,0.07122801956704675,2.3321062849358354,0.7366224821635257,0.23618201745483466,-4.0850215155562175,36.3
,,0.05197720406023344,0.01837404345760227,0.0017014480543614265,0.07205269557219714,2.3427711629680883,0.7213776479486744,0.255008411714332,-3.996816291967363,36.4
,,0.05197720406023344,0.01837404345760227,0.0017014480543614265,0.07205269557219714,2.3534360410003403,0.7213776479486744,0.255008411714332,-3.996816291967363,36.5
,,0.05197720406023344,0.01837404345760227,0.0017014480543614265,0.07205269557219714,2.364100919032593,0.7213776479486744,0.255008411714332,-3.996816291967363,36.6
,,0.05197720406023344,0.01837404345760227,0.0017014480543614265,0.07205269557219714,2.3747657970648453,0.7213776479486744,0.255008411714332,-3.996816291967363,36.7
,,0.05197720406023344,0.01837404345760227,0.0017014480543614265,0.07205269557219714,2.3854306750970973,0.7213776479486744,0.255008411714332,-3.996816291967363,36.8
,,0.05197720406023344,0.01837404345760227,0.0017014480543614265,0.07205269557219714,2.3960955531293493,0.7213776479486744,0.255008411714332,-3.996816291967363,36.9
,,0.05197720406023344,0.01837404345760227,0.0017014480543614265,0.07205269557219714,2.4067604311616018,0.7213776479486744,0.255008411714332,-3.996816291967363,37.0
,,0.0559605596284143,0.01780648607932294,0.0022091773011195053,0.07597622300885674,2.419253258125898,0.7365535875860904,0.23436919307303802,-4.0281925015779105,37.1
,,0.0559605596284143,0.01780648607932294,0.0022091773011195053,0.07597622300885674,2.432066869377822,0.7365535875860904,0.23436919307303802,-4.0281925015779105,37.2
,,0.05555429864178419,0.019650323438664477,0.0017441547483493347,0.07694877682879801,2.441374233197168,0.7219646748301922,0.25536888627072185,-3.929661480819406,37.3
,,0.05555429864178419,0.019650323438664477,0.0017441547483493347,0.07694877682879801,2.450681597016514,0.7219646748301922,0.25536888627072185,-3.929661480819406,37.4
,,0.05555429864178419,0.019650323438664477,0.0017441547483493347,0.07694877682879801,2.45998896083586,0.7219646748301922,0.25536888627072185,-3.929661480819406,37.5
,,0.05555429864178419,0.019650323438664477,0.0017441547483493347,0.07694877682879801,2.4692963246552058,0.7219646748301922,0.25536888627072185,-3.929661480819406,37.6
,,0.05555429864178419,0.019650323438664477,0.0017441547483493347,0.07694877682879801,2.4786036884745517,0.7219646748301922,0.25536888627072185,-3.929661480819406,37.7
,,0.05555429864178419,0.019650323438664477,0.0017441547483493347,0.07694877682879801,2.4879110522938976,0.7219646748301922,0.25536888627072185,-3.929661480819406,37.8
,,0.05555429864178419,0.019650323438664477,0.0017441547483493347,0.07694877682879801,2.495650540697303,0.7219646748301922,0.25536888627072185,-3.929661480819406,37.9
,,0.058953688172915575,0.018930897359449174,0.002588227866241943,0.08047281339860668,2.5065790020860557,0.7325913645009497,0.23524587447537837,-3.9669599107930984,38.0
,,0.05775134536633493,0.020727175033393462,0.0020562454531865217,0.08053476585291491,2.513913075167499,0.7170983208892592,0.2573692841082899,-3.876309636138367,38.1
,,0.057768399035101614,0.02073311819397964,0.0020568762831088294,0.08055839351219007,2.5212474132381737,0.7170996902558653,0.2573675726396196,-3.876022944455108,38.2
,,0.05775134536633493,0.020727175033393462,0.0020562454531865217,0.08053476585291491,2.5285814863196174,0.7170983208892592,0.2573692841082899,-3.876309636138367,38.3
,,0.057768399035101614,0.02073311819397964,0.0020568762831088294,0.08055839351219007,2.535915824390292,0.7170996902558653,0.2573675726396196,-3.876022944455108,38.4
,,0.057768399035101614,0.02073311819397964,0.0020568762831088294,0.08055839351219007,2.543250162460967,0.7170996902558653,0.2573675726396196,-3.876022944455108,38.5
,,0.057768399035101614,0.02073311819397964,0.0020568762831088294,0.08055839351219007,2.550584500531641,0.7170996902558653,0.2573675726396196,-3.876022944455108,38.6
,,0.057768399035101614,0.02073311819397964,0.0020568762831088294,0.08055839351219007,2.557918838602316,0.7170996902558653,0.2573675726396196,-3.876022944455108,38.7
,,0.05775134536633493,0.020727175033393462,0.0020562454531865217,0.08053476585291491,2.5796022958382063,0.7170983208892592,0.2573692841082899,-3.876309636138367,38.8
,,0.056946301814355504,0.021548682285762247,0.0026929349874740063,0.08118791908759176,2.599690410255458,0.7014134917402853,0.26541734937822303,-3.8374406111343022,38.9
,,0.06037804076533004,0.02191053846525388,0.002408754912963337,0.08469733414354727,2.6210338659784145,0.7128682546607636,0.2586921853776333,-3.8207875494442614,39.0
,,0.06037804076533004,0.02191053846525388,0.002408754912963337,0.08469733414354727,2.6344517421798828,0.7128682546607636,0.2586921853776333,-3.8207875494442614,39.1
,,0.06037804076533004,0.02191053846525388,0.002408754912963337,0.08469733414354727,2.647869618381351,0.7128682546607636,0.2586921853776333,-3.8207875494442614,39.2
,,0.06037804076533004,0.02191053846525388,0.002408754912963337,0.08469733414354727,2.661287494582819,0.7128682546607636,0.2586921853776333,-3.8207875494442614,39.3
,,0.06037804076533004,0.02191053846525388,0.002408754912963337,0.08469733414354727,2.674705370784287,0.7128682546607636,0.2586921853776333,-3.8207875494442614,39.4
,,0.06037804076533004,0.02191053846525388,0.002408754912963337,0.08469733414354727,2.6881232469857554,0.7128682546607636,0.2586921853776333,-3.8207875494442614,39.5
,,0.06037804076533004,0.02191053846525388,0.002408754912963337,0.08469733414354727,2.6921158408876678,0.7128682546607636,0.2586921853776333,-3.8207875494442614,39.6
,,0.06037804076533004,0.02191053846525388,0.002408754912963337,0.08469733414354727,2.6961084347895805,0.7128682546607636,0.2586921853776333,-3.8207875494442614,39.7
,,0.033203105250141744,0.011635419372889911,0.0012109000155522646,0.04604942463858392,2.70118948766223,0.7210319240844869,0.25267241587076894,-4.453701438795812,39.8
,,0.06010839742285847,0.02210974721960667,0.002699533521013348,0.08491767816347849,2.7047707017366225,0.707843157312207,0.2603668364205895,-3.8117367170317484,39.9
,,0.06010839742285847,0.02210974721960667,0.002699533521013348,0.08491767816347849,2.70661048687412,0.707843157312207,0.2603668364205895,-3.8117367170317484,40.0
,,0.06010839742285847,0.02210974721960667,0.002699533521013348,0.08491767816347849,2.7084502720116186,0.707843157312207,0.2603668364205895,-3.8117367170317484,40.1
,,0.06010839742285847,0.02210974721960667,0.002699533521013348,0.08491767816347849,2.7102900571491166,0.707843157312207,0.2603668364205895,-3.8117367170317484,40.2
,,0.06010839742285847,0.02210974721960667,0.002699533521013348,0.08491767816347849,2.7121298422866147,0.707843157312207,0.2603668364205895,-3.8117367170317484,40.3
,,0.06010839742285847,0.02210974721960667,0.002699533521013348,0.08491767816347849,2.714292625088868,0.707843157312207,0.2603668364205895,-3.8117367170317484,40.4
,,0.06010839742285847,0.02210974721960667,0.002699533521013348,0.08491767816347849,2.716455407891121,0.707843157312207,0.2603668364205895,-3.8117367170317484,40.5
,,0.06010839742285847,0.02210974721960667,0.002699533521013348,0.08491767816347849,2.7186181906933746,0.707843157312207,0.2603668364205895,-3.8117367170317484,40.6
,,0.058317667738166615,0.022293220103608142,0.003387966423576731,0.08399885426535149,2.7196398562432886,0.6942674188619492,0.26539909738749645,-3.803472677971262,40.7
,,0.058317667738166615,0.022293220103608142,0.003387966423576731,0.08399885426535149,2.720661521793202,0.6942674188619492,0.26539909738749645,-3.803472677971262,40.8
,,0.05937700631861836,0.022029467066571905,0.0029379989902841015,0.08434447237547436,2.7205347868092695,0.7039821893044881,0.2611844789129017,-3.81537430971915,40.9
,,0.05937700631861836,0.022029467066571905,0.0029379989902841015,0.08434447237547436,2.7204080518253364,0.7039821893044881,0.2611844789129017,-3.81537430971915,41.0
,,0.05937700631861836,0.022029467066571905,0.0029379989902841015,0.08434447237547436,2.7202813168414033,0.7039821893044881,0.2611844789129017,-3.81537430971915,41.1
,,0.05937700631861836,0.022029467066571905,0.0029379989902841015,0.08434447237547436,2.72015458185747,0.7039821893044881,0.2611844789129017,-3.81537430971915,41.2
,,0.05937700631861836,0.022029467066571905,0.0029379989902841015,0.08434447237547436,2.7208191119349623,0.7039821893044881,0.2611844789129017,-3.81537430971915,41.3
,,0.05937700631861836,0.022029467066571905,0.0029379989902841015,0.08434447237547436,2.7214836420124535,0.7039821893044881,0.2611844789129017,-3.81537430971915,41.4
,,0.04162963873344618,0.01138887851890425,0.0016411707667096812,0.05465968801906011,2.7328142168132827,0.7616150081012119,0.208359742465652,-4.475117968275545,41.5
,,0.04162963873344618,0.01138887851890425,0.0016411707667096812,0.05465968801906011,2.7441447916141115,0.7616150081012119,0.208359742465652,-4.475117968275545,41.6
,,0.04162963873344618,0.01138887851890425,0.0016411707667096812,0.05465968801906011,2.7554753664149403,0.7616150081012119,0.208359742465652,-4.475117968275545,41.7
,,0.058267099420982356,0.02148593926953413,0.003069118819044248,0.08282215750956073,2.7540724094672515,0.7035206661243543,0.25942259795700034,-3.8403565452551325,41.8
,,0.058267099420982356,0.02148593926953413,0.003069118819044248,0.08282215750956073,2.7526694525195623,0.7035206661243543,0.25942259795700034,-3.8403565452551325,41.9
,,0.058267099420982356,0.02148593926953413,0.003069118819044248,0.08282215750956073,2.751266495571874,0.7035206661243543,0.25942259795700034,-3.8403565452551325,42.0
,,0.058267099420982356,0.02148593926953413,0.003069118819044248,0.08282215750956073,2.7498635386241848,0.7035206661243543,0.25942259795700034,-3.8403565452551325,42.1
,,0.058267099420982356,0.02148593926953413,0.003069118819044248,0.08282215750956073,2.7498485015301215,0.7035206661243543,0.25942259795700034,-3.8403565452551325,42.2
,,0.058267099420982356,0.02148593926953413,0.003069118819044248,0.08282215750956073,2.7498334644360583,0.7035206661243543,0.25942259795700034,-3.8403565452551325,42.3
,,0.045235579597486406,0.011211109831512606,0.0018006664507509845,0.058247355879749996,2.7645186212701063,0.7766117262193664,0.1924741417388563,-4.490850043095436,42.4
,,0.045235579597486406,0.011211109831512606,0.0018006664507509845,0.058247355879749996,2.7792037781041548,0.7766117262193664,0.1924741417388563,-4.490850043095436,42.5
,,0.05643155688521052,0.020409938069433285,0.003051330781863955,0.07989282573650776,2.779778014998836,0.7063407304095842,0.25546646875085777,-3.891733336489667,42.6
,,0.05643155688521052,0.020409938069433285,0.003051330781863955,0.07989282573650776,2.777798832469418,0.7063407304095842,0.25546646875085777,-3.891733336489667,42.7
,,0.05643155688521052,0.020409938069433285,0.003051330781863955,0.07989282573650776,2.7758196499400003,0.7063407304095842,0.25546646875085777,-3.891733336489667,42.8
,,0.05643155688521052,0.020409938069433285,0.003051330781863955,0.07989282573650776,2.7738404674105825,0.7063407304095842,0.25546646875085777,-3.891733336489667,42.9
,,0.05643155688521052,0.020409938069433285,0.003051330781863955,0.07989282573650776,2.7925548304186947,0.7063407304095842,0.25546646875085777,-3.891733336489667,43.0
,,0.05643155688521052,0.020409938069433285,0.003051330781863955,0.07989282573650776,2.8112691934268064,0.7063407304095842,0.25546646875085777,-3.891733336489667,43.1
,,0.05643155688521052,0.020409938069433285,0.003051330781863955,0.07989282573650776,2.829983556434918,0.7063407304095842,0.25546646875085777,-3.891733336489667,43.2
,,0.05455355615176126,0.019708220228424635,0.0035812528399509456,0.07784302922013685,2.8487329770201444,0.7008149181538924,0.2531789991457117,-3.9267194597929023,43.3
,,0.05455355615176126,0.019708220228424635,0.0035812528399509456,0.07784302922013685,2.8674823976053707,0.7008149181538924,0.2531789991457117,-3.9267194597929023,43.4
,,0.05510765394237656,0.019390587587190616,0.002945220999771923,0.07744346252933909,2.8654517386657656,0.7115856153965131,0.25038378907508924,-3.942967506566783,43.5
,,0.05510765394237656,0.019390587587190616,0.002945220999771923,0.07744346252933909,2.8634210797261606,0.7115856153965131,0.25038378907508924,-3.942967506566783,43.6
,,0.05510765394237656,0.019390587587190616,0.002945220999771923,0.07744346252933909,2.8613904207865555,0.7115856153965131,0.25038378907508924,-3.942967506566783,43.7
,,0.05510765394237656,0.019390587587190616,0.002945220999771923,0.07744346252933909,2.859359761846951,0.7115856153965131,0.25038378907508924,-3.942967506566783,43.8
,,0.05510765394237656,0.019390587587190616,0.002945220999771923,0.07744346252933909,2.8598767268842438,0.7115856153965131,0.25038378907508924,-3.942967506566783,43.9
,,0.05510765394237656,0.019390587587190616,0.002945220999771923,0.07744346252933909,2.8603936919215363,0.7115856153965131,0.25038378907508924,-3.942967506566783,44.0
,,0.05378448326112515,0.01877900968431381,0.003441733414190413,0.07600522635962936,2.8611561563733945,0.707641906184666,0.24707524184532123,-3.975015539057079,44.1
,,0.053627511166302114,0.018704290808242284,0.0034552433839587235,0.07578704535850311,2.8619524979805204,0.7076078888235118,0.24680063353523665,-3.979002326456147,44.2
,,0.053627511166302114,0.018704290808242284,0.0034552433839587235,0.07578704535850311,2.859612007101613,0.7076078888235118,0.24680063353523665,-3.979002326456147,44.3
,,0.05437047122120538,0.01848027486037163,0.002774518528235829,0.07562526460981284,2.858104381081869,0.7189458642125595,0.24436641584952157,-3.991051339482474,44.4
,,0.05437047122120538,0.01848027486037163,0.002774518528235829,0.07562526460981284,2.8565967550621254,0.7189458642125595,0.24436641584952157,-3.991051339482474,44.5
,,0.05437047122120538,0.01848027486037163,0.002774518528235829,0.07562526460981284,2.8550891290423817,0.7189458642125595,0.24436641584952157,-3.991051339482474,44.6
,,0.05437047122120538,0.01848027486037163,0.002774518528235829,0.07562526460981284,2.8565118480797733,0.7189458642125595,0.24436641584952157,-3.991051339482474,44.7
,,0.05437047122120538,0.01848027486037163,0.002774518528235829,0.07562526460981284,2.8579345671171645,0.7189458642125595,0.24436641584952157,-3.991051339482474,44.8
,,0.05437047122120538,0.01848027486037163,0.002774518528235829,0.07562526460981284,2.8593572861545553,0.7189458642125595,0.24436641584952157,-3.991051339482474,44.9
,,0.05437047122120538,0.01848027486037163,0.002774518528235829,0.07562526460981284,2.860780005191947,0.7189458642125595,0.24436641584952157,-3.991051339482474,45.0
,,0.05437047122120538,0.01848027486037163,0.002774518528235829,0.07562526460981284,2.862202724229338,0.7189458642125595,0.24436641584952157,-3.991051339482474,45.1
,,0.05359016453222363,0.01807363239823171,0.0032982449831069956,0.07496204191356233,2.8604941221718656,0.7148973422311213,0.24110378982301683,-4.013301176414989,45.2
,,0.054670690692863504,0.017994160900248683,0.0025759526535489383,0.07524080424666113,2.8595982326812783,0.7266096002062545,0.23915428709744538,-4.017707968143856,45.3
,,0.054670690692863504,0.017994160900248683,0.0025759526535489383,0.07524080424666113,2.8619249831998848,0.7266096002062545,0.23915428709744538,-4.017707968143856,45.4
,,0.054670690692863504,0.017994160900248683,0.0025759526535489383,0.07524080424666113,2.864251733718492,0.7266096002062545,0.23915428709744538,-4.017707968143856,45.5
,,0.054670690692863504,0.017994160900248683,0.0025759526535489383,0.07524080424666113,2.8665784842370994,0.7266096002062545,0.23915428709744538,-4.017707968143856,45.6
,,0.054670690692863504,0.017994160900248683,0.0025759526535489383,0.07524080424666113,2.8689052347557062,0.7266096002062545,0.23915428709744538,-4.017707968143856,45.7
,,0.054670690692863504,0.017994160900248683,0.0025759526535489383,0.07524080424666113,2.8712319852743136,0.7266096002062545,0.23915428709744538,-4.017707968143856,45.8
,,0.054670690692863504,0.017994160900248683,0.0025759526535489383,0.07524080424666113,2.8735587357929204,0.7266096002062545,0.23915428709744538,-4.017707968143856,45.9
,,0.04881684298348725,0.011117056879651383,0.001707618949917372,0.061641518813056004,2.8909179295024994,0.7919474393798938,0.18035014538442443,-4.499274694286846,46.0
,,0.054670690692863504,0.017994160900248683,0.0025759526535489383,0.07524080424666113,2.889757259273927,0.7266096002062545,0.23915428709744538,-4.017707968143856,46.1
,,0.0559534781249712,0.01808749430233611,0.0024126323807932416,0.07645360480810055,2.8892104063802972,0.7318618692397185,0.23658131421972756,-4.01253450203019,46.2
,,0.0559534781249712,0.01808749430233611,0.0024126323807932416,0.07645360480810055,2.892169800919245,0.7318618692397185,0.23658131421972756,-4.01253450203019,46.3
,,0.0559534781249712,0.01808749430233611,0.0024126323807932416,0.07645360480810055,2.895129195458193,0.7318618692397185,0.23658131421972756,-4.01253450203019,46.4
,,0.0559534781249712,0.01808749430233611,0.0024126323807932416,0.07645360480810055,2.898088589997141,0.7318618692397185,0.23658131421972756,-4.01253450203019,46.5
,,0.0559534781249712,0.01808749430233611,0.0024126323807932416,0.07645360480810055,2.901047984536088,0.7318618692397185,0.23658131421972756,-4.01253450203019,46.6
,,0.0559534781249712,0.01808749430233611,0.0024126323807932416,0.07645360480810055,2.9040073790750367,0.7318618692397185,0.23658131421972756,-4.01253450203019,46.7
,,0.0559534781249712,0.01808749430233611,0.0024126323807932416,0.07645360480810055,2.9069667736139837,0.7318618692397185,0.23658131421972756,-4.01253450203019,46.8
,,0.0559534781249712,0.01808749430233611,0.0024126323807932416,0.07645360480810055,2.9099261681529316,0.7318618692397185,0.23658131421972756,-4.01253450203019,46.9
,,0.05645392148763222,0.018531400231699836,0.003047913742763681,0.07803323546209574,2.909173288674913,0.7234599610451169,0.237480864684912,-3.988288675878728,47.0
,,0.05786656743575107,0.018692162071222287,0.0022996247596191394,0.0788583542665925,2.912612223753843,0.7338038940062641,0.237034645790738,-3.9796509835619083,47.1
,,0.05786656743575107,0.018692162071222287,0.0022996247596191394,0.0788583542665925,2.916050893843542,0.7338038940062641,0.237034645790738,-3.9796509835619083,47.2
,,0.05786656743575107,0.018692162071222287,0.0022996247596191394,0.0788583542665925,2.9194898289224724,0.7338038940062641,0.237034645790738,-3.9796509835619083,47.3
,,0.05786656743575107,0.018692162071222287,0.0022996247596191394,0.0788583542665925,2.922928499012172,0.7338038940062641,0.237034645790738,-3.9796509835619083,47.4
,,0.05786656743575107,0.018692162071222287,0.0022996247596191394,0.0788583542665925,2.926367169101872,0.7338038940062641,0.237034645790738,-3.9796509835619083,47.5
,,0.05786656743575107,0.018692162071222287,0.0022996247596191394,0.0788583542665925,2.929805839191572,0.7338038940062641,0.237034645790738,-3.9796509835619083,47.6
,,0.05786656743575107,0.018692162071222287,0.0022996247596191394,0.0788583542665925,2.9332445092812716,0.7338038940062641,0.237034645790738,-3.9796509835619083,47.7
,,0.05786656743575107,0.018692162071222287,0.0022996247596191394,0.0788583542665925,2.9366834443602015,0.7338038940062641,0.237034645790738,-3.9796509835619083,47.8
,,0.05867675820754049,0.019521385167190073,0.003023138182479067,0.08122128155720963,2.940717741855354,0.7224308344138904,0.24034815497758236,-3.9362447390809163,47.9
,,0.0603901077598229,0.01984599268606714,0.0022497912271327936,0.08248589167302284,2.94390968631869,0.7321265071512053,0.2405986318816483,-3.919753172024513,48.0
,,0.0603901077598229,0.01984599268606714,0.0022497912271327936,0.08248589167302284,2.947101630782027,0.7321265071512053,0.2405986318816483,-3.919753172024513,48.1
,,0.0603901077598229,0.01984599268606714,0.0022497912271327936,0.08248589167302284,2.950293575245363,0.7321265071512053,0.2405986318816483,-3.919753172024513,48.2
,,0.0603901077598229,0.01984599268606714,0.0022497912271327936,0.08248589167302284,2.9534855197087,0.7321265071512053,0.2405986318816483,-3.919753172024513,48.3
,,0.0603901077598229,0.01984599268606714,0.0022497912271327936,0.08248589167302284,2.9566774641720373,0.7321265071512053,0.2405986318816483,-3.919753172024513,48.4
,,0.0603901077598229,0.01984599268606714,0.0022497912271327936,0.08248589167302284,2.9598694086353734,0.7321265071512053,0.2405986318816483,-3.919753172024513,48.5
,,0.05912336783362486,0.02015322455705358,0.002933044402884182,0.08220963679356262,2.9618475262859305,0.7191780688934327,0.24514430841800858,-3.9043909757471638,48.6
,,0.05899066525823509,0.020212495755273376,0.002964355482984767,0.08216751649649323,2.9636571089971535,0.7179317055390461,0.24599131891902817,-3.9014542640839616,48.7
,,0.05594699195246573,0.015139848608136414,0.00189332926692425,0.07298016982752639,2.9730095915929984,0.7666053954750301,0.2074515398349487,-4.190425030485417,48.8
,,0.05742180861849712,0.015741645881911563,0.0014856835035312686,0.07464913800393995,2.983333214214214,0.7692226615592858,0.21087511929582797,-4.151445474629142,48.9
,,0.05742180861849712,0.015741645881911563,0.0014856835035312686,0.07464913800393995,2.9936568368354295,0.7692226615592858,0.21087511929582797,-4.151445474629142,49.0
,,0.05742180861849712,0.015741645881911563,0.0014856835035312686,0.07464913800393995,3.003980459456646,0.7692226615592858,0.21087511929582797,-4.151445474629142,49.1
,,0.05742180861849712,0.015741645881911563,0.0014856835035312686,0.07464913800393995,3.014304082077862,0.7692226615592858,0.21087511929582797,-4.151445474629142,49.2
,,0.05742180861849712,0.015741645881911563,0.0014856835035312686,0.07464913800393995,3.0246277046990775,0.7692226615592858,0.21087511929582797,-4.151445474629142,49.3
,,0.05742180861849712,0.015741645881911563,0.0014856835035312686,0.07464913800393995,3.034951327320294,0.7692226615592858,0.21087511929582797,-4.151445474629142,49.4
,,0.05742180861849712,0.015741645881911563,0.0014856835035312686,0.07464913800393995,3.0452749499415095,0.7692226615592858,0.21087511929582797,-4.151445474629142,49.5
,,0.059005520769098645,0.0210397547697824,0.002979787754162409,0.08302506329304346,3.0462287239466095,0.7106952819877299,0.25341449840900376,-3.8613415466091463,49.6
,,0.059005520769098645,0.0210397547697824,0.002979787754162409,0.08302506329304346,3.0483236152040485,0.7106952819877299,0.25341449840900376,-3.8613415466091463,49.7
,,0.059005520769098645,0.0210397547697824,0.002979787754162409,0.08302506329304346,3.0504185064614875,0.7106952819877299,0.25341449840900376,-3.8613415466091463,49.8
,,0.04467658472731323,0.015975410782149452,0.0025310581410845387,0.06318305365054722,3.051543392617469,0.7070975862358672,0.2528432840632591,-4.136704564986576,49.9
,,0.04467658472731323,0.015975410782149452,0.0025310581410845387,0.06318305365054722,3.0526682787734494,0.7070975862358672,0.2528432840632591,-4.136704564986576,50.0
,,0.04467658472731323,0.015975410782149452,0.0025310581410845387,0.06318305365054722,3.0537931649294303,0.7070975862358672,0.2528432840632591,-4.136704564986576,50.1
,,0.04467658472731323,0.015975410782149452,0.0025310581410845387,0.06318305365054722,3.054918051085411,0.7070975862358672,0.2528432840632591,-4.136704564986576,50.2
,,0.04467658472731323,0.015975410782149452,0.0025310581410845387,0.06318305365054722,3.056042937241392,0.7070975862358672,0.2528432840632591,-4.136704564986576,50.3
,,0.059786719605120664,0.022389860177055528,0.0031887691846026398,0.08536534896677883,3.055764204739153,0.7003628559919264,0.2622827698598042,-3.7991470932746028,50.4
,,0.059786719605120664,0.022389860177055528,0.0031887691846026398,0.08536534896677883,3.0448194275135774,0.7003628559919264,0.2622827698598042,-3.7991470932746028,50.5
,,0.059786719605120664,0.022389860177055528,0.0031887691846026398,0.08536534896677883,3.0338746502880016,0.7003628559919264,0.2622827698598042,-3.7991470932746028,50.6
,,0.059786719605120664,0.022389860177055528,0.0031887691846026398,0.08536534896677883,3.022929873062425,0.7003628559919264,0.2622827698598042,-3.7991470932746028,50.7
,,0.059786719605120664,0.022389860177055528,0.0031887691846026398,0.08536534896677883,3.0224675125394493,0.7003628559919264,0.2622827698598042,-3.7991470932746028,50.8
,,0.061373200085493906,0.021178646675062453,0.003910238326177691,0.08646208508673404,3.0245342895441274,0.7098278976724615,0.24494721187694224,-3.8547618372118824,50.9
,,0.061373200085493906,0.021178646675062453,0.003910238326177691,0.08646208508673404,3.026601066548805,0.7098278976724615,0.24494721187694224,-3.8547618372118824,51.0
,,0.061373200085493906,0.021178646675062453,0.003910238326177691,0.08646208508673404,3.028667843553482,0.7098278976724615,0.24494721187694224,-3.8547618372118824,51.1
,,0.061373200085493906,0.021178646675062453,0.003910238326177691,0.08646208508673404,3.03073462055816,0.7098278976724615,0.24494721187694224,-3.8547618372118824,51.2
,,0.061646963189457005,0.024230286066224193,0.0035759767420012576,0.08945322599768246,3.028871731005291,0.6891530462082401,0.2708710143874738,-3.7201519379409285,51.3
,,0.061646963189457005,0.024230286066224193,0.0035759767420012576,0.08945322599768246,3.012308647524311,0.6891530462082401,0.2708710143874738,-3.7201519379409285,51.4
,,0.061646963189457005,0.024230286066224193,0.0035759767420012576,0.08945322599768246,2.9957455640433306,0.6891530462082401,0.2708710143874738,-3.7201519379409285,51.5
,,0.061646963189457005,0.024230286066224193,0.0035759767420012576,0.08945322599768246,2.9932934005017184,0.6891530462082401,0.2708710143874738,-3.7201519379409285,51.6
,,0.061646963189457005,0.024230286066224193,0.0035759767420012576,0.08945322599768246,2.9908412369601054,0.6891530462082401,0.2708710143874738,-3.7201519379409285,51.7
,,0.06365667396942572,0.022901830990744516,0.004446232559824344,0.09100473751999458,2.9910038963479386,0.699487473994854,0.2516553710812338,-3.7765384156905397,51.8
,,0.06365667396942572,0.022901830990744516,0.004446232559824344,0.09100473751999458,2.9911665557357714,0.699487473994854,0.2516553710812338,-3.7765384156905397,51.9
,,0.06365667396942572,0.022901830990744516,0.004446232559824344,0.09100473751999458,2.9913292151236046,0.699487473994854,0.2516553710812338,-3.7765384156905397,52.0
,,0.06451250684037961,0.026362714557217535,0.00343848831193324,0.09431370970953039,2.9877981689984767,0.6840204572491821,0.27952155247004973,-3.635804594482339,52.1
,,0.06451250684037961,0.026362714557217535,0.00343848831193324,0.09431370970953039,2.984267122873348,0.6840204572491821,0.27952155247004973,-3.635804594482339,52.2
,,0.06451250684037961,0.026362714557217535,0.00343848831193324,0.09431370970953039,2.9807010191711054,0.6840204572491821,0.27952155247004973,-3.635804594482339,52.3
,,0.06451250684037961,0.026362714557217535,0.00343848831193324,0.09431370970953039,2.9771349154688624,0.6840204572491821,0.27952155247004973,-3.635804594482339,52.4
,,0.06451250684037961,0.026362714557217535,0.00343848831193324,0.09431370970953039,2.9727474944270327,0.6840204572491821,0.27952155247004973,-3.635804594482339,52.5
,,0.06451250684037961,0.026362714557217535,0.00343848831193324,0.09431370970953039,2.968360073385203,0.6840204572491821,0.27952155247004973,-3.635804594482339,52.6
,,0.06451250684037961,0.026362714557217535,0.00343848831193324,0.09431370970953039,2.963972652343373,0.6840204572491821,0.27952155247004973,-3.635804594482339,52.7
,,0.06564953766711942,0.024439575262555312,0.005052900923364202,0.09514201385303894,2.9622417456748047,0.6900162715551191,0.25687468945429187,-3.711551523612271,52.8
,,0.06323376458922206,0.026497620248810295,0.0037161786379171116,0.09344756347594946,2.9571796847846845,0.6766764401031867,0.2835560314596107,-3.6307003519540824,52.9
,,0.06272770677618411,0.02644450992169298,0.004450503994590747,0.09362272069246784,2.9519582479690882,0.6700051687477898,0.28245825079745307,-3.6327067066195404,53.0
,,0.06272770677618411,0.02644450992169298,0.004450503994590747,0.09362272069246784,2.9464913117389258,0.6700051687477898,0.28245825079745307,-3.6327067066195404,53.1
,,0.06272770677618411,0.02644450992169298,0.004450503994590747,0.09362272069246784,2.940990498353497,0.6700051687477898,0.28245825079745307,-3.6327067066195404,53.2
,,0.06272770677618411,0.02644450992169298,0.004450503994590747,0.09362272069246784,2.9354896849680676,0.6700051687477898,0.28245825079745307,-3.6327067066195404,53.3
,,0.06272770677618411,0.02644450992169298,0.004450503994590747,0.09362272069246784,2.929156006723474,0.6700051687477898,0.28245825079745307,-3.6327067066195404,53.4
,,0.06272770677618411,0.02644450992169298,0.004450503994590747,0.09362272069246784,2.92282232847888,0.6700051687477898,0.28245825079745307,-3.6327067066195404,53.5
,,0.06272770677618411,0.02644450992169298,0.004450503994590747,0.09362272069246784,2.916488650234286,0.6700051687477898,0.28245825079745307,-3.6327067066195404,53.6
,,0.06272770677618411,0.02644450992169298,0.004450503994590747,0.09362272069246784,2.910154971989693,0.6700051687477898,0.28245825079745307,-3.6327067066195404,53.7
,,0.0572702786205753,0.024420450887113712,0.0037233996865817355,0.08541412919427076,2.903522701394217,0.6705012292558357,0.2859064550265501,-3.712334346624263,53.8
,,0.056849783327239174,0.02435776703852142,0.004416064631650988,0.08562361499741158,2.8967656745279515,0.6639498148841035,0.2844748734243206,-3.714904505427269,53.9
,,0.056849783327239174,0.02435776703852142,0.004416064631650988,0.08562361499741158,2.890008647661686,0.6639498148841035,0.2844748734243206,-3.714904505427269,54.0
,,0.056849783327239174,0.02435776703852142,0.004416064631650988,0.08562361499741158,2.88325162079542,0.6639498148841035,0.2844748734243206,-3.714904505427269,54.1
,,0.056849783327239174,0.02435776703852142,0.004416064631650988,0.08562361499741158,2.876238807864385,0.6639498148841035,0.2844748734243206,-3.714904505427269,54.2
,,0.056849783327239174,0.02435776703852142,0.004416064631650988,0.08562361499741158,2.868413282366464,0.6639498148841035,0.2844748734243206,-3.714904505427269,54.3
,,0.056849783327239174,0.02435776703852142,0.004416064631650988,0.08562361499741158,2.860587756868543,0.6639498148841035,0.2844748734243206,-3.714904505427269,54.4
,,0.056849783327239174,0.02435776703852142,0.004416064631650988,0.08562361499741158,2.8527622313706216,0.6639498148841035,0.2844748734243206,-3.714904505427269,54.5
,,0.05519711527450008,0.02111059371689924,0.00501093233772033,0.08131864132911966,2.8480557657439585,0.6787756702808359,0.2596033747226379,-3.857980292605078,54.6
,,0.05519711527450008,0.02111059371689924,0.00501093233772033,0.08131864132911966,2.843349300117296,0.6787756702808359,0.2596033747226379,-3.857980292605078,54.7
,,0.05519711527450008,0.02111059371689924,0.00501093233772033,0.08131864132911966,2.8386428344906323,0.6787756702808359,0.2596033747226379,-3.857980292605078,54.8
,,0.05248209111184743,0.0223071051581339,0.0043169867118396914,0.07910618298182102,2.831025736755903,0.663438547198113,0.2819894010466941,-3.8028500343069904,54.9
,,0.05248209111184743,0.0223071051581339,0.0043169867118396914,0.07910618298182102,2.8083761958302014,0.663438547198113,0.2819894010466941,-3.8028500343069904,55.0
,,0.05248209111184743,0.0223071051581339,0.0043169867118396914,0.07910618298182102,2.800759098095472,0.663438547198113,0.2819894010466941,-3.8028500343069904,55.1
,,0.05248209111184743,0.0223071051581339,0.0043169867118396914,0.07910618298182102,2.792528183025801,0.663438547198113,0.2819894010466941,-3.8028500343069904,55.2
,,0.05248209111184743,0.0223071051581339,0.0043169867118396914,0.07910618298182102,2.78429726795613,0.663438547198113,0.2819894010466941,-3.8028500343069904,55.3
,,0.05248209111184743,0.0223071051581339,0.0043169867118396914,0.07910618298182102,2.7760663528864598,0.663438547198113,0.2819894010466941,-3.8028500343069904,55.4
,,0.051320951237751454,0.019274041318954698,0.0048394199053490485,0.07543441246205519,2.7712797779297333,0.6803387149540904,0.2555072769825028,-3.948996097788882,55.5
,,0.051320951237751454,0.019274041318954698,0.0048394199053490485,0.07543441246205519,2.7664932029730074,0.6803387149540904,0.2555072769825028,-3.948996097788882,55.6
,,0.051320951237751454,0.019274041318954698,0.0048394199053490485,0.07543441246205519,2.7617066280162814,0.6803387149540904,0.2555072769825028,-3.948996097788882,55.7
,,0.049806981859223845,0.020483105787643795,0.004189198632594603,0.07447928627946225,2.754352439551836,0.6687360251055222,0.2750174821867491,-3.888154840521202,55.8
,,0.049806981859223845,0.020483105787643795,0.004189198632594603,0.07447928627946225,2.746998251087391,0.6687360251055222,0.2750174821867491,-3.888154840521202,55.9
,,0.049806981859223845,0.020483105787643795,0.004189198632594603,0.07447928627946225,2.7401673636545656,0.6687360251055222,0.2750174821867491,-3.888154840521202,56.0
,,0.049806981859223845,0.020483105787643795,0.004189198632594603,0.07447928627946225,2.732787878925516,0.6687360251055222,0.2750174821867491,-3.888154840521202,56.1
,,0.049806981859223845,0.020483105787643795,0.004189198632594603,0.07447928627946225,2.725408394196466,0.6687360251055222,0.2750174821867491,-3.888154840521202,56.2
,,0.049806981859223845,0.020483105787643795,0.004189198632594603,0.07447928627946225,2.718028909467416,0.6687360251055222,0.2750174821867491,-3.888154840521202,56.3
,,0.049275526493222054,0.017698282164831144,0.004643879816242373,0.07161768847429556,2.714567041207966,0.6880357009973538,0.24712166144797132,-4.034287696946683,56.4
,,0.049275526493222054,0.017698282164831144,0.004643879816242373,0.07161768847429556,2.711105172948516,0.6880357009973538,0.24712166144797132,-4.034287696946683,56.5
,,0.049275526493222054,0.017698282164831144,0.004643879816242373,0.07161768847429556,2.7076433046890656,0.6880357009973538,0.24712166144797132,-4.034287696946683,56.6
,,0.049275526493222054,0.017698282164831144,0.004643879816242373,0.07161768847429556,2.7041814364296153,0.6880357009973538,0.24712166144797132,-4.034287696946683,56.7
,,0.049026248024483216,0.018980372006820703,0.004050010949850566,0.07205663098115449,2.698484000945041,0.6803849605084287,0.2634090957122986,-3.964349886054565,56.8
,,0.049026248024483216,0.018980372006820703,0.004050010949850566,0.07205663098115449,2.693786545862882,0.6803849605084287,0.2634090957122986,-3.964349886054565,56.9
,,0.049026248024483216,0.018980372006820703,0.004050010949850566,0.07205663098115449,2.6886761025068346,0.6803849605084287,0.2634090957122986,-3.964349886054565,57.0
,,0.049026248024483216,0.018980372006820703,0.004050010949850566,0.07205663098115449,2.6835656591507875,0.6803849605084287,0.2634090957122986,-3.964349886054565,57.1
,,0.04917425304312018,0.01649078183536233,0.004448952360853889,0.07011398723933641,2.6828877322033544,0.7013472629257589,0.235199601173308,-4.104953730838255,57.2
,,0.04917425304312018,0.01649078183536233,0.004448952360853889,0.07011398723933641,2.6822098052559213,0.7013472629257589,0.235199601173308,-4.104953730838255,57.3
,,0.04917425304312018,0.01649078183536233,0.004448952360853889,0.07011398723933641,2.6815318783084883,0.7013472629257589,0.235199601173308,-4.104953730838255,57.4
,,0.04917425304312018,0.01649078183536233,0.004448952360853889,0.07011398723933641,2.6808539513610556,0.7013472629257589,0.235199601173308,-4.104953730838255,57.5
,,0.05006888621088781,0.017882885696747453,0.0039065931281238335,0.0718583650357591,2.679366492523136,0.6967718537148998,0.24886296380175554,-4.0239111298235875,57.6
,,0.05006888621088781,0.017882885696747453,0.0039065931281238335,0.0718583650357591,2.6780475686245495,0.6967718537148998,0.24886296380175554,-4.0239111298235875,57.7
,,0.05006888621088781,0.017882885696747453,0.0039065931281238335,0.0718583650357591,2.6680972858706054,0.6967718537148998,0.24886296380175554,-4.0239111298235875,57.8
,,0.05006888621088781,0.017882885696747453,0.0039065931281238335,0.0718583650357591,2.6586757018895466,0.6967718537148998,0.24886296380175554,-4.0239111298235875,57.9
,,0.05006888621088781,0.017882885696747453,0.0039065931281238335,0.0718583650357591,2.649254117908488,0.6967718537148998,0.24886296380175554,-4.0239111298235875,58.0
,,0.050842157507812645,0.016748421272789506,0.0031459715160746986,0.07073655029667685,2.642452727207094,0.7187537036309385,0.23677181319338858,-4.089451277523871,58.1
,,0.050842157507812645,0.016748421272789506,0.0031459715160746986,0.07073655029667685,2.6356513365057004,0.7187537036309385,0.23677181319338858,-4.089451277523871,58.2
,,0.050842157507812645,0.016748421272789506,0.0031459715160746986,0.07073655029667685,2.6288499458043066,0.7187537036309385,0.23677181319338858,-4.089451277523871,58.3
,,0.05242621534332764,0.017067695623414984,0.0037437515400372693,0.07323766250677989,2.622448827993655,0.7158368187744161,0.23304533540833533,-4.070567746987708,58.4
,,0.050842157507812645,0.016748421272789506,0.0031459715160746986,0.07073655029667685,2.6156474372922607,0.7187537036309385,0.23677181319338858,-4.089451277523871,58.5
,,0.05226811198639108,0.0169840282588651,0.0037239341621903253,0.07297607440744651,2.6186808658897087,0.7162362789558001,0.2327341994862366,-4.075481890730406,58.6
,,0.05226811198639108,0.0169840282588651,0.0037239341621903253,0.07297607440744651,2.6217142944871563,0.7162362789558001,0.2327341994862366,-4.075481890730406,58.7
,,0.05226811198639108,0.0169840282588651,0.0037239341621903253,0.07297607440744651,2.6247477230846044,0.7162362789558001,0.2327341994862366,-4.075481890730406,58.8
,,0.05309452025147047,0.01589934264229442,0.0029403081618159525,0.07193417105558084,2.6307791859306566,0.7380987293291574,0.2210262856856944,-4.14147751386253,58.9
,,0.05309452025147047,0.01589934264229442,0.0029403081618159525,0.07193417105558084,2.636810648776709,0.7380987293291574,0.2210262856856944,-4.14147751386253,59.0
,,0.05309452025147047,0.01589934264229442,0.0029403081618159525,0.07193417105558084,2.6428421116227616,0.7380987293291574,0.2210262856856944,-4.14147751386253,59.1
,,0.05309452025147047,0.01589934264229442,0.0029403081618159525,0.07193417105558084,2.6488735744688134,0.7380987293291574,0.2210262856856944,-4.14147751386253,59.2
,,0.05309452025147047,0.01589934264229442,0.0029403081618159525,0.07193417105558084,2.6549050373148657,0.7380987293291574,0.2210262856856944,-4.14147751386253,59.3
,,0.05309452025147047,0.01589934264229442,0.0029403081618159525,0.07193417105558084,2.6623401188191376,0.7380987293291574,0.2210262856856944,-4.14147751386253,59.4
,,0.03580036224506465,0.015462082313975726,0.0033291258381065014,0.05459157039714688,2.658396853733589,0.6557855358367871,0.28323204849193756,-4.169364554467464,59.5
,,0.03580036224506465,0.015462082313975726,0.0033291258381065014,0.05459157039714688,2.65445358864804,0.6557855358367871,0.28323204849193756,-4.169364554467464,59.6
,,0.03580036224506465,0.015462082313975726,0.0033291258381065014,0.05459157039714688,2.6505103235624907,0.6557855358367871,0.28323204849193756,-4.169364554467464,59.7
,,0.0532082646602349,0.014573369213061326,0.002579629085888504,0.07036126295918473,2.661408130134695,0.7562153153944954,0.20712205267712533,-4.2285594423324975,59.8
,,0.0532082646602349,0.014573369213061326,0.002579629085888504,0.07036126295918473,2.6697767991792456,0.7562153153944954,0.20712205267712533,-4.2285594423324975,59.9
,,0.0532082646602349,0.014573369213061326,0.002579629085888504,0.07036126295918473,2.6781454682237964,0.7562153153944954,0.20712205267712533,-4.2285594423324975,60.0
,,0.0532082646602349,0.014573369213061326,0.002579629085888504,0.07036126295918473,2.686514137268347,0.7562153153944954,0.20712205267712533,-4.2285594423324975,60.1
,,0.0532082646602349,0.014573369213061326,0.002579629085888504,0.07036126295918473,2.694882806312898,0.7562153153944954,0.20712205267712533,-4.2285594423324975,60.2
,,0.052792886935429245,0.014415915052186392,0.002982597144622231,0.07019139913223787,2.7073040747764447,0.7521275767130599,0.2053800783344889,-4.239422470739899,60.3
,,0.052792886935429245,0.014415915052186392,0.002982597144622231,0.07019139913223787,2.7197253432399915,0.7521275767130599,0.2053800783344889,-4.239422470739899,60.4
,,0.052792886935429245,0.014415915052186392,0.002982597144622231,0.07019139913223787,2.7321466117035387,0.7521275767130599,0.2053800783344889,-4.239422470739899,60.5
,,0.054088824850235376,0.013773517477273737,0.0022690329691537592,0.07013137529666287,2.7475111114797284,0.7712500235655458,0.1963959414600149,-4.28500755388941,60.6
,,0.054088824850235376,0.013773517477273737,0.0022690329691537592,0.07013137529666287,2.7628756112559185,0.7712500235655458,0.1963959414600149,-4.28500755388941,60.7
,,0.054088824850235376,0.013773517477273737,0.0022690329691537592,0.07013137529666287,2.7756252881026624,0.7712500235655458,0.1963959414600149,-4.28500755388941,60.8
,,0.054088824850235376,0.013773517477273737,0.0022690329691537592,0.07013137529666287,2.788374964949407,0.7712500235655458,0.1963959414600149,-4.28500755388941,60.9
,,0.054030539514429314,0.013850006098435707,0.00269440906244089,0.07057495467530592,2.800836910368596,0.7655766803253014,0.1962453417385163,-4.279469606028619,61.0
,,0.054088824850235376,0.013773517477273737,0.0022690329691537592,0.07013137529666287,2.8172802927283014,0.7712500235655458,0.1963959414600149,-4.28500755388941,61.1
,,0.05400440608573796,0.013863112654189486,0.002692488682506916,0.07056000742243437,2.8333740177897173,0.7653684864631605,0.19647266434076005,-4.278523732209945,61.2
,,0.05400440608573796,0.013863112654189486,0.002692488682506916,0.07056000742243437,2.8494677428511332,0.7653684864631605,0.19647266434076005,-4.278523732209945,61.3
,,0.05546165375774044,0.01354252900714219,0.002022318632821141,0.07102650139770376,2.867781713248149,0.7808585903336283,0.190668676348178,-4.301920248500441,61.4
,,0.05546165375774044,0.01354252900714219,0.002022318632821141,0.07102650139770376,2.886095683645164,0.7808585903336283,0.190668676348178,-4.301920248500441,61.5
,,0.05546165375774044,0.01354252900714219,0.002022318632821141,0.07102650139770376,2.9044096540421793,0.7808585903336283,0.190668676348178,-4.301920248500441,61.6
,,0.05546165375774044,0.01354252900714219,0.002022318632821141,0.07102650139770376,2.922723624439195,0.7808585903336283,0.190668676348178,-4.301920248500441,61.7
,,0.05546165375774044,0.01354252900714219,0.002022318632821141,0.07102650139770376,2.938381080462949,0.7808585903336283,0.190668676348178,-4.301920248500441,61.8
,,0.05546165375774044,0.01354252900714219,0.002022318632821141,0.07102650139770376,2.957369690708254,0.7808585903336283,0.190668676348178,-4.301920248500441,61.9
,,0.05546165375774044,0.01354252900714219,0.002022318632821141,0.07102650139770376,2.9765176768790367,0.7808585903336283,0.190668676348178,-4.301920248500441,62.0
,,0.055567022894753966,0.013880568558825425,0.0024901085275857975,0.07193769998116518,2.9946418276505535,0.7724325758163326,0.19295263210332902,-4.2772653622910175,62.1
,,0.055567022894753966,0.013880568558825425,0.0024901085275857975,0.07193769998116518,3.01276597842207,0.7724325758163326,0.19295263210332902,-4.2772653622910175,62.2
,,0.055567022894753966,0.013880568558825425,0.0024901085275857975,0.07193769998116518,3.0308901291935872,0.7724325758163326,0.19295263210332902,-4.2772653622910175,62.3
,,0.059204206797982675,0.012336244721777745,0.0021174248283798215,0.07365787634814024,3.0578585506647573,0.8037729260365447,0.16748032027791715,-4.395213624340932,62.4
,,0.059204206797982675,0.012336244721777745,0.0021174248283798215,0.07365787634814024,3.084826972135927,0.8037729260365447,0.16748032027791715,-4.395213624340932,62.5
,,0.059204206797982675,0.012336244721777745,0.0021174248283798215,0.07365787634814024,3.111795393607097,0.8037729260365447,0.16748032027791715,-4.395213624340932,62.6
,,0.059204206797982675,0.012336244721777745,0.0021174248283798215,0.07365787634814024,3.138763815078267,0.8037729260365447,0.16748032027791715,-4.395213624340932,62.7
,,0.059204206797982675,0.012336244721777745,0.0021174248283798215,0.07365787634814024,3.1660308289003187,0.8037729260365447,0.16748032027791715,-4.395213624340932,62.8
,,0.05713245527096581,0.014382919585516938,0.0024026479086855543,0.0739180227651683,3.1842340995987186,0.7729164435643942,0.19457933325963456,-4.241713916315531,62.9
,,0.059204206797982675,0.012336244721777745,0.0021174248283798215,0.07365787634814024,3.2116258696915603,0.8037729260365447,0.16748032027791715,-4.395213624340932,63.0
,,0.05783347656049762,0.013038163571330324,0.002773598090706854,0.0736452382225348,3.234978740263289,0.7852982481466274,0.17704014388456088,-4.339874562820619,63.1
,,0.05783347656049762,0.013038163571330324,0.002773598090706854,0.0736452382225348,3.258331610835017,0.7852982481466274,0.17704014388456088,-4.339874562820619,63.2
,,0.057629541906817766,0.014534918949688398,0.0018245169581226717,0.07398897781462883,3.2764533217675162,0.7788936083318002,0.1964470841333154,-4.231201321203674,63.3
,,0.057629541906817766,0.014534918949688398,0.0018245169581226717,0.07398897781462883,3.294575032700016,0.7788936083318002,0.1964470841333154,-4.231201321203674,63.4
,,0.057629541906817766,0.014534918949688398,0.0018245169581226717,0.07398897781462883,3.3126967436325163,0.7788936083318002,0.1964470841333154,-4.231201321203674,63.5
,,0.057629541906817766,0.014534918949688398,0.0018245169581226717,0.07398897781462883,3.327699394693758,0.7788936083318002,0.1964470841333154,-4.231201321203674,63.6
,,0.057629541906817766,0.014534918949688398,0.0018245169581226717,0.07398897781462883,3.3427020457549994,0.7788936083318002,0.1964470841333154,-4.231201321203674,63.7
,,0.057629541906817766,0.014534918949688398,0.0018245169581226717,0.07398897781462883,3.357704696816241,0.7788936083318002,0.1964470841333154,-4.231201321203674,63.8
,,0.057629541906817766,0.014534918949688398,0.0018245169581226717,0.07398897781462883,3.3756179799855492,0.7788936083318002,0.1964470841333154,-4.231201321203674,63.9
,,0.05606362539316173,0.01483786945236444,0.0023431629754436453,0.07324465782096981,3.391459173342092,0.7654295488716287,0.20257954496329675,-4.210572619449731,64.0
,,0.056454093084175136,0.015189963985303303,0.0018204570787867947,0.07346451414826523,3.406612857571129,0.7684539091926769,0.20676600344279272,-4.187120333325041,64.1
,,0.056454093084175136,0.015189963985303303,0.0018204570787867947,0.07346451414826523,3.421766541800167,0.7684539091926769,0.20676600344279272,-4.187120333325041,64.2
,,0.056454093084175136,0.015189963985303303,0.0018204570787867947,0.07346451414826523,3.4369202260292044,0.7684539091926769,0.20676600344279272,-4.187120333325041,64.3
,,0.056454093084175136,0.015189963985303303,0.0018204570787867947,0.07346451414826523,3.452073910258241,0.7684539091926769,0.20676600344279272,-4.187120333325041,64.4
,,0.056454093084175136,0.015189963985303303,0.0018204570787867947,0.07346451414826523,3.463783254374334,0.7684539091926769,0.20676600344279272,-4.187120333325041,64.5
,,0.056454093084175136,0.015189963985303303,0.0018204570787867947,0.07346451414826523,3.4754925984904257,0.7684539091926769,0.20676600344279272,-4.187120333325041,64.6
,,0.056454093084175136,0.015189963985303303,0.0018204570787867947,0.07346451414826523,3.4872019426065184,0.7684539091926769,0.20676600344279272,-4.187120333325041,64.7
,,0.056454093084175136,0.015189963985303303,0.0018204570787867947,0.07346451414826523,3.5014789002303304,0.7684539091926769,0.20676600344279272,-4.187120333325041,64.8
,,0.056539414765118534,0.015946016278074498,0.002352675970438484,0.07483810701363151,3.5138573856868365,0.7554896431950111,0.2130734850785307,-4.138546244077414,64.9
,,0.056539414765118534,0.015946016278074498,0.002352675970438484,0.07483810701363151,3.5262358711433426,0.7554896431950111,0.2130734850785307,-4.138546244077414,65.0
,,0.056539414765118534,0.015946016278074498,0.002352675970438484,0.07483810701363151,3.5386143565998496,0.7554896431950111,0.2130734850785307,-4.138546244077414,65.1
,,0.056539414765118534,0.015946016278074498,0.002352675970438484,0.07483810701363151,3.5509928420563566,0.7554896431950111,0.2130734850785307,-4.138546244077414,65.2
,,0.056539414765118534,0.015946016278074498,0.002352675970438484,0.07483810701363151,3.5633713275128636,0.7554896431950111,0.2130734850785307,-4.138546244077414,65.3
,,0.056539414765118534,0.015946016278074498,0.002352675970438484,0.07483810701363151,3.57183219649977,0.7554896431950111,0.2130734850785307,-4.138546244077414,65.4
,,0.056539414765118534,0.015946016278074498,0.002352675970438484,0.07483810701363151,3.580293065486677,0.7554896431950111,0.2130734850785307,-4.138546244077414,65.5
,,0.056539414765118534,0.015946016278074498,0.002352675970438484,0.07483810701363151,3.5887539344735835,0.7554896431950111,0.2130734850785307,-4.138546244077414,65.6
,,0.056539414765118534,0.015946016278074498,0.002352675970438484,0.07483810701363151,3.5972148034604907,0.7554896431950111,0.2130734850785307,-4.138546244077414,65.7
,,0.057061528178115176,0.016331581365045054,0.002866195439197562,0.07625930498235778,3.607336364645599,0.7482565988677196,0.2141585393260965,-4.1146545386573345,65.8
,,0.056150026099508615,0.018105322758183877,0.002624648178575224,0.07687999703626772,3.6130952775061176,0.7303593686797379,0.23550108553779978,-4.011549308904162,65.9
,,0.056150026099508615,0.018105322758183877,0.002624648178575224,0.07687999703626772,3.6188541903666374,0.7303593686797379,0.23550108553779978,-4.011549308904162,66.0
,,0.056150026099508615,0.018105322758183877,0.002624648178575224,0.07687999703626772,3.624613103227157,0.7303593686797379,0.23550108553779978,-4.011549308904162,66.1
,,0.056150026099508615,0.018105322758183877,0.002624648178575224,0.07687999703626772,3.6259394996790624,0.7303593686797379,0.23550108553779978,-4.011549308904162,66.2
,,0.056150026099508615,0.018105322758183877,0.002624648178575224,0.07687999703626772,3.6272658961309667,0.7303593686797379,0.23550108553779978,-4.011549308904162,66.3
,,0.056150026099508615,0.018105322758183877,0.002624648178575224,0.07687999703626772,3.628592292582872,0.7303593686797379,0.23550108553779978,-4.011549308904162,66.4
,,0.056150026099508615,0.018105322758183877,0.002624648178575224,0.07687999703626772,3.629918689034777,0.7303593686797379,0.23550108553779978,-4.011549308904162,66.5
,,0.05772081980770139,0.018303176698716516,0.0032708504567136496,0.07929484696313155,3.6338495147891683,0.7279264923045872,0.23082428934160942,-4.00068064410598,66.6
,,0.05772081980770139,0.018303176698716516,0.0032708504567136496,0.07929484696313155,3.6377803405435594,0.7279264923045872,0.23082428934160942,-4.00068064410598,66.7
,,0.05917102937501792,0.021554836998560083,0.003846293765014154,0.08457216013859216,3.6371727611661773,0.6996513897487273,0.25486917873727255,-3.8371550329290023,66.8
,,0.05917102937501792,0.021554836998560083,0.003846293765014154,0.08457216013859216,3.636565181788795,0.6996513897487273,0.25486917873727255,-3.8371550329290023,66.9
,,0.05917102937501792,0.021554836998560083,0.003846293765014154,0.08457216013859216,3.635957602411414,0.6996513897487273,0.25486917873727255,-3.8371550329290023,67.0
,,0.05917102937501792,0.021554836998560083,0.003846293765014154,0.08457216013859216,3.6327298297543664,0.6996513897487273,0.25486917873727255,-3.8371550329290023,67.1
,,0.05917102937501792,0.021554836998560083,0.003846293765014154,0.08457216013859216,3.6295020570973198,0.6996513897487273,0.25486917873727255,-3.8371550329290023,67.2
,,0.05917102937501792,0.021554836998560083,0.003846293765014154,0.08457216013859216,3.626274284440273,0.6996513897487273,0.25486917873727255,-3.8371550329290023,67.3
,,0.058972466563528794,0.020776669855291575,0.0038190723322567514,0.08356820875107712,3.6236824515616775,0.7056806343568862,0.24861930351024522,-3.8739245633580612,67.4
,,0.058972466563528794,0.020776669855291575,0.0038190723322567514,0.08356820875107712,3.621490891573824,0.7056806343568862,0.24861930351024522,-3.8739245633580612,67.5
,,0.058972466563528794,0.020776669855291575,0.0038190723322567514,0.08356820875107712,3.618834360903246,0.7056806343568862,0.24861930351024522,-3.8739245633580612,67.6
,,0.06204997868303279,0.025412735563624517,0.004606157829425312,0.09206887207608261,3.6117699400042387,0.6739517633251418,0.2760187562917496,-3.6725048304739984,67.7
,,0.06204997868303279,0.025412735563624517,0.004606157829425312,0.09206887207608261,3.604705519105231,0.6739517633251418,0.2760187562917496,-3.6725048304739984,67.8
,,0.06204997868303279,0.025412735563624517,0.004606157829425312,0.09206887207608261,3.5947307659737358,0.6739517633251418,0.2760187562917496,-3.6725048304739984,67.9
,,0.06204997868303279,0.025412735563624517,0.004606157829425312,0.09206887207608261,3.58475601284224,0.6739517633251418,0.2760187562917496,-3.6725048304739984,68.0
,,0.06204997868303279,0.025412735563624517,0.004606157829425312,0.09206887207608261,3.5747812597107447,0.6739517633251418,0.2760187562917496,-3.6725048304739984,68.1
,,0.06204997868303279,0.025412735563624517,0.004606157829425312,0.09206887207608261,3.564806506579249,0.6739517633251418,0.2760187562917496,-3.6725048304739984,68.2
,,0.0607318684872168,0.02354011200141696,0.004451982964175483,0.08872396345280925,3.556367785418135,0.6845035560152702,0.2653185349856191,-3.749049419242168,68.3
,,0.0607318684872168,0.02354011200141696,0.004451982964175483,0.08872396345280925,3.547929064257021,0.6845035560152702,0.2653185349856191,-3.749049419242168,68.4
,,0.0607318684872168,0.02354011200141696,0.004451982964175483,0.08872396345280925,3.550868689685728,0.6845035560152702,0.2653185349856191,-3.749049419242168,68.5
,,0.060275488275283215,0.02626333003926317,0.00408267413989873,0.0906214924544451,3.550642898088346,0.6651345794771958,0.28981347942890695,-3.639581607817337,68.6
,,0.060275488275283215,0.02626333003926317,0.00408267413989873,0.0906214924544451,3.550417106490965,0.6651345794771958,0.28981347942890695,-3.639581607817337,68.7
,,0.060275488275283215,0.02626333003926317,0.00408267413989873,0.0906214924544451,3.5353502432358312,0.6651345794771958,0.28981347942890695,-3.639581607817337,68.8
,,0.060275488275283215,0.02626333003926317,0.00408267413989873,0.0906214924544451,3.5202833799806967,0.6651345794771958,0.28981347942890695,-3.639581607817337,68.9
,,0.060275488275283215,0.02626333003926317,0.00408267413989873,0.0906214924544451,3.505216516725563,0.6651345794771958,0.28981347942890695,-3.639581607817337,69.0
,,0.06307210481696825,0.028402378212631318,0.0037844927123098296,0.09525897574190939,3.489323199852789,0.6621119356547893,0.29815960114439516,-3.56128239743958,69.1
,,0.06307210481696825,0.028402378212631318,0.0037844927123098296,0.09525897574190939,3.4734298829800165,0.6621119356547893,0.29815960114439516,-3.56128239743958,69.2
,,0.06307210481696825,0.028402378212631318,0.0037844927123098296,0.09525897574190939,3.4574136332457934,0.6621119356547893,0.29815960114439516,-3.56128239743958,69.3
,,0.0625805941336635,0.02968660567583994,0.004700504616394317,0.09696770442589776,3.4401460347165735,0.6453756382516745,0.30614941182325606,-3.517059322244318,69.4
,,0.0625805941336635,0.02968660567583994,0.004700504616394317,0.09696770442589776,3.422878436187354,0.6453756382516745,0.30614941182325606,-3.517059322244318,69.5
,,0.0625805941336635,0.02968660567583994,0.004700504616394317,0.09696770442589776,3.4026676063454926,0.6453756382516745,0.30614941182325606,-3.517059322244318,69.6
,,0.0625805941336635,0.02968660567583994,0.004700504616394317,0.09696770442589776,3.38245677650363,0.6453756382516745,0.30614941182325606,-3.517059322244318,69.7
,,0.0625805941336635,0.02968660567583994,0.004700504616394317,0.09696770442589776,3.362245946661767,0.6453756382516745,0.30614941182325606,-3.517059322244318,69.8
,,0.06409976328628222,0.03262592671705063,0.005383698510401159,0.10210938851373401,3.3404422999698378,0.6277558236249806,0.3195193624400399,-3.422648008622372,69.9
,,0.06409976328628222,0.03262592671705063,0.005383698510401159,0.10210938851373401,3.3189263847054646,0.6277558236249806,0.3195193624400399,-3.422648008622372,70.0
,,0.06409976328628222,0.03262592671705063,0.005383698510401159,0.10210938851373401,3.2971227380135346,0.6277558236249806,0.3195193624400399,-3.422648008622372,70.1
,,0.06497789126605823,0.033142107610636594,0.005300427604739795,0.10342042648143461,3.2756231515822622,0.6282887576152343,0.32045997815127997,-3.4069506718231777,70.2
,,0.06497789126605823,0.033142107610636594,0.005300427604739795,0.10342042648143461,3.2541235651509894,0.6282887576152343,0.32045997815127997,-3.4069506718231777,70.3
,,0.06497789126605823,0.033142107610636594,0.005300427604739795,0.10342042648143461,3.230403733384118,0.6282887576152343,0.32045997815127997,-3.4069506718231777,70.4
,,0.06497789126605823,0.033142107610636594,0.005300427604739795,0.10342042648143461,3.2066839016172457,0.6282887576152343,0.32045997815127997,-3.4069506718231777,70.5
,,0.06497789126605823,0.033142107610636594,0.005300427604739795,0.10342042648143461,3.182964069850373,0.6282887576152343,0.32045997815127997,-3.4069506718231777,70.6
,,0.06489058329012973,0.033532493554387754,0.004612698227564456,0.10303577507208193,3.1589616953966906,0.6297869186186397,0.32544515272417796,-3.395240353407901,70.7
,,0.06489058329012973,0.033532493554387754,0.004612698227564456,0.10303577507208193,3.134959320943007,0.6297869186186397,0.32544515272417796,-3.395240353407901,70.8
,,0.06489058329012973,0.033532493554387754,0.004612698227564456,0.10303577507208193,3.1109569464893245,0.6297869186186397,0.32544515272417796,-3.395240353407901,70.9
,,0.06474445330596211,0.03489082434790084,0.005581578559492636,0.1052168562133556,3.08607095511622,0.6153429748430731,0.3316086946862418,-3.3555313970089475,71.0
,,0.06474445330596211,0.03489082434790084,0.005581578559492636,0.1052168562133556,3.062208799142382,0.6153429748430731,0.3316086946862418,-3.3555313970089475,71.1
,,0.06474445330596211,0.03489082434790084,0.005581578559492636,0.1052168562133556,3.0383466431685426,0.6153429748430731,0.3316086946862418,-3.3555313970089475,71.2
,,0.06474445330596211,0.03489082434790084,0.005581578559492636,0.1052168562133556,3.014484487194703,0.6153429748430731,0.3316086946862418,-3.3555313970089475,71.3
,,0.06474445330596211,0.03489082434790084,0.005581578559492636,0.1052168562133556,2.981778060521211,0.6153429748430731,0.3316086946862418,-3.3555313970089475,71.4
,,0.062308444382311645,0.03363083738278293,0.0046043655078489365,0.10054364727294351,2.9490392761219533,0.619715378070226,0.334489928453521,-3.3923118536653516,71.5
,,0.062308444382311645,0.03363083738278293,0.0046043655078489365,0.10054364727294351,2.9163004917226956,0.619715378070226,0.334489928453521,-3.3923118536653516,71.6
,,0.062308444382311645,0.03363083738278293,0.0046043655078489365,0.10054364727294351,2.883561707323438,0.619715378070226,0.334489928453521,-3.3923118536653516,71.7
,,0.062308444382311645,0.03363083738278293,0.0046043655078489365,0.10054364727294351,2.85082292292418,0.619715378070226,0.334489928453521,-3.3923118536653516,71.8
,,0.05750757492492464,0.03231212874082986,0.005102083983442366,0.09492178764919687,2.826461908726516,0.6058416760697323,0.3404079246826453,-3.4323126164249933,71.9
,,0.05750757492492464,0.03231212874082986,0.005102083983442366,0.09492178764919687,2.7929123951344086,0.6058416760697323,0.3404079246826453,-3.4323126164249933,72.0
,,0.05750757492492464,0.03231212874082986,0.005102083983442366,0.09492178764919687,2.7634017810634153,0.6058416760697323,0.3404079246826453,-3.4323126164249933,72.1
,,0.05750757492492464,0.03231212874082986,0.005102083983442366,0.09492178764919687,2.733891166992422,0.6058416760697323,0.3404079246826453,-3.4323126164249933,72.2
,,0.054650947965312405,0.031750425488122534,0.00529353748287197,0.0916949109363069,2.7089618754296905,0.5960085178911841,0.34626158817229247,-3.449849152532522,72.3
