HRV_ULF,HRV_VLF,HRV_LF,HRV_HF,HRV_VHF,HRV_TP,HRV_LFHF,HRV_LFn,HRV_HFn,HRV_LnHF,time
,,0.03712923436551362,0.009152267498503057,0.0001294167533554249,0.04641091861737211,4.056834480808878,0.8000107619420347,0.19720074006630983,-4.6937536163514855,0.0
,,0.03712923436551362,0.009152267498503057,0.0001294167533554249,0.04641091861737211,4.056834480808878,0.8000107619420347,0.19720074006630983,-4.6937536163514855,0.1
,,0.03712923436551362,0.009152267498503057,0.0001294167533554249,0.04641091861737211,4.056834480808878,0.8000107619420347,0.19720074006630983,-4.6937536163514855,0.2
,,0.030872389991766586,0.010426166957090609,0.00012095358092370189,0.0414195105297809,3.782888080625372,0.745358638885149,0.25172115323753347,-4.5634365792318645,0.3
,,0.030872389991766586,0.010426166957090609,0.00012095358092370189,0.0414195105297809,3.618520240515268,0.745358638885149,0.25172115323753347,-4.5634365792318645,0.4
,,0.029806604792712087,0.01051763795821989,7.730311485355985e-05,0.04040154586578554,3.4877608267524516,0.737759017729916,0.2603276120463217,-4.554701625569234,0.5
,,0.029806604792712087,0.01051763795821989,7.730311485355985e-05,0.04040154586578554,3.394361245493297,0.737759017729916,0.2603276120463217,-4.554701625569234,0.6
,,0.029806604792712087,0.01051763795821989,7.730311485355985e-05,0.04040154586578554,3.3243115595489314,0.737759017729916,0.2603276120463217,-4.554701625569234,0.7
,,0.029806604792712087,0.01051763795821989,7.730311485355985e-05,0.04040154586578554,3.2698284704810914,0.737759017729916,0.2603276120463217,-4.554701625569234,0.8
,,0.029806604792712087,0.01051763795821989,7.730311485355985e-05,0.04040154586578554,3.2262419992268194,0.737759017729916,0.2603276120463217,-4.554701625569234,0.9
,,0.028139230511376144,0.010282111076906436,0.0001041873253667525,0.03852552891364933,3.1817397471821396,0.7304047810595173,0.2668908478830398,-4.577349682362396,1.0
,,0.028139230511376144,0.010282111076906436,0.0001041873253667525,0.03852552891364933,3.144654537144907,0.7304047810595173,0.2668908478830398,-4.577349682362396,1.1
,,0.028139230511376144,0.010282111076906436,0.0001041873253667525,0.03852552891364933,3.1132747440364787,0.7304047810595173,0.2668908478830398,-4.577349682362396,1.2
,,0.027321114341731022,0.010292512187933183,6.644121027064032e-05,0.03768006773993485,3.0805026262412207,0.7250813488526457,0.27315535255858275,-4.576338620164182,1.3
,,0.027321114341731022,0.010292512187933183,6.644121027064032e-05,0.03768006773993485,3.052100124151998,0.7250813488526457,0.27315535255858275,-4.576338620164182,1.4
,,0.027321114341731022,0.010292512187933183,6.644121027064032e-05,0.03768006773993485,3.0272479348239276,0.7250813488526457,0.27315535255858275,-4.576338620164182,1.5
,,0.027321114341731022,0.010292512187933183,6.644121027064032e-05,0.03768006773993485,3.00531953247563,0.7250813488526457,0.27315535255858275,-4.576338620164182,1.6
,,0.028133093479159224,0.008753669238338833,0.00015052356512368703,0.03703728628262174,3.0169052794010014,0.759588412187735,0.23634747890387803,-4.738282324987261,1.7
,,0.028133093479159224,0.008753669238338833,0.00015052356512368703,0.03703728628262174,3.0272714740184394,0.759588412187735,0.23634747890387803,-4.738282324987261,1.8
,,0.028133093479159224,0.008753669238338833,0.00015052356512368703,0.03703728628262174,3.0366010491741333,0.759588412187735,0.23634747890387803,-4.738282324987261,1.9
,,0.028133093479159224,0.008753669238338833,0.00015052356512368703,0.03703728628262174,3.045042093362618,0.759588412187735,0.23634747890387803,-4.738282324987261,2.0
,,0.025343253446833434,0.00993004755365693,6.166638338148247e-05,0.035334967383871846,3.0226392008162652,0.7172287205336719,0.28102608517446553,-4.612190012048615,2.1
,,0.025343253446833434,0.00993004755365693,6.166638338148247e-05,0.035334967383871846,3.0021843858826394,0.7172287205336719,0.28102608517446553,-4.612190012048615,2.2
,,0.025343253446833434,0.00993004755365693,6.166638338148247e-05,0.035334967383871846,2.983434138860149,0.7172287205336719,0.28102608517446553,-4.612190012048615,2.3
,,0.025343253446833434,0.00993004755365693,6.166638338148247e-05,0.035334967383871846,2.9661839115994577,0.7172287205336719,0.28102608517446553,-4.612190012048615,2.4
,,0.026041591614732032,0.008810522482442431,0.0001508661952341669,0.035002980292408635,2.9657821261833983,0.7439821237273293,0.25170778056156656,-4.731808535180477,2.5
,,0.026041591614732032,0.008810522482442431,0.0001508661952341669,0.035002980292408635,2.9654101026500097,0.7439821237273293,0.25170778056156656,-4.731808535180477,2.6
,,0.026041591614732032,0.008810522482442431,0.0001508661952341669,0.035002980292408635,2.9650646522261495,0.7439821237273293,0.25170778056156656,-4.731808535180477,2.7
,,0.026041591614732032,0.008810522482442431,0.0001508661952341669,0.035002980292408635,2.9647430259694514,0.7439821237273293,0.25170778056156656,-4.731808535180477,2.8
,,0.025680269784242253,0.008528709258153178,0.0002181357933776285,0.034427114835773064,2.9662862000444505,0.745931510867068,0.24773232665117303,-4.764317246846997,2.9
,,0.025680269784242253,0.008528709258153178,0.0002181357933776285,0.034427114835773064,2.9677298145017073,0.745931510867068,0.24773232665117303,-4.764317246846997,3.0
,,0.025680269784242253,0.008528709258153178,0.0002181357933776285,0.034427114835773064,2.9690832030553858,0.745931510867068,0.24773232665117303,-4.764317246846997,3.1
,,0.025122279819807483,0.00897434227686836,0.00015842531050372583,0.034255047407179565,2.9639396199248678,0.7333891417865056,0.2619859832681888,-4.713385631207581,3.2
,,0.025122279819807483,0.00897434227686836,0.00015842531050372583,0.034255047407179565,2.95909860050791,0.7333891417865056,0.2619859832681888,-4.713385631207581,3.3
,,0.025122279819807483,0.00897434227686836,0.00015842531050372583,0.034255047407179565,2.954534210771921,0.7333891417865056,0.2619859832681888,-4.713385631207581,3.4
,,0.025122279819807483,0.00897434227686836,0.00015842531050372583,0.034255047407179565,2.9502233982434865,0.7333891417865056,0.2619859832681888,-4.713385631207581,3.5
,,0.025122279819807483,0.00897434227686836,0.00015842531050372583,0.034255047407179565,2.9461456026084814,0.7333891417865056,0.2619859832681888,-4.713385631207581,3.6
,,0.025122279819807483,0.00897434227686836,0.00015842531050372583,0.034255047407179565,2.9422824277963713,0.7333891417865056,0.2619859832681888,-4.713385631207581,3.7
,,0.02519272403035458,0.008523687069255137,0.00023083083190110961,0.03394724193151083,2.94262424853219,0.7421140156593974,0.2510862910881487,-4.764906277144771,3.8
,,0.022684099529029497,0.008805840820531369,7.158864344769795e-05,0.03156152899300856,2.9334593622255523,0.718726254803892,0.27900552037520165,-4.732340048063216,3.9
,,0.022684099529029497,0.008805840820531369,7.158864344769795e-05,0.03156152899300856,2.924741543543629,0.718726254803892,0.27900552037520165,-4.732340048063216,4.0
,,0.022684099529029497,0.008805840820531369,7.158864344769795e-05,0.03156152899300856,2.916438859084654,0.718726254803892,0.27900552037520165,-4.732340048063216,4.1
,,0.022684099529029497,0.008805840820531369,7.158864344769795e-05,0.03156152899300856,2.908522345995864,0.718726254803892,0.27900552037520165,-4.732340048063216,4.2
,,0.022684099529029497,0.008805840820531369,7.158864344769795e-05,0.03156152899300856,2.9009656744111103,0.718726254803892,0.27900552037520165,-4.732340048063216,4.3
,,0.022684099529029497,0.008805840820531369,7.158864344769795e-05,0.03156152899300856,2.89374485489679,0.718726254803892,0.27900552037520165,-4.732340048063216,4.4
,,0.022684099529029497,0.008805840820531369,7.158864344769795e-05,0.03156152899300856,2.886837984057005,0.718726254803892,0.27900552037520165,-4.732340048063216,4.5
,,0.022684099529029497,0.008805840820531369,7.158864344769795e-05,0.03156152899300856,2.880225022614658,0.718726254803892,0.27900552037520165,-4.732340048063216,4.6
,,0.022603088905922913,0.007944045823502218,8.209456044907634e-05,0.03062922928987421,2.879497143463897,0.7379581344345261,0.25936159700004136,-4.8353325839399135,4.7
,,0.022603088905922913,0.007944045823502218,8.209456044907634e-05,0.03062922928987421,2.8787989736662283,0.7379581344345261,0.25936159700004136,-4.8353325839399135,4.8
,,0.022603088905922913,0.007944045823502218,8.209456044907634e-05,0.03062922928987421,2.878128730660466,0.7379581344345261,0.25936159700004136,-4.8353325839399135,4.9
,,0.022603088905922913,0.007944045823502218,8.209456044907634e-05,0.03062922928987421,2.8774847716941454,0.7379581344345261,0.25936159700004136,-4.8353325839399135,5.0
,,0.022603088905922913,0.007944045823502218,8.209456044907634e-05,0.03062922928987421,2.8768655803803758,0.7379581344345261,0.25936159700004136,-4.8353325839399135,5.1
,,0.022603088905922913,0.007944045823502218,8.209456044907634e-05,0.03062922928987421,2.87626975477656,0.7379581344345261,0.25936159700004136,-4.8353325839399135,5.2
,,0.022603088905922913,0.007944045823502218,8.209456044907634e-05,0.03062922928987421,2.8756959967877003,0.7379581344345261,0.25936159700004136,-4.8353325839399135,5.3
,,0.022697784282345104,0.008170707712556105,0.00011160609302548509,0.03098009808792669,2.8739187229507595,0.732656953439108,0.2637405372108982,-4.8071997505379285,5.4
,,0.022697784282345104,0.008170707712556105,0.00011160609302548509,0.03098009808792669,2.872204923179424,0.732656953439108,0.2637405372108982,-4.8071997505379285,5.5
,,0.02541994833125943,0.00804998538306287,0.0002903438201860861,0.03376027753450839,2.8772147190963735,0.7529543649419407,0.23844547411775574,-4.822085003321901,5.6
,,0.02541994833125943,0.00804998538306287,0.0002903438201860861,0.03376027753450839,2.8820517634299807,0.7529543649419407,0.23844547411775574,-4.822085003321901,5.7
,,0.02541994833125943,0.00804998538306287,0.0002903438201860861,0.03376027753450839,2.886724840159059,0.7529543649419407,0.23844547411775574,-4.822085003321901,5.8
,,0.02541994833125943,0.00804998538306287,0.0002903438201860861,0.03376027753450839,2.891242147663834,0.7529543649419407,0.23844547411775574,-4.822085003321901,5.9
,,0.02541994833125943,0.00804998538306287,0.0002903438201860861,0.03376027753450839,2.89561134672583,0.7529543649419407,0.23844547411775574,-4.822085003321901,6.0
,,0.02541994833125943,0.00804998538306287,0.0002903438201860861,0.03376027753450839,2.8998396038826,0.7529543649419407,0.23844547411775574,-4.822085003321901,6.1
,,0.025234633956058752,0.008434945184195637,0.0002130782924125119,0.0338826574326669,2.901297344943573,0.7447654897260088,0.2489457977420434,-4.775372061618761,6.2
,,0.025234633956058752,0.008434945184195637,0.0002130782924125119,0.0338826574326669,2.90270953159639,0.7447654897260088,0.2489457977420434,-4.775372061618761,6.3
,,0.025234633956058752,0.008434945184195637,0.0002130782924125119,0.0338826574326669,2.904078266352197,0.7447654897260088,0.2489457977420434,-4.775372061618761,6.4
,,0.025234633956058752,0.008434945184195637,0.0002130782924125119,0.0338826574326669,2.9054055242972225,0.7447654897260088,0.2489457977420434,-4.775372061618761,6.5
,,0.025234633956058752,0.008434945184195637,0.0002130782924125119,0.0338826574326669,2.9066931626020978,0.7447654897260088,0.2489457977420434,-4.775372061618761,6.6
,,0.026093759350456783,0.007456601028632212,0.00029400518123120394,0.0338443655603202,2.91540969543796,0.7709927167625685,0.22032030753663995,-4.89865559478433,6.7
,,0.026093759350456783,0.007456601028632212,0.00029400518123120394,0.0338443655603202,2.923873575148145,0.7709927167625685,0.22032030753663995,-4.89865559478433,6.8
,,0.026093759350456783,0.007456601028632212,0.00029400518123120394,0.0338443655603202,2.9320956297237535,0.7709927167625685,0.22032030753663995,-4.89865559478433,6.9
,,0.025730036826101834,0.007750529994388102,0.00018624087995810048,0.03366680770044804,2.9375559409135383,0.7642553180282494,0.23021279782000115,-4.859994051582465,7.0
,,0.025730036826101834,0.007750529994388102,0.00018624087995810048,0.03366680770044804,2.942864576792496,0.7642553180282494,0.23021279782000115,-4.859994051582465,7.1
,,0.025730036826101834,0.007750529994388102,0.00018624087995810048,0.03366680770044804,2.948027770592578,0.7642553180282494,0.23021279782000115,-4.859994051582465,7.2
,,0.025730036826101834,0.007750529994388102,0.00018624087995810048,0.03366680770044804,2.9530514186142796,0.7642553180282494,0.23021279782000115,-4.859994051582465,7.3
,,0.025730036826101834,0.007750529994388102,0.00018624087995810048,0.03366680770044804,2.9579411026887357,0.7642553180282494,0.23021279782000115,-4.859994051582465,7.4
,,0.025730036826101834,0.007750529994388102,0.00018624087995810048,0.03366680770044804,2.9627021108664953,0.7642553180282494,0.23021279782000115,-4.859994051582465,7.5
,,0.025730036826101834,0.007750529994388102,0.00018624087995810048,0.03366680770044804,2.9673394564941837,0.7642553180282494,0.23021279782000115,-4.859994051582465,7.6
,,0.0255416565217059,0.006885519693627713,0.00017861245391246618,0.03260578866924608,2.9768540023737904,0.7833473001006384,0.2111747629684592,-4.97833466764176,7.7
,,0.0255416565217059,0.006885519693627713,0.00017861245391246618,0.03260578866924608,2.9861276736741664,0.7833473001006384,0.2111747629684592,-4.97833466764176,7.8
,,0.0255416565217059,0.006885519693627713,0.00017861245391246618,0.03260578866924608,2.9951695031920336,0.7833473001006384,0.2111747629684592,-4.97833466764176,7.9
,,0.0255416565217059,0.006885519693627713,0.00017861245391246618,0.03260578866924608,3.0039880776600763,0.7833473001006384,0.2111747629684592,-4.97833466764176,8.0
,,0.0255416565217059,0.006885519693627713,0.00017861245391246618,0.03260578866924608,3.012591564945972,0.7833473001006384,0.2111747629684592,-4.97833466764176,8.1
,,0.0255416565217059,0.006885519693627713,0.00017861245391246618,0.03260578866924608,3.020987739285219,0.7833473001006384,0.2111747629684592,-4.97833466764176,8.2
,,0.0255416565217059,0.006885519693627713,0.00017861245391246618,0.03260578866924608,3.0291840047116274,0.7833473001006384,0.2111747629684592,-4.97833466764176,8.3
,,0.024499597169886558,0.006760863849686168,0.00022365056743971993,0.03148411158701245,3.0361787539865444,0.7781574875370763,0.2147389114347791,-4.996604608676394,8.4
,,0.024499597169886558,0.006760863849686168,0.00022365056743971993,0.03148411158701245,3.043010834673672,0.7781574875370763,0.2147389114347791,-4.996604608676394,8.5
,,0.024499597169886558,0.006760863849686168,0.00022365056743971993,0.03148411158701245,3.0496858560346594,0.7781574875370763,0.2147389114347791,-4.996604608676394,8.6
,,0.01749820446738094,0.0058478873453761985,0.000294279489122383,0.02364037130187952,3.0490329107181946,0.7401831487303987,0.24736867584272096,-5.141674820506768,8.7
,,0.01749820446738094,0.0058478873453761985,0.000294279489122383,0.02364037130187952,3.04839463833019,0.7401831487303987,0.24736867584272096,-5.141674820506768,8.8
,,0.01749820446738094,0.0058478873453761985,0.000294279489122383,0.02364037130187952,3.0477705497730305,0.7401831487303987,0.24736867584272096,-5.141674820506768,8.9
,,0.01749820446738094,0.0058478873453761985,0.000294279489122383,0.02364037130187952,3.035941574077218,0.7401831487303987,0.24736867584272096,-5.141674820506768,9.0
,,0.02836744833715509,0.0058585389019578825,0.00016183564506468918,0.03438782288417766,3.044666399668487,0.8249271386763879,0.17036667083258364,-5.13985504061902,9.1
,,0.02836744833715509,0.0058585389019578825,0.00016183564506468918,0.03438782288417766,3.0533912252597557,0.8249271386763879,0.17036667083258364,-5.13985504061902,9.2
,,0.02836744833715509,0.0058585389019578825,0.00016183564506468918,0.03438782288417766,3.074291446414737,0.8249271386763879,0.17036667083258364,-5.13985504061902,9.3
,,0.02836744833715509,0.0058585389019578825,0.00016183564506468918,0.03438782288417766,3.0951916675697166,0.8249271386763879,0.17036667083258364,-5.13985504061902,9.4
,,0.02836744833715509,0.0058585389019578825,0.00016183564506468918,0.03438782288417766,3.1175039456373246,0.8249271386763879,0.17036667083258364,-5.13985504061902,9.5
,,0.02836744833715509,0.0058585389019578825,0.00016183564506468918,0.03438782288417766,3.1398162237049325,0.8249271386763879,0.17036667083258364,-5.13985504061902,9.6
,,0.027923980924979476,0.004959191927966806,0.0001759072621091555,0.03305908011505544,3.1708916509876266,0.8446690236932095,0.15000997942796174,-5.306512469266467,9.7
,,0.02159308733499296,0.004895842911734433,0.00015614606340782914,0.026645076310135223,3.1884086571900347,0.8103969034901735,0.18374287447141435,-5.319368819308409,9.8
,,0.02159308733499296,0.004895842911734433,0.00015614606340782914,0.026645076310135223,3.2059256633924424,0.8103969034901735,0.18374287447141435,-5.319368819308409,9.9
,,0.02159308733499296,0.004895842911734433,0.00015614606340782914,0.026645076310135223,3.2245231866082174,0.8103969034901735,0.18374287447141435,-5.319368819308409,10.0
,,0.02159308733499296,0.004895842911734433,0.00015614606340782914,0.026645076310135223,3.2431207098239927,0.8103969034901735,0.18374287447141435,-5.319368819308409,10.1
,,0.02159308733499296,0.004895842911734433,0.00015614606340782914,0.026645076310135223,3.261718233039768,0.8103969034901735,0.18374287447141435,-5.319368819308409,10.2
,,0.02159308733499296,0.004895842911734433,0.00015614606340782914,0.026645076310135223,3.2812296688314593,0.8103969034901735,0.18374287447141435,-5.319368819308409,10.3
,,0.02159308733499296,0.004895842911734433,0.00015614606340782914,0.026645076310135223,3.3007411046231505,0.8103969034901735,0.18374287447141435,-5.319368819308409,10.4
,,0.02025409495394868,0.004671691892853054,0.00018946601908934548,0.02511525286589108,3.3194192101868714,0.8064459896979849,0.18601014761024603,-5.366233983222233,10.5
,,0.019469483443562495,0.004112478311563751,0.00013378606085561584,0.02371574781598186,3.3425278854159535,0.8209516981978598,0.1734070687322954,-5.493729436688444,10.6
,,0.019469483443562495,0.004112478311563751,0.00013378606085561584,0.02371574781598186,3.3594210286202637,0.8209516981978598,0.1734070687322954,-5.493729436688444,10.7
,,0.019469483443562495,0.004112478311563751,0.00013378606085561584,0.02371574781598186,3.3763141718245744,0.8209516981978598,0.1734070687322954,-5.493729436688444,10.8
,,0.019469483443562495,0.004112478311563751,0.00013378606085561584,0.02371574781598186,3.3932073150288846,0.8209516981978598,0.1734070687322954,-5.493729436688444,10.9
,,0.019469483443562495,0.004112478311563751,0.00013378606085561584,0.02371574781598186,3.4101004582331953,0.8209516981978598,0.1734070687322954,-5.493729436688444,11.0
,,0.018208761882906647,0.0039165394551117704,0.00016489764487249322,0.02229019898289091,3.4334006597173787,0.8168954389722131,0.1757067964318288,-5.542546807133482,11.1
,,0.018208761882906647,0.0039165394551117704,0.00016489764487249322,0.02229019898289091,3.4567008612015613,0.8168954389722131,0.1757067964318288,-5.542546807133482,11.2
,,0.018208761882906647,0.0039165394551117704,0.00016489764487249322,0.02229019898289091,3.480001062685744,0.8168954389722131,0.1757067964318288,-5.542546807133482,11.3
,,0.018208761882906647,0.0039165394551117704,0.00016489764487249322,0.02229019898289091,3.5033012641699273,0.8168954389722131,0.1757067964318288,-5.542546807133482,11.4
,,0.01733194704830165,0.003509103706435827,0.00011552594572731131,0.020956576700464788,3.525339046294502,0.8270409473851353,0.16744641820999323,-5.6523946284046085,11.5
,,0.01733194704830165,0.003509103706435827,0.00011552594572731131,0.020956576700464788,3.5473768284190776,0.8270409473851353,0.16744641820999323,-5.6523946284046085,11.6
,,0.01733194704830165,0.003509103706435827,0.00011552594572731131,0.020956576700464788,3.569414610543653,0.8270409473851353,0.16744641820999323,-5.6523946284046085,11.7
,,0.016137575245243035,0.003332785465382106,0.00014586972258632478,0.019616230433211465,3.590373843066121,0.8226644410702447,0.16989938391728407,-5.703946848550218,11.8
,,0.016137575245243035,0.003332785465382106,0.00014586972258632478,0.019616230433211465,3.610718622728172,0.8226644410702447,0.16989938391728407,-5.703946848550218,11.9
,,0.016137575245243035,0.003332785465382106,0.00014586972258632478,0.019616230433211465,3.6310634023902235,0.8226644410702447,0.16989938391728407,-5.703946848550218,12.0
,,0.016137575245243035,0.003332785465382106,0.00014586972258632478,0.019616230433211465,3.651408182052275,0.8226644410702447,0.16989938391728407,-5.703946848550218,12.1
,,0.016137575245243035,0.003332785465382106,0.00014586972258632478,0.019616230433211465,3.6741051093640054,0.8226644410702447,0.16989938391728407,-5.703946848550218,12.2
,,0.016137575245243035,0.003332785465382106,0.00014586972258632478,0.019616230433211465,3.6968020366757357,0.8226644410702447,0.16989938391728407,-5.703946848550218,12.3
,,0.01948832635679276,0.0027536054377853936,0.00013069802711511997,0.022372629821693274,3.744335817061526,0.8710789259962727,0.12307920256721017,-5.894844157717624,12.4
,,0.01825281432463316,0.002671768243032996,9.901765654100473e-05,0.02102360022420716,3.789140157940255,0.868205927147357,0.12708423935671337,-5.925014762461312,12.5
,,0.01825281432463316,0.002671768243032996,9.901765654100473e-05,0.02102360022420716,3.8339444988189837,0.868205927147357,0.12708423935671337,-5.925014762461312,12.6
,,0.01825281432463316,0.002671768243032996,9.901765654100473e-05,0.02102360022420716,3.878748839697713,0.868205927147357,0.12708423935671337,-5.925014762461312,12.7
,,0.01825281432463316,0.002671768243032996,9.901765654100473e-05,0.02102360022420716,3.9218168641681643,0.868205927147357,0.12708423935671337,-5.925014762461312,12.8
,,0.01825281432463316,0.002671768243032996,9.901765654100473e-05,0.02102360022420716,3.969102495752244,0.868205927147357,0.12708423935671337,-5.925014762461312,12.9
,,0.01825281432463316,0.002671768243032996,9.901765654100473e-05,0.02102360022420716,4.016388127336325,0.868205927147357,0.12708423935671337,-5.925014762461312,13.0
,,0.01825281432463316,0.002671768243032996,9.901765654100473e-05,0.02102360022420716,4.063673758920404,0.868205927147357,0.12708423935671337,-5.925014762461312,13.1
,,0.012191331851898132,0.0025165441796359393,9.753757332198144e-05,0.014805413604856052,4.088878701230106,0.8234374383096921,0.1699745948880843,-5.984868675917088,13.2
,,0.012191331851898132,0.0025165441796359393,9.753757332198144e-05,0.014805413604856052,4.114083643539809,0.8234374383096921,0.1699745948880843,-5.984868675917088,13.3
,,0.012191331851898132,0.0025165441796359393,9.753757332198144e-05,0.014805413604856052,4.139288585849511,0.8234374383096921,0.1699745948880843,-5.984868675917088,13.4
,,0.012191331851898132,0.0025165441796359393,9.753757332198144e-05,0.014805413604856052,4.164493528159213,0.8234374383096921,0.1699745948880843,-5.984868675917088,13.5
,,0.012191331851898132,0.0025165441796359393,9.753757332198144e-05,0.014805413604856052,4.189698470468914,0.8234374383096921,0.1699745948880843,-5.984868675917088,13.6
,,0.012191331851898132,0.0025165441796359393,9.753757332198144e-05,0.014805413604856052,4.211911656921823,0.8234374383096921,0.1699745948880843,-5.984868675917088,13.7
,,0.012191331851898132,0.0025165441796359393,9.753757332198144e-05,0.014805413604856052,4.2341248433747305,0.8234374383096921,0.1699745948880843,-5.984868675917088,13.8
,,0.011320133678638952,0.002396179727840131,0.0001247973611479894,0.013841110767627073,4.255002126680038,0.8178630941322697,0.17312047913412756,-6.033879589922745,13.9
,,0.01027991492365759,0.002217643562056272,8.638514157304026e-05,0.012583943627286903,4.274893525447817,0.8169072611996386,0.17622802737669252,-6.111310105377233,14.0
,,0.01027991492365759,0.002217643562056272,8.638514157304026e-05,0.012583943627286903,4.294784924215598,0.8169072611996386,0.17622802737669252,-6.111310105377233,14.1
,,0.01027991492365759,0.002217643562056272,8.638514157304026e-05,0.012583943627286903,4.314676322983378,0.8169072611996386,0.17622802737669252,-6.111310105377233,14.2
,,0.01027991492365759,0.002217643562056272,8.638514157304026e-05,0.012583943627286903,4.334567721751158,0.8169072611996386,0.17622802737669252,-6.111310105377233,14.3
,,0.01027991492365759,0.002217643562056272,8.638514157304026e-05,0.012583943627286903,4.355207352603629,0.8169072611996386,0.17622802737669252,-6.111310105377233,14.4
,,0.01027991492365759,0.002217643562056272,8.638514157304026e-05,0.012583943627286903,4.3758469834561,0.8169072611996386,0.17622802737669252,-6.111310105377233,14.5
,,0.012420716479487316,0.0018717976514682425,7.485516340173233e-05,0.01436736929435729,4.414490895653627,0.8645087506983961,0.13028116791035513,-6.280855998933516,14.6
,,0.012420716479487316,0.0018717976514682425,7.485516340173233e-05,0.01436736929435729,4.453134807851152,0.8645087506983961,0.13028116791035513,-6.280855998933516,14.7
,,0.008581476919990595,0.0019992510454541874,7.948647208899884e-05,0.010660214437533781,4.4657412806902235,0.805000403160361,0.18754322975108087,-6.214982645829221,14.8
,,0.008581476919990595,0.0019992510454541874,7.948647208899884e-05,0.010660214437533781,4.478347753529296,0.805000403160361,0.18754322975108087,-6.214982645829221,14.9
,,0.008581476919990595,0.0019992510454541874,7.948647208899884e-05,0.010660214437533781,4.490954226368368,0.805000403160361,0.18754322975108087,-6.214982645829221,15.0
,,0.008581476919990595,0.0019992510454541874,7.948647208899884e-05,0.010660214437533781,4.50356069920744,0.805000403160361,0.18754322975108087,-6.214982645829221,15.1
,,0.008581476919990595,0.0019992510454541874,7.948647208899884e-05,0.010660214437533781,4.518012572043419,0.805000403160361,0.18754322975108087,-6.214982645829221,15.2
,,0.010361995155813496,0.001685102965177676,6.532757926788726e-05,0.01211242570025906,4.553095893968361,0.8554847238891112,0.139121841229675,-6.385928610114393,15.3
,,0.010361995155813496,0.001685102965177676,6.532757926788726e-05,0.01211242570025906,4.588179215893301,0.8554847238891112,0.139121841229675,-6.385928610114393,15.4
,,0.010361995155813496,0.001685102965177676,6.532757926788726e-05,0.01211242570025906,4.623262537818241,0.8554847238891112,0.139121841229675,-6.385928610114393,15.5
,,0.010361995155813496,0.001685102965177676,6.532757926788726e-05,0.01211242570025906,4.658345859743181,0.8554847238891112,0.139121841229675,-6.385928610114393,15.6
,,0.007203877173072816,0.001854932846844143,7.507977256276902e-05,0.009133889792479729,4.662614914566166,0.7886976235474218,0.2030824642061456,-6.289906784740204,15.7
,,0.007203877173072816,0.001854932846844143,7.507977256276902e-05,0.009133889792479729,4.6668839693891515,0.7886976235474218,0.2030824642061456,-6.289906784740204,15.8
,,0.007203877173072816,0.001854932846844143,7.507977256276902e-05,0.009133889792479729,4.671153024212137,0.7886976235474218,0.2030824642061456,-6.289906784740204,15.9
,,0.005493087123595881,0.001583070542294416,5.8562369098770786e-05,0.007134720034989067,4.6728209838660915,0.7699092741771889,0.22188264354185577,-6.448388936666524,16.0
,,0.005493087123595881,0.001583070542294416,5.8562369098770786e-05,0.007134720034989067,4.674488943520047,0.7699092741771889,0.22188264354185577,-6.448388936666524,16.1
,,0.005493087123595881,0.001583070542294416,5.8562369098770786e-05,0.007134720034989067,4.676156903174002,0.7699092741771889,0.22188264354185577,-6.448388936666524,16.2
,,0.005493087123595881,0.001583070542294416,5.8562369098770786e-05,0.007134720034989067,4.677824862827957,0.7699092741771889,0.22188264354185577,-6.448388936666524,16.3
,,0.005493087123595881,0.001583070542294416,5.8562369098770786e-05,0.007134720034989067,4.679492822481913,0.7699092741771889,0.22188264354185577,-6.448388936666524,16.4
,,0.006101011291539825,0.0016923990499689554,0.00013015091268487228,0.007923561254193653,4.682661385836512,0.7699834829081156,0.2135907069656627,-6.381608200469881,16.5
,,0.006101011291539825,0.0016923990499689554,0.00013015091268487228,0.007923561254193653,4.6858299491911115,0.7699834829081156,0.2135907069656627,-6.381608200469881,16.6
,,0.005761365755558603,0.0017208483962207486,9.742892413838038e-05,0.007579643075917732,4.681813347135096,0.7601104297198091,0.22703554494383507,-6.364937856149639,16.7
,,0.005761365755558603,0.0017208483962207486,9.742892413838038e-05,0.007579643075917732,4.677796745079078,0.7601104297198091,0.22703554494383507,-6.364937856149639,16.8
,,0.005761365755558603,0.0017208483962207486,9.742892413838038e-05,0.007579643075917732,4.673780143023061,0.7601104297198091,0.22703554494383507,-6.364937856149639,16.9
,,0.005761365755558603,0.0017208483962207486,9.742892413838038e-05,0.007579643075917732,4.669763540967045,0.7601104297198091,0.22703554494383507,-6.364937856149639,17.0
,,0.005761365755558603,0.0017208483962207486,9.742892413838038e-05,0.007579643075917732,4.6657469389110275,0.7601104297198091,0.22703554494383507,-6.364937856149639,17.1
,,0.005761365755558603,0.0017208483962207486,9.742892413838038e-05,0.007579643075917732,4.661730336855012,0.7601104297198091,0.22703554494383507,-6.364937856149639,17.2
,,0.005231256133211299,0.0016417810191222393,0.00012833412790930714,0.007001371280242846,4.655917625479413,0.7471759350876548,0.23449420883522884,-6.411973639133968,17.3
,,0.004999080263535389,0.0016811223541323484,9.688279272223022e-05,0.006777085410389968,4.648694500106412,0.7376445714954818,0.24805978563513678,-6.388293640689092,17.4
,,0.004999080263535389,0.0016811223541323484,9.688279272223022e-05,0.006777085410389968,4.641471374733412,0.7376445714954818,0.24805978563513678,-6.388293640689092,17.5
,,0.004999080263535389,0.0016811223541323484,9.688279272223022e-05,0.006777085410389968,4.634248249360412,0.7376445714954818,0.24805978563513678,-6.388293640689092,17.6
,,0.004999080263535389,0.0016811223541323484,9.688279272223022e-05,0.006777085410389968,4.634041913152899,0.7376445714954818,0.24805978563513678,-6.388293640689092,17.7
,,0.004999080263535389,0.0016811223541323484,9.688279272223022e-05,0.006777085410389968,4.633835576945384,0.7376445714954818,0.24805978563513678,-6.388293640689092,17.8
,,0.004999080263535389,0.0016811223541323484,9.688279272223022e-05,0.006777085410389968,4.63362924073787,0.7376445714954818,0.24805978563513678,-6.388293640689092,17.9
,,0.004999080263535389,0.0016811223541323484,9.688279272223022e-05,0.006777085410389968,4.633422904530356,0.7376445714954818,0.24805978563513678,-6.388293640689092,18.0
,,0.004465042853499267,0.0016695887076706851,8.590943408623646e-05,0.006220540995256188,4.609336995804303,0.7177901177573346,0.2683992773207219,-6.395177965717996,18.1
,,0.004465042853499267,0.0016695887076706851,8.590943408623646e-05,0.006220540995256188,4.585251087078251,0.7177901177573346,0.2683992773207219,-6.395177965717996,18.2
,,0.004465042853499267,0.0016695887076706851,8.590943408623646e-05,0.006220540995256188,4.561165178352198,0.7177901177573346,0.2683992773207219,-6.395177965717996,18.3
,,0.004465042853499267,0.0016695887076706851,8.590943408623646e-05,0.006220540995256188,4.537079269626145,0.7177901177573346,0.2683992773207219,-6.395177965717996,18.4
,,0.004465042853499267,0.0016695887076706851,8.590943408623646e-05,0.006220540995256188,4.512993360900093,0.7177901177573346,0.2683992773207219,-6.395177965717996,18.5
,,0.004465042853499267,0.0016695887076706851,8.590943408623646e-05,0.006220540995256188,4.48890745217404,0.7177901177573346,0.2683992773207219,-6.395177965717996,18.6
,,0.004465042853499267,0.0016695887076706851,8.590943408623646e-05,0.006220540995256188,4.456058394232901,0.7177901177573346,0.2683992773207219,-6.395177965717996,18.7
,,0.00553377561380696,0.0016893103326501915,6.428920186504982e-05,0.007287375148322201,4.44345023778573,0.7593647233985231,0.23181327957833042,-6.3834349205266285,18.8
,,0.00553377561380696,0.0016893103326501915,6.428920186504982e-05,0.007287375148322201,4.43084208133856,0.7593647233985231,0.23181327957833042,-6.3834349205266285,18.9
,,0.005286998300208961,0.0017195518271007194,4.465335149895398e-05,0.007051203478808634,4.415999226335748,0.7498008412462164,0.24386643106649555,-6.3656915877490166,19.0
,,0.005286998300208961,0.0017195518271007194,4.465335149895398e-05,0.007051203478808634,4.401156371332935,0.7498008412462164,0.24386643106649555,-6.3656915877490166,19.1
,,0.005286998300208961,0.0017195518271007194,4.465335149895398e-05,0.007051203478808634,4.386313516330124,0.7498008412462164,0.24386643106649555,-6.3656915877490166,19.2
,,0.005286998300208961,0.0017195518271007194,4.465335149895398e-05,0.007051203478808634,4.3714706613273115,0.7498008412462164,0.24386643106649555,-6.3656915877490166,19.3
,,0.005286998300208961,0.0017195518271007194,4.465335149895398e-05,0.007051203478808634,4.3566278063245,0.7498008412462164,0.24386643106649555,-6.3656915877490166,19.4
,,0.004176572729782806,0.0016840623795109856,0.0001076913434498433,0.0059683264527436355,4.336011846479623,0.6997895914126545,0.28216659943874606,-6.3865463213831015,19.5
,,0.004176572729782806,0.0016840623795109856,0.0001076913434498433,0.0059683264527436355,4.310965316969385,0.6997895914126545,0.28216659943874606,-6.3865463213831015,19.6
,,0.004176572729782806,0.0016840623795109856,0.0001076913434498433,0.0059683264527436355,4.285918787459148,0.6997895914126545,0.28216659943874606,-6.3865463213831015,19.7
,,0.004176572729782806,0.0016840623795109856,0.0001076913434498433,0.0059683264527436355,4.260872257948909,0.6997895914126545,0.28216659943874606,-6.3865463213831015,19.8
,,0.004318633604912505,0.0016651561977580472,0.0001443038230977457,0.006128093625768298,4.237086533125094,0.7047270927377624,0.2717249930314636,-6.397836347482548,19.9
,,0.004318633604912505,0.0016651561977580472,0.0001443038230977457,0.006128093625768298,4.213300808301279,0.7047270927377624,0.2717249930314636,-6.397836347482548,20.0
,,0.004318633604912505,0.0016651561977580472,0.0001443038230977457,0.006128093625768298,4.190460075417473,0.7047270927377624,0.2717249930314636,-6.397836347482548,20.1
,,0.005512779222026371,0.0019027706768759264,6.0168394997307903e-05,0.007475718293899605,4.170993867168168,0.7374246868725581,0.25452680291988,-6.264444204037858,20.2
,,0.005512779222026371,0.0019027706768759264,6.0168394997307903e-05,0.007475718293899605,4.151527658918862,0.7374246868725581,0.25452680291988,-6.264444204037858,20.3
,,0.005512779222026371,0.0019027706768759264,6.0168394997307903e-05,0.007475718293899605,4.132061450669558,0.7374246868725581,0.25452680291988,-6.264444204037858,20.4
,,0.005512779222026371,0.0019027706768759264,6.0168394997307903e-05,0.007475718293899605,4.1093736725194265,0.7374246868725581,0.25452680291988,-6.264444204037858,20.5
,,0.005512779222026371,0.0019027706768759264,6.0168394997307903e-05,0.007475718293899605,4.086685894369294,0.7374246868725581,0.25452680291988,-6.264444204037858,20.6
,,0.005512779222026371,0.0019027706768759264,6.0168394997307903e-05,0.007475718293899605,4.063998116219163,0.7374246868725581,0.25452680291988,-6.264444204037858,20.7
,,0.004357172620766193,0.0017440015032563828,0.00012064945134648733,0.006221823575369064,4.037957096497038,0.7003047527762367,0.2803039144601481,-6.351573091536785,20.8
,,0.004804271670914088,0.0017950388221873255,0.0001044529918751688,0.006703763484976582,4.013894298333064,0.7166529191670715,0.2677658342526677,-6.322728629316263,20.9
,,0.004804271670914088,0.0017950388221873255,0.0001044529918751688,0.006703763484976582,3.989831500169089,0.7166529191670715,0.2677658342526677,-6.322728629316263,21.0
,,0.004804271670914088,0.0017950388221873255,0.0001044529918751688,0.006703763484976582,3.965768702005114,0.7166529191670715,0.2677658342526677,-6.322728629316263,21.1
,,0.004804271670914088,0.0017950388221873255,0.0001044529918751688,0.006703763484976582,3.94170590384114,0.7166529191670715,0.2677658342526677,-6.322728629316263,21.2
,,0.004804271670914088,0.0017950388221873255,0.0001044529918751688,0.006703763484976582,3.917643105677165,0.7166529191670715,0.2677658342526677,-6.322728629316263,21.3
,,0.004804271670914088,0.0017950388221873255,0.0001044529918751688,0.006703763484976582,3.8687434544391306,0.7166529191670715,0.2677658342526677,-6.322728629316263,21.4
,,0.004860333532810365,0.0018122472922659921,0.00012474901835526775,0.006797329843431624,3.8226345835346773,0.7150357044254646,0.26661164516198926,-6.3131876059127014,21.5
,,0.004860333532810365,0.0018122472922659921,0.00012474901835526775,0.006797329843431624,3.7765257126302236,0.7150357044254646,0.26661164516198926,-6.3131876059127014,21.6
,,0.004860333532810365,0.0018122472922659921,0.00012474901835526775,0.006797329843431624,3.7304168417257695,0.7150357044254646,0.26661164516198926,-6.3131876059127014,21.7
,,0.004860333532810365,0.0018122472922659921,0.00012474901835526775,0.006797329843431624,3.6843079708213162,0.7150357044254646,0.26661164516198926,-6.3131876059127014,21.8
,,0.003301409951233237,0.0018151893865002119,0.000174603770498136,0.0052912031082315856,3.6286083400682,0.6239431531360411,0.3430579679839356,-6.311565471529723,21.9
,,0.003301409951233237,0.0018151893865002119,0.000174603770498136,0.0052912031082315856,3.5729087093150844,0.6239431531360411,0.3430579679839356,-6.311565471529723,22.0
,,0.003301409951233237,0.0018151893865002119,0.000174603770498136,0.0052912031082315856,3.5172090785619687,0.6239431531360411,0.3430579679839356,-6.311565471529723,22.1
,,0.005599752453575597,0.001891359463291694,0.00013091085203376164,0.007622022768901052,3.4962782871190274,0.7346806252565121,0.24814403218640496,-6.270459415730703,22.2
,,0.005599752453575597,0.001891359463291694,0.00013091085203376164,0.007622022768901052,3.475347495676087,0.7346806252565121,0.24814403218640496,-6.270459415730703,22.3
,,0.005599752453575597,0.001891359463291694,0.00013091085203376164,0.007622022768901052,3.454416704233146,0.7346806252565121,0.24814403218640496,-6.270459415730703,22.4
,,0.005599752453575597,0.001891359463291694,0.00013091085203376164,0.007622022768901052,3.4334859127902058,0.7346806252565121,0.24814403218640496,-6.270459415730703,22.5
,,0.005599752453575597,0.001891359463291694,0.00013091085203376164,0.007622022768901052,3.412555121347265,0.7346806252565121,0.24814403218640496,-6.270459415730703,22.6
,,0.005599752453575597,0.001891359463291694,0.00013091085203376164,0.007622022768901052,3.3916243299043245,0.7346806252565121,0.24814403218640496,-6.270459415730703,22.7
,,0.006418362997702054,0.0018914279610170472,0.00018748152454820422,0.008497272483267307,3.375501239072398,0.7553439071585608,0.22259236298960836,-6.2704232002537665,22.8
,,0.009954309305868997,0.002785899098634163,0.00011318546356592062,0.01285339386806908,3.3627108216324784,0.7744498774442674,0.21674424103310225,-5.883184621568912,22.9
,,0.009954309305868997,0.002785899098634163,0.00011318546356592062,0.01285339386806908,3.3509062887300853,0.7744498774442674,0.21674424103310225,-5.883184621568912,23.0
,,0.009954309305868997,0.002785899098634163,0.00011318546356592062,0.01285339386806908,3.3391017558276923,0.7744498774442674,0.21674424103310225,-5.883184621568912,23.1
,,0.009954309305868997,0.002785899098634163,0.00011318546356592062,0.01285339386806908,3.3272972229252997,0.7744498774442674,0.21674424103310225,-5.883184621568912,23.2
,,0.009954309305868997,0.002785899098634163,0.00011318546356592062,0.01285339386806908,3.3154926900229067,0.7744498774442674,0.21674424103310225,-5.883184621568912,23.3
,,0.009954309305868997,0.002785899098634163,0.00011318546356592062,0.01285339386806908,3.303688157120514,0.7744498774442674,0.21674424103310225,-5.883184621568912,23.4
,,0.009954309305868997,0.002785899098634163,0.00011318546356592062,0.01285339386806908,3.2918836242181215,0.7744498774442674,0.21674424103310225,-5.883184621568912,23.5
,,0.006542825913664132,0.0019920439482030944,0.00015259257731627175,0.008687462439183497,3.2546476609951585,0.7531342966334676,0.22930101420850799,-6.218594057712149,23.6
,,0.007444172995225163,0.0020509335873639674,0.0001360562313441987,0.009631162813933329,3.221246944751949,0.7729256725320577,0.21294766031749537,-6.189460181028557,23.7
,,0.007444172995225163,0.0020509335873639674,0.0001360562313441987,0.009631162813933329,3.2138836678671927,0.7729256725320577,0.21294766031749537,-6.189460181028557,23.8
,,0.007444172995225163,0.0020509335873639674,0.0001360562313441987,0.009631162813933329,3.206520390982436,0.7729256725320577,0.21294766031749537,-6.189460181028557,23.9
,,0.007444172995225163,0.0020509335873639674,0.0001360562313441987,0.009631162813933329,3.1991571140976798,0.7729256725320577,0.21294766031749537,-6.189460181028557,24.0
,,0.007444172995225163,0.0020509335873639674,0.0001360562313441987,0.009631162813933329,3.1917938372129235,0.7729256725320577,0.21294766031749537,-6.189460181028557,24.1
,,0.007444172995225163,0.0020509335873639674,0.0001360562313441987,0.009631162813933329,3.184430560328168,0.7729256725320577,0.21294766031749537,-6.189460181028557,24.2
,,0.007463625012699461,0.0020616100890020928,0.00016166323593774762,0.009686898337639301,3.1563318166436263,0.7704865636608248,0.21282458193986864,-6.184268004865251,24.3
,,0.007463625012699461,0.0020616100890020928,0.00016166323593774762,0.009686898337639301,3.128233072959084,0.7704865636608248,0.21282458193986864,-6.184268004865251,24.4
,,0.004839705367490581,0.002110480172086425,0.00014115390442162855,0.007091339443998634,3.0853886407882336,0.6824811314858719,0.2976137567173595,-6.160839787675014,24.5
,,0.004839705367490581,0.002110480172086425,0.00014115390442162855,0.007091339443998634,3.042544208617383,0.6824811314858719,0.2976137567173595,-6.160839787675014,24.6
,,0.004839705367490581,0.002110480172086425,0.00014115390442162855,0.007091339443998634,3.024872486829411,0.6824811314858719,0.2976137567173595,-6.160839787675014,24.7
,,0.004839705367490581,0.002110480172086425,0.00014115390442162855,0.007091339443998634,3.0072007650414383,0.6824811314858719,0.2976137567173595,-6.160839787675014,24.8
,,0.004839705367490581,0.002110480172086425,0.00014115390442162855,0.007091339443998634,2.9895290432534667,0.6824811314858719,0.2976137567173595,-6.160839787675014,24.9
,,0.016645551576079155,0.003944825279744788,0.00020550285186571977,0.020795879707689664,2.997859015446394,0.8004254597570187,0.1896926379260655,-5.535350614703164,25.0
,,0.016645551576079155,0.003944825279744788,0.00020550285186571977,0.020795879707689664,3.006188987639322,0.8004254597570187,0.1896926379260655,-5.535350614703164,25.1
,,0.016645551576079155,0.003944825279744788,0.00020550285186571977,0.020795879707689664,3.0145189598322495,0.8004254597570187,0.1896926379260655,-5.535350614703164,25.2
,,0.009419221732142597,0.0021755143576938445,0.0001415817794043621,0.011736317869240804,3.024071833852904,0.8025704345337321,0.18536600507349532,-6.130490156103946,25.3
,,0.009419221732142597,0.0021755143576938445,0.0001415817794043621,0.011736317869240804,3.0336247078735576,0.8025704345337321,0.18536600507349532,-6.130490156103946,25.4
,,0.009419221732142597,0.0021755143576938445,0.0001415817794043621,0.011736317869240804,3.041676978193567,0.8025704345337321,0.18536600507349532,-6.130490156103946,25.5
,,0.009419221732142597,0.0021755143576938445,0.0001415817794043621,0.011736317869240804,3.0497292485135756,0.8025704345337321,0.18536600507349532,-6.130490156103946,25.6
,,0.009285959328787978,0.0021632504905806445,0.000173818164797868,0.011623027984166489,3.060224977996104,0.7989277270464984,0.18611763591445707,-6.136143331698002,25.7
,,0.009285959328787978,0.0021632504905806445,0.000173818164797868,0.011623027984166489,3.070720707478632,0.7989277270464984,0.18611763591445707,-6.136143331698002,25.8
,,0.009285959328787978,0.0021632504905806445,0.000173818164797868,0.011623027984166489,3.08121643696116,0.7989277270464984,0.18611763591445707,-6.136143331698002,25.9
,,0.009285959328787978,0.0021632504905806445,0.000173818164797868,0.011623027984166489,3.0917121664436875,0.7989277270464984,0.18611763591445707,-6.136143331698002,26.0
,,0.010257852836373664,0.0021226455407068945,0.00025970993548965243,0.012640208312570211,3.108207715547805,0.8115256159325014,0.16792805056828086,-6.155092071714117,26.1
,,0.010257852836373664,0.0021226455407068945,0.00025970993548965243,0.012640208312570211,3.1247032646519224,0.8115256159325014,0.16792805056828086,-6.155092071714117,26.2
,,0.010257852836373664,0.0021226455407068945,0.00025970993548965243,0.012640208312570211,3.1429949230756216,0.8115256159325014,0.16792805056828086,-6.155092071714117,26.3
,,0.010257852836373664,0.0021226455407068945,0.00025970993548965243,0.012640208312570211,3.163649621519212,0.8115256159325014,0.16792805056828086,-6.155092071714117,26.4
,,0.02458764533682499,0.005135470064727036,0.0002780542985406263,0.03000116970009265,3.183806862878664,0.8195562233944851,0.17117566135133644,-5.271583898461757,26.5
,,0.02458764533682499,0.005135470064727036,0.0002780542985406263,0.03000116970009265,3.203964104238117,0.8195562233944851,0.17117566135133644,-5.271583898461757,26.6
,,0.02458764533682499,0.005135470064727036,0.0002780542985406263,0.03000116970009265,3.2241213455975695,0.8195562233944851,0.17117566135133644,-5.271583898461757,26.7
,,0.02458764533682499,0.005135470064727036,0.0002780542985406263,0.03000116970009265,3.2442785869570216,0.8195562233944851,0.17117566135133644,-5.271583898461757,26.8
,,0.02458764533682499,0.005135470064727036,0.0002780542985406263,0.03000116970009265,3.2644358283164743,0.8195562233944851,0.17117566135133644,-5.271583898461757,26.9
,,0.02458764533682499,0.005135470064727036,0.0002780542985406263,0.03000116970009265,3.2845930696759273,0.8195562233944851,0.17117566135133644,-5.271583898461757,27.0
,,0.010711887494560287,0.002158493383375467,0.0002685833891162507,0.013138964267052003,3.3100189771684163,0.8152764005471885,0.16428185201692228,-6.138344808354276,27.1
,,0.010388554504351891,0.0022550657058658134,0.00016598058915492058,0.012809600799372626,3.3314903833322216,0.8109975218634986,0.1760449635539196,-6.094576168595758,27.2
,,0.010388554504351891,0.0022550657058658134,0.00016598058915492058,0.012809600799372626,3.3529617894960273,0.8109975218634986,0.1760449635539196,-6.094576168595758,27.3
,,0.010388554504351891,0.0022550657058658134,0.00016598058915492058,0.012809600799372626,3.3744331956598335,0.8109975218634986,0.1760449635539196,-6.094576168595758,27.4
,,0.010388554504351891,0.0022550657058658134,0.00016598058915492058,0.012809600799372626,3.3959046018236387,0.8109975218634986,0.1760449635539196,-6.094576168595758,27.5
,,0.010388554504351891,0.0022550657058658134,0.00016598058915492058,0.012809600799372626,3.417376007987445,0.8109975218634986,0.1760449635539196,-6.094576168595758,27.6
,,0.010388554504351891,0.0022550657058658134,0.00016598058915492058,0.012809600799372626,3.4388474141512497,0.8109975218634986,0.1760449635539196,-6.094576168595758,27.7
,,0.010388554504351891,0.0022550657058658134,0.00016598058915492058,0.012809600799372626,3.4536363399013736,0.8109975218634986,0.1760449635539196,-6.094576168595758,27.8
,,0.025882121642299243,0.005443919470425051,0.00035570666046504486,0.03168174777318934,3.470064754019209,0.8169410926313216,0.1718314125028154,-5.213255986656284,27.9
,,0.010330332004031889,0.0023083691816348983,0.0001659845881768296,0.012804685773843616,3.4856261675323665,0.8067618515976286,0.18027534782229873,-6.071213985747296,28.0
,,0.010330332004031889,0.0023083691816348983,0.0001659845881768296,0.012804685773843616,3.5011875810455253,0.8067618515976286,0.18027534782229873,-6.071213985747296,28.1
,,0.010330332004031889,0.0023083691816348983,0.0001659845881768296,0.012804685773843616,3.5167489945586827,0.8067618515976286,0.18027534782229873,-6.071213985747296,28.2
,,0.010330332004031889,0.0023083691816348983,0.0001659845881768296,0.012804685773843616,3.5323104080718406,0.8067618515976286,0.18027534782229873,-6.071213985747296,28.3
,,0.010330332004031889,0.0023083691816348983,0.0001659845881768296,0.012804685773843616,3.547871821584999,0.8067618515976286,0.18027534782229873,-6.071213985747296,28.4
,,0.010330332004031889,0.0023083691816348983,0.0001659845881768296,0.012804685773843616,3.570039670168192,0.8067618515976286,0.18027534782229873,-6.071213985747296,28.5
,,0.009904678649716092,0.0022359516035938267,0.0002134261787391111,0.012354056432049029,3.5917027733108475,0.8017349365526019,0.18098926582472916,-6.1030883681123305,28.6
,,0.009904678649716092,0.0022359516035938267,0.0002134261787391111,0.012354056432049029,3.613365876453502,0.8017349365526019,0.18098926582472916,-6.1030883681123305,28.7
,,0.009904678649716092,0.0022359516035938267,0.0002134261787391111,0.012354056432049029,3.635028979596158,0.8017349365526019,0.18098926582472916,-6.1030883681123305,28.8
,,0.009904678649716092,0.0022359516035938267,0.0002134261787391111,0.012354056432049029,3.6554312780523914,0.8017349365526019,0.18098926582472916,-6.1030883681123305,28.9
,,0.009701671422760363,0.0021870218958690082,0.0003160686951325648,0.012204762013761937,3.675903374792933,0.7949086931659036,0.17919414515440366,-6.125214525509088,29.0
,,0.009701671422760363,0.0021870218958690082,0.0003160686951325648,0.012204762013761937,3.696375471533475,0.7949086931659036,0.17919414515440366,-6.125214525509088,29.1
,,0.009701671422760363,0.0021870218958690082,0.0003160686951325648,0.012204762013761937,3.7134730436395165,0.7949086931659036,0.17919414515440366,-6.125214525509088,29.2
,,0.009701671422760363,0.0021870218958690082,0.0003160686951325648,0.012204762013761937,3.7305706157455587,0.7949086931659036,0.17919414515440366,-6.125214525509088,29.3
,,0.02225119845895682,0.005334721822665699,0.00032560423135611716,0.02791152451297864,3.744723682118176,0.7972046976011714,0.19112971848546273,-5.23351853754368,29.4
,,0.02225119845895682,0.005334721822665699,0.00032560423135611716,0.02791152451297864,3.7588767484907946,0.7972046976011714,0.19112971848546273,-5.23351853754368,29.5
,,0.02225119845895682,0.005334721822665699,0.00032560423135611716,0.02791152451297864,3.7730298148634125,0.7972046976011714,0.19112971848546273,-5.23351853754368,29.6
,,0.02225119845895682,0.005334721822665699,0.00032560423135611716,0.02791152451297864,3.7871828812360295,0.7972046976011714,0.19112971848546273,-5.23351853754368,29.7
,,0.02225119845895682,0.005334721822665699,0.00032560423135611716,0.02791152451297864,3.805767738782748,0.7972046976011714,0.19112971848546273,-5.23351853754368,29.8
,,0.02225119845895682,0.005334721822665699,0.00032560423135611716,0.02791152451297864,3.8223743747713166,0.7972046976011714,0.19112971848546273,-5.23351853754368,29.9
,,0.008620649421423706,0.0022149075109520787,0.00032088256107351196,0.011156439493449296,3.835882007913676,0.7727061511412736,0.19853175488941624,-6.112544632134678,30.0
,,0.008260796083516474,0.0023050678832571107,0.00020509897294545594,0.01077096293971904,3.8459635339811875,0.766950562335883,0.21400759580714315,-6.0726451525302565,30.1
,,0.008260796083516474,0.0023050678832571107,0.00020509897294545594,0.01077096293971904,3.8560450600486997,0.766950562335883,0.21400759580714315,-6.0726451525302565,30.2
,,0.008260796083516474,0.0023050678832571107,0.00020509897294545594,0.01077096293971904,3.8661265861162115,0.766950562335883,0.21400759580714315,-6.0726451525302565,30.3
,,0.008260796083516474,0.0023050678832571107,0.00020509897294545594,0.01077096293971904,3.876208112183723,0.766950562335883,0.21400759580714315,-6.0726451525302565,30.4
,,0.008260796083516474,0.0023050678832571107,0.00020509897294545594,0.01077096293971904,3.886228297424715,0.766950562335883,0.21400759580714315,-6.0726451525302565,30.5
,,0.008260796083516474,0.0023050678832571107,0.00020509897294545594,0.01077096293971904,3.896248482665708,0.766950562335883,0.21400759580714315,-6.0726451525302565,30.6
,,0.008260796083516474,0.0023050678832571107,0.00020509897294545594,0.01077096293971904,3.9062686679066996,0.766950562335883,0.21400759580714315,-6.0726451525302565,30.7
,,0.007948340208373466,0.0022323074234287255,0.0002602759485352591,0.010440923580337451,3.916031519558412,0.7612679230161146,0.21380363588070406,-6.104719509436522,30.8
,,0.007948340208373466,0.0022323074234287255,0.0002602759485352591,0.010440923580337451,3.935385131058786,0.7612679230161146,0.21380363588070406,-6.104719509436522,30.9
,,0.007948340208373466,0.0022323074234287255,0.0002602759485352591,0.010440923580337451,3.9547387425591607,0.7612679230161146,0.21380363588070406,-6.104719509436522,31.0
,,0.00808675190583048,0.004346137550656375,0.000510097073439827,0.01294298652992668,3.955204372397807,0.6247979851583984,0.3357909351606962,-5.438467747704806,31.1
,,0.00808675190583048,0.004346137550656375,0.000510097073439827,0.01294298652992668,3.9429818522006554,0.6247979851583984,0.3357909351606962,-5.438467747704806,31.2
,,0.00808675190583048,0.004346137550656375,0.000510097073439827,0.01294298652992668,3.9307593320035052,0.6247979851583984,0.3357909351606962,-5.438467747704806,31.3
,,0.00808675190583048,0.004346137550656375,0.000510097073439827,0.01294298652992668,3.9185368118063537,0.6247979851583984,0.3357909351606962,-5.438467747704806,31.4
,,0.00808675190583048,0.004346137550656375,0.000510097073439827,0.01294298652992668,3.906314291609202,0.6247979851583984,0.3357909351606962,-5.438467747704806,31.5
,,0.0068821383485810515,0.002279431333401997,0.00026834308295501725,0.009429912764938065,3.9069646516150582,0.729819937907586,0.24172348039923447,-6.0838292822994875,31.6
,,0.0068821383485810515,0.002279431333401997,0.00026834308295501725,0.009429912764938065,3.9076150116209134,0.729819937907586,0.24172348039923447,-6.0838292822994875,31.7
,,0.0068821383485810515,0.002279431333401997,0.00026834308295501725,0.009429912764938065,3.903457671015754,0.729819937907586,0.24172348039923447,-6.0838292822994875,31.8
,,0.0068821383485810515,0.002279431333401997,0.00026834308295501725,0.009429912764938065,3.8973035601661903,0.729819937907586,0.24172348039923447,-6.0838292822994875,31.9
,,0.0068821383485810515,0.002279431333401997,0.00026834308295501725,0.009429912764938065,3.891149449316626,0.729819937907586,0.24172348039923447,-6.0838292822994875,32.0
,,0.010917681809772803,0.004060040079943232,0.00048567328345863303,0.015463395173174667,3.881326703674501,0.7060339393455066,0.26255812740182966,-5.506562433510023,32.1
,,0.010917681809772803,0.004060040079943232,0.00048567328345863303,0.015463395173174667,3.871503958032376,0.7060339393455066,0.26255812740182966,-5.506562433510023,32.2
,,0.0059025725314555185,0.0023047056663183627,0.00025713994531346605,0.008464418143087347,3.8602594166808095,0.6973394309774245,0.27228164149718326,-6.072802304258253,32.3
,,0.0059025725314555185,0.0023047056663183627,0.00025713994531346605,0.008464418143087347,3.849014875329244,0.6973394309774245,0.27228164149718326,-6.072802304258253,32.4
,,0.0059025725314555185,0.0023047056663183627,0.00025713994531346605,0.008464418143087347,3.837770333977679,0.6973394309774245,0.27228164149718326,-6.072802304258253,32.5
,,0.0059025725314555185,0.0023047056663183627,0.00025713994531346605,0.008464418143087347,3.8297327487717445,0.6973394309774245,0.27228164149718326,-6.072802304258253,32.6
,,0.0059025725314555185,0.0023047056663183627,0.00025713994531346605,0.008464418143087347,3.8178599165860563,0.6973394309774245,0.27228164149718326,-6.072802304258253,32.7
,,0.0059025725314555185,0.0023047056663183627,0.00025713994531346605,0.008464418143087347,3.8059870844003685,0.6973394309774245,0.27228164149718326,-6.072802304258253,32.8
,,0.0059025725314555185,0.0023047056663183627,0.00025713994531346605,0.008464418143087347,3.7941142522146807,0.6973394309774245,0.27228164149718326,-6.072802304258253,32.9
,,0.0059025725314555185,0.0023047056663183627,0.00025713994531346605,0.008464418143087347,3.782241420028993,0.6973394309774245,0.27228164149718326,-6.072802304258253,33.0
,,0.005157963362575989,0.002339157879119709,0.0002637007609646503,0.007760822002660348,3.766412536433469,0.6646155988125846,0.3014059436381693,-6.057964295103206,33.1
,,0.005157963362575989,0.002339157879119709,0.0002637007609646503,0.007760822002660348,3.7505836528379457,0.6646155988125846,0.3014059436381693,-6.057964295103206,33.2
,,0.005157963362575989,0.002339157879119709,0.0002637007609646503,0.007760822002660348,3.7348587869532475,0.6646155988125846,0.3014059436381693,-6.057964295103206,33.3
,,0.005157963362575989,0.002339157879119709,0.0002637007609646503,0.007760822002660348,3.7191339210685492,0.6646155988125846,0.3014059436381693,-6.057964295103206,33.4
,,0.005157963362575989,0.002339157879119709,0.0002637007609646503,0.007760822002660348,3.7181547436701603,0.6646155988125846,0.3014059436381693,-6.057964295103206,33.5
,,0.005157963362575989,0.002339157879119709,0.0002637007609646503,0.007760822002660348,3.717175566271771,0.6646155988125846,0.3014059436381693,-6.057964295103206,33.6
,,0.005157963362575989,0.002339157879119709,0.0002637007609646503,0.007760822002660348,3.716196388873382,0.6646155988125846,0.3014059436381693,-6.057964295103206,33.7
,,0.005157963362575989,0.002339157879119709,0.0002637007609646503,0.007760822002660348,3.7152172114749935,0.6646155988125846,0.3014059436381693,-6.057964295103206,33.8
,,0.005101300764956296,0.0023165251990918644,0.00032252630667872013,0.00774035227072688,3.7142056274224995,0.6590527906913006,0.2992790402902844,-6.0676869750783,33.9
,,0.005101300764956296,0.0023165251990918644,0.00032252630667872013,0.00774035227072688,3.6917894409052727,0.6590527906913006,0.2992790402902844,-6.0676869750783,34.0
,,0.004704790274332587,0.0023919072242714165,0.000271297609273855,0.007367995107877859,3.666760221639071,0.6385441637036684,0.3246347465288067,-6.035664229485651,34.1
,,0.004704790274332587,0.0023919072242714165,0.000271297609273855,0.007367995107877859,3.6417310023728704,0.6385441637036684,0.3246347465288067,-6.035664229485651,34.2
,,0.004704790274332587,0.0023919072242714165,0.000271297609273855,0.007367995107877859,3.6154788812789436,0.6385441637036684,0.3246347465288067,-6.035664229485651,34.3
,,0.004704790274332587,0.0023919072242714165,0.000271297609273855,0.007367995107877859,3.589226760185016,0.6385441637036684,0.3246347465288067,-6.035664229485651,34.4
,,0.004704790274332587,0.0023919072242714165,0.000271297609273855,0.007367995107877859,3.562974639091088,0.6385441637036684,0.3246347465288067,-6.035664229485651,34.5
,,0.0041369345592694685,0.00384555537574767,0.00038498595874549815,0.008367475893762638,3.5268203904560647,0.49440651061250873,0.4595836814557494,-5.560837245428428,34.6
,,0.0041369345592694685,0.00384555537574767,0.00038498595874549815,0.008367475893762638,3.4910778890590817,0.49440651061250873,0.4595836814557494,-5.560837245428428,34.7
,,0.0041369345592694685,0.00384555537574767,0.00038498595874549815,0.008367475893762638,3.4553353876621,0.49440651061250873,0.4595836814557494,-5.560837245428428,34.8
,,0.0041369345592694685,0.00384555537574767,0.00038498595874549815,0.008367475893762638,3.4195928862651184,0.49440651061250873,0.4595836814557494,-5.560837245428428,34.9
,,0.004585997100788519,0.0023529744530259777,0.0004358643258023455,0.007374835879616842,3.393553171823374,0.6218439536347734,0.3190544835756028,-6.052075026488381,35.0
,,0.004585997100788519,0.0023529744530259777,0.0004358643258023455,0.007374835879616842,3.36151363776004,0.6218439536347734,0.3190544835756028,-6.052075026488381,35.1
,,0.004585997100788519,0.0023529744530259777,0.0004358643258023455,0.007374835879616842,3.329474103696705,0.6218439536347734,0.3190544835756028,-6.052075026488381,35.2
,,0.004585997100788519,0.0023529744530259777,0.0004358643258023455,0.007374835879616842,3.297434569633371,0.6218439536347734,0.3190544835756028,-6.052075026488381,35.3
,,0.004654053384442095,0.0025050845511792536,0.0003388462429740557,0.007497984178595405,3.2643819425839617,0.6207072825957787,0.3341010719028391,-5.989432792049158,35.4
,,0.004654053384442095,0.0025050845511792536,0.0003388462429740557,0.007497984178595405,3.2318267726186907,0.6207072825957787,0.3341010719028391,-5.989432792049158,35.5
,,0.004654053384442095,0.0025050845511792536,0.0003388462429740557,0.007497984178595405,3.1992716026534205,0.6207072825957787,0.3341010719028391,-5.989432792049158,35.6
,,0.004654053384442095,0.0025050845511792536,0.0003388462429740557,0.007497984178595405,3.1667164326881485,0.6207072825957787,0.3341010719028391,-5.989432792049158,35.7
,,0.004654053384442095,0.0025050845511792536,0.0003388462429740557,0.007497984178595405,3.1341612627228774,0.6207072825957787,0.3341010719028391,-5.989432792049158,35.8
,,0.004654053384442095,0.0025050845511792536,0.0003388462429740557,0.007497984178595405,3.1016060927576063,0.6207072825957787,0.3341010719028391,-5.989432792049158,35.9
,,0.004815773622185951,0.00248984445741598,0.00045614849731410366,0.007761766576916035,3.0698989629901,0.6204481382509434,0.3207832176789403,-5.995535037357872,36.0
,,0.004815773622185951,0.00248984445741598,0.00045614849731410366,0.007761766576916035,3.0362489383210156,0.6204481382509434,0.3207832176789403,-5.995535037357872,36.1
,,0.004815773622185951,0.00248984445741598,0.00045614849731410366,0.007761766576916035,3.0065534149806137,0.6204481382509434,0.3207832176789403,-5.995535037357872,36.2
,,0.0049094561234069144,0.002671024595272887,0.0003322654308924796,0.007912746149572282,2.9757898452192615,0.6204490869042086,0.33755974787808246,-5.925293136632805,36.3
,,0.0049094561234069144,0.002671024595272887,0.0003322654308924796,0.007912746149572282,2.945026275457909,0.6204490869042086,0.33755974787808246,-5.925293136632805,36.4
,,0.0049094561234069144,0.002671024595272887,0.0003322654308924796,0.007912746149572282,2.9142627056965567,0.6204490869042086,0.33755974787808246,-5.925293136632805,36.5
,,0.0049094561234069144,0.002671024595272887,0.0003322654308924796,0.007912746149572282,2.883499135935204,0.6204490869042086,0.33755974787808246,-5.925293136632805,36.6
,,0.0049094561234069144,0.002671024595272887,0.0003322654308924796,0.007912746149572282,2.8527355661738523,0.6204490869042086,0.33755974787808246,-5.925293136632805,36.7
,,0.0049094561234069144,0.002671024595272887,0.0003322654308924796,0.007912746149572282,2.821971996412499,0.6204490869042086,0.33755974787808246,-5.925293136632805,36.8
,,0.005311927582064682,0.0026711750676079006,0.00048229360070554717,0.00846539625037813,2.7912419218704136,0.6274871754322676,0.3155404648056003,-5.925236803158001,36.9
,,0.005311927582064682,0.0026711750676079006,0.00048229360070554717,0.00846539625037813,2.763613546488646,0.6274871754322676,0.3155404648056003,-5.925236803158001,37.0
,,0.0054141045008864784,0.0028924323632306364,0.0003418001573017661,0.008648337021418881,2.734687463902905,0.6260283899063659,0.33444954285050427,-5.845657482668324,37.1
,,0.0054141045008864784,0.0028924323632306364,0.0003418001573017661,0.008648337021418881,2.705761381317163,0.6260283899063659,0.33444954285050427,-5.845657482668324,37.2
,,0.0054141045008864784,0.0028924323632306364,0.0003418001573017661,0.008648337021418881,2.6768352987314215,0.6260283899063659,0.33444954285050427,-5.845657482668324,37.3
,,0.0054141045008864784,0.0028924323632306364,0.0003418001573017661,0.008648337021418881,2.6479092161456803,0.6260283899063659,0.33444954285050427,-5.845657482668324,37.4
,,0.0054141045008864784,0.0028924323632306364,0.0003418001573017661,0.008648337021418881,2.6189831335599387,0.6260283899063659,0.33444954285050427,-5.845657482668324,37.5
,,0.0054141045008864784,0.0028924323632306364,0.0003418001573017661,0.008648337021418881,2.590561796414735,0.6260283899063659,0.33444954285050427,-5.845657482668324,37.6
,,0.0054141045008864784,0.0028924323632306364,0.0003418001573017661,0.008648337021418881,2.562140459269531,0.6260283899063659,0.33444954285050427,-5.845657482668324,37.7
,,0.0054141045008864784,0.0028924323632306364,0.0003418001573017661,0.008648337021418881,2.5337191221243276,0.6260283899063659,0.33444954285050427,-5.845657482668324,37.8
,,0.006084850161763657,0.0031802476298971234,0.00035922473823162633,0.009624322529892407,2.5057589933301814,0.6322367255320652,0.3304385965889566,-5.750796214185012,37.9
,,0.006084850161763657,0.0031802476298971234,0.00035922473823162633,0.009624322529892407,2.4777290662517264,0.6322367255320652,0.3304385965889566,-5.750796214185012,38.0
,,0.006084850161763657,0.0031802476298971234,0.00035922473823162633,0.009624322529892407,2.4496991391732714,0.6322367255320652,0.3304385965889566,-5.750796214185012,38.1
,,0.006084850161763657,0.0031802476298971234,0.00035922473823162633,0.009624322529892407,2.4216692120948164,0.6322367255320652,0.3304385965889566,-5.750796214185012,38.2
,,0.006084850161763657,0.0031802476298971234,0.00035922473823162633,0.009624322529892407,2.3936392850163615,0.6322367255320652,0.3304385965889566,-5.750796214185012,38.3
,,0.006084850161763657,0.0031802476298971234,0.00035922473823162633,0.009624322529892407,2.3685538636713304,0.6322367255320652,0.3304385965889566,-5.750796214185012,38.4
,,0.006084850161763657,0.0031802476298971234,0.00035922473823162633,0.009624322529892407,2.3434684423262997,0.6322367255320652,0.3304385965889566,-5.750796214185012,38.5
,,0.008378229092308825,0.00427517652053612,0.00043739025382627127,0.013090795866671216,2.3188987193088835,0.6400091467043307,0.32657880881181517,-5.454929886092399,38.6
,,0.006084850161763657,0.0031802476298971234,0.00035922473823162633,0.009624322529892407,2.2938132979638524,0.6322367255320652,0.3304385965889566,-5.750796214185012,38.7
,,0.00615522320264331,0.0032706826995760377,0.00044730557974065793,0.009873211481960006,2.268379126051289,0.6234266544264673,0.33126837256065234,-5.722756539235025,38.8
,,0.009193928285198645,0.00451359351939133,0.00037956531675542327,0.014087087121345399,2.2446672171014606,0.6526493522757862,0.32040644602475177,-5.400661653513539,38.9
,,0.009193928285198645,0.00451359351939133,0.00037956531675542327,0.014087087121345399,2.2240543109978406,0.6526493522757862,0.32040644602475177,-5.400661653513539,39.0
,,0.009193928285198645,0.00451359351939133,0.00037956531675542327,0.014087087121345399,2.206867511969068,0.6526493522757862,0.32040644602475177,-5.400661653513539,39.1
,,0.009193928285198645,0.00451359351939133,0.00037956531675542327,0.014087087121345399,2.1896807129402953,0.6526493522757862,0.32040644602475177,-5.400661653513539,39.2
,,0.009193928285198645,0.00451359351939133,0.00037956531675542327,0.014087087121345399,2.172493913911523,0.6526493522757862,0.32040644602475177,-5.400661653513539,39.3
,,0.009193928285198645,0.00451359351939133,0.00037956531675542327,0.014087087121345399,2.1553071148827505,0.6526493522757862,0.32040644602475177,-5.400661653513539,39.4
,,0.009193928285198645,0.00451359351939133,0.00037956531675542327,0.014087087121345399,2.1381203158539783,0.6526493522757862,0.32040644602475177,-5.400661653513539,39.5
,,0.009193928285198645,0.00451359351939133,0.00037956531675542327,0.014087087121345399,2.1209335168252057,0.6526493522757862,0.32040644602475177,-5.400661653513539,39.6
,,0.009129830965635913,0.004570793976115429,0.0004834631336422239,0.014184088075393566,2.1033076709695764,0.643667109024391,0.32224799732065984,-5.3880683525985456,39.7
,,0.007192271315308857,0.0037242819160525262,0.000412794999959895,0.01132934823132128,2.0852031094987766,0.634835399923978,0.32872870001085525,-5.592881219948039,39.8
,,0.007192271315308857,0.0037242819160525262,0.000412794999959895,0.01132934823132128,2.0670985480279773,0.634835399923978,0.32872870001085525,-5.592881219948039,39.9
,,0.007192271315308857,0.0037242819160525262,0.000412794999959895,0.01132934823132128,2.0489939865571776,0.634835399923978,0.32872870001085525,-5.592881219948039,40.0
,,0.007192271315308857,0.0037242819160525262,0.000412794999959895,0.01132934823132128,2.0497774067481065,0.634835399923978,0.32872870001085525,-5.592881219948039,40.1
,,0.007192271315308857,0.0037242819160525262,0.000412794999959895,0.01132934823132128,2.0505608269390354,0.634835399923978,0.32872870001085525,-5.592881219948039,40.2
,,0.007192271315308857,0.0037242819160525262,0.000412794999959895,0.01132934823132128,2.0513442471299643,0.634835399923978,0.32872870001085525,-5.592881219948039,40.3
,,0.007192271315308857,0.0037242819160525262,0.000412794999959895,0.01132934823132128,2.052127667320893,0.634835399923978,0.32872870001085525,-5.592881219948039,40.4
,,0.007192271315308857,0.0037242819160525262,0.000412794999959895,0.01132934823132128,2.0529110875118217,0.634835399923978,0.32872870001085525,-5.592881219948039,40.5
,,0.007704165539242685,0.0036720734463275458,0.0006518464885783224,0.012028085474148553,2.042675615933102,0.6405146983533595,0.3052915989181965,-5.606998804700737,40.6
,,0.010008537948031658,0.004882329640796267,0.0004623321803487668,0.015353199769176692,2.03190579944139,0.6518861278757634,0.31800078903409457,-5.3221327876201725,40.7
,,0.010008537948031658,0.004882329640796267,0.0004623321803487668,0.015353199769176692,2.021135982949678,0.6518861278757634,0.31800078903409457,-5.3221327876201725,40.8
,,0.010008537948031658,0.004882329640796267,0.0004623321803487668,0.015353199769176692,2.0103661664579664,0.6518861278757634,0.31800078903409457,-5.3221327876201725,40.9
,,0.010008537948031658,0.004882329640796267,0.0004623321803487668,0.015353199769176692,1.999596349966254,0.6518861278757634,0.31800078903409457,-5.3221327876201725,41.0
,,0.010008537948031658,0.004882329640796267,0.0004623321803487668,0.015353199769176692,1.9924951682671033,0.6518861278757634,0.31800078903409457,-5.3221327876201725,41.1
,,0.010008537948031658,0.004882329640796267,0.0004623321803487668,0.015353199769176692,1.9853939865679524,0.6518861278757634,0.31800078903409457,-5.3221327876201725,41.2
,,0.010008537948031658,0.004882329640796267,0.0004623321803487668,0.015353199769176692,1.9797146005782418,0.6518861278757634,0.31800078903409457,-5.3221327876201725,41.3
,,0.0072318028074563,0.0039129094785363945,0.00048192652027630894,0.011626638806269003,1.9717934299631124,0.6220028787302623,0.3365469198567157,-5.543474069541406,41.4
,,0.007538574032760763,0.003693066241613376,0.0006820204345723814,0.01191366070894652,1.966017671554812,0.6327672255346082,0.3099858500116661,-5.601298206198823,41.5
,,0.00709158711313793,0.0038495679236092983,0.00048446189153614503,0.011425616928283373,1.958029687025128,0.6206743283667393,0.3369242945717831,-5.559794364614385,41.6
,,0.00709158711313793,0.0038495679236092983,0.00048446189153614503,0.011425616928283373,1.9500417024954433,0.6206743283667393,0.3369242945717831,-5.559794364614385,41.7
,,0.00709158711313793,0.0038495679236092983,0.00048446189153614503,0.011425616928283373,1.9420537179657589,0.6206743283667393,0.3369242945717831,-5.559794364614385,41.8
,,0.00709158711313793,0.0038495679236092983,0.00048446189153614503,0.011425616928283373,1.9340657334360745,0.6206743283667393,0.3369242945717831,-5.559794364614385,41.9
,,0.00709158711313793,0.0038495679236092983,0.00048446189153614503,0.011425616928283373,1.9260777489063903,0.6206743283667393,0.3369242945717831,-5.559794364614385,42.0
,,0.007159608220641314,0.0039436899263813096,0.00038013900901715767,0.011483437156039783,1.9217489468280027,0.6234725825861009,0.34342417455623053,-5.535638464404065,42.1
,,0.007159608220641314,0.0039436899263813096,0.00038013900901715767,0.011483437156039783,1.917420144749615,0.6234725825861009,0.34342417455623053,-5.535638464404065,42.2
,,0.007159608220641314,0.0039436899263813096,0.00038013900901715767,0.011483437156039783,1.9130913426712273,0.6234725825861009,0.34342417455623053,-5.535638464404065,42.3
,,0.007159608220641314,0.0039436899263813096,0.00038013900901715767,0.011483437156039783,1.9087625405928401,0.6234725825861009,0.34342417455623053,-5.535638464404065,42.4
,,0.006731414687773606,0.003831377880583583,0.0005106451948028814,0.01107343776316007,1.9037832745436334,0.6078884292074295,0.3459971476364904,-5.56453078054418,42.5
,,0.006731414687773606,0.003831377880583583,0.0005106451948028814,0.01107343776316007,1.8988040084944269,0.6078884292074295,0.3459971476364904,-5.56453078054418,42.6
,,0.006731414687773606,0.003831377880583583,0.0005106451948028814,0.01107343776316007,1.8938247424452206,0.6078884292074295,0.3459971476364904,-5.56453078054418,42.7
,,0.006731414687773606,0.003831377880583583,0.0005106451948028814,0.01107343776316007,1.8888454763960139,0.6078884292074295,0.3459971476364904,-5.56453078054418,42.8
,,0.006744418458957117,0.003952283467102747,0.00040541840951566113,0.011102120335575524,1.8833379921080453,0.6074892232383187,0.3559935712854858,-5.5334617741630545,42.9
,,0.006744418458957117,0.003952283467102747,0.00040541840951566113,0.011102120335575524,1.8778305078200765,0.6074892232383187,0.3559935712854858,-5.5334617741630545,43.0
,,0.006744418458957117,0.003952283467102747,0.00040541840951566113,0.011102120335575524,1.8749360562810824,0.6074892232383187,0.3559935712854858,-5.5334617741630545,43.1
,,0.006744418458957117,0.003952283467102747,0.00040541840951566113,0.011102120335575524,1.8720416047420878,0.6074892232383187,0.3559935712854858,-5.5334617741630545,43.2
,,0.006744418458957117,0.003952283467102747,0.00040541840951566113,0.011102120335575524,1.8691471532030934,0.6074892232383187,0.3559935712854858,-5.5334617741630545,43.3
,,0.007720252302218764,0.004072908609464919,0.00045352054736916167,0.012246681459052845,1.8683532799805969,0.6303954526809294,0.3325724297706945,-5.503397888705357,43.4
,,0.007720252302218764,0.004072908609464919,0.00045352054736916167,0.012246681459052845,1.867559406758101,0.6303954526809294,0.3325724297706945,-5.503397888705357,43.5
,,0.0061185667230218765,0.003853053372576766,0.0004244025560251928,0.010396022651623834,1.873250610446403,0.5885488064097447,0.3706276430606784,-5.558889361221038,43.6
,,0.0061185667230218765,0.003853053372576766,0.0004244025560251928,0.010396022651623834,1.8789418141347056,0.5885488064097447,0.3706276430606784,-5.558889361221038,43.7
,,0.0061185667230218765,0.003853053372576766,0.0004244025560251928,0.010396022651623834,1.8846330178230082,0.5885488064097447,0.3706276430606784,-5.558889361221038,43.8
,,0.0061185667230218765,0.003853053372576766,0.0004244025560251928,0.010396022651623834,1.8903242215113103,0.5885488064097447,0.3706276430606784,-5.558889361221038,43.9
,,0.0061185667230218765,0.003853053372576766,0.0004244025560251928,0.010396022651623834,1.8863126382443753,0.5885488064097447,0.3706276430606784,-5.558889361221038,44.0
,,0.0059016344920253695,0.003812079018680781,0.0005601260622834388,0.010273839572989588,1.8818584098759632,0.5744331951163659,0.37104716222189393,-5.569580564475122,44.1
,,0.006784308029555023,0.0037101385996175552,0.00044385219477050236,0.01093829882394308,1.8805202425275578,0.6202342922561874,0.33918789926422127,-5.5966860446731195,44.2
,,0.006784308029555023,0.0037101385996175552,0.00044385219477050236,0.01093829882394308,1.8791820751791528,0.6202342922561874,0.33918789926422127,-5.5966860446731195,44.3
,,0.006784308029555023,0.0037101385996175552,0.00044385219477050236,0.01093829882394308,1.8788570008168208,0.6202342922561874,0.33918789926422127,-5.5966860446731195,44.4
,,0.005552182585595659,0.0037724411465124507,0.0004535418583016623,0.009778165590409772,1.8745673523658155,0.567814334320655,0.38580254257632796,-5.580032968103352,44.5
,,0.005552182585595659,0.0037724411465124507,0.0004535418583016623,0.009778165590409772,1.8702777039148097,0.567814334320655,0.38580254257632796,-5.580032968103352,44.6
,,0.005552182585595659,0.0037724411465124507,0.0004535418583016623,0.009778165590409772,1.8659880554638038,0.567814334320655,0.38580254257632796,-5.580032968103352,44.7
,,0.005552182585595659,0.0037724411465124507,0.0004535418583016623,0.009778165590409772,1.861698407012798,0.567814334320655,0.38580254257632796,-5.580032968103352,44.8
,,0.005552182585595659,0.0037724411465124507,0.0004535418583016623,0.009778165590409772,1.8574087585617927,0.567814334320655,0.38580254257632796,-5.580032968103352,44.9
,,0.00603548215600708,0.003417891604938412,0.0004341530250854956,0.009887526786030987,1.8555385701142058,0.6104137350640564,0.3456771019591249,-5.6787314077996776,45.0
,,0.005305206161436269,0.003671598668615974,0.0005849581355393243,0.009561762965591568,1.850102618900535,0.5548355654210725,0.3839876267408412,-5.607128107236254,45.1
,,0.005305206161436269,0.003671598668615974,0.0005849581355393243,0.009561762965591568,1.8446666676868644,0.5548355654210725,0.3839876267408412,-5.607128107236254,45.2
,,0.00514282203943285,0.003758836697351477,0.000489013166572225,0.009390671903356552,1.8394461437826768,0.5476521906376717,0.4002734560460938,-5.583645758453252,45.3
,,0.00514282203943285,0.003758836697351477,0.000489013166572225,0.009390671903356552,1.8342256198784894,0.5476521906376717,0.4002734560460938,-5.583645758453252,45.4
,,0.00514282203943285,0.003758836697351477,0.000489013166572225,0.009390671903356552,1.8290050959743023,0.5476521906376717,0.4002734560460938,-5.583645758453252,45.5
,,0.00514282203943285,0.003758836697351477,0.000489013166572225,0.009390671903356552,1.8237845720701147,0.5476521906376717,0.4002734560460938,-5.583645758453252,45.6
,,0.00514282203943285,0.003758836697351477,0.000489013166572225,0.009390671903356552,1.8185640481659273,0.5476521906376717,0.4002734560460938,-5.583645758453252,45.7
,,0.00514282203943285,0.003758836697351477,0.000489013166572225,0.009390671903356552,1.8133435242617402,0.5476521906376717,0.4002734560460938,-5.583645758453252,45.8
,,0.005022024719908536,0.0036899825344805324,0.000614730908517155,0.009326738162906224,1.8063699459620437,0.5384545628054457,0.39563483717770936,-5.602133554144011,45.9
,,0.0049213738825327116,0.0036172949380228548,0.0006121159190794081,0.009150784739634975,1.7993910726181925,0.5378089445396598,0.3952988777405279,-5.622028787168227,46.0
,,0.004807294589834953,0.0037269195365882994,0.0005265511254541978,0.00906076525187745,1.7929251508539419,0.5305616530390576,0.4113250297281521,-5.592173248042378,46.1
,,0.004807294589834953,0.0037269195365882994,0.0005265511254541978,0.00906076525187745,1.7864592290896917,0.5305616530390576,0.4113250297281521,-5.592173248042378,46.2
,,0.004807294589834953,0.0037269195365882994,0.0005265511254541978,0.00906076525187745,1.779993307325441,0.5305616530390576,0.4113250297281521,-5.592173248042378,46.3
,,0.004807294589834953,0.0037269195365882994,0.0005265511254541978,0.00906076525187745,1.7735273855611904,0.5305616530390576,0.4113250297281521,-5.592173248042378,46.4
,,0.004807294589834953,0.0037269195365882994,0.0005265511254541978,0.00906076525187745,1.7670614637969402,0.5305616530390576,0.4113250297281521,-5.592173248042378,46.5
,,0.004807294589834953,0.0037269195365882994,0.0005265511254541978,0.00906076525187745,1.7605955420326895,0.5305616530390576,0.4113250297281521,-5.592173248042378,46.6
,,0.004807294589834953,0.0037269195365882994,0.0005265511254541978,0.00906076525187745,1.7541296202684395,0.5305616530390576,0.4113250297281521,-5.592173248042378,46.7
,,0.004807294589834953,0.0037269195365882994,0.0005265511254541978,0.00906076525187745,1.7476636985041887,0.5305616530390576,0.4113250297281521,-5.592173248042378,46.8
,,0.004515984465074747,0.003631108393441408,0.0005426632109381839,0.00868975606945434,1.7402233340820723,0.5196905907346512,0.41786079659994624,-5.618217334767083,46.9
,,0.004360655832532572,0.0027114247454788406,0.00036891005680268096,0.007440990634814093,1.7368336304753944,0.5860316248928485,0.3643902913669751,-5.910281045902402,47.0
,,0.004515984465074747,0.003631108393441408,0.0005426632109381839,0.00868975606945434,1.729393266053278,0.5196905907346512,0.41786079659994624,-5.618217334767083,47.1
,,0.004360655832532572,0.0027114247454788406,0.00036891005680268096,0.007440990634814093,1.7260035624466004,0.5860316248928485,0.3643902913669751,-5.910281045902402,47.2
,,0.004515984465074747,0.003631108393441408,0.0005426632109381839,0.00868975606945434,1.7185631980244838,0.5196905907346512,0.41786079659994624,-5.618217334767083,47.3
,,0.004515984465074747,0.003631108393441408,0.0005426632109381839,0.00868975606945434,1.7111228336023676,0.5196905907346512,0.41786079659994624,-5.618217334767083,47.4
,,0.004515984465074747,0.003631108393441408,0.0005426632109381839,0.00868975606945434,1.703682469180251,0.5196905907346512,0.41786079659994624,-5.618217334767083,47.5
,,0.004515984465074747,0.003631108393441408,0.0005426632109381839,0.00868975606945434,1.695726406430519,0.5196905907346512,0.41786079659994624,-5.618217334767083,47.6
,,0.004515984465074747,0.003631108393441408,0.0005426632109381839,0.00868975606945434,1.688286042008403,0.5196905907346512,0.41786079659994624,-5.618217334767083,47.7
,,0.004426913078414377,0.0036013494670886852,0.0005565588712479417,0.008584821416751005,1.6810338080687355,0.515667462782211,0.4195019665827417,-5.626446651790441,47.8
,,0.004426913078414377,0.0036013494670886852,0.0005565588712479417,0.008584821416751005,1.6720593111663338,0.515667462782211,0.4195019665827417,-5.626446651790441,47.9
,,0.004426913078414377,0.0036013494670886852,0.0005565588712479417,0.008584821416751005,1.663084814263932,0.515667462782211,0.4195019665827417,-5.626446651790441,48.0
,,0.004426913078414377,0.0036013494670886852,0.0005565588712479417,0.008584821416751005,1.6541103173615306,0.515667462782211,0.4195019665827417,-5.626446651790441,48.1
,,0.004426913078414377,0.0036013494670886852,0.0005565588712479417,0.008584821416751005,1.6451358204591287,0.515667462782211,0.4195019665827417,-5.626446651790441,48.2
,,0.004426913078414377,0.0036013494670886852,0.0005565588712479417,0.008584821416751005,1.6361613235567272,0.515667462782211,0.4195019665827417,-5.626446651790441,48.3
,,0.004426913078414377,0.0036013494670886852,0.0005565588712479417,0.008584821416751005,1.6271868266543257,0.515667462782211,0.4195019665827417,-5.626446651790441,48.4
,,0.004426913078414377,0.0036013494670886852,0.0005565588712479417,0.008584821416751005,1.6182123297519238,0.515667462782211,0.4195019665827417,-5.626446651790441,48.5
,,0.004426913078414377,0.0036013494670886852,0.0005565588712479417,0.008584821416751005,1.609237832849522,0.515667462782211,0.4195019665827417,-5.626446651790441,48.6
,,0.004337611761265316,0.0034687566003446745,0.0005470080867696628,0.008353376448379654,1.600938416053768,0.5192644900023277,0.41525203871513855,-5.663959077669271,48.7
,,0.004337611761265316,0.0034687566003446745,0.0005470080867696628,0.008353376448379654,1.593375048462464,0.5192644900023277,0.41525203871513855,-5.663959077669271,48.8
,,0.004337611761265316,0.0034687566003446745,0.0005470080867696628,0.008353376448379654,1.58581168087116,0.5192644900023277,0.41525203871513855,-5.663959077669271,48.9
,,0.004337611761265316,0.0034687566003446745,0.0005470080867696628,0.008353376448379654,1.578248313279856,0.5192644900023277,0.41525203871513855,-5.663959077669271,49.0
,,0.004337611761265316,0.0034687566003446745,0.0005470080867696628,0.008353376448379654,1.5706849456885519,0.5192644900023277,0.41525203871513855,-5.663959077669271,49.1
,,0.004337611761265316,0.0034687566003446745,0.0005470080867696628,0.008353376448379654,1.5631215780972478,0.5192644900023277,0.41525203871513855,-5.663959077669271,49.2
,,0.004337611761265316,0.0034687566003446745,0.0005470080867696628,0.008353376448379654,1.5555582105059438,0.5192644900023277,0.41525203871513855,-5.663959077669271,49.3
,,0.004337611761265316,0.0034687566003446745,0.0005470080867696628,0.008353376448379654,1.5479948429146395,0.5192644900023277,0.41525203871513855,-5.663959077669271,49.4
,,0.004337611761265316,0.0034687566003446745,0.0005470080867696628,0.008353376448379654,1.5404314753233355,0.5192644900023277,0.41525203871513855,-5.663959077669271,49.5
,,0.0036614003191704297,0.0020535735756622045,0.0003626377676919429,0.006077611662524577,1.5369303482929424,0.602440649794581,0.3378915418905148,-6.188173795814727,49.6
,,0.0036614003191704297,0.0020535735756622045,0.0003626377676919429,0.006077611662524577,1.5339635661755409,0.602440649794581,0.3378915418905148,-6.188173795814727,49.7
,,0.0036614003191704297,0.0020535735756622045,0.0003626377676919429,0.006077611662524577,1.5309967840581398,0.602440649794581,0.3378915418905148,-6.188173795814727,49.8
,,0.0036614003191704297,0.0020535735756622045,0.0003626377676919429,0.006077611662524577,1.528030001940738,0.602440649794581,0.3378915418905148,-6.188173795814727,49.9
,,0.0036614003191704297,0.0020535735756622045,0.0003626377676919429,0.006077611662524577,1.525063219823337,0.602440649794581,0.3378915418905148,-6.188173795814727,50.0
,,0.0036614003191704297,0.0020535735756622045,0.0003626377676919429,0.006077611662524577,1.5220964377059356,0.602440649794581,0.3378915418905148,-6.188173795814727,50.1
,,0.0036614003191704297,0.0020535735756622045,0.0003626377676919429,0.006077611662524577,1.5191296555885345,0.602440649794581,0.3378915418905148,-6.188173795814727,50.2
,,0.004061045896879596,0.003095614147982388,0.0005496563707792304,0.0077063164156412145,1.5109287615652376,0.526976272170326,0.40169829280554054,-5.777768960226176,50.3
,,0.002216796163031388,0.0030520394197696785,0.0005414976430312252,0.005810333225832291,1.4984636734383956,0.3815265109367022,0.5252778629288503,-5.791945249598227,50.4
,,0.003999880483969493,0.0029581131511708576,0.0004582229895013902,0.007416216624641741,1.4908069528007888,0.5393424553807067,0.39887092042888606,-5.823203662831883,50.5
,,0.003999880483969493,0.0029581131511708576,0.0004582229895013902,0.007416216624641741,1.4853624582845666,0.5393424553807067,0.39887092042888606,-5.823203662831883,50.6
,,0.003999880483969493,0.0029581131511708576,0.0004582229895013902,0.007416216624641741,1.4799179637683446,0.5393424553807067,0.39887092042888606,-5.823203662831883,50.7
,,0.003999880483969493,0.0029581131511708576,0.0004582229895013902,0.007416216624641741,1.4744734692521222,0.5393424553807067,0.39887092042888606,-5.823203662831883,50.8
,,0.003999880483969493,0.0029581131511708576,0.0004582229895013902,0.007416216624641741,1.4690289747359,0.5393424553807067,0.39887092042888606,-5.823203662831883,50.9
,,0.003999880483969493,0.0029581131511708576,0.0004582229895013902,0.007416216624641741,1.4635844802196776,0.5393424553807067,0.39887092042888606,-5.823203662831883,51.0
,,0.003999880483969493,0.0029581131511708576,0.0004582229895013902,0.007416216624641741,1.4584368546619941,0.5393424553807067,0.39887092042888606,-5.823203662831883,51.1
,,0.003999880483969493,0.0029581131511708576,0.0004582229895013902,0.007416216624641741,1.4532892291043105,0.5393424553807067,0.39887092042888606,-5.823203662831883,51.2
,,0.0036651457002891095,0.0016611979785082394,0.00043408243744548367,0.005760426116242833,1.4576322027998296,0.6362629476236831,0.28838109281952484,-6.40021626309486,51.3
,,0.0033582956482445755,0.0015827658689200387,0.0003382296346671371,0.005279291151831751,1.4610358701447776,0.6361262434028383,0.299806512541152,-6.448581412420634,51.4
,,0.0033582956482445755,0.0015827658689200387,0.0003382296346671371,0.005279291151831751,1.4650900014605446,0.6361262434028383,0.299806512541152,-6.448581412420634,51.5
,,0.0033582956482445755,0.0015827658689200387,0.0003382296346671371,0.005279291151831751,1.4691441327763117,0.6361262434028383,0.299806512541152,-6.448581412420634,51.6
,,0.0033582956482445755,0.0015827658689200387,0.0003382296346671371,0.005279291151831751,1.4731982640920784,0.6361262434028383,0.299806512541152,-6.448581412420634,51.7
,,0.0033582956482445755,0.0015827658689200387,0.0003382296346671371,0.005279291151831751,1.4772523954078458,0.6361262434028383,0.299806512541152,-6.448581412420634,51.8
,,0.0033582956482445755,0.0015827658689200387,0.0003382296346671371,0.005279291151831751,1.4818671516164794,0.6361262434028383,0.299806512541152,-6.448581412420634,51.9
,,0.0033582956482445755,0.0015827658689200387,0.0003382296346671371,0.005279291151831751,1.4864819078251126,0.6361262434028383,0.299806512541152,-6.448581412420634,52.0
,,0.0033582956482445755,0.0015827658689200387,0.0003382296346671371,0.005279291151831751,1.4910966640337462,0.6361262434028383,0.299806512541152,-6.448581412420634,52.1
,,0.0035435473944037724,0.002424598292400037,0.0003941067321186653,0.0063622524189224745,1.4883748589296586,0.5569642889151379,0.3810911816684369,-6.022089420933143,52.2
,,0.0035435473944037724,0.002424598292400037,0.0003941067321186653,0.0063622524189224745,1.4856530538255706,0.5569642889151379,0.3810911816684369,-6.022089420933143,52.3
,,0.0035435473944037724,0.002424598292400037,0.0003941067321186653,0.0063622524189224745,1.480830670404985,0.5569642889151379,0.3810911816684369,-6.022089420933143,52.4
,,0.0035435473944037724,0.002424598292400037,0.0003941067321186653,0.0063622524189224745,1.4760082869843991,0.5569642889151379,0.3810911816684369,-6.022089420933143,52.5
,,0.0035435473944037724,0.002424598292400037,0.0003941067321186653,0.0063622524189224745,1.4746029541941112,0.5569642889151379,0.3810911816684369,-6.022089420933143,52.6
,,0.0035435473944037724,0.002424598292400037,0.0003941067321186653,0.0063622524189224745,1.4731976214038234,0.5569642889151379,0.3810911816684369,-6.022089420933143,52.7
,,0.0035435473944037724,0.002424598292400037,0.0003941067321186653,0.0063622524189224745,1.4717922886135357,0.5569642889151379,0.3810911816684369,-6.022089420933143,52.8
,,0.0035435473944037724,0.002424598292400037,0.0003941067321186653,0.0063622524189224745,1.4703869558232476,0.5569642889151379,0.3810911816684369,-6.022089420933143,52.9
,,0.0032824671983620575,0.001274928981448814,0.0003803982710929572,0.004937794450903829,1.4813497200044923,0.6647638396047906,0.2581980667938592,-6.664864802747556,53.0
,,0.0031005059316229827,0.0012971900759879461,0.00029703585342677333,0.004694731861037702,1.4907056113240957,0.6604223677510862,0.27630759634081026,-6.647554833893442,53.1
,,0.0031005059316229827,0.0012971900759879461,0.00029703585342677333,0.004694731861037702,1.4969454416236923,0.6604223677510862,0.27630759634081026,-6.647554833893442,53.2
,,0.0031005059316229827,0.0012971900759879461,0.00029703585342677333,0.004694731861037702,1.503185271923289,0.6604223677510862,0.27630759634081026,-6.647554833893442,53.3
,,0.0031005059316229827,0.0012971900759879461,0.00029703585342677333,0.004694731861037702,1.5094251022228864,0.6604223677510862,0.27630759634081026,-6.647554833893442,53.4
,,0.0031005059316229827,0.0012971900759879461,0.00029703585342677333,0.004694731861037702,1.5196295066111571,0.6604223677510862,0.27630759634081026,-6.647554833893442,53.5
,,0.0031005059316229827,0.0012971900759879461,0.00029703585342677333,0.004694731861037702,1.5298339109994286,0.6604223677510862,0.27630759634081026,-6.647554833893442,53.6
,,0.0031005059316229827,0.0012971900759879461,0.00029703585342677333,0.004694731861037702,1.5400383153876998,0.6604223677510862,0.27630759634081026,-6.647554833893442,53.7
,,0.003006658994031637,0.001285788597856989,0.000324629999970097,0.004617077591858723,1.5496672367455024,0.6512039129109003,0.27848537787716965,-6.656383054038277,53.8
,,0.0032316193023782724,0.002088777999985005,0.00036533500632390814,0.005685732308687186,1.5505045639574624,0.5683734525174016,0.36737185055187654,-6.171176073005079,53.9
,,0.003029661891464722,0.0020119968341473925,0.00029539184386502646,0.005337050569477141,1.5476151089082417,0.5676659518258098,0.3769866535749357,-6.2086276002312735,54.0
,,0.003029661891464722,0.0020119968341473925,0.00029539184386502646,0.005337050569477141,1.548291416625105,0.5676659518258098,0.3769866535749357,-6.2086276002312735,54.1
,,0.003029661891464722,0.0020119968341473925,0.00029539184386502646,0.005337050569477141,1.5489677243419682,0.5676659518258098,0.3769866535749357,-6.2086276002312735,54.2
,,0.003029661891464722,0.0020119968341473925,0.00029539184386502646,0.005337050569477141,1.5504966511702991,0.5676659518258098,0.3769866535749357,-6.2086276002312735,54.3
,,0.003029661891464722,0.0020119968341473925,0.00029539184386502646,0.005337050569477141,1.5520255779986298,0.5676659518258098,0.3769866535749357,-6.2086276002312735,54.4
,,0.003029661891464722,0.0020119968341473925,0.00029539184386502646,0.005337050569477141,1.5535545048269606,0.5676659518258098,0.3769866535749357,-6.2086276002312735,54.5
,,0.003029661891464722,0.0020119968341473925,0.00029539184386502646,0.005337050569477141,1.5550834316552915,0.5676659518258098,0.3769866535749357,-6.2086276002312735,54.6
,,0.002928289117329852,0.0018870577863989715,0.0003198800354430981,0.005135226939171921,1.5571232081833102,0.5702355810203107,0.3674731046459396,-6.272736389641733,54.7
,,0.002693203485184657,0.0011160588346608375,0.0002728512366807757,0.0040821135565262704,1.5687336796210274,0.6597571203963456,0.27340220187567804,-6.797951697182486,54.8
,,0.002693203485184657,0.0011160588346608375,0.0002728512366807757,0.0040821135565262704,1.5804242218672757,0.6597571203963456,0.27340220187567804,-6.797951697182486,54.9
,,0.002693203485184657,0.0011160588346608375,0.0002728512366807757,0.0040821135565262704,1.5921200591576785,0.6597571203963456,0.27340220187567804,-6.797951697182486,55.0
,,0.002693203485184657,0.0011160588346608375,0.0002728512366807757,0.0040821135565262704,1.604600652072455,0.6597571203963456,0.27340220187567804,-6.797951697182486,55.1
,,0.002693203485184657,0.0011160588346608375,0.0002728512366807757,0.0040821135565262704,1.617081244987231,0.6597571203963456,0.27340220187567804,-6.797951697182486,55.2
,,0.002693203485184657,0.0011160588346608375,0.0002728512366807757,0.0040821135565262704,1.6295618379020071,0.6597571203963456,0.27340220187567804,-6.797951697182486,55.3
,,0.002693203485184657,0.0011160588346608375,0.0002728512366807757,0.0040821135565262704,1.6420424308167836,0.6597571203963456,0.27340220187567804,-6.797951697182486,55.4
,,0.002693203485184657,0.0011160588346608375,0.0002728512366807757,0.0040821135565262704,1.6545230237315596,0.6597571203963456,0.27340220187567804,-6.797951697182486,55.5
,,0.0018843617713446567,0.0009633013893125152,0.00035762041795765287,0.0032052835786148246,1.661925974385549,0.587892373678522,0.30053546454969504,-6.945144225958909,55.6
,,0.0024060094825199907,0.0010310598502722827,0.000265776162169845,0.0037028454949621183,1.673522043138607,0.6497731233435127,0.27845068115185584,-6.877168024931626,55.7
,,0.0024060094825199907,0.0010310598502722827,0.000265776162169845,0.0037028454949621183,1.685118111891666,0.6497731233435127,0.27845068115185584,-6.877168024931626,55.8
,,0.0024060094825199907,0.0010310598502722827,0.000265776162169845,0.0037028454949621183,1.6972274149515332,0.6497731233435127,0.27845068115185584,-6.877168024931626,55.9
,,0.0024060094825199907,0.0010310598502722827,0.000265776162169845,0.0037028454949621183,1.7052860571959618,0.6497731233435127,0.27845068115185584,-6.877168024931626,56.0
,,0.0024060094825199907,0.0010310598502722827,0.000265776162169845,0.0037028454949621183,1.717395360255829,0.6497731233435127,0.27845068115185584,-6.877168024931626,56.1
,,0.0024060094825199907,0.0010310598502722827,0.000265776162169845,0.0037028454949621183,1.7254540025002576,0.6497731233435127,0.27845068115185584,-6.877168024931626,56.2
,,0.0024060094825199907,0.0010310598502722827,0.000265776162169845,0.0037028454949621183,1.7375633055601247,0.6497731233435127,0.27845068115185584,-6.877168024931626,56.3
,,0.0023396441366809574,0.0016147844126546019,0.00017140319722350127,0.00412583174655906,1.7398432652272242,0.5670721154909476,0.3913839710020484,-6.428553821834528,56.4
,,0.002177381655667066,0.0015082559816499202,0.0002052523436284017,0.003890889980945388,1.7420649194456546,0.559610183359134,0.38763778699377466,-6.4968012746974,56.5
,,0.0021537370643232735,0.0014928343693278692,0.0002049495214845781,0.0038515209551357207,1.7442762926667483,0.5591913141356334,0.3875960657405444,-6.5070787047386744,56.6
,,0.0021537370643232735,0.0014928343693278692,0.0002049495214845781,0.0038515209551357207,1.7464876658878419,0.5591913141356334,0.3875960657405444,-6.5070787047386744,56.7
,,0.0021537370643232735,0.0014928343693278692,0.0002049495214845781,0.0038515209551357207,1.7488596591940184,0.5591913141356334,0.3875960657405444,-6.5070787047386744,56.8
,,0.0021537370643232735,0.0014928343693278692,0.0002049495214845781,0.0038515209551357207,1.7512316525001952,0.5591913141356334,0.3875960657405444,-6.5070787047386744,56.9
,,0.0021537370643232735,0.0014928343693278692,0.0002049495214845781,0.0038515209551357207,1.7536036458063717,0.5591913141356334,0.3875960657405444,-6.5070787047386744,57.0
,,0.0018736419817370464,0.0009121004578503838,0.00020490904676276358,0.0029906514863501936,1.762769961684989,0.626499607289129,0.3049838679008084,-6.999760422804399,57.1
,,0.0018736419817370464,0.0009121004578503838,0.00020490904676276358,0.0029906514863501936,1.771936277563606,0.626499607289129,0.3049838679008084,-6.999760422804399,57.2
,,0.0018736419817370464,0.0009121004578503838,0.00020490904676276358,0.0029906514863501936,1.7811025934422229,0.626499607289129,0.3049838679008084,-6.999760422804399,57.3
,,0.0018736419817370464,0.0009121004578503838,0.00020490904676276358,0.0029906514863501936,1.79026890932084,0.626499607289129,0.3049838679008084,-6.999760422804399,57.4
,,0.0018736419817370464,0.0009121004578503838,0.00020490904676276358,0.0029906514863501936,1.799435225199457,0.626499607289129,0.3049838679008084,-6.999760422804399,57.5
,,0.0018897786733121568,0.001363990871813886,0.0001926100756002136,0.0034463796207262567,1.8011712275568754,0.5483373514476397,0.3957749934484733,-6.597340411801818,57.6
,,0.0018897786733121568,0.001363990871813886,0.0001926100756002136,0.0034463796207262567,1.802671196634504,0.5483373514476397,0.3957749934484733,-6.597340411801818,57.7
,,0.0017982729578197264,0.0013521656456418655,0.00017703625042206876,0.0033274748538836604,1.8035538668310345,0.5404317197832084,0.40636389605279394,-6.606047789900323,57.8
,,0.0017982729578197264,0.0013521656456418655,0.00017703625042206876,0.0033274748538836604,1.804436537027566,0.5404317197832084,0.40636389605279394,-6.606047789900323,57.9
,,0.0017982729578197264,0.0013521656456418655,0.00017703625042206876,0.0033274748538836604,1.8053192072240964,0.5404317197832084,0.40636389605279394,-6.606047789900323,58.0
,,0.0017982729578197264,0.0013521656456418655,0.00017703625042206876,0.0033274748538836604,1.8062018774206274,0.5404317197832084,0.40636389605279394,-6.606047789900323,58.1
,,0.0017982729578197264,0.0013521656456418655,0.00017703625042206876,0.0033274748538836604,1.807084547617158,0.5404317197832084,0.40636389605279394,-6.606047789900323,58.2
,,0.0017982729578197264,0.0013521656456418655,0.00017703625042206876,0.0033274748538836604,1.807967217813689,0.5404317197832084,0.40636389605279394,-6.606047789900323,58.3
,,0.0017982729578197264,0.0013521656456418655,0.00017703625042206876,0.0033274748538836604,1.8088498880102197,0.5404317197832084,0.40636389605279394,-6.606047789900323,58.4
,,0.0015682760510536049,0.0012756896597258208,0.00017393386108634232,0.003017899571865768,1.8086151676940365,0.5196581309973954,0.42270779041767326,-6.664268337021728,58.5
,,0.0013553804024637284,0.0008605894152364164,0.0002405140519854627,0.002456483869685607,1.8063040944680235,0.5517562802629746,0.35033383522545125,-7.057893036919149,58.6
,,0.0015682760510536049,0.0012756896597258208,0.00017393386108634232,0.003017899571865768,1.8001531451575716,0.5196581309973954,0.42270779041767326,-6.664268337021728,58.7
,,0.0015682760510536049,0.0012756896597258208,0.00017393386108634232,0.003017899571865768,1.7940021958471197,0.5196581309973954,0.42270779041767326,-6.664268337021728,58.8
,,0.0015682760510536049,0.0012756896597258208,0.00017393386108634232,0.003017899571865768,1.7878512465366685,0.5196581309973954,0.42270779041767326,-6.664268337021728,58.9
,,0.0015682760510536049,0.0012756896597258208,0.00017393386108634232,0.003017899571865768,1.7817002972262164,0.5196581309973954,0.42270779041767326,-6.664268337021728,59.0
,,0.0015682760510536049,0.0012756896597258208,0.00017393386108634232,0.003017899571865768,1.7755493479157647,0.5196581309973954,0.42270779041767326,-6.664268337021728,59.1
,,0.001484798694517178,0.0011876732454025281,0.00022038241285735578,0.002892854352777062,1.76962972020882,0.513264241281906,0.41055411042812917,-6.735759141831228,59.2
,,0.0013813128268071462,0.0012366217279426894,0.00017757996598066712,0.002795514520730503,1.7674645458968217,0.49411756460710204,0.4423592575793685,-6.695372030281983,59.3
,,0.001365816509534826,0.0012289280242365449,0.00017962236990353708,0.002774366903674908,1.7717429435246728,0.492298443917304,0.4429580033587897,-6.701613014607474,59.4
,,0.0013654985128183862,0.0012284533008524393,0.00017957122023522516,0.002773523033906051,1.7690694572948833,0.49233357578981635,0.4429216147963137,-6.701999379869686,59.5
,,0.0013654985128183862,0.0012284533008524393,0.00017957122023522516,0.002773523033906051,1.7663959710650934,0.49233357578981635,0.4429216147963137,-6.701999379869686,59.6
,,0.0013654985128183862,0.0012284533008524393,0.00017957122023522516,0.002773523033906051,1.7637224848353033,0.49233357578981635,0.4429216147963137,-6.701999379869686,59.7
,,0.001365816509534826,0.0012289280242365449,0.00017962236990353708,0.002774366903674908,1.7610471027670902,0.492298443917304,0.4429580033587897,-6.701613014607474,59.8
,,0.0012954522433683423,0.0012522796166662676,0.0001414475459693075,0.002689179406003917,1.7575171284740418,0.48172771235570566,0.46567351135829854,-6.68278969524458,59.9
,,0.0012954522433683423,0.0012522796166662676,0.0001414475459693075,0.002689179406003917,1.7539871541809937,0.48172771235570566,0.46567351135829854,-6.68278969524458,60.0
,,0.0012954522433683423,0.0012522796166662676,0.0001414475459693075,0.002689179406003917,1.7504571798879454,0.48172771235570566,0.46567351135829854,-6.68278969524458,60.1
,,0.0012954522433683423,0.0012522796166662676,0.0001414475459693075,0.002689179406003917,1.746927205594897,0.48172771235570566,0.46567351135829854,-6.68278969524458,60.2
,,0.0012957500880953913,0.0012527591002744858,0.00014150297129818078,0.0026900121596680577,1.7339048744243188,0.4816893051722429,0.4657075975556459,-6.68240687991256,60.3
,,0.0012072788297056985,0.0012155611080211695,0.00018946398697072383,0.0026123039246975918,1.7213648430900217,0.46215098415298544,0.4653214721797298,-6.712549491493041,60.4
,,0.0012072788297056985,0.0012155611080211695,0.00018946398697072383,0.0026123039246975918,1.7088248117557252,0.46215098415298544,0.4653214721797298,-6.712549491493041,60.5
,,0.0012072788297056985,0.0012155611080211695,0.00018946398697072383,0.0026123039246975918,1.696284780421428,0.46215098415298544,0.4653214721797298,-6.712549491493041,60.6
,,0.0011494107938381118,0.0012557349566117172,0.00015368166285625076,0.00255882741330608,1.682879667755154,0.44919434107243655,0.49074624966178193,-6.680034255010322,60.7
,,0.0011496567649998464,0.0012552243923128485,0.00015366751813874522,0.0025585486754514403,1.6694808691926906,0.44933941497008906,0.49060016108209153,-6.680440923725309,60.8
,,0.0011496567649998464,0.0012552243923128485,0.00015366751813874522,0.0025585486754514403,1.6560820706302268,0.44933941497008906,0.49060016108209153,-6.680440923725309,60.9
,,0.0011496567649998464,0.0012552243923128485,0.00015366751813874522,0.0025585486754514403,1.6426832720677633,0.44933941497008906,0.49060016108209153,-6.680440923725309,61.0
,,0.0011496567649998464,0.0012552243923128485,0.00015366751813874522,0.0025585486754514403,1.6292844735052998,0.44933941497008906,0.49060016108209153,-6.680440923725309,61.1
,,0.0011121693299524324,0.001244010860973333,0.00020053533093853418,0.0025567155218643,1.6229791427117974,0.434999248231365,0.48656600639958103,-6.6894145540173025,61.2
,,0.0011060859563665462,0.0012404771674997613,0.0002027753281386445,0.0025493384520049516,1.6166476196271147,0.4338717581797169,0.4865878700900526,-6.692259160886725,61.3
,,0.0011021227917202832,0.001084425044499635,0.0002869858536099732,0.0024735336898298915,1.6117011882640384,0.4455661130680123,0.43841126925350776,-6.82670534534674,61.4
,,0.0011021227917202832,0.001084425044499635,0.0002869858536099732,0.0024735336898298915,1.6067547569009621,0.4455661130680123,0.43841126925350776,-6.82670534534674,61.5
,,0.0011021227917202832,0.001084425044499635,0.0002869858536099732,0.0024735336898298915,1.6018083255378859,0.4455661130680123,0.43841126925350776,-6.82670534534674,61.6
,,0.0011021227917202832,0.001084425044499635,0.0002869858536099732,0.0024735336898298915,1.5968618941748098,0.4455661130680123,0.43841126925350776,-6.82670534534674,61.7
,,0.0011021227917202832,0.001084425044499635,0.0002869858536099732,0.0024735336898298915,1.5919154628117336,0.4455661130680123,0.43841126925350776,-6.82670534534674,61.8
,,0.0011021227917202832,0.001084425044499635,0.0002869858536099732,0.0024735336898298915,1.5869690314486575,0.4455661130680123,0.43841126925350776,-6.82670534534674,61.9
,,0.0011021227917202832,0.001084425044499635,0.0002869858536099732,0.0024735336898298915,1.5696545031140487,0.4455661130680123,0.43841126925350776,-6.82670534534674,62.0
,,0.001039865049674135,0.0012577375421037138,0.00024718434704842554,0.002544786938826275,1.552283429889201,0.40862558425176027,0.49424080378368207,-6.678440773548508,62.1
,,0.001051800275202588,0.0013612543209688467,0.00021300149606326898,0.0026260560922347037,1.5343111971834054,0.40052467969468775,0.518364525797488,-6.59934870945669,62.2
,,0.001039865049674135,0.0012577375421037138,0.00024718434704842554,0.002544786938826275,1.5169401239585578,0.40862558425176027,0.49424080378368207,-6.678440773548508,62.3
,,0.0010522664006766542,0.0013594601084761968,0.0002144443532460664,0.0026261708623989176,1.4989830317363186,0.4006846682151689,0.5176586672027792,-6.600667637112844,62.4
,,0.0010522664006766542,0.0013594601084761968,0.0002144443532460664,0.0026261708623989176,1.4810259395140797,0.4006846682151689,0.5176586672027792,-6.600667637112844,62.5
,,0.0010522664006766542,0.0013594601084761968,0.0002144443532460664,0.0026261708623989176,1.463068847291841,0.4006846682151689,0.5176586672027792,-6.600667637112844,62.6
,,0.0010522664006766542,0.0013594601084761968,0.0002144443532460664,0.0026261708623989176,1.445111755069602,0.4006846682151689,0.5176586672027792,-6.600667637112844,62.7
,,0.0010522664006766542,0.0013594601084761968,0.0002144443532460664,0.0026261708623989176,1.4277301458778318,0.4006846682151689,0.5176586672027792,-6.600667637112844,62.8
,,0.0010469658904543253,0.0014305203812657729,0.00018205250413671895,0.0026595387758568166,1.4186717428045874,0.3936644578972258,0.5378828818936493,-6.549716997923895,62.9
,,0.0010469658904543253,0.0014305203812657729,0.00018205250413671895,0.0026595387758568166,1.4100726217913397,0.3936644578972258,0.5378828818936493,-6.549716997923895,63.0
,,0.0010469658904543253,0.0014305203812657729,0.00018205250413671895,0.0026595387758568166,1.401473500778092,0.3936644578972258,0.5378828818936493,-6.549716997923895,63.1
,,0.001258845503961681,0.0012806635782043943,0.0003132805949426072,0.0028527896771086826,1.3956642221504933,0.4412682484316641,0.4489162269762395,-6.660376914911896,63.2
,,0.0010964811222957125,0.0014445990321880168,0.00022680053587937352,0.0027678806903631025,1.3873666948748655,0.39614464818274786,0.5219152101525402,-6.539923482299284,63.3
,,0.0010964811222957125,0.0014445990321880168,0.00022680053587937352,0.0027678806903631025,1.379069167599238,0.39614464818274786,0.5219152101525402,-6.539923482299284,63.4
,,0.0010964811222957125,0.0014445990321880168,0.00022680053587937352,0.0027678806903631025,1.3707716403236103,0.39614464818274786,0.5219152101525402,-6.539923482299284,63.5
,,0.0012915628536846408,0.0013617292937409596,0.0002709982462468648,0.002924290393672465,1.364579129329043,0.4416670986162335,0.46566144617082106,-6.598999847440507,63.6
,,0.0012915628536846408,0.0013617292937409596,0.0002709982462468648,0.002924290393672465,1.3578757686347878,0.4416670986162335,0.46566144617082106,-6.598999847440507,63.7
,,0.0012915628536846408,0.0013617292937409596,0.0002709982462468648,0.002924290393672465,1.341601713030834,0.4416670986162335,0.46566144617082106,-6.598999847440507,63.8
,,0.0012915628536846408,0.0013617292937409596,0.0002709982462468648,0.002924290393672465,1.3253276574268802,0.4416670986162335,0.46566144617082106,-6.598999847440507,63.9
,,0.0012915628536846408,0.0013617292937409596,0.0002709982462468648,0.002924290393672465,1.3090536018229264,0.4416670986162335,0.46566144617082106,-6.598999847440507,64.0
,,0.0011903019746850796,0.0015508278510378704,0.00023368926687111297,0.002974819092594063,1.290769038165481,0.40012583543261043,0.5213183735773115,-6.468966393186469,64.1
,,0.0011962049558167723,0.0015499579323143416,0.00023423050924085848,0.002980393397371972,1.272531577342603,0.4013580746996529,0.5200514582004682,-6.46952748886165,64.2
,,0.0012452578847310897,0.0016414745530525746,0.0002308603769349607,0.003117592814718625,1.2541480656237787,0.3994292900766386,0.5265198666429196,-6.4121603233952555,64.3
,,0.0012452578847310897,0.0016414745530525746,0.0002308603769349607,0.003117592814718625,1.2357645539049547,0.3994292900766386,0.5265198666429196,-6.4121603233952555,64.4
,,0.0012452578847310897,0.0016414745530525746,0.0002308603769349607,0.003117592814718625,1.2173810421861302,0.3994292900766386,0.5265198666429196,-6.4121603233952555,64.5
,,0.0012452578847310897,0.0016414745530525746,0.0002308603769349607,0.003117592814718625,1.204075172728093,0.3994292900766386,0.5265198666429196,-6.4121603233952555,64.6
,,0.0012452578847310897,0.0016414745530525746,0.0002308603769349607,0.003117592814718625,1.1865761851709864,0.3994292900766386,0.5265198666429196,-6.4121603233952555,64.7
,,0.0012452578847310897,0.0016414745530525746,0.0002308603769349607,0.003117592814718625,1.1690771976138796,0.3994292900766386,0.5265198666429196,-6.4121603233952555,64.8
,,0.0012452578847310897,0.0016414745530525746,0.0002308603769349607,0.003117592814718625,1.1515782100567733,0.3994292900766386,0.5265198666429196,-6.4121603233952555,64.9
,,0.0013077274180978695,0.0016537308446395523,0.00027019405560494987,0.0032316523183423718,1.1344364729437677,0.404662163276478,0.5117291966258948,-6.404721425586589,65.0
,,0.0013077274180978695,0.0016537308446395523,0.00027019405560494987,0.0032316523183423718,1.1172947358307623,0.404662163276478,0.5117291966258948,-6.404721425586589,65.1
,,0.0014032731394313983,0.0017499346060326545,0.00023157958199882916,0.003384787327462882,1.1002766241910262,0.4145823662378347,0.5169998693372396,-6.348176859726255,65.2
,,0.0014032731394313983,0.0017499346060326545,0.00023157958199882916,0.003384787327462882,1.08325851255129,0.4145823662378347,0.5169998693372396,-6.348176859726255,65.3
,,0.0014032731394313983,0.0017499346060326545,0.00023157958199882916,0.003384787327462882,1.0760697443043212,0.4145823662378347,0.5169998693372396,-6.348176859726255,65.4
,,0.0014032731394313983,0.0017499346060326545,0.00023157958199882916,0.003384787327462882,1.0689392815060217,0.4145823662378347,0.5169998693372396,-6.348176859726255,65.5
,,0.0014032731394313983,0.0017499346060326545,0.00023157958199882916,0.003384787327462882,1.0618190997050587,0.4145823662378347,0.5169998693372396,-6.348176859726255,65.6
,,0.0014032731394313983,0.0017499346060326545,0.00023157958199882916,0.003384787327462882,1.0546989179040962,0.4145823662378347,0.5169998693372396,-6.348176859726255,65.7
,,0.0014767449707130942,0.0017518711566142627,0.0002650571772787568,0.003493673304606114,1.0480348763878178,0.4226912026279419,0.5014410346567231,-6.347070829917475,65.8
,,0.0014767449707130942,0.0017518711566142627,0.0002650571772787568,0.003493673304606114,1.0413708348715391,0.4226912026279419,0.5014410346567231,-6.347070829917475,65.9
,,0.0014767449707130942,0.0017518711566142627,0.0002650571772787568,0.003493673304606114,1.0347067933552607,0.4226912026279419,0.5014410346567231,-6.347070829917475,66.0
,,0.0015599848139142404,0.001829847335904298,0.00022516942079083642,0.003615001570609375,1.021354750172212,0.43153088136868395,0.5061816157374016,-6.303522738611815,66.1
,,0.0015599848139142404,0.001829847335904298,0.00022516942079083642,0.003615001570609375,1.0080027069891633,0.43153088136868395,0.5061816157374016,-6.303522738611815,66.2
,,0.0015599848139142404,0.001829847335904298,0.00022516942079083642,0.003615001570609375,0.9946506638061146,0.43153088136868395,0.5061816157374016,-6.303522738611815,66.3
,,0.0015599848139142404,0.001829847335904298,0.00022516942079083642,0.003615001570609375,0.9812986206230659,0.43153088136868395,0.5061816157374016,-6.303522738611815,66.4
,,0.0015599848139142404,0.001829847335904298,0.00022516942079083642,0.003615001570609375,0.9679465774400172,0.43153088136868395,0.5061816157374016,-6.303522738611815,66.5
,,0.0018447207838676405,0.0017662743435603839,0.0002567400878488602,0.0038677352152768846,0.9641569774496423,0.47695115647558106,0.45666888896217767,-6.338882841436095,66.6
,,0.0018447207838676405,0.0017662743435603839,0.0002567400878488602,0.0038677352152768846,0.9603673774592677,0.47695115647558106,0.45666888896217767,-6.338882841436095,66.7
,,0.0016903558363613842,0.0018818993832579326,0.00021461235840182543,0.003786867578021142,0.9555706814356608,0.4463731042965841,0.4969541037506609,-6.275473701916602,66.8
,,0.0018447207838676405,0.0017662743435603839,0.0002567400878488602,0.0038677352152768846,0.9523983803263834,0.47695115647558106,0.45666888896217767,-6.338882841436095,66.9
,,0.0016976400059789665,0.00187816035498926,0.00021382392669929513,0.0037896242876675214,0.9476646456288293,0.44797053140691373,0.49560595257458895,-6.2774625157979775,67.0
,,0.0016976400059789665,0.00187816035498926,0.00021382392669929513,0.0037896242876675214,0.9429309109312755,0.44797053140691373,0.49560595257458895,-6.2774625157979775,67.1
,,0.0016976400059789665,0.00187816035498926,0.00021382392669929513,0.0037896242876675214,0.9381971762337215,0.44797053140691373,0.49560595257458895,-6.2774625157979775,67.2
,,0.0016976400059789665,0.00187816035498926,0.00021382392669929513,0.0037896242876675214,0.9334634415361673,0.44797053140691373,0.49560595257458895,-6.2774625157979775,67.3
,,0.0017629348921062529,0.0019424143203742666,0.00017476297020489195,0.0038801121826854113,0.9287709883602417,0.4543515262195672,0.5006077734149245,-6.2438235846106895,67.4
,,0.0017629348921062529,0.0019424143203742666,0.00017476297020489195,0.0038801121826854113,0.9251959256970301,0.4543515262195672,0.5006077734149245,-6.2438235846106895,67.5
,,0.0017629348921062529,0.0019424143203742666,0.00017476297020489195,0.0038801121826854113,0.9177809869493798,0.4543515262195672,0.5006077734149245,-6.2438235846106895,67.6
,,0.0018024079252263487,0.0019043351954686225,0.00020013561541047187,0.003906878736105443,0.9146378839554998,0.46134217286279844,0.4874313548228916,-6.263622310067358,67.7
,,0.0017629348921062529,0.0019424143203742666,0.00017476297020489195,0.0038801121826854113,0.9110628212922881,0.4543515262195672,0.5006077734149245,-6.2438235846106895,67.8
,,0.0018076160448440536,0.0018990781060742926,0.0001991957028137628,0.0039058898537321094,0.9079793017676432,0.4627923757544934,0.4862088223659733,-6.266386717890229,67.9
,,0.0018076160448440536,0.0018990781060742926,0.0001991957028137628,0.0039058898537321094,0.9048957822429984,0.4627923757544934,0.4862088223659733,-6.266386717890229,68.0
,,0.001862455618699616,0.0019553004802746873,0.00019080928313791666,0.00400856538211222,0.901819791780044,0.464618994867994,0.48778061323385163,-6.237211399004965,68.1
,,0.001862455618699616,0.0019553004802746873,0.00019080928313791666,0.00400856538211222,0.8985124797135826,0.464618994867994,0.48778061323385163,-6.237211399004965,68.2
,,0.001862455618699616,0.0019553004802746873,0.00019080928313791666,0.00400856538211222,0.8966848261580704,0.464618994867994,0.48778061323385163,-6.237211399004965,68.3
,,0.001862455618699616,0.0019553004802746873,0.00019080928313791666,0.00400856538211222,0.8949195793916724,0.464618994867994,0.48778061323385163,-6.237211399004965,68.4
,,0.001862455618699616,0.0019553004802746873,0.00019080928313791666,0.00400856538211222,0.8931524367868506,0.464618994867994,0.48778061323385163,-6.237211399004965,68.5
,,0.001862455618699616,0.0019553004802746873,0.00019080928313791666,0.00400856538211222,0.8913852941820287,0.464618994867994,0.48778061323385163,-6.237211399004965,68.6
,,0.001862455618699616,0.0019553004802746873,0.00019080928313791666,0.00400856538211222,0.8896181515772069,0.464618994867994,0.48778061323385163,-6.237211399004965,68.7
,,0.0019280809993378718,0.0019501689240988141,0.00017537826758427338,0.0040536281910209596,0.8882546550317106,0.47564327769593967,0.48109220485947884,-6.239839282415466,68.8
,,0.0019280809993378718,0.0019501689240988141,0.00017537826758427338,0.0040536281910209596,0.8877457507110489,0.47564327769593967,0.48109220485947884,-6.239839282415466,68.9
,,0.0019280809993378718,0.0019501689240988141,0.00017537826758427338,0.0040536281910209596,0.8872368463903871,0.47564327769593967,0.48109220485947884,-6.239839282415466,69.0
,,0.0019280809993378718,0.0019501689240988141,0.00017537826758427338,0.0040536281910209596,0.8867279420697254,0.47564327769593967,0.48109220485947884,-6.239839282415466,69.1
,,0.0019280809993378718,0.0019501689240988141,0.00017537826758427338,0.0040536281910209596,0.8862190377490634,0.47564327769593967,0.48109220485947884,-6.239839282415466,69.2
,,0.0019280809993378718,0.0019501689240988141,0.00017537826758427338,0.0040536281910209596,0.8857118910527294,0.47564327769593967,0.48109220485947884,-6.239839282415466,69.3
,,0.0019724685448134893,0.0020034990163545377,0.00013681394243459332,0.004112781503602621,0.8856155066551176,0.4795947810710808,0.48713966803234215,-6.21286011885174,69.4
,,0.001961355068486622,0.0019387919043372813,0.00016173973318145594,0.004061886706005359,0.8858205209608149,0.4828679897907606,0.47731314156813986,-6.245690229606639,69.5
,,0.0019724685448134893,0.0020034990163545377,0.00013681394243459332,0.004112781503602621,0.8857241365632031,0.4795947810710808,0.48713966803234215,-6.21286011885174,69.6
,,0.0019613589862344113,0.0019313769200651424,0.00016117117718686012,0.004053907083486414,0.8868374092019985,0.48381942305091424,0.47642357860953555,-6.249522100350044,69.7
,,0.0019613589862344113,0.0019313769200651424,0.00016117117718686012,0.004053907083486414,0.8879443677369832,0.48381942305091424,0.47642357860953555,-6.249522100350044,69.8
,,0.0019613589862344113,0.0019313769200651424,0.00016117117718686012,0.004053907083486414,0.8890513262719679,0.48381942305091424,0.47642357860953555,-6.249522100350044,69.9
,,0.0019613589862344113,0.0019313769200651424,0.00016117117718686012,0.004053907083486414,0.8901582848069527,0.48381942305091424,0.47642357860953555,-6.249522100350044,70.0
,,0.002031315090235844,0.0017981616281706378,0.0001729345375117959,0.004002411255918278,0.8925334483765662,0.5075228307016634,0.44926958105860204,-6.320990453663283,70.1
,,0.002031315090235844,0.0017981616281706378,0.0001729345375117959,0.004002411255918278,0.8951517054899393,0.5075228307016634,0.44926958105860204,-6.320990453663283,70.2
,,0.002031315090235844,0.0017981616281706378,0.0001729345375117959,0.004002411255918278,0.8977961548944933,0.5075228307016634,0.44926958105860204,-6.320990453663283,70.3
,,0.002031315090235844,0.0017981616281706378,0.0001729345375117959,0.004002411255918278,0.8990555125774403,0.5075228307016634,0.44926958105860204,-6.320990453663283,70.4
,,0.002031315090235844,0.0017981616281706378,0.0001729345375117959,0.004002411255918278,0.9003148702603876,0.5075228307016634,0.44926958105860204,-6.320990453663283,70.5
,,0.001965707650882394,0.0019057676504375255,0.00014928161883499572,0.004020756920154915,0.9004830031182774,0.488889950304844,0.4739823093717634,-6.262870385463573,70.6
,,0.001965707650882394,0.0019057676504375255,0.00014928161883499572,0.004020756920154915,0.9006511359761673,0.488889950304844,0.4739823093717634,-6.262870385463573,70.7
,,0.0019842103068415723,0.0019625578336858363,0.0001413118633948578,0.004088080003922267,0.9005923898240064,0.48536484240470873,0.4800683528215886,-6.233506639347868,70.8
