time,ecg,hr,rr,marker,norm_time
1715827901407331740,0.055,87.0,733.0,,0.0
1715827901415026526,0.048,,,,0.007694786
1715827901422721312,0.05,,,,0.015389572
1715827901430416098,0.05,,,,0.023084358
1715827901438110884,0.048,,,,0.030779144
1715827901445805670,0.058,,,,0.03847393
1715827901453500456,0.074,,,,0.046168716
1715827901461195242,0.082,,,,0.053863502
1715827901468890028,0.074,,,,0.061558288
1715827901476584814,0.053,,,,0.069253074
1715827901484279600,0.043,,,,0.07694786
1715827901491974386,0.055,,,,0.084642646
1715827901499669172,0.058,,,,0.092337432
1715827901507363958,0.055,,,,0.100032218
1715827901515058744,0.065,,,,0.107727004
1715827901522753530,0.062,,,,0.11542179
1715827901530448316,0.043,,,,0.123116576
1715827901538143102,0.077,,,,0.130811362
1715827901545837888,0.316,,,,0.138506148
1715827901553532674,0.8240000000000001,,,,0.146200934
1715827901561227460,1.353,,,,0.15389572
1715827901568922246,1.343,,,,0.161590506
1715827901576617032,0.621,,,,0.169285292
1715827901584311818,-0.079,,,,0.176980078
1715827901592006604,-0.157,,,,0.184674864
1715827901599701390,0.007,,,,0.19236965
1715827901607396176,0.004,,,,0.200064436
1715827901615090962,-0.041,,,,0.207759222
1715827901622785748,-0.029,,,,0.215454008
1715827901630480534,-0.019,,,,0.223148794
1715827901638175320,-0.019,,,,0.23084358
1715827901645870106,-0.009,,,,0.238538366
1715827901653564892,0.0,,,,0.246233152
1715827901661259678,0.004,,,,0.253927938
1715827901668954464,0.019,,,,0.261622724
1715827901676649250,0.029,,,,0.26931751
1715827901684344036,0.031,,,,0.277012296
1715827901692038822,0.043,,,,0.284707082
1715827901699733608,0.058,,,,0.292401868
1715827901707428394,0.067,,,,0.300096654
1715827901715123180,0.074,,,,0.30779144
1715827901722817966,0.087,,,,0.315486226
1715827901730512752,0.096,,,,0.323181012
1715827901738207538,0.106,,,,0.330875798
1715827901745902324,0.12,,,,0.338570584
1715827901753597110,0.137,,,,0.34626537
1715827901761291896,0.145,,,,0.353960156
1715827901768986682,0.145,,,,0.361654942
1715827901776681468,0.137,,,,0.369349728
1715827901784376254,0.137,,,,0.377044514
1715827901792071040,0.132,,,,0.3847393
1715827901799765826,0.103,,,,0.392434086
1715827901807460612,0.065,,,,0.400128872
1715827901815155398,0.043,,,,0.407823658
1715827901822850184,0.024,,,,0.415518444
1715827901830544970,-0.002,,,,0.42321323
1715827901838239756,-0.016,,,,0.430908016
1715827901845934542,-0.012,,,,0.438602802
1715827901853629328,-0.002,,,,0.446297588
1715827901861324114,-0.002,,,,0.453992374
1715827901869018900,0.0,,,,0.46168716
1715827901876713686,0.007,,,,0.469381946
1715827901884408472,0.009,,,,0.477076732
1715827901892103258,0.014,,,,0.484771518
1715827901899798044,0.026,,,,0.492466304
1715827901907492830,0.041,,,,0.50016109
1715827901915187616,0.05,,,,0.507855876
1715827901922882402,0.045,,,,0.515550662
1715827901930577188,0.036,,,,0.523245448
1715827901938271974,0.038,,,,0.530940234
1715827901945966760,0.055,,,,0.53863502
1715827901953661546,0.053,,,,0.546329806
1715827901961356332,0.041,,,,0.554024592
1715827901969051134,0.045,,,,0.561719394
1715827901976745711,0.053,,,,0.569413971
1715827901984440288,0.045,,,,0.577108548
1715827901992134865,0.043,,,,0.584803125
1715827901999829442,0.053,,,,0.592497702
1715827902007524019,0.053,,,,0.600192279
1715827902015218596,0.048,,,,0.607886856
1715827902022913173,0.041,,,,0.615581433
1715827902030607750,0.033,,,,0.62327601
1715827902038302327,0.026,,,,0.630970587
1715827902045996904,0.014,,,,0.638665164
1715827902053691481,0.021,,,,0.646359741
1715827902061386058,0.031,,,,0.654054318
1715827902069080635,0.029,,,,0.661748895
1715827902076775212,0.038,,,,0.669443472
1715827902084469789,0.065,,,,0.677138049
1715827902092164366,0.074,,,,0.684832626
1715827902099858943,0.053,,,,0.692527203
1715827902107553520,0.029,,,,0.70022178
1715827902115248097,0.026,,,,0.707916357
1715827902122942674,0.041,,,,0.715610934
1715827902130637251,0.055,,,,0.723305511
1715827902138331828,0.053,,,,0.731000088
1715827902146026405,0.045,,,,0.738694665
1715827902153720982,0.048,,,,0.746389242
1715827902161415559,0.036,,,,0.754083819
1715827902169110136,0.07,,,,0.761778396
1715827902176804713,0.372,,,,0.769472973
1715827902184499290,1.029,,,,0.77716755
1715827902192193867,1.662,,,,0.784862127
1715827902199888444,1.556,,,,0.792556704
1715827902207583021,0.65,,,,0.800251281
1715827902215277598,-0.123,,,,0.807945858
1715827902222972175,-0.169,,,,0.815640435
1715827902230666752,0.012,,,,0.823335012
1715827902238361329,-0.038,,,,0.831029589
1715827902246055906,-0.094,,,,0.838724166
1715827902253750483,-0.036,,,,0.846418743
1715827902261445060,-0.033,,,,0.85411332
1715827902269139637,-0.055,,,,0.861807897
1715827902276834214,-0.029,,,,0.869502474
1715827902284528791,-0.004,,,,0.877197051
1715827902292223368,-0.002,,,,0.884891628
1715827902299917945,0.009,,,,0.892586205
1715827902307612522,0.029,,,,0.900280782
1715827902315307099,0.033,,,,0.907975359
1715827902323001676,0.043,,,,0.915669936
1715827902330696253,0.058,,,,0.923364513
1715827902338390830,0.062,,,,0.93105909
1715827902346085407,0.074,,,,0.938753667
1715827902353779984,0.101,,,,0.946448244
1715827902361474561,0.113,,,,0.954142821
1715827902369169138,0.116,,,,0.961837398
1715827902376863715,0.137,,,,0.969531975
1715827902384558292,0.152,,,,0.977226552
1715827902392252869,0.147,,,,0.984921129
1715827902399947446,0.147,,,,0.992615706
1715827902407642023,0.154,,,,1.000310283
1715827902415336600,0.147,,,,1.00800486
1715827902423031177,0.123,,,,1.015699437
1715827902430725754,0.094,,,,1.023394014
1715827902438420331,0.067,,,,1.031088591
1715827902446114908,0.041,,,,1.038783168
1715827902453809485,0.014,,,,1.046477745
1715827902461504062,-0.004,,,,1.054172322
1715827902469198639,-0.014,,,,1.061866899
1715827902476893216,-0.007,,,,1.069561476
1715827902484587793,-0.009,,,,1.077256053
1715827902492282370,-0.021,,,,1.08495063
1715827902499976947,-0.016,,,,1.092645207
1715827902507671524,0.0,,,,1.100339784
1715827902515366101,0.012,,,,1.108034361
1715827902523060678,0.004,,,,1.115728938
1715827902530755270,-0.002,86.0,714.0,,1.12342353
1715827902538449847,-0.002,,681.0,,1.131118107
1715827902546144424,0.007,,,,1.138812684
1715827902553839001,0.014,,,,1.146507261
1715827902561533578,0.021,,,,1.154201838
1715827902569228155,0.029,,,,1.161896415
1715827902576922732,0.021,,,,1.169590992
1715827902584617309,0.007,,,,1.177285569
1715827902592311886,0.014,,,,1.184980146
1715827902600006463,0.021,,,,1.192674723
1715827902607701040,0.014,,,,1.2003693
1715827902615395617,0.012,,,,1.208063877
1715827902623090194,0.016,,,,1.215758454
1715827902630784771,0.031,,,,1.223453031
1715827902638479348,0.033,,,,1.231147608
1715827902646173925,0.021,,,,1.238842185
1715827902653868502,0.019,,,,1.246536762
1715827902661563079,0.019,,,,1.254231339
1715827902669257656,0.016,,,,1.261925916
1715827902676952233,0.014,,,,1.269620493
1715827902684646810,0.004,,,,1.27731507
1715827902692341387,0.009,,,,1.285009647
1715827902700035964,0.043,,,,1.292704224
1715827902707730541,0.072,,,,1.300398801
1715827902715425118,0.074,,,,1.308093378
1715827902723119695,0.065,,,,1.315787955
1715827902730814272,0.05,,,,1.323482532
1715827902738508849,0.043,,,,1.331177109
1715827902746203426,0.053,,,,1.338871686
1715827902753898003,0.06,,,,1.346566263
1715827902761592580,0.053,,,,1.35426084
1715827902769287157,0.058,,,,1.361955417
1715827902776981734,0.062,,,,1.369649994
1715827902784676311,0.045,,,,1.377344571
1715827902792370888,0.072,,,,1.385039148
1715827902800065465,0.335,,,,1.392733725
1715827902807760042,0.952,,,,1.400428302
1715827902815454619,1.607,,,,1.408122879
1715827902823149196,1.585,,,,1.415817456
1715827902830843773,0.725,,,,1.423512033
1715827902838538350,-0.072,,,,1.43120661
1715827902846232927,-0.157,,,,1.438901187
1715827902853927504,0.029,,,,1.446595764
1715827902861622081,-0.007,,,,1.454290341
1715827902869316658,-0.074,,,,1.461984918
1715827902877011235,-0.029,,,,1.469679495
1715827902884705812,-0.014,,,,1.477374072
1715827902892400389,-0.029,,,,1.485068649
1715827902900094966,-0.009,,,,1.492763226
1715827902907789543,0.007,,,,1.500457803
1715827902915484120,0.004,,,,1.50815238
1715827902923178697,0.012,,,,1.515846957
1715827902930873274,0.029,,,,1.523541534
1715827902938567851,0.038,,,,1.531236111
1715827902946262428,0.045,,,,1.538930688
1715827902953957005,0.065,,,,1.546625265
1715827902961651582,0.084,,,,1.554319842
1715827902969346159,0.087,,,,1.562014419
1715827902977040736,0.091,,,,1.569708996
1715827902984735313,0.116,,,,1.577403573
1715827902992429890,0.128,,,,1.58509815
1715827903000124467,0.125,,,,1.592792727
1715827903007819044,0.135,,,,1.600487304
1715827903015513621,0.152,,,,1.608181881
1715827903023208198,0.152,,,,1.615876458
1715827903030902775,0.147,,,,1.623571035
1715827903038597352,0.14,,,,1.631265612
1715827903046291929,0.118,,,,1.638960189
1715827903053986506,0.089,,,,1.646654766
1715827903061681083,0.065,,,,1.654349343
1715827903069375660,0.053,,,,1.66204392
1715827903077070237,0.031,,,,1.669738497
1715827903084764814,0.007,,,,1.677433074
1715827903092459404,0.004,86.0,641.0,,1.685127664
1715827903100154190,0.004,,,,1.69282245
1715827903107848976,0.004,,,,1.700517236
1715827903115543762,0.004,,,,1.708212022
1715827903123238548,0.002,,,,1.715906808
1715827903130933334,0.007,,,,1.723601594
1715827903138628120,0.019,,,,1.73129638
1715827903146322906,0.019,,,,1.738991166
1715827903154017692,0.012,,,,1.746685952
1715827903161712478,0.016,,,,1.754380738
1715827903169407264,0.026,,,,1.762075524
1715827903177102050,0.024,,,,1.76977031
1715827903184796836,0.016,,,,1.777465096
1715827903192491622,0.021,,,,1.785159882
1715827903200186408,0.026,,,,1.792854668
1715827903207881194,0.021,,,,1.800549454
1715827903215575980,0.019,,,,1.80824424
1715827903223270766,0.014,,,,1.815939026
1715827903230965552,0.014,,,,1.823633812
1715827903238660338,0.014,,,,1.831328598
1715827903246355124,0.016,,,,1.839023384
1715827903254049910,0.021,,,,1.84671817
1715827903261744696,0.019,,,,1.854412956
1715827903269439482,0.016,,,,1.862107742
1715827903277134268,0.016,,,,1.869802528
1715827903284829054,0.016,,,,1.877497314
1715827903292523840,0.019,,,,1.8851921
1715827903300218626,0.029,,,,1.892886886
1715827903307913412,0.031,,,,1.900581672
1715827903315608198,0.024,,,,1.908276458
1715827903323302984,0.019,,,,1.915971244
1715827903330997770,0.019,,,,1.92366603
1715827903338692556,0.026,,,,1.931360816
1715827903346387342,0.038,,,,1.939055602
1715827903354082128,0.05,,,,1.946750388
1715827903361776914,0.055,,,,1.954445174
1715827903369471700,0.06,,,,1.96213996
1715827903377166486,0.058,,,,1.969834746
1715827903384861272,0.043,,,,1.977529532
1715827903392556058,0.038,,,,1.985224318
1715827903400250844,0.048,,,,1.992919104
1715827903407945630,0.048,,,,2.00061389
1715827903415640416,0.041,,,,2.008308676
1715827903423335202,0.045,,,,2.016003462
1715827903431029988,0.05,,,,2.023698248
1715827903438724774,0.043,,,,2.031393034
1715827903446419560,0.166,,,,2.03908782
1715827903454114346,0.616,,,,2.046782606
1715827903461809132,1.31,,,,2.054477392
1715827903469503918,1.65,,,,2.062172178
1715827903477198704,1.099,,,,2.069866964
1715827903484893490,0.152,,,,2.07756175
1715827903492588276,-0.227,,,,2.085256536
1715827903500283062,-0.05,,,,2.092951322
1715827903507977848,0.019,,,,2.100646108
1715827903515672634,-0.074,,,,2.108340894
1715827903523367420,-0.065,,,,2.11603568
1715827903531062206,-0.024,,,,2.123730466
1715827903538756992,-0.045,,,,2.131425252
1715827903546451778,-0.048,,,,2.139120038
1715827903554146564,-0.016,,,,2.146814824
1715827903561841350,-0.007,,,,2.15450961
1715827903569536136,-0.009,,,,2.162204396
1715827903577230922,0.007,,,,2.169899182
1715827903584925708,0.024,,,,2.177593968
1715827903592620494,0.031,,,,2.185288754
1715827903600315280,0.045,,,,2.19298354
1715827903608010066,0.055,,,,2.200678326
1715827903615704852,0.062,,,,2.208373112
1715827903623399638,0.079,,,,2.216067898
1715827903631094424,0.094,,,,2.223762684
1715827903638789210,0.101,,,,2.23145747
1715827903646483996,0.111,,,,2.239152256
1715827903654178798,0.12,,,,2.246847058
1715827903661873584,0.123,,,,2.254541844
1715827903669568370,0.13,,,,2.26223663
1715827903677263156,0.13,,,,2.269931416
1715827903684957942,0.116,,,,2.277626202
1715827903692652728,0.103,,,,2.285320988
1715827903700347514,0.094,,,,2.293015774
1715827903708042300,0.077,,,,2.30071056
1715827903715737086,0.053,,,,2.308405346
1715827903723431872,0.021,,,,2.316100132
1715827903731126658,0.002,,,,2.323794918
1715827903738821444,0.004,,,,2.331489704
1715827903746516230,0.002,,,,2.33918449
1715827903754211016,-0.004,,,,2.346879276
1715827903761905802,0.002,,,,2.354574062
1715827903769600588,0.012,,,,2.362268848
1715827903777295374,0.009,,,,2.369963634
1715827903784990160,0.014,,,,2.37765842
1715827903792684946,0.026,,,,2.385353206
1715827903800379732,0.033,,,,2.393047992
1715827903808074518,0.031,,,,2.400742778
1715827903815769304,0.031,,,,2.408437564
1715827903823464090,0.038,,,,2.41613235
1715827903831158876,0.05,,,,2.423827136
1715827903838853662,0.045,,,,2.431521922
1715827903846548448,0.038,,,,2.439216708
1715827903854243234,0.043,,,,2.446911494
1715827903861938020,0.043,,,,2.45460628
1715827903869632806,0.038,,,,2.462301066
1715827903877327592,0.033,,,,2.469995852
1715827903885022378,0.038,,,,2.477690638
1715827903892717164,0.041,,,,2.485385424
1715827903900411950,0.029,,,,2.49308021
1715827903908106736,0.021,,,,2.500774996
1715827903915801522,0.024,,,,2.508469782
1715827903923496308,0.021,,,,2.516164568
1715827903931191094,0.016,,,,2.523859354
1715827903938885880,0.024,,,,2.53155414
1715827903946580666,0.024,,,,2.539248926
1715827903954275452,0.016,,,,2.546943712
1715827903961970238,0.012,,,,2.554638498
1715827903969665024,0.026,,,,2.562333284
1715827903977359810,0.036,,,,2.57002807
1715827903985054596,0.033,,,,2.577722856
1715827903992749382,0.036,,,,2.585417642
1715827904000444168,0.036,,,,2.593112428
1715827904008138954,0.036,,,,2.600807214
1715827904015833740,0.036,,,,2.608502
1715827904023528526,0.029,,,,2.616196786
1715827904031223312,0.026,,,,2.623891572
1715827904038918098,0.038,,,,2.631586358
1715827904046612884,0.055,,,,2.639281144
1715827904054307670,0.062,,,,2.64697593
1715827904062002456,0.058,,,,2.654670716
1715827904069697242,0.045,,,,2.662365502
1715827904077392028,0.043,,,,2.670060288
1715827904085086814,0.05,,,,2.677755074
1715827904092781600,0.053,,,,2.68544986
1715827904100476386,0.048,,,,2.693144646
1715827904108171172,0.058,,,,2.700839432
1715827904115865958,0.067,,,,2.708534218
1715827904123560744,0.053,,,,2.716229004
1715827904131255530,0.07,,,,2.72392379
1715827904138950316,0.282,,,,2.731618576
1715827904146645102,0.785,,,,2.739313362
1715827904154339888,1.365,,,,2.747008148
1715827904162034674,1.435,,,,2.754702934
1715827904169729460,0.732,,,,2.76239772
1715827904177424246,-0.033,,,,2.770092506
1715827904185119032,-0.169,,,,2.777787292
1715827904192813818,-0.002,,,,2.785482078
1715827904200508604,-0.004,,,,2.793176864
1715827904208203390,-0.058,,,,2.80087165
1715827904215898192,-0.029,88.0,630.0,,2.808566452
1715827904223592560,-0.012,,624.0,,2.81626082
1715827904231286928,-0.024,,,,2.823955188
1715827904238981296,-0.007,,,,2.831649556
1715827904246675664,0.014,,,,2.839343924
1715827904254370032,0.016,,,,2.847038292
1715827904262064400,0.014,,,,2.85473266
1715827904269758768,0.029,,,,2.862427028
1715827904277453136,0.048,,,,2.870121396
1715827904285147504,0.05,,,,2.877815764
1715827904292841872,0.058,,,,2.885510132
1715827904300536240,0.074,,,,2.8932045
1715827904308230608,0.091,,,,2.900898868
1715827904315924976,0.101,,,,2.908593236
1715827904323619344,0.116,,,,2.916287604
1715827904331313712,0.13,,,,2.923981972
1715827904339008080,0.137,,,,2.93167634
1715827904346702448,0.14,,,,2.939370708
1715827904354396816,0.147,,,,2.947065076
1715827904362091184,0.157,,,,2.954759444
1715827904369785552,0.159,,,,2.962453812
1715827904377479920,0.149,,,,2.97014818
1715827904385174288,0.14,,,,2.977842548
1715827904392868656,0.125,,,,2.985536916
1715827904400563024,0.096,,,,2.993231284
1715827904408257392,0.065,,,,3.000925652
1715827904415951760,0.041,,,,3.00862002
1715827904423646128,0.024,,,,3.016314388
1715827904431340496,0.016,,,,3.024008756
1715827904439034864,0.014,,,,3.031703124
1715827904446729232,0.012,,,,3.039397492
1715827904454423600,0.016,,,,3.04709186
1715827904462117968,0.021,,,,3.054786228
1715827904469812336,0.026,,,,3.062480596
1715827904477506704,0.031,,,,3.070174964
1715827904485201072,0.038,,,,3.077869332
1715827904492895440,0.043,,,,3.0855637
1715827904500589808,0.041,,,,3.093258068
1715827904508284176,0.038,,,,3.100952436
1715827904515978544,0.045,,,,3.108646804
1715827904523672912,0.055,,,,3.116341172
1715827904531367280,0.058,,,,3.12403554
1715827904539061648,0.058,,,,3.131729908
1715827904546756016,0.06,,,,3.139424276
1715827904554450384,0.053,,,,3.147118644
1715827904562144752,0.038,,,,3.154813012
1715827904569839120,0.033,,,,3.16250738
1715827904577533488,0.029,,,,3.170201748
1715827904585227856,0.016,,,,3.177896116
1715827904592922224,0.012,,,,3.185590484
1715827904600616592,0.014,,,,3.193284852
1715827904608310960,0.016,,,,3.20097922
1715827904616005328,0.014,,,,3.208673588
1715827904623699696,0.016,,,,3.216367956
1715827904631394064,0.016,,,,3.224062324
1715827904639088432,0.012,,,,3.231756692
1715827904646782800,0.007,,,,3.23945106
1715827904654477168,0.007,,,,3.247145428
1715827904662171536,0.014,,,,3.254839796
1715827904669865904,0.019,,,,3.262534164
1715827904677560272,0.016,,,,3.270228532
1715827904685254640,0.016,,,,3.2779229
1715827904692949008,0.016,,,,3.285617268
1715827904700643376,0.016,,,,3.293311636
1715827904708337744,0.014,,,,3.301006004
1715827904716032112,0.024,,,,3.308700372
1715827904723726480,0.045,,,,3.31639474
1715827904731420848,0.065,,,,3.324089108
1715827904739115216,0.06,,,,3.331783476
1715827904746809584,0.041,,,,3.339477844
1715827904754503952,0.038,,,,3.347172212
1715827904762198320,0.045,,,,3.35486658
1715827904769892688,0.045,,,,3.362560948
1715827904777587070,0.045,,,,3.37025533
1715827904785281856,0.06,,,,3.377950116
1715827904792976642,0.074,,,,3.385644902
1715827904800671428,0.058,,,,3.393339688
1715827904808366214,0.038,,,,3.401034474
1715827904816061000,0.14,,,,3.40872926
1715827904823755786,0.558,,,,3.416424046
1715827904831450572,1.254,,,,3.424118832
1715827904839145358,1.694,,,,3.431813618
1715827904846840144,1.268,,,,3.439508404
1715827904854534930,0.299,,,,3.44720319
1715827904862229716,-0.212,,,,3.454897976
1715827904869924502,-0.087,,,,3.462592762
1715827904877619288,0.021,,,,3.470287548
1715827904885314074,-0.077,,,,3.477982334
1715827904893008860,-0.099,,,,3.48567712
1715827904900703646,-0.048,,,,3.493371906
1715827904908398432,-0.048,,,,3.501066692
1715827904916093218,-0.05,,,,3.508761478
1715827904923788004,-0.016,,,,3.516456264
1715827904931482790,0.0,,,,3.52415105
1715827904939177576,-0.002,,,,3.531845836
1715827904946872362,0.004,,,,3.539540622
1715827904954567148,0.021,,,,3.547235408
1715827904962261934,0.038,,,,3.554930194
1715827904969956720,0.048,,,,3.56262498
1715827904977651506,0.055,,,,3.570319766
1715827904985346292,0.07,,,,3.578014552
1715827904993041078,0.084,,,,3.585709338
1715827905000735864,0.101,,,,3.593404124
1715827905008430650,0.111,,,,3.60109891
1715827905016125436,0.12,,,,3.608793696
1715827905023820222,0.145,,,,3.616488482
1715827905031515008,0.171,,,,3.624183268
1715827905039209794,0.174,,,,3.631878054
1715827905046904580,0.157,,,,3.63957284
1715827905054599366,0.145,,,,3.647267626
1715827905062294152,0.135,,,,3.654962412
1715827905069988938,0.118,,,,3.662657198
1715827905077683724,0.094,,,,3.670351984
1715827905085378510,0.067,,,,3.67804677
1715827905093073296,0.043,,,,3.685741556
1715827905100768082,0.024,,,,3.693436342
1715827905108462868,0.004,,,,3.701131128
1715827905116157654,-0.009,,,,3.708825914
1715827905123852440,-0.007,,,,3.7165207
1715827905131547226,-0.007,,,,3.724215486
1715827905139242012,-0.014,,,,3.731910272
1715827905146936798,-0.007,,,,3.739605058
1715827905154631584,0.009,,,,3.747299844
1715827905162326370,0.007,,,,3.75499463
1715827905170021156,0.007,,,,3.762689416
1715827905177715942,0.021,,,,3.770384202
1715827905185410728,0.029,,,,3.778078988
1715827905193105514,0.026,,,,3.785773774
1715827905200800300,0.029,,,,3.79346856
1715827905208495086,0.031,,,,3.801163346
1715827905216189872,0.031,,,,3.808858132
1715827905223884658,0.024,,,,3.816552918
1715827905231579444,0.026,,,,3.824247704
1715827905239274230,0.026,,,,3.83194249
1715827905246969016,0.021,,,,3.839637276
1715827905254663802,0.021,,,,3.847332062
1715827905262358588,0.016,,,,3.855026848
1715827905270053374,0.012,,,,3.862721634
1715827905277748160,0.014,,,,3.87041642
1715827905285442946,0.014,,,,3.878111206
1715827905293137732,0.019,,,,3.885805992
1715827905300832518,0.033,,,,3.893500778
1715827905308527304,0.031,,,,3.901195564
1715827905316222090,0.019,,,,3.90889035
1715827905323916876,0.024,,,,3.916585136
1715827905331611662,0.036,,,,3.924279922
1715827905339306464,0.029,89.0,649.0,,3.931974724
1715827905347001041,0.019,,,,3.939669301
1715827905354695618,0.026,,,,3.947363878
1715827905362390195,0.041,,,,3.955058455
1715827905370084772,0.031,,,,3.962753032
1715827905377779349,0.019,,,,3.970447609
1715827905385473926,0.033,,,,3.978142186
1715827905393168503,0.045,,,,3.985836763
1715827905400863080,0.036,,,,3.99353134
1715827905408557657,0.038,,,,4.001225917
1715827905416252234,0.05,,,,4.008920494
1715827905423946811,0.055,,,,4.016615071
1715827905431641388,0.058,,,,4.024309648
1715827905439335965,0.053,,,,4.032004225
1715827905447030542,0.036,,,,4.039698802
1715827905454725119,0.038,,,,4.047393379
1715827905462419696,0.058,,,,4.055087956
1715827905470114273,0.058,,,,4.062782533
1715827905477808850,0.05,,,,4.07047711
1715827905485503427,0.055,,,,4.078171687
1715827905493198004,0.053,,,,4.085866264
1715827905500892581,0.048,,,,4.093560841
1715827905508587158,0.183,,,,4.101255418
1715827905516281735,0.638,,,,4.108949995
1715827905523976312,1.317,,,,4.116644572
1715827905531670889,1.636,,,,4.124339149
1715827905539365466,1.085,,,,4.132033726
1715827905547060043,0.161,,,,4.139728303
1715827905554754620,-0.203,,,,4.14742288
1715827905562449197,-0.043,,,,4.155117457
1715827905570143774,0.002,,,,4.162812034
1715827905577838351,-0.096,,,,4.170506611
1715827905585532928,-0.084,,,,4.178201188
1715827905593227505,-0.036,,,,4.185895765
1715827905600922082,-0.043,,,,4.193590342
1715827905608616659,-0.038,,,,4.201284919
1715827905616311236,-0.026,,,,4.208979496
1715827905624005813,-0.029,,,,4.216674073
1715827905631700390,-0.016,,,,4.22436865
1715827905639394967,0.004,,,,4.232063227
1715827905647089544,0.002,,,,4.239757804
1715827905654784121,0.002,,,,4.247452381
1715827905662478698,0.036,,,,4.255146958
1715827905670173275,0.067,,,,4.262841535
1715827905677867852,0.067,,,,4.270536112
1715827905685562429,0.072,,,,4.278230689
1715827905693257006,0.091,,,,4.285925266
1715827905700951583,0.106,,,,4.293619843
1715827905708646160,0.12,,,,4.30131442
1715827905716340737,0.13,,,,4.309008997
1715827905724035314,0.13,,,,4.316703574
1715827905731729891,0.142,,,,4.324398151
1715827905739424468,0.154,,,,4.332092728
1715827905747119045,0.152,,,,4.339787305
1715827905754813622,0.142,,,,4.347481882
1715827905762508199,0.123,,,,4.355176459
1715827905770202776,0.082,,,,4.362871036
1715827905777897353,0.045,,,,4.370565613
1715827905785591930,0.026,,,,4.37826019
1715827905793286507,0.004,,,,4.385954767
1715827905800981084,-0.009,,,,4.393649344
1715827905808675661,-0.012,,,,4.401343921
1715827905816370238,-0.019,,,,4.409038498
1715827905824064815,-0.019,,,,4.416733075
1715827905831759392,-0.002,,,,4.424427652
1715827905839453969,0.004,,,,4.432122229
1715827905847148546,-0.004,,,,4.439816806
1715827905854843123,-0.007,,,,4.447511383
1715827905862537700,-0.004,,,,4.45520596
1715827905870232277,-0.004,,,,4.462900537
1715827905877926854,-0.007,,,,4.470595114
1715827905885621431,-0.004,,,,4.478289691
1715827905893316008,0.007,,,,4.485984268
1715827905901010600,0.016,,,,4.49367886
1715827905908705177,0.007,,,,4.501373437
1715827905916399754,0.007,,,,4.509068014
1715827905924094331,0.016,,,,4.516762591
1715827905931788908,0.016,,,,4.524457168
1715827905939483485,0.016,,,,4.532151745
1715827905947178062,0.021,,,,4.539846322
1715827905954872639,0.019,,,,4.547540899
1715827905962567216,0.007,,,,4.555235476
1715827905970261793,0.0,,,,4.562930053
1715827905977956370,0.004,,,,4.57062463
1715827905985650947,0.009,,,,4.578319207
1715827905993345524,0.009,,,,4.586013784
1715827906001040101,0.007,,,,4.593708361
1715827906008734678,0.012,,,,4.601402938
1715827906016429255,0.019,,,,4.609097515
1715827906024123832,0.019,,,,4.616792092
1715827906031818409,0.009,,,,4.624486669
1715827906039512986,0.012,,,,4.632181246
1715827906047207563,0.024,,,,4.639875823
1715827906054902140,0.031,,,,4.6475704
1715827906062596717,0.029,,,,4.655264977
1715827906070291294,0.029,,,,4.662959554
1715827906077985871,0.031,,,,4.670654131
1715827906085680448,0.036,,,,4.678348708
1715827906093375025,0.045,,,,4.686043285
1715827906101069602,0.05,,,,4.693737862
1715827906108764179,0.041,,,,4.701432439
1715827906116458756,0.031,,,,4.709127016
1715827906124153333,0.031,,,,4.716821593
1715827906131847910,0.033,,,,4.72451617
1715827906139542487,0.043,,,,4.732210747
1715827906147237064,0.053,,,,4.739905324
1715827906154931641,0.053,,,,4.747599901
1715827906162626218,0.045,,,,4.755294478
1715827906170320795,0.07,,,,4.762989055
1715827906178015372,0.261,,,,4.770683632
1715827906185709949,0.771,,,,4.778378209
1715827906193404526,1.399,,,,4.786072786
1715827906201099103,1.498,,,,4.793767363
1715827906208793680,0.79,,,,4.80146194
1715827906216488257,-0.004,,,,4.809156517
1715827906224182834,-0.178,,,,4.816851094
1715827906231877411,-0.021,,,,4.824545671
1715827906239571988,-0.004,,,,4.832240248
1715827906247266565,-0.055,,,,4.839934825
1715827906254961142,-0.036,,,,4.847629402
1715827906262655719,-0.016,,,,4.855323979
1715827906270350296,-0.014,,,,4.863018556
1715827906278044873,-0.002,,,,4.870713133
1715827906285739450,0.0,,,,4.87840771
1715827906293434027,0.007,,,,4.886102287
1715827906301128604,0.026,,,,4.893796864
1715827906308823181,0.043,,,,4.901491441
1715827906316517758,0.041,,,,4.909186018
1715827906324212335,0.048,,,,4.916880595
1715827906331906912,0.082,,,,4.924575172
1715827906339601489,0.101,,,,4.932269749
1715827906347296066,0.101,,,,4.939964326
1715827906354990643,0.116,,,,4.947658903
1715827906362685220,0.128,,,,4.95535348
1715827906370379797,0.135,,,,4.963048057
1715827906378074374,0.154,,,,4.970742634
1715827906385768951,0.171,,,,4.978437211
1715827906393463528,0.169,,,,4.986131788
1715827906401158105,0.164,,,,4.993826365
1715827906408852682,0.176,,,,5.001520942
1715827906416547259,0.169,,,,5.009215519
1715827906424241836,0.13,,,,5.016910096
1715827906431936413,0.111,,,,5.024604673
1715827906439630990,0.089,,,,5.03229925
1715827906447325567,0.043,,,,5.039993827
1715827906455020144,0.024,,,,5.047688404
1715827906462714734,0.021,89.0,690.0,,5.055382994
1715827906470409171,0.004,,681.0,,5.063077431
1715827906478103608,-0.007,,,,5.070771868
1715827906485798045,-0.007,,,,5.078466305
1715827906493492482,-0.019,,,,5.086160742
1715827906501186919,-0.021,,,,5.093855179
1715827906508881356,-0.007,,,,5.101549616
1715827906516575793,0.0,,,,5.109244053
1715827906524270230,0.009,,,,5.11693849
1715827906531964667,0.007,,,,5.124632927
1715827906539659104,0.009,,,,5.132327364
1715827906547353541,0.031,,,,5.140021801
1715827906555047978,0.041,,,,5.147716238
1715827906562742415,0.041,,,,5.155410675
1715827906570436852,0.05,,,,5.163105112
1715827906578131289,0.05,,,,5.170799549
1715827906585825726,0.048,,,,5.178493986
1715827906593520163,0.041,,,,5.186188423
1715827906601214600,0.031,,,,5.19388286
1715827906608909037,0.029,,,,5.201577297
1715827906616603474,0.029,,,,5.209271734
1715827906624297911,0.026,,,,5.216966171
1715827906631992348,0.031,,,,5.224660608
1715827906639686785,0.036,,,,5.232355045
1715827906647381222,0.033,,,,5.240049482
1715827906655075659,0.029,,,,5.247743919
1715827906662770096,0.031,,,,5.255438356
1715827906670464533,0.053,,,,5.263132793
1715827906678158970,0.055,,,,5.27082723
1715827906685853407,0.029,,,,5.278521667
1715827906693547844,0.036,,,,5.286216104
1715827906701242281,0.065,,,,5.293910541
1715827906708936718,0.072,,,,5.301604978
1715827906716631155,0.082,,,,5.309299415
1715827906724325592,0.091,,,,5.316993852
1715827906732020029,0.074,,,,5.324688289
1715827906739714466,0.058,,,,5.332382726
1715827906747408903,0.06,,,,5.340077163
1715827906755103340,0.074,,,,5.3477716
1715827906762797777,0.087,,,,5.355466037
1715827906770492214,0.094,,,,5.363160474
1715827906778186651,0.074,,,,5.370854911
1715827906785881088,0.06,,,,5.378549348
1715827906793575525,0.079,,,,5.386243785
1715827906801269962,0.186,,,,5.393938222
1715827906808964399,0.543,,,,5.401632659
1715827906816658836,1.16,,,,5.409327096
1715827906824353273,1.539,,,,5.417021533
1715827906832047710,1.143,,,,5.42471597
1715827906839742147,0.294,,,,5.432410407
1715827906847436584,-0.161,,,,5.440104844
1715827906855131021,-0.084,,,,5.447799281
1715827906862825458,0.045,,,,5.455493718
1715827906870519895,0.033,,,,5.463188155
1715827906878214332,0.012,,,,5.470882592
1715827906885908769,0.024,,,,5.478577029
1715827906893603206,0.031,,,,5.486271466
1715827906901297643,0.053,,,,5.493965903
1715827906908992080,0.067,,,,5.50166034
1715827906916686517,0.053,,,,5.509354777
1715827906924380954,0.067,,,,5.517049214
1715827906932075391,0.101,,,,5.524743651
1715827906939769828,0.103,,,,5.532438088
1715827906947464265,0.106,,,,5.540132525
1715827906955158702,0.125,,,,5.547826962
1715827906962853139,0.137,,,,5.555521399
1715827906970547576,0.159,,,,5.563215836
1715827906978242013,0.188,,,,5.570910273
1715827906985936450,0.195,,,,5.57860471
1715827906993630887,0.212,,,,5.586299147
1715827907001325324,0.219,,,,5.593993584
1715827907009019761,0.21,,,,5.601688021
1715827907016714198,0.217,,,,5.609382458
1715827907024408698,0.227,,,,5.617076958
1715827907032103414,0.239,,,,5.624771674
1715827907039798130,0.232,,,,5.63246639
1715827907047492846,0.19,,,,5.640161106
1715827907055187562,0.142,,,,5.647855822
1715827907062882278,0.099,,,,5.655550538
1715827907070576994,0.079,,,,5.663245254
1715827907078271710,0.053,,,,5.67093997
1715827907085966426,-0.002,,,,5.678634686
1715827907093661142,-0.024,,,,5.686329402
1715827907101355858,-0.012,,,,5.694024118
1715827907109050574,-0.021,,,,5.701718834
1715827907116745290,-0.036,,,,5.70941355
1715827907124440006,-0.033,,,,5.717108266
1715827907132134722,-0.031,,,,5.724802982
1715827907139829438,-0.021,,,,5.732497698
1715827907147524154,-0.026,,,,5.740192414
1715827907155218870,-0.036,,,,5.74788713
1715827907162913586,-0.014,,,,5.755581846
1715827907170608302,-0.004,,,,5.763276562
1715827907178303018,-0.026,,,,5.770971278
1715827907185997734,-0.012,,,,5.778665994
1715827907193692450,0.014,,,,5.78636071
1715827907201387166,0.009,,,,5.794055426
1715827907209081882,0.0,,,,5.801750142
1715827907216776598,0.0,,,,5.809444858
1715827907224471314,0.016,,,,5.817139574
1715827907232166030,0.016,,,,5.82483429
1715827907239860746,-0.002,,,,5.832529006
1715827907247555462,0.016,,,,5.840223722
1715827907255250178,0.029,,,,5.847918438
1715827907262944894,0.007,,,,5.855613154
1715827907270639610,0.004,,,,5.86330787
1715827907278334326,0.012,,,,5.871002586
1715827907286029042,0.009,,,,5.878697302
1715827907293723758,0.016,,,,5.886392018
1715827907301418474,0.007,,,,5.894086734
1715827907309113190,0.004,,,,5.90178145
1715827907316807906,0.031,,,,5.909476166
1715827907324502622,0.048,,,,5.917170882
1715827907332197338,0.045,,,,5.924865598
1715827907339892054,0.029,,,,5.932560314
1715827907347586770,0.014,,,,5.94025503
1715827907355281486,-0.002,,,,5.947949746
1715827907362976202,0.009,,,,5.955644462
1715827907370670918,0.038,,,,5.963339178
1715827907378365634,0.041,,,,5.971033894
1715827907386060350,0.021,,,,5.97872861
1715827907393755066,0.004,,,,5.986423326
1715827907401449782,0.024,,,,5.994118042
1715827907409144498,0.125,,,,6.001812758
1715827907416839214,0.398,,,,6.009507474
1715827907424533930,0.945,,,,6.01720219
1715827907432228646,1.404,,,,6.024896906
1715827907439923362,1.15,,,,6.032591622
1715827907447618078,0.321,,,,6.040286338
1715827907455312794,-0.236,,,,6.047981054
1715827907463007510,-0.171,,,,6.05567577
1715827907470702226,0.014,,,,6.063370486
1715827907478396942,-0.029,,,,6.071065202
1715827907486091658,-0.079,,,,6.078759918
1715827907493786374,-0.029,,,,6.086454634
1715827907501481090,-0.033,,,,6.09414935
1715827907509175806,-0.053,,,,6.101844066
1715827907516870522,-0.009,,,,6.109538782
1715827907524565238,-0.004,,,,6.117233498
1715827907532259954,0.012,,,,6.124928214
1715827907539954670,0.055,,,,6.13262293
1715827907547649386,0.026,,,,6.140317646
1715827907555344102,0.004,,,,6.148012362
1715827907563038818,0.055,,,,6.155707078
1715827907570733534,0.079,,,,6.163401794
1715827907578428250,0.07,,,,6.17109651
1715827907586123004,0.096,89.0,691.0,,6.178791264
1715827907593817372,0.108,,,,6.186485632
1715827907601511740,0.096,,,,6.19418
1715827907609206108,0.101,,,,6.201874368
1715827907616900476,0.108,,,,6.209568736
1715827907624594844,0.12,,,,6.217263104
1715827907632289212,0.14,,,,6.224957472
1715827907639983580,0.123,,,,6.23265184
1715827907647677948,0.091,,,,6.240346208
1715827907655372316,0.084,,,,6.248040576
1715827907663066684,0.048,,,,6.255734944
1715827907670761052,0.004,,,,6.263429312
1715827907678455420,-0.012,,,,6.27112368
1715827907686149788,-0.045,,,,6.278818048
1715827907693844156,-0.077,,,,6.286512416
1715827907701538524,-0.084,,,,6.294206784
1715827907709232892,-0.094,,,,6.301901152
1715827907716927260,-0.084,,,,6.30959552
1715827907724621628,-0.067,,,,6.317289888
1715827907732315996,-0.082,,,,6.324984256
1715827907740010364,-0.099,,,,6.332678624
1715827907747704732,-0.079,,,,6.340372992
1715827907755399100,-0.05,,,,6.34806736
1715827907763093468,-0.053,,,,6.355761728
1715827907770787836,-0.043,,,,6.363456096
1715827907778482204,-0.026,,,,6.371150464
1715827907786176572,-0.033,,,,6.378844832
1715827907793870940,-0.024,,,,6.3865392
1715827907801565308,-0.007,,,,6.394233568
1715827907809259676,-0.012,,,,6.401927936
1715827907816954044,-0.002,,,,6.409622304
1715827907824648412,0.007,,,,6.417316672
1715827907832342780,-0.002,,,,6.42501104
1715827907840037148,-0.012,,,,6.432705408
1715827907847731516,-0.004,,,,6.440399776
1715827907855425884,-0.002,,,,6.448094144
1715827907863120252,0.0,,,,6.455788512
1715827907870814620,0.014,,,,6.46348288
1715827907878508988,0.016,,,,6.471177248
1715827907886203356,0.019,,,,6.478871616
1715827907893897724,0.026,,,,6.486565984
1715827907901592092,0.024,,,,6.494260352
1715827907909286460,0.033,,,,6.50195472
1715827907916980828,0.053,,,,6.509649088
1715827907924675196,0.058,,,,6.517343456
1715827907932369564,0.067,,,,6.525037824
1715827907940063932,0.065,,,,6.532732192
1715827907947758300,0.05,,,,6.54042656
1715827907955452668,0.05,,,,6.548120928
1715827907963147036,0.06,,,,6.555815296
1715827907970841404,0.065,,,,6.563509664
1715827907978535772,0.062,,,,6.571204032
1715827907986230140,0.058,,,,6.5788984
1715827907993924508,0.067,,,,6.586592768
1715827908001618876,0.084,,,,6.594287136
1715827908009313244,0.091,,,,6.601981504
1715827908017007612,0.212,,,,6.609675872
1715827908024701980,0.616,,,,6.61737024
1715827908032396348,1.225,,,,6.625064608
1715827908040090716,1.515,,,,6.632758976
1715827908047785084,1.012,,,,6.640453344
1715827908055479452,0.157,,,,6.648147712
1715827908063173820,-0.178,,,,6.65584208
1715827908070868188,-0.009,,,,6.663536448
1715827908078562556,0.053,,,,6.671230816
1715827908086256924,-0.021,,,,6.678925184
1715827908093951292,-0.002,,,,6.686619552
1715827908101645660,0.016,,,,6.69431392
1715827908109340028,-0.009,,,,6.702008288
1715827908117034396,0.002,,,,6.709702656
1715827908124728764,0.026,,,,6.717397024
1715827908132423132,0.031,,,,6.725091392
1715827908140117500,0.041,,,,6.73278576
1715827908147811882,0.053,89.0,667.0,,6.740480142
1715827908155506528,0.065,,626.0,,6.748174788
1715827908163201174,0.079,,,,6.755869434
1715827908170895820,0.094,,,,6.76356408
1715827908178590466,0.106,,,,6.771258726
1715827908186285112,0.113,,,,6.778953372
1715827908193979758,0.132,,,,6.786648018
1715827908201674404,0.152,,,,6.794342664
1715827908209369050,0.164,,,,6.80203731
1715827908217063696,0.171,,,,6.809731956
1715827908224758342,0.166,,,,6.817426602
1715827908232452988,0.164,,,,6.825121248
1715827908240147634,0.171,,,,6.832815894
1715827908247842280,0.171,,,,6.84051054
1715827908255536926,0.159,,,,6.848205186
1715827908263231572,0.14,,,,6.855899832
1715827908270926218,0.113,,,,6.863594478
1715827908278620864,0.089,,,,6.871289124
1715827908286315510,0.067,,,,6.87898377
1715827908294010156,0.038,,,,6.886678416
1715827908301704802,0.029,,,,6.894373062
1715827908309399448,0.036,,,,6.902067708
1715827908317094094,0.036,,,,6.909762354
1715827908324788740,0.036,,,,6.917457
1715827908332483386,0.038,,,,6.925151646
1715827908340178032,0.033,,,,6.932846292
1715827908347872678,0.038,,,,6.940540938
1715827908355567324,0.05,,,,6.948235584
1715827908363261970,0.05,,,,6.95593023
1715827908370956616,0.055,,,,6.963624876
1715827908378651262,0.074,,,,6.971319522
1715827908386345908,0.084,,,,6.979014168
1715827908394040554,0.082,,,,6.986708814
1715827908401735200,0.094,,,,6.99440346
1715827908409429846,0.091,,,,7.002098106
1715827908417124492,0.074,,,,7.009792752
1715827908424819138,0.077,,,,7.017487398
1715827908432513784,0.089,,,,7.025182044
1715827908440208430,0.079,,,,7.03287669
1715827908447903076,0.082,,,,7.040571336
1715827908455597722,0.089,,,,7.048265982
1715827908463292368,0.082,,,,7.055960628
1715827908470987014,0.079,,,,7.063655274
1715827908478681660,0.087,,,,7.07134992
1715827908486376306,0.077,,,,7.079044566
1715827908494070952,0.07,,,,7.086739212
1715827908501765598,0.077,,,,7.094433858
1715827908509460244,0.07,,,,7.102128504
1715827908517154890,0.055,,,,7.10982315
1715827908524849536,0.058,,,,7.117517796
1715827908532544182,0.067,,,,7.125212442
1715827908540238828,0.065,,,,7.132907088
1715827908547933474,0.062,,,,7.140601734
1715827908555628120,0.074,,,,7.14829638
1715827908563322766,0.084,,,,7.155991026
1715827908571017412,0.077,,,,7.163685672
1715827908578712058,0.06,,,,7.171380318
1715827908586406704,0.05,,,,7.179074964
1715827908594101350,0.053,,,,7.18676961
1715827908601795996,0.05,,,,7.194464256
1715827908609490642,0.043,,,,7.202158902
1715827908617185288,0.043,,,,7.209853548
1715827908624879934,0.045,,,,7.217548194
1715827908632574580,0.038,,,,7.22524284
1715827908640269226,0.079,,,,7.232937486
1715827908647963872,0.372,,,,7.240632132
1715827908655658518,1.024,,,,7.248326778
1715827908663353164,1.672,,,,7.256021424
1715827908671047810,1.558,,,,7.26371607
1715827908678742456,0.623,,,,7.271410716
1715827908686437102,-0.111,,,,7.279105362
1715827908694131748,-0.113,,,,7.286800008
1715827908701826394,0.016,,,,7.294494654
1715827908709521104,-0.062,,,,7.302189364
1715827908717215611,-0.091,,,,7.309883871
1715827908724910118,-0.038,,,,7.317578378
1715827908732604625,-0.036,,,,7.325272885
1715827908740299132,-0.045,,,,7.332967392
1715827908747993639,-0.016,,,,7.340661899
1715827908755688146,-0.002,,,,7.348356406
1715827908763382653,-0.002,,,,7.356050913
1715827908771077160,0.007,,,,7.36374542
1715827908778771667,0.026,,,,7.371439927
1715827908786466174,0.033,,,,7.379134434
1715827908794160681,0.038,,,,7.386828941
1715827908801855188,0.053,,,,7.394523448
1715827908809549695,0.072,,,,7.402217955
1715827908817244202,0.084,,,,7.409912462
1715827908824938709,0.084,,,,7.417606969
1715827908832633216,0.096,,,,7.425301476
1715827908840327723,0.116,,,,7.432995983
1715827908848022230,0.123,,,,7.44069049
1715827908855716737,0.128,,,,7.448384997
1715827908863411244,0.13,,,,7.456079504
1715827908871105751,0.132,,,,7.463774011
1715827908878800258,0.132,,,,7.471468518
1715827908886494765,0.125,,,,7.479163025
1715827908894189272,0.111,,,,7.486857532
1715827908901883779,0.091,,,,7.494552039
1715827908909578286,0.062,,,,7.502246546
1715827908917272793,0.036,,,,7.509941053
1715827908924967300,0.026,,,,7.51763556
1715827908932661807,0.029,,,,7.525330067
1715827908940356314,0.016,,,,7.533024574
1715827908948050821,0.007,,,,7.540719081
1715827908955745328,0.014,,,,7.548413588
1715827908963439835,0.024,,,,7.556108095
1715827908971134342,0.029,,,,7.563802602
1715827908978828849,0.031,,,,7.571497109
1715827908986523356,0.038,,,,7.579191616
1715827908994217863,0.045,,,,7.586886123
1715827909001912370,0.048,,,,7.59458063
1715827909009606877,0.048,,,,7.602275137
1715827909017301384,0.055,,,,7.609969644
1715827909024995891,0.06,,,,7.617664151
1715827909032690398,0.06,,,,7.625358658
1715827909040384905,0.06,,,,7.633053165
1715827909048079412,0.06,,,,7.640747672
1715827909055773919,0.062,,,,7.648442179
1715827909063468426,0.06,,,,7.656136686
1715827909071162933,0.055,,,,7.663831193
1715827909078857440,0.053,,,,7.6715257
1715827909086551947,0.048,,,,7.679220207
1715827909094246454,0.05,,,,7.686914714
1715827909101940961,0.045,,,,7.694609221
1715827909109635468,0.038,,,,7.702303728
1715827909117329975,0.038,,,,7.709998235
1715827909125024482,0.038,,,,7.717692742
1715827909132718989,0.038,,,,7.725387249
1715827909140413496,0.043,,,,7.733081756
1715827909148108003,0.043,,,,7.740776263
1715827909155802510,0.043,,,,7.74847077
1715827909163497017,0.048,,,,7.756165277
1715827909171191524,0.05,,,,7.763859784
1715827909178886031,0.045,,,,7.771554291
1715827909186580538,0.038,,,,7.779248798
1715827909194275045,0.038,,,,7.786943305
1715827909201969552,0.045,,,,7.794637812
1715827909209664059,0.045,,,,7.802332319
1715827909217358566,0.048,,,,7.810026826
1715827909225053073,0.058,,,,7.817721333
1715827909232747580,0.065,,,,7.82541584
1715827909240442087,0.055,,,,7.833110347
1715827909248136594,0.048,,,,7.840804854
1715827909255831101,0.053,,,,7.848499361
1715827909263525608,0.058,,,,7.856193868
1715827909271220152,0.055,89.0,609.0,,7.863888412
1715827909278914938,0.06,,,,7.871583198
1715827909286609724,0.067,,,,7.879277984
1715827909294304510,0.055,,,,7.88697277
1715827909301999296,0.036,,,,7.894667556
1715827909309694082,0.176,,,,7.902362342
1715827909317388868,0.676,,,,7.910057128
1715827909325083654,1.426,,,,7.917751914
1715827909332778440,1.747,,,,7.9254467
1715827909340473226,1.099,,,,7.933141486
1715827909348168012,0.128,,,,7.940836272
1715827909355862798,-0.19,,,,7.948531058
1715827909363557584,-0.026,,,,7.956225844
1715827909371252370,-0.019,,,,7.96392063
1715827909378947156,-0.103,,,,7.971615416
1715827909386641942,-0.07,,,,7.979310202
1715827909394336728,-0.045,,,,7.987004988
1715827909402031514,-0.067,,,,7.994699774
1715827909409726300,-0.053,,,,8.00239456
1715827909417421086,-0.026,,,,8.010089346
1715827909425115872,-0.024,,,,8.017784132
1715827909432810658,-0.016,,,,8.025478918
1715827909440505444,0.002,,,,8.033173704
1715827909448200230,0.007,,,,8.04086849
1715827909455895016,0.009,,,,8.048563276
1715827909463589802,0.029,,,,8.056258062
1715827909471284588,0.045,,,,8.063952848
1715827909478979374,0.053,,,,8.071647634
1715827909486674160,0.062,,,,8.07934242
1715827909494368946,0.077,,,,8.087037206
1715827909502063732,0.091,,,,8.094731992
1715827909509758518,0.103,,,,8.102426778
1715827909517453304,0.116,,,,8.110121564
1715827909525148090,0.125,,,,8.11781635
1715827909532842876,0.125,,,,8.125511136
1715827909540537662,0.12,,,,8.133205922
1715827909548232448,0.116,,,,8.140900708
1715827909555927234,0.108,,,,8.148595494
1715827909563622020,0.091,,,,8.15629028
1715827909571316806,0.065,,,,8.163985066
1715827909579011592,0.038,,,,8.171679852
1715827909586706378,0.019,,,,8.179374638
1715827909594401164,0.0,,,,8.187069424
1715827909602095950,-0.009,,,,8.19476421
1715827909609790736,-0.014,,,,8.202458996
1715827909617485522,-0.012,,,,8.210153782
1715827909625180308,-0.007,,,,8.217848568
1715827909632875094,-0.004,,,,8.225543354
1715827909640569880,0.0,,,,8.23323814
1715827909648264666,0.009,,,,8.240932926
1715827909655959452,0.016,,,,8.248627712
1715827909663654238,0.019,,,,8.256322498
1715827909671349024,0.026,,,,8.264017284
1715827909679043810,0.036,,,,8.27171207
1715827909686738596,0.036,,,,8.279406856
1715827909694433382,0.038,,,,8.287101642
1715827909702128168,0.045,,,,8.294796428
1715827909709822954,0.053,,,,8.302491214
1715827909717517740,0.06,,,,8.310186
1715827909725212526,0.065,,,,8.317880786
1715827909732907312,0.065,,,,8.325575572
1715827909740602098,0.072,,,,8.333270358
1715827909748296884,0.079,,,,8.340965144
1715827909755991670,0.084,,,,8.34865993
1715827909763686456,0.091,,,,8.356354716
1715827909771381242,0.096,,,,8.364049502
1715827909779076028,0.101,,,,8.371744288
1715827909786770814,0.108,,,,8.379439074
1715827909794465600,0.113,,,,8.38713386
1715827909802160386,0.103,,,,8.394828646
1715827909809855172,0.094,,,,8.402523432
1715827909817549958,0.096,,,,8.410218218
1715827909825244744,0.108,,,,8.417913004
1715827909832939546,0.12,,,,8.425607806
1715827909840633983,0.118,,,,8.433302243
1715827909848328420,0.099,,,,8.44099668
1715827909856022857,0.087,,,,8.448691117
1715827909863717294,0.084,,,,8.456385554
1715827909871411731,0.077,,,,8.464079991
1715827909879106168,0.087,,,,8.471774428
1715827909886800605,0.103,,,,8.479468865
1715827909894495042,0.106,,,,8.487163302
1715827909902189479,0.084,,,,8.494857739
1715827909909883916,0.067,,,,8.502552176
1715827909917578353,0.072,,,,8.510246613
1715827909925272790,0.079,,,,8.51794105
1715827909932967227,0.084,,,,8.525635487
1715827909940661664,0.101,,,,8.533329924
1715827909948356101,0.106,,,,8.541024361
1715827909956050538,0.091,,,,8.548718798
1715827909963744975,0.082,,,,8.556413235
1715827909971439412,0.084,,,,8.564107672
1715827909979133849,0.087,,,,8.571802109
1715827909986828286,0.089,,,,8.579496546
1715827909994522723,0.094,,,,8.587190983
1715827910002217160,0.096,,,,8.59488542
1715827910009911597,0.096,,,,8.602579857
1715827910017606034,0.089,,,,8.610274294
1715827910025300471,0.07,,,,8.617968731
1715827910032994908,0.164,,,,8.625663168
1715827910040689345,0.594,,,,8.633357605
1715827910048383782,1.302,,,,8.641052042
1715827910056078219,1.711,,,,8.648746479
1715827910063772656,1.239,,,,8.656440916
1715827910071467093,0.285,,,,8.664135353
1715827910079161530,-0.159,,,,8.67182979
1715827910086855967,-0.014,,,,8.679524227
1715827910094550404,0.053,,,,8.687218664
1715827910102244841,-0.045,,,,8.694913101
1715827910109939278,-0.05,,,,8.702607538
1715827910117633715,-0.016,,,,8.710301975
1715827910125328152,-0.031,,,,8.717996412
1715827910133022589,-0.021,,,,8.725690849
1715827910140717026,0.002,,,,8.733385286
1715827910148411463,0.002,,,,8.741079723
1715827910156105900,0.012,,,,8.74877416
1715827910163800337,0.029,,,,8.756468597
1715827910171494774,0.031,,,,8.764163034
1715827910179189211,0.038,,,,8.771857471
1715827910186883648,0.05,,,,8.779551908
1715827910194578085,0.06,,,,8.787246345
1715827910202272522,0.072,,,,8.794940782
1715827910209966959,0.084,,,,8.802635219
1715827910217661396,0.096,,,,8.810329656
1715827910225355833,0.103,,,,8.818024093
1715827910233050270,0.113,,,,8.82571853
1715827910240744707,0.123,,,,8.833412967
1715827910248439144,0.13,,,,8.841107404
1715827910256133581,0.13,,,,8.848801841
1715827910263828018,0.128,,,,8.856496278
1715827910271522455,0.123,,,,8.864190715
1715827910279216892,0.113,,,,8.871885152
1715827910286911329,0.101,,,,8.879579589
1715827910294605766,0.084,,,,8.887274026
1715827910302300203,0.058,,,,8.894968463
1715827910309994640,0.029,,,,8.9026629
1715827910317689077,0.016,,,,8.910357337
1715827910325383514,0.009,,,,8.918051774
1715827910333077951,0.002,,,,8.925746211
1715827910340772388,0.002,,,,8.933440648
1715827910348466825,0.004,,,,8.941135085
1715827910356161262,0.016,,,,8.948829522
1715827910363855699,0.038,,,,8.956523959
1715827910371550136,0.065,,,,8.964218396
1715827910379244573,0.084,,,,8.971912833
1715827910386939010,0.099,,,,8.97960727
1715827910394633510,0.103,92.0,605.0,,8.98730177
1715827910402328226,0.106,,627.0,,8.994996486
1715827910410022942,0.116,,,,9.002691202
1715827910417717658,0.12,,,,9.010385918
1715827910425412374,0.116,,,,9.018080634
1715827910433107090,0.103,,,,9.02577535
1715827910440801806,0.087,,,,9.033470066
1715827910448496522,0.082,,,,9.041164782
1715827910456191238,0.074,,,,9.048859498
1715827910463885954,0.043,,,,9.056554214
1715827910471580670,0.012,,,,9.06424893
1715827910479275386,0.007,,,,9.071943646
1715827910486970102,0.009,,,,9.079638362
1715827910494664818,0.007,,,,9.087333078
1715827910502359534,0.0,,,,9.095027794
1715827910510054250,-0.012,,,,9.10272251
1715827910517748966,-0.014,,,,9.110417226
1715827910525443682,-0.012,,,,9.118111942
1715827910533138398,-0.014,,,,9.125806658
1715827910540833114,-0.014,,,,9.133501374
1715827910548527830,-0.012,,,,9.14119609
1715827910556222546,-0.012,,,,9.148890806
1715827910563917262,-0.012,,,,9.156585522
1715827910571611978,-0.012,,,,9.164280238
1715827910579306694,-0.009,,,,9.171974954
1715827910587001410,-0.002,,,,9.17966967
1715827910594696126,0.007,,,,9.187364386
1715827910602390842,0.009,,,,9.195059102
1715827910610085558,0.004,,,,9.202753818
1715827910617780274,-0.007,,,,9.210448534
1715827910625474990,-0.009,,,,9.21814325
1715827910633169706,-0.002,,,,9.225837966
1715827910640864422,0.0,,,,9.233532682
1715827910648559138,-0.007,,,,9.241227398
1715827910656253854,-0.007,,,,9.248922114
1715827910663948570,-0.004,,,,9.25661683
1715827910671643286,-0.002,,,,9.264311546
1715827910679338002,0.0,,,,9.272006262
1715827910687032718,0.002,,,,9.279700978
1715827910694727434,0.016,,,,9.287395694
1715827910702422150,0.038,,,,9.29509041
1715827910710116866,0.05,,,,9.302785126
1715827910717811582,0.05,,,,9.310479842
1715827910725506298,0.041,,,,9.318174558
1715827910733201014,0.026,,,,9.325869274
1715827910740895730,0.033,,,,9.33356399
1715827910748590446,0.05,,,,9.341258706
1715827910756285162,0.055,,,,9.348953422
1715827910763979878,0.053,,,,9.356648138
1715827910771674594,0.053,,,,9.364342854
1715827910779369310,0.043,,,,9.37203757
1715827910787064026,0.074,,,,9.379732286
1715827910794758742,0.335,,,,9.387427002
1715827910802453458,0.935,,,,9.395121718
1715827910810148174,1.529,,,,9.402816434
1715827910817842890,1.438,,,,9.41051115
1715827910825537606,0.582,,,,9.418205866
1715827910833232322,-0.118,,,,9.425900582
1715827910840927038,-0.128,,,,9.433595298
1715827910848621754,0.029,,,,9.441290014
1715827910856316470,-0.031,,,,9.44898473
1715827910864011186,-0.082,,,,9.456679446
1715827910871705902,-0.031,,,,9.464374162
1715827910879400618,-0.019,,,,9.472068878
1715827910887095334,-0.033,,,,9.479763594
1715827910894790050,-0.012,,,,9.48745831
1715827910902484766,0.007,,,,9.495153026
1715827910910179482,0.014,,,,9.502847742
1715827910917874198,0.024,,,,9.510542458
1715827910925568914,0.033,,,,9.518237174
1715827910933263630,0.038,,,,9.52593189
1715827910940958346,0.05,,,,9.533626606
1715827910948653062,0.067,,,,9.541321322
1715827910956347816,0.084,,,,9.549016076
1715827910964042532,0.099,,,,9.556710792
1715827910971737248,0.108,,,,9.564405508
1715827910979431964,0.103,,,,9.572100224
1715827910987126680,0.111,,,,9.57979494
1715827910994821396,0.137,,,,9.587489656
1715827911002516112,0.145,,,,9.595184372
1715827911010210828,0.132,,,,9.602879088
1715827911017905544,0.13,,,,9.610573804
1715827911025600260,0.128,,,,9.61826852
1715827911033294976,0.125,,,,9.625963236
1715827911040989692,0.118,,,,9.633657952
1715827911048684408,0.108,,,,9.641352668
1715827911056379124,0.096,,,,9.649047384
1715827911064073840,0.065,,,,9.6567421
1715827911071768556,0.036,,,,9.664436816
1715827911079463272,0.033,,,,9.672131532
1715827911087157988,0.024,,,,9.679826248
1715827911094852704,0.014,,,,9.687520964
1715827911102547420,0.012,,,,9.69521568
1715827911110242136,0.009,,,,9.702910396
1715827911117936852,0.009,,,,9.710605112
1715827911125631568,0.009,,,,9.718299828
1715827911133326284,0.012,,,,9.725994544
1715827911141021000,0.014,,,,9.73368926
1715827911148715716,0.021,,,,9.741383976
1715827911156410432,0.031,,,,9.749078692
1715827911164105148,0.033,,,,9.756773408
1715827911171799864,0.036,,,,9.764468124
1715827911179494580,0.041,,,,9.77216284
1715827911187189296,0.043,,,,9.779857556
1715827911194884012,0.045,,,,9.787552272
1715827911202578728,0.048,,,,9.795246988
1715827911210273444,0.045,,,,9.802941704
1715827911217968160,0.045,,,,9.81063642
1715827911225662876,0.045,,,,9.818331136
1715827911233357592,0.043,,,,9.826025852
1715827911241052308,0.043,,,,9.833720568
1715827911248747024,0.043,,,,9.841415284
1715827911256441740,0.043,,,,9.84911
1715827911264136456,0.05,,,,9.856804716
1715827911271831172,0.053,,,,9.864499432
1715827911279525888,0.041,,,,9.872194148
1715827911287220604,0.048,,,,9.879888864
1715827911294915320,0.074,,,,9.88758358
1715827911302610036,0.074,,,,9.895278296
1715827911310304752,0.065,,,,9.902973012
1715827911317999468,0.06,,,,9.910667728
1715827911325694184,0.05,,,,9.918362444
1715827911333388900,0.048,,,,9.92605716
1715827911341083616,0.06,,,,9.933751876
1715827911348778332,0.058,,,,9.941446592
1715827911356473048,0.055,,,,9.949141308
1715827911364167764,0.06,,,,9.956836024
1715827911371862480,0.062,,,,9.96453074
1715827911379557196,0.065,,,,9.972225456
1715827911387251912,0.07,,,,9.979920172
1715827911394946628,0.067,,,,9.987614888
1715827911402641344,0.045,,,,9.995309604
1715827911410336060,0.05,,,,10.00300432
1715827911418030776,0.089,,,,10.010699036
1715827911425725492,0.094,,,,10.018393752
1715827911433420208,0.091,,,,10.026088468
1715827911441114924,0.106,,,,10.033783184
1715827911448809640,0.096,,,,10.0414779
1715827911456504356,0.079,,,,10.049172616
1715827911464199072,0.087,,,,10.056867332
1715827911471893788,0.089,,,,10.064562048
1715827911479588504,0.084,,,,10.072256764
1715827911487283220,0.087,,,,10.07995148
1715827911494977936,0.096,,,,10.087646196
1715827911502672652,0.087,,,,10.095340912
1715827911510367368,0.091,,,,10.103035628
1715827911518062126,0.285,93.0,665.0,,10.110730386
1715827911525756563,0.809,,,,10.118424823
1715827911533451000,1.445,,,,10.12611926
1715827911541145437,1.561,,,,10.133813697
1715827911548839874,0.865,,,,10.141508134
1715827911556534311,0.043,,,,10.149202571
1715827911564228748,-0.149,,,,10.156897008
1715827911571923185,0.026,,,,10.164591445
1715827911579617622,0.029,,,,10.172285882
1715827911587312059,-0.055,,,,10.179980319
1715827911595006496,-0.021,,,,10.187674756
1715827911602700933,0.004,,,,10.195369193
1715827911610395370,-0.029,,,,10.20306363
1715827911618089807,-0.033,,,,10.210758067
1715827911625784244,-0.019,,,,10.218452504
1715827911633478681,-0.009,,,,10.226146941
1715827911641173118,-0.002,,,,10.233841378
1715827911648867555,0.004,,,,10.241535815
1715827911656561992,0.012,,,,10.249230252
1715827911664256429,0.021,,,,10.256924689
1715827911671950866,0.031,,,,10.264619126
1715827911679645303,0.041,,,,10.272313563
1715827911687339740,0.053,,,,10.280008
1715827911695034177,0.065,,,,10.287702437
1715827911702728614,0.067,,,,10.295396874
1715827911710423051,0.074,,,,10.303091311
1715827911718117488,0.087,,,,10.310785748
1715827911725811925,0.091,,,,10.318480185
1715827911733506362,0.099,,,,10.326174622
1715827911741200799,0.108,,,,10.333869059
1715827911748895236,0.111,,,,10.341563496
1715827911756589673,0.106,,,,10.349257933
1715827911764284110,0.094,,,,10.35695237
1715827911771978547,0.077,,,,10.364646807
1715827911779672984,0.053,,,,10.372341244
1715827911787367421,0.024,,,,10.380035681
1715827911795061858,0.007,,,,10.387730118
1715827911802756295,-0.002,,,,10.395424555
1715827911810450732,-0.012,,,,10.403118992
1715827911818145169,-0.026,,,,10.410813429
1715827911825839606,-0.029,,,,10.418507866
1715827911833534043,-0.012,,,,10.426202303
1715827911841228480,-0.002,,,,10.43389674
1715827911848922917,-0.007,,,,10.441591177
1715827911856617354,0.0,,,,10.449285614
1715827911864311791,0.009,,,,10.456980051
1715827911872006228,0.004,,,,10.464674488
1715827911879700665,0.009,,,,10.472368925
1715827911887395102,0.026,,,,10.480063362
1715827911895089539,0.038,,,,10.487757799
1715827911902783976,0.043,,,,10.495452236
1715827911910478413,0.041,,,,10.503146673
1715827911918172850,0.036,,,,10.51084111
1715827911925867287,0.038,,,,10.518535547
1715827911933561724,0.043,,,,10.526229984
1715827911941256161,0.045,,,,10.533924421
1715827911948950598,0.043,,,,10.541618858
1715827911956645035,0.045,,,,10.549313295
1715827911964339472,0.043,,,,10.557007732
1715827911972033909,0.038,,,,10.564702169
1715827911979728346,0.041,,,,10.572396606
1715827911987422783,0.043,,,,10.580091043
1715827911995117220,0.045,,,,10.58778548
1715827912002811657,0.053,,,,10.595479917
1715827912010506094,0.06,,,,10.603174354
1715827912018200531,0.055,,,,10.610868791
1715827912025894968,0.053,,,,10.618563228
1715827912033589405,0.053,,,,10.626257665
1715827912041283842,0.055,,,,10.633952102
1715827912048978279,0.058,,,,10.641646539
1715827912056672716,0.06,,,,10.649340976
1715827912064367153,0.06,,,,10.657035413
1715827912072061590,0.065,,,,10.66472985
1715827912079756088,0.072,92.0,725.0,,10.672424348
1715827912087450665,0.067,,757.0,,10.680118925
1715827912095145242,0.065,,,,10.687813502
1715827912102839819,0.07,,,,10.695508079
1715827912110534396,0.067,,,,10.703202656
1715827912118228973,0.065,,,,10.710897233
1715827912125923550,0.07,,,,10.71859181
1715827912133618127,0.07,,,,10.726286387
1715827912141312704,0.072,,,,10.733980964
1715827912149007281,0.084,,,,10.741675541
1715827912156701858,0.082,,,,10.749370118
1715827912164396435,0.072,,,,10.757064695
1715827912172091012,0.062,,,,10.764759272
1715827912179785589,0.06,,,,10.772453849
1715827912187480166,0.062,,,,10.780148426
1715827912195174743,0.072,,,,10.787843003
1715827912202869320,0.077,,,,10.79553758
1715827912210563897,0.074,,,,10.803232157
1715827912218258474,0.058,,,,10.810926734
1715827912225953051,0.067,,,,10.818621311
1715827912233647628,0.256,,,,10.826315888
1715827912241342205,0.763,,,,10.834010465
1715827912249036782,1.389,,,,10.841705042
1715827912256731359,1.529,,,,10.849399619
1715827912264425936,0.867,,,,10.857094196
1715827912272120513,0.043,,,,10.864788773
1715827912279815090,-0.176,,,,10.87248335
1715827912287509667,-0.002,,,,10.880177927
1715827912295204244,0.014,,,,10.887872504
1715827912302898821,-0.062,,,,10.895567081
1715827912310593398,-0.036,,,,10.903261658
1715827912318287975,-0.012,,,,10.910956235
1715827912325982552,-0.038,,,,10.918650812
1715827912333677129,-0.036,,,,10.926345389
1715827912341371706,-0.019,,,,10.934039966
1715827912349066283,-0.021,,,,10.941734543
1715827912356760860,-0.009,,,,10.94942912
1715827912364455437,0.019,,,,10.957123697
1715827912372150014,0.033,,,,10.964818274
1715827912379844591,0.041,,,,10.972512851
1715827912387539168,0.045,,,,10.980207428
1715827912395233745,0.055,,,,10.987902005
1715827912402928322,0.077,,,,10.995596582
1715827912410622899,0.089,,,,11.003291159
1715827912418317476,0.091,,,,11.010985736
1715827912426012053,0.101,,,,11.018680313
1715827912433706630,0.123,,,,11.02637489
1715827912441401207,0.135,,,,11.034069467
1715827912449095784,0.137,,,,11.041764044
1715827912456790361,0.14,,,,11.049458621
1715827912464484938,0.145,,,,11.057153198
1715827912472179515,0.14,,,,11.064847775
1715827912479874092,0.13,,,,11.072542352
1715827912487568669,0.123,,,,11.080236929
1715827912495263246,0.111,,,,11.087931506
1715827912502957823,0.077,,,,11.095626083
1715827912510652400,0.041,,,,11.10332066
1715827912518346977,0.019,,,,11.111015237
1715827912526041554,0.012,,,,11.118709814
1715827912533736131,0.009,,,,11.126404391
1715827912541430708,0.009,,,,11.134098968
1715827912549125285,0.012,,,,11.141793545
1715827912556819862,0.019,,,,11.149488122
1715827912564514439,0.021,,,,11.157182699
1715827912572209016,0.024,,,,11.164877276
1715827912579903593,0.033,,,,11.172571853
1715827912587598170,0.043,,,,11.18026643
1715827912595292747,0.05,,,,11.187961007
1715827912602987324,0.053,,,,11.195655584
1715827912610681901,0.053,,,,11.203350161
1715827912618376478,0.058,,,,11.211044738
1715827912626071055,0.06,,,,11.218739315
1715827912633765632,0.053,,,,11.226433892
1715827912641460224,0.045,,,,11.234128484
1715827912649154801,0.05,,,,11.241823061
1715827912656849378,0.058,,,,11.249517638
1715827912664543955,0.053,,,,11.257212215
1715827912672238532,0.048,,,,11.264906792
1715827912679933109,0.058,,,,11.272601369
1715827912687627686,0.055,,,,11.280295946
1715827912695322263,0.055,,,,11.287990523
1715827912703016840,0.067,,,,11.2956851
1715827912710711417,0.074,,,,11.303379677
1715827912718405994,0.062,,,,11.311074254
1715827912726100571,0.05,,,,11.318768831
1715827912733795148,0.05,,,,11.326463408
1715827912741489725,0.058,,,,11.334157985
1715827912749184302,0.06,,,,11.341852562
1715827912756878879,0.062,,,,11.349547139
1715827912764573456,0.065,,,,11.357241716
1715827912772268033,0.06,,,,11.364936293
1715827912779962610,0.06,,,,11.37263087
1715827912787657187,0.067,,,,11.380325447
1715827912795351764,0.079,,,,11.388020024
1715827912803046341,0.087,,,,11.395714601
1715827912810740918,0.079,,,,11.403409178
1715827912818435495,0.077,,,,11.411103755
1715827912826130072,0.084,,,,11.418798332
1715827912833824649,0.089,,,,11.426492909
1715827912841519226,0.103,,,,11.434187486
1715827912849213803,0.128,,,,11.441882063
1715827912856908380,0.132,,,,11.44957664
1715827912864602957,0.113,,,,11.457271217
1715827912872297534,0.096,,,,11.464965794
1715827912879992111,0.103,,,,11.472660371
1715827912887686688,0.111,,,,11.480354948
1715827912895381265,0.111,,,,11.488049525
1715827912903075842,0.116,,,,11.495744102
1715827912910770419,0.111,,,,11.503438679
1715827912918464996,0.099,,,,11.511133256
1715827912926159573,0.113,,,,11.518827833
1715827912933854150,0.304,,,,11.52652241
1715827912941548727,0.809,,,,11.534216987
1715827912949243304,1.406,,,,11.541911564
1715827912956937881,1.496,,,,11.549606141
1715827912964632458,0.812,,,,11.557300718
1715827912972327035,0.038,,,,11.564995295
1715827912980021612,-0.123,,,,11.572689872
1715827912987716189,0.033,,,,11.580384449
1715827912995410766,0.033,,,,11.588079026
1715827913003105343,-0.029,,,,11.595773603
1715827913010799920,-0.009,,,,11.60346818
1715827913018494497,0.004,,,,11.611162757
1715827913026189074,-0.007,,,,11.618857334
1715827913033883651,0.009,,,,11.626551911
1715827913041578228,0.026,,,,11.634246488
1715827913049272805,0.026,,,,11.641941065
1715827913056967382,0.033,,,,11.649635642
1715827913064661959,0.045,,,,11.657330219
1715827913072356536,0.055,,,,11.665024796
1715827913080051113,0.065,,,,11.672719373
1715827913087745690,0.079,,,,11.68041395
1715827913095440267,0.091,,,,11.688108527
1715827913103134844,0.101,,,,11.695803104
1715827913110829421,0.113,,,,11.703497681
1715827913118523998,0.13,,,,11.711192258
1715827913126218575,0.149,,,,11.718886835
1715827913133913152,0.159,,,,11.726581412
1715827913141607729,0.161,,,,11.734275989
1715827913149302306,0.159,,,,11.741970566
1715827913156996883,0.164,,,,11.749665143
1715827913164691460,0.171,,,,11.75735972
1715827913172386037,0.169,,,,11.765054297
1715827913180080614,0.164,,,,11.772748874
1715827913187775191,0.147,,,,11.780443451
1715827913195469768,0.12,,,,11.788138028
1715827913203164358,0.091,90.0,726.0,,11.795832618
1715827913210859144,0.065,,,,11.803527404
1715827913218553930,0.048,,,,11.81122219
1715827913226248716,0.038,,,,11.818916976
1715827913233943502,0.031,,,,11.826611762
1715827913241638288,0.029,,,,11.834306548
1715827913249333074,0.029,,,,11.842001334
1715827913257027860,0.031,,,,11.84969612
1715827913264722646,0.033,,,,11.857390906
1715827913272417432,0.045,,,,11.865085692
1715827913280112218,0.053,,,,11.872780478
1715827913287807004,0.048,,,,11.880475264
1715827913295501790,0.045,,,,11.88817005
1715827913303196576,0.06,,,,11.895864836
1715827913310891362,0.07,,,,11.903559622
1715827913318586148,0.067,,,,11.911254408
1715827913326280934,0.067,,,,11.918949194
1715827913333975720,0.072,,,,11.92664398
1715827913341670506,0.077,,,,11.934338766
1715827913349365292,0.074,,,,11.942033552
1715827913357060078,0.072,,,,11.949728338
1715827913364754864,0.077,,,,11.957423124
1715827913372449650,0.077,,,,11.96511791
1715827913380144436,0.072,,,,11.972812696
1715827913387839222,0.072,,,,11.980507482
1715827913395534008,0.074,,,,11.988202268
1715827913403228794,0.074,,,,11.995897054
1715827913410923580,0.074,,,,12.00359184
1715827913418618366,0.077,,,,12.011286626
1715827913426313152,0.077,,,,12.018981412
1715827913434007938,0.079,,,,12.026676198
1715827913441702724,0.087,,,,12.034370984
1715827913449397510,0.087,,,,12.04206577
1715827913457092296,0.087,,,,12.049760556
1715827913464787082,0.089,,,,12.057455342
1715827913472481868,0.084,,,,12.065150128
1715827913480176654,0.082,,,,12.072844914
1715827913487871440,0.077,,,,12.0805397
1715827913495566226,0.074,,,,12.088234486
1715827913503261012,0.084,,,,12.095929272
1715827913510955798,0.089,,,,12.103624058
1715827913518650584,0.103,,,,12.111318844
1715827913526345370,0.116,,,,12.11901363
1715827913534040156,0.103,,,,12.126708416
1715827913541734942,0.082,,,,12.134403202
1715827913549429728,0.084,,,,12.142097988
1715827913557124514,0.094,,,,12.149792774
1715827913564819300,0.091,,,,12.15748756
1715827913572514086,0.089,,,,12.165182346
1715827913580208872,0.096,,,,12.172877132
1715827913587903658,0.094,,,,12.180571918
1715827913595598444,0.077,,,,12.188266704
1715827913603293230,0.176,,,,12.19596149
1715827913610988016,0.584,,,,12.203656276
1715827913618682802,1.268,,,,12.211351062
1715827913626377588,1.694,,,,12.219045848
1715827913634072374,1.271,,,,12.226740634
1715827913641767160,0.316,,,,12.23443542
1715827913649461946,-0.19,,,,12.242130206
1715827913657156732,-0.067,,,,12.249824992
1715827913664851518,0.041,,,,12.257519778
1715827913672546304,-0.05,,,,12.265214564
1715827913680241090,-0.06,,,,12.27290935
1715827913687935876,-0.016,,,,12.280604136
1715827913695630662,-0.029,,,,12.288298922
1715827913703325448,-0.031,,,,12.295993708
1715827913711020234,-0.009,,,,12.303688494
1715827913718715020,-0.004,,,,12.31138328
1715827913726409806,-0.004,,,,12.319078066
1715827913734104592,0.007,,,,12.326772852
1715827913741799378,0.016,,,,12.334467638
1715827913749494164,0.019,,,,12.342162424
1715827913757188950,0.026,,,,12.34985721
1715827913764883752,0.038,,,,12.357552012
1715827913772578120,0.05,,,,12.36524638
1715827913780272488,0.065,,,,12.372940748
1715827913787966856,0.082,,,,12.380635116
1715827913795661224,0.094,,,,12.388329484
1715827913803355592,0.106,,,,12.396023852
1715827913811049960,0.12,,,,12.40371822
1715827913818744328,0.132,,,,12.411412588
1715827913826438696,0.13,,,,12.419106956
1715827913834133064,0.123,,,,12.426801324
1715827913841827432,0.125,,,,12.434495692
1715827913849521800,0.123,,,,12.44219006
1715827913857216168,0.108,,,,12.449884428
1715827913864910536,0.082,,,,12.457578796
1715827913872604904,0.053,,,,12.465273164
1715827913880299272,0.026,,,,12.472967532
1715827913887993640,0.002,,,,12.4806619
1715827913895688008,-0.004,,,,12.488356268
1715827913903382376,-0.002,,,,12.496050636
1715827913911076744,-0.004,,,,12.503745004
1715827913918771112,-0.007,,,,12.511439372
1715827913926465480,0.0,,,,12.51913374
1715827913934159848,0.007,,,,12.526828108
1715827913941854216,0.012,,,,12.534522476
1715827913949548584,0.016,,,,12.542216844
1715827913957242952,0.026,,,,12.549911212
1715827913964937320,0.033,,,,12.55760558
1715827913972631688,0.036,,,,12.565299948
1715827913980326056,0.041,,,,12.572994316
1715827913988020424,0.043,,,,12.580688684
1715827913995714792,0.043,,,,12.588383052
1715827914003409160,0.038,,,,12.59607742
1715827914011103528,0.043,,,,12.603771788
1715827914018797896,0.048,,,,12.611466156
1715827914026492264,0.048,,,,12.619160524
1715827914034186632,0.05,,,,12.626854892
1715827914041881000,0.05,,,,12.63454926
1715827914049575368,0.05,,,,12.642243628
1715827914057269736,0.055,,,,12.649937996
1715827914064964104,0.058,,,,12.657632364
1715827914072658472,0.053,,,,12.665326732
1715827914080352840,0.058,,,,12.6730211
1715827914088047208,0.065,,,,12.680715468
1715827914095741576,0.065,,,,12.688409836
1715827914103435944,0.062,,,,12.696104204
1715827914111130312,0.067,,,,12.703798572
1715827914118824680,0.07,,,,12.71149294
1715827914126519048,0.072,,,,12.719187308
1715827914134213416,0.077,,,,12.726881676
1715827914141907784,0.077,,,,12.734576044
1715827914149602152,0.062,,,,12.742270412
1715827914157296520,0.053,,,,12.74996478
1715827914164990888,0.055,,,,12.757659148
1715827914172685256,0.06,,,,12.765353516
1715827914180379624,0.065,,,,12.773047884
1715827914188073992,0.072,,,,12.780742252
1715827914195768360,0.087,,,,12.78843662
1715827914203462728,0.103,,,,12.796130988
1715827914211157096,0.101,,,,12.803825356
1715827914218851464,0.082,,,,12.811519724
1715827914226545832,0.074,,,,12.819214092
1715827914234240200,0.079,,,,12.82690846
1715827914241934568,0.079,,,,12.834602828
1715827914249628936,0.077,,,,12.842297196
1715827914257323304,0.079,,,,12.849991564
1715827914265017672,0.082,,,,12.857685932
1715827914272712040,0.07,,,,12.8653803
1715827914280406408,0.101,,,,12.873074668
1715827914288100776,0.357,,,,12.880769036
1715827914295795144,0.959,,,,12.888463404
1715827914303489512,1.592,,,,12.896157772
1715827914311183880,1.558,,,,12.90385214
1715827914318878248,0.72,,,,12.911546508
1715827914326572628,-0.053,88.0,716.0,,12.919240888
1715827914334267344,-0.13,,699.0,,12.926935604
1715827914341962060,0.043,,,,12.93463032
1715827914349656776,0.004,,,,12.942325036
1715827914357351492,-0.053,,,,12.950019752
1715827914365046208,-0.009,,,,12.957714468
1715827914372740924,-0.009,,,,12.965409184
1715827914380435640,-0.033,,,,12.9731039
1715827914388130356,-0.016,,,,12.980798616
1715827914395825072,0.002,,,,12.988493332
1715827914403519788,0.0,,,,12.996188048
1715827914411214504,0.007,,,,13.003882764
1715827914418909220,0.026,,,,13.01157748
1715827914426603936,0.038,,,,13.019272196
1715827914434298652,0.048,,,,13.026966912
1715827914441993368,0.06,,,,13.034661628
1715827914449688084,0.07,,,,13.042356344
1715827914457382800,0.079,,,,13.05005106
1715827914465077516,0.084,,,,13.057745776
1715827914472772232,0.096,,,,13.065440492
1715827914480466948,0.111,,,,13.073135208
1715827914488161664,0.116,,,,13.080829924
1715827914495856380,0.12,,,,13.08852464
1715827914503551096,0.132,,,,13.096219356
1715827914511245812,0.135,,,,13.103914072
1715827914518940528,0.135,,,,13.111608788
1715827914526635244,0.137,,,,13.119303504
1715827914534329960,0.125,,,,13.12699822
1715827914542024676,0.103,,,,13.134692936
1715827914549719392,0.079,,,,13.142387652
1715827914557414108,0.05,,,,13.150082368
1715827914565108824,0.026,,,,13.157777084
1715827914572803540,0.012,,,,13.1654718
1715827914580498256,0.002,,,,13.173166516
1715827914588192972,-0.004,,,,13.180861232
1715827914595887688,0.0,,,,13.188555948
1715827914603582404,0.007,,,,13.196250664
1715827914611277120,0.004,,,,13.20394538
1715827914618971836,0.004,,,,13.211640096
1715827914626666552,0.014,,,,13.219334812
1715827914634361268,0.019,,,,13.227029528
1715827914642055984,0.029,,,,13.234724244
1715827914649750700,0.038,,,,13.24241896
1715827914657445416,0.033,,,,13.250113676
1715827914665140132,0.026,,,,13.257808392
1715827914672834848,0.031,,,,13.265503108
1715827914680529564,0.038,,,,13.273197824
1715827914688224280,0.036,,,,13.28089254
1715827914695918996,0.033,,,,13.288587256
1715827914703613712,0.033,,,,13.296281972
1715827914711308428,0.036,,,,13.303976688
1715827914719003144,0.045,,,,13.311671404
1715827914726697860,0.05,,,,13.31936612
1715827914734392576,0.048,,,,13.327060836
1715827914742087292,0.043,,,,13.334755552
1715827914749782008,0.043,,,,13.342450268
1715827914757476724,0.045,,,,13.350144984
1715827914765171440,0.045,,,,13.3578397
1715827914772866156,0.048,,,,13.365534416
1715827914780560872,0.058,,,,13.373229132
1715827914788255588,0.055,,,,13.380923848
1715827914795950304,0.05,,,,13.388618564
1715827914803645020,0.058,,,,13.39631328
1715827914811339736,0.06,,,,13.404007996
1715827914819034452,0.055,,,,13.411702712
1715827914826729168,0.06,,,,13.419397428
1715827914834423884,0.074,,,,13.427092144
1715827914842118600,0.087,,,,13.43478686
1715827914849813316,0.094,,,,13.442481576
1715827914857508032,0.099,,,,13.450176292
1715827914865202748,0.091,,,,13.457871008
1715827914872897464,0.079,,,,13.465565724
1715827914880592180,0.082,,,,13.47326044
1715827914888286938,0.087,,,,13.480955198
1715827914895981375,0.087,,,,13.488649635
1715827914903675812,0.089,,,,13.496344072
1715827914911370249,0.094,,,,13.504038509
1715827914919064686,0.091,,,,13.511732946
1715827914926759123,0.103,,,,13.519427383
1715827914934453560,0.268,,,,13.52712182
1715827914942147997,0.729,,,,13.534816257
1715827914949842434,1.339,,,,13.542510694
1715827914957536871,1.515,,,,13.550205131
1715827914965231308,0.887,,,,13.557899568
1715827914972925745,0.06,,,,13.565594005
1715827914980620182,-0.171,,,,13.573288442
1715827914988314619,-0.016,,,,13.580982879
1715827914996009056,0.012,,,,13.588677316
1715827915003703493,-0.033,,,,13.596371753
1715827915011397930,-0.012,,,,13.60406619
1715827915019092367,0.004,,,,13.611760627
1715827915026786804,-0.002,,,,13.619455064
1715827915034481241,0.002,,,,13.627149501
1715827915042175678,0.014,,,,13.634843938
1715827915049870115,0.031,,,,13.642538375
1715827915057564552,0.048,,,,13.650232812
1715827915065258989,0.043,,,,13.657927249
1715827915072953426,0.048,,,,13.665621686
1715827915080647863,0.074,,,,13.673316123
1715827915088342300,0.087,,,,13.68101056
1715827915096036737,0.096,,,,13.688704997
1715827915103731174,0.113,,,,13.696399434
1715827915111425611,0.123,,,,13.704093871
1715827915119120048,0.128,,,,13.711788308
1715827915126814485,0.142,,,,13.719482745
1715827915134508922,0.161,,,,13.727177182
1715827915142203359,0.169,,,,13.734871619
1715827915149897796,0.169,,,,13.742566056
1715827915157592233,0.169,,,,13.750260493
1715827915165286670,0.161,,,,13.75795493
1715827915172981107,0.147,,,,13.765649367
1715827915180675544,0.135,,,,13.773343804
1715827915188369981,0.113,,,,13.781038241
1715827915196064418,0.077,,,,13.788732678
1715827915203758855,0.041,,,,13.796427115
1715827915211453292,0.012,,,,13.804121552
1715827915219147729,-0.004,,,,13.811815989
1715827915226842166,-0.021,,,,13.819510426
1715827915234536603,-0.031,,,,13.827204863
1715827915242231040,-0.026,,,,13.8348993
1715827915249925477,-0.021,,,,13.842593737
1715827915257619914,-0.019,,,,13.850288174
1715827915265314351,-0.016,,,,13.857982611
1715827915273008788,-0.016,,,,13.865677048
1715827915280703225,-0.009,,,,13.873371485
1715827915288397662,0.007,,,,13.881065922
1715827915296092099,0.014,,,,13.888760359
1715827915303786536,0.014,,,,13.896454796
1715827915311480973,0.026,,,,13.904149233
1715827915319175410,0.038,,,,13.91184367
1715827915326869847,0.038,,,,13.919538107
1715827915334564284,0.041,,,,13.927232544
1715827915342258721,0.048,,,,13.934926981
1715827915349953158,0.045,,,,13.942621418
1715827915357647595,0.043,,,,13.950315855
1715827915365342032,0.043,,,,13.958010292
1715827915373036469,0.048,,,,13.965704729
1715827915380730906,0.053,,,,13.973399166
1715827915388425343,0.045,,,,13.981093603
1715827915396119780,0.045,,,,13.98878804
1715827915403814217,0.053,,,,13.996482477
1715827915411508654,0.058,,,,14.004176914
1715827915419203091,0.048,,,,14.011871351
1715827915426897528,0.041,,,,14.019565788
1715827915434591965,0.05,,,,14.027260225
1715827915442286402,0.055,,,,14.034954662
1715827915449980900,0.053,87.0,673.0,,14.04264916
1715827915457675477,0.058,,,,14.050343737
1715827915465370054,0.077,,,,14.058038314
1715827915473064631,0.087,,,,14.065732891
1715827915480759208,0.07,,,,14.073427468
1715827915488453785,0.053,,,,14.081122045
1715827915496148362,0.05,,,,14.088816622
1715827915503842939,0.05,,,,14.096511199
1715827915511537516,0.05,,,,14.104205776
1715827915519232093,0.058,,,,14.111900353
1715827915526926670,0.065,,,,14.11959493
1715827915534621247,0.06,,,,14.127289507
1715827915542315824,0.038,,,,14.134984084
1715827915550010401,0.096,,,,14.142678661
1715827915557704978,0.425,,,,14.150373238
1715827915565399555,1.061,,,,14.158067815
1715827915573094132,1.59,,,,14.165762392
1715827915580788709,1.36,,,,14.173456969
1715827915588483286,0.449,,,,14.181151546
1715827915596177863,-0.174,,,,14.188846123
1715827915603872440,-0.113,,,,14.1965407
1715827915611567017,0.019,,,,14.204235277
1715827915619261594,-0.045,,,,14.211929854
1715827915626956171,-0.062,,,,14.219624431
1715827915634650748,-0.019,,,,14.227319008
1715827915642345325,-0.026,,,,14.235013585
1715827915650039902,-0.026,,,,14.242708162
1715827915657734479,-0.007,,,,14.250402739
1715827915665429056,-0.004,,,,14.258097316
1715827915673123633,-0.007,,,,14.265791893
1715827915680818210,0.007,,,,14.27348647
1715827915688512787,0.019,,,,14.281181047
1715827915696207364,0.026,,,,14.288875624
1715827915703901941,0.043,,,,14.296570201
1715827915711596518,0.062,,,,14.304264778
1715827915719291095,0.074,,,,14.311959355
1715827915726985672,0.082,,,,14.319653932
1715827915734680249,0.091,,,,14.327348509
1715827915742374826,0.108,,,,14.335043086
1715827915750069403,0.123,,,,14.342737663
1715827915757763980,0.137,,,,14.35043224
1715827915765458557,0.149,,,,14.358126817
1715827915773153134,0.159,,,,14.365821394
1715827915780847711,0.159,,,,14.373515971
1715827915788542288,0.149,,,,14.381210548
1715827915796236865,0.145,,,,14.388905125
1715827915803931442,0.132,,,,14.396599702
1715827915811626019,0.099,,,,14.404294279
1715827915819320596,0.062,,,,14.411988856
1715827915827015173,0.036,,,,14.419683433
1715827915834709750,0.014,,,,14.42737801
1715827915842404327,0.002,,,,14.435072587
1715827915850098904,0.002,,,,14.442767164
1715827915857793481,0.0,,,,14.450461741
1715827915865488058,0.002,,,,14.458156318
1715827915873182635,0.007,,,,14.465850895
1715827915880877212,0.009,,,,14.473545472
1715827915888571789,0.016,,,,14.481240049
1715827915896266366,0.029,,,,14.488934626
1715827915903960943,0.031,,,,14.496629203
1715827915911655520,0.029,,,,14.50432378
1715827915919350097,0.033,,,,14.512018357
1715827915927044674,0.033,,,,14.519712934
1715827915934739251,0.031,,,,14.527407511
1715827915942433828,0.036,,,,14.535102088
1715827915950128405,0.038,,,,14.542796665
1715827915957822982,0.041,,,,14.550491242
1715827915965517559,0.036,,,,14.558185819
1715827915973212136,0.031,,,,14.565880396
1715827915980906713,0.033,,,,14.573574973
1715827915988601290,0.038,,,,14.58126955
1715827915996295867,0.038,,,,14.588964127
1715827916003990444,0.041,,,,14.596658704
1715827916011685036,0.038,,,,14.604353296
1715827916019379613,0.041,,,,14.612047873
1715827916027074190,0.043,,,,14.61974245
1715827916034768767,0.038,,,,14.627437027
1715827916042463344,0.041,,,,14.635131604
1715827916050157921,0.045,,,,14.642826181
1715827916057852498,0.045,,,,14.650520758
1715827916065547075,0.05,,,,14.658215335
1715827916073241652,0.065,,,,14.665909912
1715827916080936229,0.074,,,,14.673604489
1715827916088630806,0.065,,,,14.681299066
1715827916096325383,0.053,,,,14.688993643
1715827916104019960,0.045,,,,14.69668822
1715827916111714537,0.048,,,,14.704382797
1715827916119409114,0.062,,,,14.712077374
1715827916127103691,0.067,,,,14.719771951
1715827916134798268,0.065,,,,14.727466528
1715827916142492845,0.06,,,,14.735161105
1715827916150187422,0.043,,,,14.742855682
1715827916157881999,0.077,,,,14.750550259
1715827916165576576,0.381,,,,14.758244836
1715827916173271153,1.058,,,,14.765939413
1715827916180965730,1.708,,,,14.77363399
1715827916188660307,1.602,,,,14.781328567
1715827916196354884,0.679,,,,14.789023144
1715827916204049461,-0.108,,,,14.796717721
1715827916211744038,-0.154,,,,14.804412298
1715827916219438615,0.021,,,,14.812106875
1715827916227133192,-0.043,,,,14.819801452
1715827916234827769,-0.103,,,,14.827496029
1715827916242522346,-0.043,,,,14.835190606
1715827916250216923,-0.033,,,,14.842885183
1715827916257911500,-0.055,,,,14.85057976
1715827916265606077,-0.033,,,,14.858274337
1715827916273300654,-0.007,,,,14.865968914
1715827916280995231,-0.002,,,,14.873663491
1715827916288689808,0.004,,,,14.881358068
1715827916296384385,0.019,,,,14.889052645
1715827916304078962,0.031,,,,14.896747222
1715827916311773539,0.043,,,,14.904441799
1715827916319468116,0.058,,,,14.912136376
1715827916327162693,0.067,,,,14.919830953
1715827916334857270,0.072,,,,14.92752553
1715827916342551847,0.094,,,,14.935220107
1715827916350246424,0.116,,,,14.942914684
1715827916357941001,0.125,,,,14.950609261
1715827916365635578,0.137,,,,14.958303838
1715827916373330155,0.149,,,,14.965998415
1715827916381024732,0.152,,,,14.973692992
1715827916388719309,0.149,,,,14.981387569
1715827916396413886,0.154,,,,14.989082146
1715827916404108463,0.149,,,,14.996776723
1715827916411803040,0.128,,,,15.0044713
1715827916419497617,0.099,,,,15.012165877
1715827916427192194,0.07,,,,15.019860454
1715827916434886771,0.045,,,,15.027555031
1715827916442581348,0.026,,,,15.035249608
1715827916450275925,0.014,,,,15.042944185
1715827916457970502,0.007,,,,15.050638762
1715827916465665079,0.0,,,,15.058333339
1715827916473359656,-0.004,,,,15.066027916
1715827916481054233,0.002,,,,15.073722493
1715827916488748810,0.014,,,,15.08141707
1715827916496443387,0.019,,,,15.089111647
1715827916504137964,0.024,,,,15.096806224
1715827916511832541,0.031,,,,15.104500801
1715827916519527118,0.033,,,,15.112195378
1715827916527221695,0.031,,,,15.119889955
1715827916534916272,0.033,,,,15.127584532
1715827916542610849,0.038,,,,15.135279109
1715827916550305426,0.041,,,,15.142973686
1715827916558000003,0.041,,,,15.150668263
1715827916565694580,0.041,,,,15.15836284
1715827916573389170,0.041,88.0,681.0,,15.16605743
1715827916581083956,0.041,,648.0,,15.173752216
1715827916588778742,0.036,,,,15.181447002
1715827916596473528,0.036,,,,15.189141788
1715827916604168314,0.033,,,,15.196836574
1715827916611863100,0.024,,,,15.20453136
1715827916619557886,0.012,,,,15.212226146
1715827916627252672,0.004,,,,15.219920932
1715827916634947458,0.009,,,,15.227615718
1715827916642642244,0.012,,,,15.235310504
1715827916650337030,0.002,,,,15.24300529
1715827916658031816,-0.004,,,,15.250700076
1715827916665726602,0.0,,,,15.258394862
1715827916673421388,0.007,,,,15.266089648
1715827916681116174,0.007,,,,15.273784434
1715827916688810960,0.007,,,,15.28147922
1715827916696505746,0.014,,,,15.289174006
1715827916704200532,0.029,,,,15.296868792
1715827916711895318,0.024,,,,15.304563578
1715827916719590104,0.007,,,,15.312258364
1715827916727284890,0.007,,,,15.31995315
1715827916734979676,0.019,,,,15.327647936
1715827916742674462,0.016,,,,15.335342722
1715827916750369248,0.014,,,,15.343037508
1715827916758064034,0.026,,,,15.350732294
1715827916765758820,0.029,,,,15.35842708
1715827916773453606,0.007,,,,15.366121866
1715827916781148392,0.079,,,,15.373816652
1715827916788843178,0.459,,,,15.381511438
1715827916796537964,1.169,,,,15.389206224
1715827916804232750,1.716,,,,15.39690101
1715827916811927536,1.394,,,,15.404595796
1715827916819622322,0.389,,,,15.412290582
1715827916827317108,-0.229,,,,15.419985368
1715827916835011894,-0.137,,,,15.427680154
1715827916842706680,0.0,,,,15.43537494
1715827916850401466,-0.084,,,,15.443069726
1715827916858096252,-0.106,,,,15.450764512
1715827916865791038,-0.048,,,,15.458459298
1715827916873485824,-0.05,,,,15.466154084
1715827916881180610,-0.06,,,,15.47384887
1715827916888875396,-0.036,,,,15.481543656
1715827916896570182,-0.026,,,,15.489238442
1715827916904264968,-0.024,,,,15.496933228
1715827916911959754,-0.007,,,,15.504628014
1715827916919654540,0.009,,,,15.5123228
1715827916927349326,0.016,,,,15.520017586
1715827916935044112,0.029,,,,15.527712372
1715827916942738898,0.045,,,,15.535407158
1715827916950433684,0.058,,,,15.543101944
1715827916958128470,0.067,,,,15.55079673
1715827916965823256,0.087,,,,15.558491516
1715827916973518042,0.103,,,,15.566186302
1715827916981212828,0.111,,,,15.573881088
1715827916988907614,0.123,,,,15.581575874
1715827916996602400,0.13,,,,15.58927066
1715827917004297186,0.13,,,,15.596965446
1715827917011991972,0.135,,,,15.604660232
1715827917019686758,0.14,,,,15.612355018
1715827917027381544,0.128,,,,15.620049804
1715827917035076330,0.103,,,,15.62774459
1715827917042771116,0.077,,,,15.635439376
1715827917050465902,0.045,,,,15.643134162
1715827917058160688,0.026,,,,15.650828948
1715827917065855474,0.009,,,,15.658523734
1715827917073550260,-0.014,,,,15.66621852
1715827917081245046,-0.019,,,,15.673913306
1715827917088939832,-0.007,,,,15.681608092
1715827917096634618,-0.004,,,,15.689302878
1715827917104329404,-0.012,,,,15.696997664
1715827917112024190,-0.012,,,,15.70469245
1715827917119718976,-0.007,,,,15.712387236
1715827917127413762,0.0,,,,15.720082022
1715827917135108564,0.009,88.0,620.0,,15.727776824
1715827917142802932,0.019,,,,15.735471192
1715827917150497300,0.029,,,,15.74316556
1715827917158191668,0.036,,,,15.750859928
1715827917165886036,0.038,,,,15.758554296
1715827917173580404,0.036,,,,15.766248664
1715827917181274772,0.031,,,,15.773943032
1715827917188969140,0.019,,,,15.7816374
1715827917196663508,0.009,,,,15.789331768
1715827917204357876,0.009,,,,15.797026136
1715827917212052244,0.004,,,,15.804720504
1715827917219746612,0.004,,,,15.812414872
1715827917227440980,0.0,,,,15.82010924
1715827917235135348,0.0,,,,15.827803608
1715827917242829716,0.007,,,,15.835497976
1715827917250524084,0.0,,,,15.843192344
1715827917258218452,-0.004,,,,15.850886712
1715827917265912820,0.012,,,,15.85858108
1715827917273607188,0.012,,,,15.866275448
1715827917281301556,-0.009,,,,15.873969816
1715827917288995924,-0.007,,,,15.881664184
1715827917296690292,0.004,,,,15.889358552
1715827917304384660,0.002,,,,15.89705292
1715827917312079028,0.009,,,,15.904747288
1715827917319773396,0.031,,,,15.912441656
1715827917327467764,0.029,,,,15.920136024
1715827917335162132,0.012,,,,15.927830392
1715827917342856500,0.004,,,,15.93552476
1715827917350550868,0.007,,,,15.943219128
1715827917358245236,0.012,,,,15.950913496
1715827917365939604,0.019,,,,15.958607864
1715827917373633972,0.024,,,,15.966302232
1715827917381328340,0.026,,,,15.9739966
1715827917389022708,0.019,,,,15.981690968
1715827917396717076,0.036,,,,15.989385336
1715827917404411444,0.273,,,,15.997079704
1715827917412105812,0.862,,,,16.004774072
1715827917419800180,1.484,,,,16.01246844
1715827917427494548,1.445,,,,16.020162808
1715827917435188916,0.604,,,,16.027857176
1715827917442883284,-0.147,,,,16.035551544
1715827917450577652,-0.203,,,,16.043245912
1715827917458272020,-0.041,,,,16.05094028
1715827917465966388,-0.062,,,,16.058634648
1715827917473660756,-0.089,,,,16.066329016
1715827917481355124,-0.041,,,,16.074023384
1715827917489049492,-0.036,,,,16.081717752
1715827917496743860,-0.043,,,,16.08941212
1715827917504438228,-0.012,,,,16.097106488
1715827917512132596,0.0,,,,16.104800856
1715827917519826964,-0.007,,,,16.112495224
1715827917527521332,0.007,,,,16.120189592
1715827917535215700,0.026,,,,16.12788396
1715827917542910068,0.036,,,,16.135578328
1715827917550604436,0.053,,,,16.143272696
1715827917558298804,0.07,,,,16.150967064
1715827917565993172,0.077,,,,16.158661432
1715827917573687540,0.089,,,,16.1663558
1715827917581381908,0.113,,,,16.174050168
1715827917589076276,0.13,,,,16.181744536
1715827917596770644,0.142,,,,16.189438904
1715827917604465012,0.159,,,,16.197133272
1715827917612159380,0.169,,,,16.20482764
1715827917619853748,0.171,,,,16.212522008
1715827917627548116,0.166,,,,16.220216376
1715827917635242484,0.159,,,,16.227910744
1715827917642936852,0.145,,,,16.235605112
1715827917650631220,0.135,,,,16.24329948
1715827917658325588,0.123,,,,16.250993848
1715827917666019956,0.087,,,,16.258688216
1715827917673714324,0.045,,,,16.266382584
1715827917681408692,0.024,,,,16.274076952
1715827917689103060,0.019,,,,16.28177132
1715827917696797440,0.009,,,,16.2894657
1715827917704491808,-0.012,,,,16.297160068
1715827917712186176,-0.004,,,,16.304854436
1715827917719880544,0.012,,,,16.312548804
1715827917727574912,-0.007,,,,16.320243172
1715827917735269280,-0.009,,,,16.32793754
1715827917742963648,0.012,,,,16.335631908
1715827917750658016,0.009,,,,16.343326276
1715827917758352384,0.014,,,,16.351020644
1715827917766046752,0.038,,,,16.358715012
1715827917773741120,0.045,,,,16.36640938
1715827917781435488,0.036,,,,16.374103748
1715827917789129856,0.041,,,,16.381798116
1715827917796824224,0.053,,,,16.389492484
1715827917804518592,0.06,,,,16.397186852
1715827917812212960,0.062,,,,16.40488122
1715827917819907328,0.067,,,,16.412575588
1715827917827601696,0.07,,,,16.420269956
1715827917835296064,0.072,,,,16.427964324
1715827917842990432,0.065,,,,16.435658692
1715827917850684800,0.058,,,,16.44335306
1715827917858379168,0.06,,,,16.451047428
1715827917866073536,0.06,,,,16.458741796
1715827917873767904,0.055,,,,16.466436164
1715827917881462272,0.07,,,,16.474130532
1715827917889156640,0.077,,,,16.4818249
1715827917896851008,0.067,,,,16.489519268
1715827917904545376,0.072,,,,16.497213636
1715827917912239744,0.094,,,,16.504908004
1715827917919934112,0.091,,,,16.512602372
1715827917927628480,0.067,,,,16.52029674
1715827917935322848,0.067,,,,16.527991108
1715827917943017216,0.077,,,,16.535685476
1715827917950711584,0.065,,,,16.543379844
1715827917958405952,0.06,,,,16.551074212
1715827917966100320,0.062,,,,16.55876858
1715827917973794688,0.06,,,,16.566462948
1715827917981489056,0.058,,,,16.574157316
1715827917989183424,0.055,,,,16.581851684
1715827917996877792,0.094,,,,16.589546052
1715827918004572160,0.367,,,,16.59724042
1715827918012266528,0.974,,,,16.604934788
1715827918019960896,1.51,,,,16.612629156
1715827918027655264,1.312,,,,16.620323524
1715827918035349632,0.449,,,,16.628017892
1715827918043044000,-0.161,,,,16.63571226
1715827918050738368,-0.135,,,,16.643406628
1715827918058432736,0.002,,,,16.651100996
1715827918066127104,-0.031,,,,16.658795364
1715827918073821472,-0.048,,,,16.666489732
1715827918081515840,-0.014,,,,16.6741841
1715827918089210208,-0.012,,,,16.681878468
1715827918096904576,-0.019,,,,16.689572836
1715827918104598944,-0.002,,,,16.697267204
1715827918112293312,0.014,,,,16.704961572
1715827918119987680,0.016,,,,16.71265594
1715827918127682048,0.029,,,,16.720350308
1715827918135376416,0.048,,,,16.728044676
1715827918143070784,0.053,,,,16.735739044
1715827918150765152,0.06,,,,16.743433412
1715827918158459520,0.084,,,,16.75112778
1715827918166153888,0.101,,,,16.758822148
1715827918173848256,0.111,,,,16.766516516
1715827918181542624,0.128,,,,16.774210884
1715827918189236992,0.135,,,,16.781905252
1715827918196931360,0.137,,,,16.78959962
1715827918204625728,0.152,,,,16.797293988
1715827918212320096,0.161,,,,16.804988356
1715827918220014464,0.161,,,,16.812682724
1715827918227708832,0.157,,,,16.820377092
1715827918235403200,0.145,,,,16.82807146
1715827918243097568,0.135,,,,16.835765828
1715827918250791936,0.123,,,,16.843460196
1715827918258486318,0.091,90.0,609.0,,16.851154578
1715827918266181104,0.05,,621.0,,16.858849364
1715827918273875890,0.016,,,,16.86654415
1715827918281570676,0.004,,,,16.874238936
1715827918289265462,0.004,,,,16.881933722
1715827918296960248,0.002,,,,16.889628508
1715827918304655034,0.004,,,,16.897323294
1715827918312349820,0.009,,,,16.90501808
1715827918320044606,0.004,,,,16.912712866
1715827918327739392,-0.002,,,,16.920407652
1715827918335434178,0.002,,,,16.928102438
1715827918343128964,0.019,,,,16.935797224
1715827918350823750,0.026,,,,16.94349201
1715827918358518536,0.024,,,,16.951186796
1715827918366213322,0.036,,,,16.958881582
1715827918373908108,0.05,,,,16.966576368
1715827918381602894,0.055,,,,16.974271154
1715827918389297680,0.06,,,,16.98196594
1715827918396992466,0.065,,,,16.989660726
1715827918404687252,0.065,,,,16.997355512
1715827918412382038,0.07,,,,17.005050298
1715827918420076824,0.077,,,,17.012745084
1715827918427771610,0.072,,,,17.02043987
1715827918435466396,0.06,,,,17.028134656
1715827918443161182,0.06,,,,17.035829442
1715827918450855968,0.065,,,,17.043524228
1715827918458550754,0.065,,,,17.051219014
1715827918466245540,0.062,,,,17.0589138
1715827918473940326,0.06,,,,17.066608586
1715827918481635112,0.058,,,,17.074303372
1715827918489329898,0.06,,,,17.081998158
1715827918497024684,0.065,,,,17.089692944
1715827918504719470,0.065,,,,17.09738773
1715827918512414256,0.074,,,,17.105082516
1715827918520109042,0.094,,,,17.112777302
1715827918527803828,0.091,,,,17.120472088
1715827918535498614,0.077,,,,17.128166874
1715827918543193400,0.065,,,,17.13586166
1715827918550888186,0.058,,,,17.143556446
1715827918558582972,0.062,,,,17.151251232
1715827918566277758,0.072,,,,17.158946018
1715827918573972544,0.077,,,,17.166640804
1715827918581667330,0.079,,,,17.17433559
1715827918589362116,0.072,,,,17.182030376
1715827918597056902,0.065,,,,17.189725162
1715827918604751688,0.21,,,,17.197419948
1715827918612446474,0.7030000000000001,,,,17.205114734
1715827918620141260,1.418,,,,17.21280952
1715827918627836046,1.694,,,,17.220504306
1715827918635530832,1.032,,,,17.228199092
1715827918643225618,0.082,,,,17.235893878
1715827918650920404,-0.198,,,,17.243588664
1715827918658615190,-0.021,,,,17.25128345
1715827918666309976,-0.009,,,,17.258978236
1715827918674004762,-0.087,,,,17.266673022
1715827918681699548,-0.053,,,,17.274367808
1715827918689394334,-0.033,,,,17.282062594
1715827918697089120,-0.06,,,,17.28975738
1715827918704783906,-0.05,,,,17.297452166
1715827918712478692,-0.029,,,,17.305146952
1715827918720173478,-0.029,,,,17.312841738
1715827918727868264,-0.019,,,,17.320536524
1715827918735563050,0.0,,,,17.32823131
1715827918743257836,0.007,,,,17.335926096
1715827918750952622,0.016,,,,17.343620882
1715827918758647408,0.031,,,,17.351315668
1715827918766342194,0.048,,,,17.359010454
1715827918774036980,0.06,,,,17.36670524
1715827918781731766,0.077,,,,17.374400026
1715827918789426552,0.096,,,,17.382094812
1715827918797121338,0.113,,,,17.389789598
1715827918804816124,0.128,,,,17.397484384
1715827918812510910,0.137,,,,17.40517917
1715827918820205712,0.147,,,,17.412873972
1715827918827900080,0.147,,,,17.42056834
1715827918835594448,0.142,,,,17.428262708
1715827918843288816,0.135,,,,17.435957076
1715827918850983184,0.123,,,,17.443651444
1715827918858677552,0.099,,,,17.451345812
1715827918866371920,0.065,,,,17.45904018
1715827918874066288,0.029,,,,17.466734548
1715827918881760656,0.012,,,,17.474428916
1715827918889455024,0.004,,,,17.482123284
1715827918897149392,-0.009,,,,17.489817652
1715827918904843760,-0.014,,,,17.49751202
1715827918912538128,-0.007,,,,17.505206388
1715827918920232496,-0.002,,,,17.512900756
1715827918927926864,-0.004,,,,17.520595124
1715827918935621232,-0.002,,,,17.528289492
1715827918943315600,0.009,,,,17.53598386
1715827918951009968,0.014,,,,17.543678228
1715827918958704336,0.024,,,,17.551372596
1715827918966398704,0.031,,,,17.559066964
1715827918974093072,0.038,,,,17.566761332
1715827918981787440,0.043,,,,17.5744557
1715827918989481808,0.048,,,,17.582150068
1715827918997176176,0.053,,,,17.589844436
1715827919004870544,0.055,,,,17.597538804
1715827919012564912,0.058,,,,17.605233172
1715827919020259280,0.06,,,,17.61292754
1715827919027953648,0.062,,,,17.620621908
1715827919035648016,0.07,,,,17.628316276
1715827919043342384,0.067,,,,17.636010644
1715827919051036752,0.06,,,,17.643705012
1715827919058731120,0.065,,,,17.65139938
1715827919066425488,0.07,,,,17.659093748
1715827919074119856,0.065,,,,17.666788116
1715827919081814224,0.062,,,,17.674482484
1715827919089508592,0.072,,,,17.682176852
1715827919097202960,0.074,,,,17.68987122
1715827919104897328,0.067,,,,17.697565588
1715827919112591696,0.067,,,,17.705259956
1715827919120286064,0.072,,,,17.712954324
1715827919127980432,0.077,,,,17.720648692
1715827919135674800,0.077,,,,17.72834306
1715827919143369168,0.084,,,,17.736037428
1715827919151063536,0.096,,,,17.743731796
1715827919158757904,0.094,,,,17.751426164
1715827919166452272,0.079,,,,17.759120532
1715827919174146640,0.062,,,,17.7668149
1715827919181841008,0.065,,,,17.774509268
1715827919189535376,0.077,,,,17.782203636
1715827919197229744,0.077,,,,17.789898004
1715827919204924112,0.077,,,,17.797592372
1715827919212618480,0.074,,,,17.80528674
1715827919220312848,0.041,,,,17.812981108
1715827919228007216,0.05,,,,17.820675476
1715827919235701584,0.311,,,,17.828369844
1715827919243395952,0.961,,,,17.836064212
1715827919251090320,1.665,,,,17.84375858
1715827919258784688,1.662,,,,17.851452948
1715827919266479056,0.766,,,,17.859147316
1715827919274173424,-0.079,,,,17.866841684
1715827919281867792,-0.169,,,,17.874536052
1715827919289562160,0.007,,,,17.88223042
1715827919297256528,-0.043,,,,17.889924788
1715827919304950896,-0.103,,,,17.897619156
1715827919312645264,-0.053,,,,17.905313524
1715827919320339632,-0.043,,,,17.913007892
1715827919328034000,-0.06,,,,17.92070226
1715827919335728368,-0.036,,,,17.928396628
1715827919343422736,-0.012,,,,17.936090996
1715827919351117104,-0.009,,,,17.943785364
1715827919358811472,-0.002,,,,17.951479732
1715827919366505840,0.014,,,,17.9591741
1715827919374200208,0.024,,,,17.966868468
1715827919381894588,0.031,92.0,618.0,,17.974562848
1715827919389589374,0.045,,599.0,,17.982257634
1715827919397284160,0.065,,,,17.98995242
1715827919404978946,0.079,,,,17.997647206
1715827919412673732,0.089,,,,18.005341992
1715827919420368518,0.101,,,,18.013036778
1715827919428063304,0.113,,,,18.020731564
1715827919435758090,0.125,,,,18.02842635
1715827919443452876,0.132,,,,18.036121136
1715827919451147662,0.132,,,,18.043815922
1715827919458842448,0.137,,,,18.051510708
1715827919466537234,0.142,,,,18.059205494
1715827919474232020,0.13,,,,18.06690028
1715827919481926806,0.113,,,,18.074595066
1715827919489621592,0.094,,,,18.082289852
1715827919497316378,0.055,,,,18.089984638
1715827919505011164,0.026,,,,18.097679424
1715827919512705950,0.014,,,,18.10537421
1715827919520400736,0.004,,,,18.113068996
1715827919528095522,-0.002,,,,18.120763782
1715827919535790308,0.0,,,,18.128458568
1715827919543485094,0.007,,,,18.136153354
1715827919551179880,0.009,,,,18.14384814
1715827919558874666,0.016,,,,18.151542926
1715827919566569452,0.021,,,,18.159237712
1715827919574264238,0.026,,,,18.166932498
1715827919581959024,0.033,,,,18.174627284
1715827919589653810,0.038,,,,18.18232207
1715827919597348596,0.041,,,,18.190016856
1715827919605043382,0.05,,,,18.197711642
1715827919612738168,0.05,,,,18.205406428
1715827919620432954,0.053,,,,18.213101214
1715827919628127740,0.058,,,,18.220796
1715827919635822526,0.06,,,,18.228490786
1715827919643517312,0.06,,,,18.236185572
1715827919651212098,0.06,,,,18.243880358
1715827919658906884,0.055,,,,18.251575144
1715827919666601670,0.053,,,,18.25926993
1715827919674296456,0.055,,,,18.266964716
1715827919681991242,0.058,,,,18.274659502
1715827919689686028,0.058,,,,18.282354288
1715827919697380814,0.06,,,,18.290049074
1715827919705075600,0.06,,,,18.29774386
1715827919712770386,0.055,,,,18.305438646
1715827919720465172,0.053,,,,18.313133432
1715827919728159958,0.053,,,,18.320828218
1715827919735854744,0.055,,,,18.328523004
1715827919743549530,0.053,,,,18.33621779
1715827919751244316,0.05,,,,18.343912576
1715827919758939102,0.053,,,,18.351607362
1715827919766633888,0.058,,,,18.359302148
1715827919774328674,0.055,,,,18.366996934
1715827919782023460,0.06,,,,18.37469172
1715827919789718246,0.06,,,,18.382386506
1715827919797413032,0.058,,,,18.390081292
1715827919805107818,0.058,,,,18.397776078
1715827919812802604,0.065,,,,18.405470864
1715827919820497390,0.074,,,,18.41316565
1715827919828192176,0.07,,,,18.420860436
1715827919835886962,0.058,,,,18.428555222
1715827919843581748,0.06,,,,18.436250008
1715827919851276534,0.065,,,,18.443944794
1715827919858971320,0.062,,,,18.45163958
1715827919866666106,0.058,,,,18.459334366
1715827919874360892,0.053,,,,18.467029152
1715827919882055678,0.048,,,,18.474723938
1715827919889750464,0.048,,,,18.482418724
1715827919897445250,0.053,,,,18.49011351
1715827919905140036,0.058,,,,18.497808296
1715827919912834822,0.07,,,,18.505503082
1715827919920529608,0.082,,,,18.513197868
1715827919928224394,0.074,,,,18.520892654
1715827919935919180,0.058,,,,18.52858744
1715827919943613982,0.05,,,,18.536282242
1715827919951308419,0.05,,,,18.543976679
1715827919959002856,0.053,,,,18.551671116
1715827919966697293,0.062,,,,18.559365553
1715827919974391730,0.06,,,,18.56705999
1715827919982086167,0.043,,,,18.574754427
1715827919989780604,0.024,,,,18.582448864
1715827919997475041,0.111,,,,18.590143301
1715827920005169478,0.514,,,,18.597837738
1715827920012863915,1.232,,,,18.605532175
1715827920020558352,1.708,,,,18.613226612
1715827920028252789,1.285,,,,18.620921049
1715827920035947226,0.306,,,,18.628615486
1715827920043641663,-0.186,,,,18.636309923
1715827920051336100,-0.065,,,,18.64400436
1715827920059030537,0.014,,,,18.651698797
1715827920066724974,-0.077,,,,18.659393234
1715827920074419411,-0.077,,,,18.667087671
1715827920082113848,-0.029,,,,18.674782108
1715827920089808285,-0.041,,,,18.682476545
1715827920097502722,-0.041,,,,18.690170982
1715827920105197159,-0.014,,,,18.697865419
1715827920112891596,-0.004,,,,18.705559856
1715827920120586033,0.0,,,,18.713254293
1715827920128280470,0.014,,,,18.72094873
1715827920135974907,0.024,,,,18.728643167
1715827920143669344,0.031,,,,18.736337604
1715827920151363781,0.043,,,,18.744032041
1715827920159058218,0.055,,,,18.751726478
1715827920166752655,0.065,,,,18.759420915
1715827920174447092,0.074,,,,18.767115352
1715827920182141529,0.089,,,,18.774809789
1715827920189835966,0.108,,,,18.782504226
1715827920197530403,0.12,,,,18.790198663
1715827920205224840,0.12,,,,18.7978931
1715827920212919277,0.125,,,,18.805587537
1715827920220613714,0.14,,,,18.813281974
1715827920228308151,0.14,,,,18.820976411
1715827920236002588,0.132,,,,18.828670848
1715827920243697025,0.128,,,,18.836365285
1715827920251391462,0.113,,,,18.844059722
1715827920259085899,0.091,,,,18.851754159
1715827920266780336,0.072,,,,18.859448596
1715827920274474773,0.048,,,,18.867143033
1715827920282169210,0.024,,,,18.87483747
1715827920289863647,0.007,,,,18.882531907
1715827920297558084,-0.002,,,,18.890226344
1715827920305252521,-0.002,,,,18.897920781
1715827920312946958,0.002,,,,18.905615218
1715827920320641395,0.007,,,,18.913309655
1715827920328335832,0.016,,,,18.921004092
1715827920336030269,0.021,,,,18.928698529
1715827920343724706,0.024,,,,18.936392966
1715827920351419143,0.033,,,,18.944087403
1715827920359113580,0.043,,,,18.95178184
1715827920366808017,0.041,,,,18.959476277
1715827920374502454,0.038,,,,18.967170714
1715827920382196891,0.048,,,,18.974865151
1715827920389891328,0.055,,,,18.982559588
1715827920397585765,0.045,,,,18.990254025
1715827920405280202,0.038,,,,18.997948462
1715827920412974639,0.041,,,,19.005642899
1715827920420669076,0.041,,,,19.013337336
1715827920428363513,0.045,,,,19.021031773
1715827920436057950,0.045,,,,19.02872621
1715827920443752387,0.048,,,,19.036420647
1715827920451446824,0.053,,,,19.044115084
1715827920459141261,0.043,,,,19.051809521
1715827920466835698,0.033,,,,19.059503958
1715827920474530135,0.036,,,,19.067198395
1715827920482224572,0.041,,,,19.074892832
1715827920489919009,0.033,,,,19.082587269
1715827920497613446,0.031,,,,19.090281706
1715827920505307946,0.038,93.0,604.0,,19.097976206
1715827920513002662,0.041,,,,19.105670922
1715827920520697378,0.038,,,,19.113365638
1715827920528392094,0.038,,,,19.121060354
1715827920536086810,0.043,,,,19.12875507
1715827920543781526,0.045,,,,19.136449786
1715827920551476242,0.043,,,,19.144144502
1715827920559170958,0.041,,,,19.151839218
1715827920566865674,0.045,,,,19.159533934
1715827920574560390,0.048,,,,19.16722865
1715827920582255106,0.05,,,,19.174923366
1715827920589949822,0.053,,,,19.182618082
1715827920597644538,0.06,,,,19.190312798
1715827920605339254,0.067,,,,19.198007514
1715827920613033970,0.062,,,,19.20570223
1715827920620728686,0.06,,,,19.213396946
1715827920628423402,0.067,,,,19.221091662
1715827920636118118,0.072,,,,19.228786378
1715827920643812834,0.07,,,,19.236481094
1715827920651507550,0.07,,,,19.24417581
1715827920659202266,0.07,,,,19.251870526
1715827920666896982,0.07,,,,19.259565242
1715827920674591698,0.074,,,,19.267259958
1715827920682286414,0.079,,,,19.274954674
1715827920689981130,0.084,,,,19.28264939
1715827920697675846,0.099,,,,19.290344106
1715827920705370562,0.12,,,,19.298038822
1715827920713065278,0.12,,,,19.305733538
1715827920720759994,0.094,,,,19.313428254
1715827920728454710,0.079,,,,19.32112297
1715827920736149426,0.082,,,,19.328817686
1715827920743844142,0.087,,,,19.336512402
1715827920751538858,0.091,,,,19.344207118
1715827920759233574,0.094,,,,19.351901834
1715827920766928290,0.087,,,,19.35959655
1715827920774623006,0.07,,,,19.367291266
1715827920782317722,0.12,,,,19.374985982
1715827920790012438,0.459,,,,19.382680698
1715827920797707154,1.145,,,,19.390375414
1715827920805401870,1.708,,,,19.39807013
1715827920813096586,1.452,,,,19.405764846
1715827920820791302,0.507,,,,19.413459562
1715827920828486018,-0.12,,,,19.421154278
1715827920836180734,-0.065,,,,19.428848994
1715827920843875450,0.065,,,,19.43654371
1715827920851570166,-0.014,,,,19.444238426
1715827920859264882,-0.041,,,,19.451933142
1715827920866959598,0.004,,,,19.459627858
1715827920874654314,-0.002,,,,19.467322574
1715827920882349030,-0.009,,,,19.47501729
1715827920890043746,0.014,,,,19.482712006
1715827920897738462,0.019,,,,19.490406722
1715827920905433178,0.019,,,,19.498101438
1715827920913127894,0.036,,,,19.505796154
1715827920920822610,0.05,,,,19.51349087
1715827920928517326,0.058,,,,19.521185586
1715827920936212042,0.072,,,,19.528880302
1715827920943906758,0.087,,,,19.536575018
1715827920951601474,0.087,,,,19.544269734
1715827920959296190,0.099,,,,19.55196445
1715827920966990906,0.125,,,,19.559659166
1715827920974685622,0.137,,,,19.567353882
1715827920982380338,0.147,,,,19.575048598
1715827920990075054,0.157,,,,19.582743314
1715827920997769770,0.161,,,,19.59043803
1715827921005464486,0.166,,,,19.598132746
1715827921013159202,0.166,,,,19.605827462
1715827921020853918,0.166,,,,19.613522178
1715827921028548634,0.164,,,,19.621216894
1715827921036243350,0.149,,,,19.62891161
1715827921043938066,0.128,,,,19.636606326
1715827921051632782,0.099,,,,19.644301042
1715827921059327498,0.062,,,,19.651995758
1715827921067022252,0.038,94.0,629.0,,19.659690512
1715827921074716968,0.029,,,,19.667385228
1715827921082411684,0.016,,,,19.675079944
1715827921090106400,0.004,,,,19.68277466
1715827921097801116,-0.004,,,,19.690469376
1715827921105495832,0.002,,,,19.698164092
1715827921113190548,0.012,,,,19.705858808
1715827921120885264,0.012,,,,19.713553524
1715827921128579980,0.012,,,,19.72124824
1715827921136274696,0.014,,,,19.728942956
1715827921143969412,0.016,,,,19.736637672
1715827921151664128,0.021,,,,19.744332388
1715827921159358844,0.029,,,,19.752027104
1715827921167053560,0.033,,,,19.75972182
1715827921174748276,0.038,,,,19.767416536
1715827921182442992,0.038,,,,19.775111252
1715827921190137708,0.038,,,,19.782805968
1715827921197832424,0.043,,,,19.790500684
1715827921205527140,0.05,,,,19.7981954
1715827921213221856,0.045,,,,19.805890116
1715827921220916572,0.045,,,,19.813584832
1715827921228611288,0.048,,,,19.821279548
1715827921236306004,0.038,,,,19.828974264
1715827921244000720,0.033,,,,19.83666898
1715827921251695436,0.038,,,,19.844363696
1715827921259390152,0.045,,,,19.852058412
1715827921267084868,0.043,,,,19.859753128
1715827921274779584,0.041,,,,19.867447844
1715827921282474300,0.045,,,,19.87514256
1715827921290169016,0.055,,,,19.882837276
1715827921297863732,0.053,,,,19.890531992
1715827921305558448,0.058,,,,19.898226708
1715827921313253164,0.062,,,,19.905921424
1715827921320947880,0.062,,,,19.91361614
1715827921328642596,0.062,,,,19.921310856
1715827921336337312,0.065,,,,19.929005572
1715827921344032028,0.072,,,,19.936700288
1715827921351726744,0.074,,,,19.944395004
1715827921359421460,0.074,,,,19.95208972
1715827921367116176,0.074,,,,19.959784436
1715827921374810892,0.079,,,,19.967479152
1715827921382505608,0.079,,,,19.975173868
1715827921390200324,0.074,,,,19.982868584
1715827921397895040,0.077,,,,19.9905633
1715827921405589756,0.082,,,,19.998258016
1715827921413284472,0.079,,,,20.005952732
1715827921420979188,0.074,,,,20.013647448
1715827921428673904,0.087,,,,20.021342164
1715827921436368620,0.091,,,,20.02903688
1715827921444063336,0.089,,,,20.036731596
1715827921451758052,0.089,,,,20.044426312
1715827921459452768,0.094,,,,20.052121028
1715827921467147484,0.094,,,,20.059815744
1715827921474842200,0.091,,,,20.06751046
1715827921482536916,0.091,,,,20.075205176
1715827921490231632,0.091,,,,20.082899892
1715827921497926348,0.091,,,,20.090594608
1715827921505621064,0.091,,,,20.098289324
1715827921513315780,0.094,,,,20.10598404
1715827921521010496,0.101,,,,20.113678756
1715827921528705212,0.125,,,,20.121373472
1715827921536399928,0.137,,,,20.129068188
1715827921544094644,0.12,,,,20.136762904
1715827921551789360,0.101,,,,20.14445762
1715827921559484076,0.099,,,,20.152152336
1715827921567178792,0.099,,,,20.159847052
1715827921574873508,0.099,,,,20.167541768
1715827921582568224,0.101,,,,20.175236484
1715827921590262940,0.103,,,,20.1829312
1715827921597957656,0.084,,,,20.190625916
1715827921605652372,0.07,,,,20.198320632
1715827921613347088,0.212,,,,20.206015348
1715827921621041804,0.713,,,,20.213710064
1715827921628736562,1.438,,,,20.221404822
1715827921636430999,1.745,,,,20.229099259
1715827921644125436,1.138,,,,20.236793696
1715827921651819873,0.183,,,,20.244488133
1715827921659514310,-0.166,,,,20.25218257
1715827921667208747,-0.004,,,,20.259877007
1715827921674903184,0.024,,,,20.267571444
1715827921682597621,-0.074,,,,20.275265881
1715827921690292058,-0.065,,,,20.282960318
1715827921697986495,-0.041,,,,20.290654755
1715827921705680932,-0.055,,,,20.298349192
1715827921713375369,-0.043,,,,20.306043629
1715827921721069806,-0.021,,,,20.313738066
1715827921728764243,-0.016,,,,20.321432503
1715827921736458680,-0.019,,,,20.32912694
1715827921744153117,-0.016,,,,20.336821377
1715827921751847554,-0.007,,,,20.344515814
1715827921759541991,0.007,,,,20.352210251
1715827921767236428,0.019,,,,20.359904688
1715827921774930865,0.029,,,,20.367599125
1715827921782625302,0.041,,,,20.375293562
1715827921790319739,0.06,,,,20.382987999
1715827921798014176,0.077,,,,20.390682436
1715827921805708613,0.091,,,,20.398376873
1715827921813403050,0.106,,,,20.40607131
1715827921821097487,0.123,,,,20.413765747
1715827921828791924,0.132,,,,20.421460184
1715827921836486361,0.135,,,,20.429154621
1715827921844180798,0.135,,,,20.436849058
1715827921851875235,0.14,,,,20.444543495
1715827921859569672,0.14,,,,20.452237932
1715827921867264109,0.13,,,,20.459932369
1715827921874958546,0.101,,,,20.467626806
1715827921882652983,0.062,,,,20.475321243
1715827921890347420,0.036,,,,20.48301568
1715827921898041857,0.016,,,,20.490710117
1715827921905736294,0.002,,,,20.498404554
1715827921913430731,0.0,,,,20.506098991
1715827921921125168,0.004,,,,20.513793428
1715827921928819605,0.004,,,,20.521487865
1715827921936514042,0.007,,,,20.529182302
1715827921944208479,0.016,,,,20.536876739
1715827921951902916,0.024,,,,20.544571176
1715827921959597353,0.026,,,,20.552265613
1715827921967291790,0.031,,,,20.55996005
1715827921974986227,0.036,,,,20.567654487
1715827921982680664,0.043,,,,20.575348924
1715827921990375101,0.05,,,,20.583043361
1715827921998069538,0.055,,,,20.590737798
1715827922005763975,0.055,,,,20.598432235
1715827922013458412,0.055,,,,20.606126672
1715827922021152849,0.06,,,,20.613821109
1715827922028847286,0.062,,,,20.621515546
1715827922036541723,0.062,,,,20.629209983
1715827922044236160,0.065,,,,20.63690442
1715827922051930597,0.065,,,,20.644598857
1715827922059625034,0.062,,,,20.652293294
1715827922067319471,0.065,,,,20.659987731
1715827922075013908,0.065,,,,20.667682168
1715827922082708345,0.062,,,,20.675376605
1715827922090402782,0.062,,,,20.683071042
1715827922098097219,0.062,,,,20.690765479
1715827922105791656,0.062,,,,20.698459916
1715827922113486093,0.062,,,,20.706154353
1715827922121180530,0.065,,,,20.71384879
1715827922128874967,0.06,,,,20.721543227
1715827922136569404,0.058,,,,20.729237664
1715827922144263841,0.058,,,,20.736932101
1715827922151958278,0.058,,,,20.744626538
1715827922159652715,0.06,,,,20.752320975
1715827922167347152,0.062,,,,20.760015412
1715827922175041589,0.065,,,,20.767709849
1715827922182736026,0.067,,,,20.775404286
1715827922190430524,0.067,95.0,766.0,,20.783098784
1715827922198125310,0.062,,,,20.79079357
1715827922205820096,0.06,,,,20.798488356
1715827922213514882,0.065,,,,20.806183142
1715827922221209668,0.065,,,,20.813877928
1715827922228904454,0.065,,,,20.821572714
1715827922236599240,0.067,,,,20.8292675
1715827922244294026,0.065,,,,20.836962286
1715827922251988812,0.05,,,,20.844657072
1715827922259683598,0.041,,,,20.852351858
1715827922267378384,0.043,,,,20.860046644
1715827922275073170,0.043,,,,20.86774143
1715827922282767956,0.038,,,,20.875436216
1715827922290462742,0.036,,,,20.883131002
1715827922298157528,0.031,,,,20.890825788
1715827922305852314,0.029,,,,20.898520574
1715827922313547100,0.029,,,,20.90621536
1715827922321241886,0.029,,,,20.913910146
1715827922328936672,0.026,,,,20.921604932
1715827922336631458,0.041,,,,20.929299718
1715827922344326244,0.065,,,,20.936994504
1715827922352021030,0.065,,,,20.94468929
1715827922359715816,0.045,,,,20.952384076
1715827922367410602,0.036,,,,20.960078862
1715827922375105388,0.036,,,,20.967773648
1715827922382800174,0.036,,,,20.975468434
1715827922390494960,0.041,,,,20.98316322
1715827922398189746,0.053,,,,20.990858006
1715827922405884532,0.05,,,,20.998552792
1715827922413579318,0.029,,,,21.006247578
1715827922421274104,0.065,,,,21.013942364
1715827922428968890,0.374,,,,21.02163715
1715827922436663676,1.039,,,,21.029331936
1715827922444358462,1.645,,,,21.037026722
1715827922452053248,1.5,,,,21.044721508
1715827922459748034,0.599,,,,21.052416294
1715827922467442820,-0.108,,,,21.06011108
1715827922475137606,-0.116,,,,21.067805866
1715827922482832392,0.033,,,,21.075500652
1715827922490527178,-0.029,,,,21.083195438
1715827922498221964,-0.07,,,,21.090890224
1715827922505916750,-0.021,,,,21.09858501
1715827922513611536,-0.021,,,,21.106279796
1715827922521306322,-0.033,,,,21.113974582
1715827922529001108,-0.007,,,,21.121669368
1715827922536695894,0.007,,,,21.129364154
1715827922544390680,0.012,,,,21.13705894
1715827922552085466,0.026,,,,21.144753726
1715827922559780252,0.038,,,,21.152448512
1715827922567475038,0.045,,,,21.160143298
1715827922575169824,0.058,,,,21.167838084
1715827922582864610,0.074,,,,21.17553287
1715827922590559396,0.087,,,,21.183227656
1715827922598254182,0.101,,,,21.190922442
1715827922605948968,0.116,,,,21.198617228
1715827922613643754,0.132,,,,21.206312014
1715827922621338540,0.142,,,,21.2140068
1715827922629033326,0.154,,,,21.221701586
1715827922636728112,0.169,,,,21.229396372
1715827922644422898,0.178,,,,21.237091158
1715827922652117684,0.183,,,,21.244785944
1715827922659812470,0.183,,,,21.25248073
1715827922667507256,0.181,,,,21.260175516
1715827922675202042,0.169,,,,21.267870302
1715827922682896828,0.149,,,,21.275565088
1715827922690591614,0.12,,,,21.283259874
1715827922698286400,0.087,,,,21.29095466
1715827922705981186,0.062,,,,21.298649446
1715827922713675972,0.045,,,,21.306344232
1715827922721370758,0.036,,,,21.314039018
1715827922729065544,0.031,,,,21.321733804
1715827922736760330,0.031,,,,21.32942859
1715827922744455116,0.029,,,,21.337123376
1715827922752149918,0.024,,,,21.344818178
1715827922759844704,0.024,,,,21.352512964
1715827922767539490,0.031,,,,21.36020775
1715827922775234276,0.043,,,,21.367902536
1715827922782929062,0.048,,,,21.375597322
1715827922790623848,0.05,,,,21.383292108
1715827922798318634,0.05,,,,21.390986894
1715827922806013420,0.05,,,,21.39868168
1715827922813708206,0.058,,,,21.406376466
1715827922821402992,0.065,,,,21.414071252
1715827922829097778,0.06,,,,21.421766038
1715827922836792564,0.06,,,,21.429460824
1715827922844487350,0.065,,,,21.43715561
1715827922852182136,0.067,,,,21.444850396
1715827922859876922,0.062,,,,21.452545182
1715827922867571708,0.06,,,,21.460239968
1715827922875266494,0.062,,,,21.467934754
1715827922882961280,0.067,,,,21.47562954
1715827922890656066,0.065,,,,21.483324326
1715827922898350852,0.06,,,,21.491019112
1715827922906045638,0.058,,,,21.498713898
1715827922913740424,0.06,,,,21.506408684
1715827922921435210,0.058,,,,21.51410347
1715827922929129996,0.053,,,,21.521798256
1715827922936824782,0.055,,,,21.529493042
1715827922944519568,0.06,,,,21.537187828
1715827922952214354,0.058,,,,21.544882614
1715827922959909140,0.06,,,,21.5525774
1715827922967603926,0.065,,,,21.560272186
1715827922975298712,0.067,,,,21.567966972
1715827922982993498,0.062,,,,21.575661758
1715827922990688284,0.065,,,,21.583356544
1715827922998383070,0.072,,,,21.59105133
1715827923006077856,0.079,,,,21.598746116
1715827923013772642,0.084,,,,21.606440902
1715827923021467428,0.087,,,,21.614135688
1715827923029162214,0.091,,,,21.621830474
1715827923036857000,0.094,,,,21.62952526
1715827923044551786,0.094,,,,21.637220046
1715827923052246572,0.099,,,,21.644914832
1715827923059941358,0.101,,,,21.652609618
1715827923067636144,0.103,,,,21.660304404
1715827923075330930,0.106,,,,21.66799919
1715827923083025716,0.108,,,,21.675693976
1715827923090720502,0.116,,,,21.683388762
1715827923098415288,0.116,,,,21.691083548
1715827923106110074,0.108,,,,21.698778334
1715827923113804860,0.101,,,,21.70647312
1715827923121499646,0.103,,,,21.714167906
1715827923129194432,0.108,,,,21.721862692
1715827923136889218,0.116,,,,21.729557478
1715827923144584004,0.135,,,,21.737252264
1715827923152278790,0.154,,,,21.74494705
1715827923159973576,0.147,,,,21.752641836
1715827923167668362,0.125,,,,21.760336622
1715827923175363148,0.116,,,,21.768031408
1715827923183057934,0.123,,,,21.775726194
1715827923190752720,0.125,,,,21.78342098
1715827923198447506,0.128,,,,21.791115766
1715827923206142292,0.13,,,,21.798810552
1715827923213837078,0.125,,,,21.806505338
1715827923221531864,0.106,,,,21.814200124
1715827923229226650,0.186,,,,21.82189491
1715827923236921436,0.577,,,,21.829589696
1715827923244616222,1.273,,,,21.837284482
1715827923252311008,1.737,,,,21.844979268
1715827923260005794,1.348,,,,21.852674054
1715827923267700580,0.396,,,,21.86036884
1715827923275395366,-0.12,,,,21.868063626
1715827923283090152,-0.007,,,,21.875758412
1715827923290784938,0.082,,,,21.883453198
1715827923298479724,-0.009,,,,21.891147984
1715827923306174510,-0.014,,,,21.89884277
1715827923313869312,0.029,87.0,786.0,,21.906537572
1715827923321563749,0.014,,828.0,,21.914232009
1715827923329258186,0.014,,,,21.921926446
1715827923336952623,0.038,,,,21.929620883
1715827923344647060,0.043,,,,21.93731532
1715827923352341497,0.043,,,,21.945009757
1715827923360035934,0.05,,,,21.952704194
1715827923367730371,0.055,,,,21.960398631
1715827923375424808,0.058,,,,21.968093068
1715827923383119245,0.067,,,,21.975787505
1715827923390813682,0.084,,,,21.983481942
1715827923398508119,0.096,,,,21.991176379
1715827923406202556,0.106,,,,21.998870816
1715827923413896993,0.123,,,,22.006565253
1715827923421591430,0.14,,,,22.01425969
1715827923429285867,0.157,,,,22.021954127
1715827923436980304,0.171,,,,22.029648564
1715827923444674741,0.183,,,,22.037343001
1715827923452369178,0.193,,,,22.045037438
1715827923460063615,0.198,,,,22.052731875
1715827923467758052,0.195,,,,22.060426312
1715827923475452489,0.193,,,,22.068120749
1715827923483146926,0.178,,,,22.075815186
1715827923490841363,0.152,,,,22.083509623
1715827923498535800,0.123,,,,22.09120406
1715827923506230237,0.094,,,,22.098898497
1715827923513924674,0.067,,,,22.106592934
1715827923521619111,0.053,,,,22.114287371
1715827923529313548,0.043,,,,22.121981808
1715827923537007985,0.041,,,,22.129676245
1715827923544702422,0.041,,,,22.137370682
1715827923552396859,0.045,,,,22.145065119
1715827923560091296,0.048,,,,22.152759556
1715827923567785733,0.05,,,,22.160453993
1715827923575480170,0.053,,,,22.16814843
1715827923583174607,0.058,,,,22.175842867
1715827923590869044,0.058,,,,22.183537304
1715827923598563481,0.048,,,,22.191231741
1715827923606257918,0.048,,,,22.198926178
1715827923613952355,0.055,,,,22.206620615
1715827923621646792,0.048,,,,22.214315052
1715827923629341229,0.048,,,,22.222009489
1715827923637035666,0.06,,,,22.229703926
