time,ecg,hr,rr,marker,norm_time
1715943391547342786,0.155,65.0,956.0,,0.0
1715943391555037363,0.155,,,,0.007694577
1715943391562731940,0.152,,,,0.015389154
1715943391570426517,0.155,,,,0.023083731
1715943391578121094,0.155,,,,0.030778308
1715943391585815671,0.148,,,,0.038472885
1715943391593510248,0.15,,,,0.046167462
1715943391601204825,0.152,,,,0.053862039
1715943391608899402,0.148,,,,0.061556616
1715943391616593979,0.14,,,,0.069251193
1715943391624288556,0.138,,,,0.07694577
1715943391631983133,0.138,,,,0.084640347
1715943391639677710,0.133,,,,0.092334924
1715943391647372287,0.126,,,,0.100029501
1715943391655066864,0.126,,,,0.107724078
1715943391662761441,0.128,,,,0.115418655
1715943391670456018,0.124,,,,0.123113232
1715943391678150595,0.117,,,,0.130807809
1715943391685845172,0.119,,,,0.138502386
1715943391693539749,0.124,,,,0.146196963
1715943391701234326,0.131,,,,0.15389154
1715943391708928903,0.136,,,,0.161586117
1715943391716623480,0.128,,,,0.169280694
1715943391724318057,0.114,,,,0.176975271
1715943391732012634,0.095,,,,0.184669848
1715943391739707211,0.078,,,,0.192364425
1715943391747401788,0.071,,,,0.200059002
1715943391755096365,0.081,,,,0.207753579
1715943391762790942,0.107,,,,0.215448156
1715943391770485519,0.133,,,,0.223142733
1715943391778180096,0.136,,,,0.23083731
1715943391785874673,0.121,,,,0.238531887
1715943391793569250,0.119,,,,0.246226464
1715943391801263827,0.131,,,,0.253921041
1715943391808958404,0.133,,,,0.261615618
1715943391816652981,0.128,,,,0.269310195
1715943391824347558,0.126,,,,0.277004772
1715943391832042135,0.124,,,,0.284699349
1715943391839736712,0.124,,,,0.292393926
1715943391847431289,0.131,,,,0.300088503
1715943391855125866,0.131,,,,0.30778308
1715943391862820443,0.097,,,,0.315477657
1715943391870515020,-0.052,,,,0.323172234
1715943391878209597,-0.413,,,,0.330866811
1715943391885904174,-0.833,,,,0.338561388
1715943391893598751,-0.976,,,,0.346255965
1715943391901293328,-0.5730000000000001,,,,0.353950542
1715943391908987905,0.346,,,,0.361645119
1715943391916682482,0.85,,,,0.369339696
1715943391924377059,0.403,,,,0.377034273
1715943391932071636,0.04,,,,0.38472885
1715943391939766213,0.188,,,,0.392423427
1715943391947460790,0.207,,,,0.400118004
1715943391955155367,0.097,,,,0.407812581
1715943391962849944,0.124,,,,0.415507158
1715943391970544521,0.143,,,,0.423201735
1715943391978239098,0.093,,,,0.430896312
1715943391985933675,0.083,,,,0.438590889
1715943391993628252,0.1,,,,0.446285466
1715943392001322829,0.085,,,,0.453980043
1715943392009017406,0.064,,,,0.46167462
1715943392016711983,0.062,,,,0.469369197
1715943392024406560,0.054,,,,0.477063774
1715943392032101137,0.033,,,,0.484758351
1715943392039795714,0.009,,,,0.492452928
1715943392047490291,-0.011,,,,0.500147505
1715943392055184868,-0.023,,,,0.507842082
1715943392062879445,-0.045,,,,0.515536659
1715943392070574022,-0.083,,,,0.523231236
1715943392078268599,-0.114,,,,0.530925813
1715943392085963176,-0.14,,,,0.53862039
1715943392093657753,-0.179,,,,0.546314967
1715943392101352330,-0.222,,,,0.554009544
1715943392109046922,-0.257,,,,0.561704136
1715943392116741499,-0.293,,,,0.569398713
1715943392124436076,-0.317,,,,0.57709329
1715943392132130653,-0.312,,,,0.584787867
1715943392139825230,-0.298,,,,0.592482444
1715943392147519807,-0.286,,,,0.600177021
1715943392155214384,-0.25,,,,0.607871598
1715943392162908961,-0.181,,,,0.615566175
1715943392170603538,-0.095,,,,0.623260752
1715943392178298115,-0.011,,,,0.630955329
1715943392185992692,0.064,,,,0.638649906
1715943392193687269,0.136,,,,0.646344483
1715943392201381846,0.195,,,,0.65403906
1715943392209076423,0.234,,,,0.661733637
1715943392216771000,0.248,,,,0.669428214
1715943392224465577,0.26,,,,0.677122791
1715943392232160154,0.267,,,,0.684817368
1715943392239854731,0.265,,,,0.692511945
1715943392247549308,0.26,,,,0.700206522
1715943392255243885,0.257,,,,0.707901099
1715943392262938462,0.253,,,,0.715595676
1715943392270633039,0.243,,,,0.723290253
1715943392278327616,0.231,,,,0.73098483
1715943392286022193,0.224,,,,0.738679407
1715943392293716770,0.222,,,,0.746373984
1715943392301411347,0.217,,,,0.754068561
1715943392309105924,0.212,,,,0.761763138
1715943392316800501,0.207,,,,0.769457715
1715943392324495078,0.214,,,,0.777152292
1715943392332189655,0.212,,,,0.784846869
1715943392339884232,0.2,,,,0.792541446
1715943392347578809,0.198,,,,0.800236023
1715943392355273386,0.191,,,,0.8079306
1715943392362967963,0.181,,,,0.815625177
1715943392370662540,0.191,,,,0.823319754
1715943392378357117,0.198,,,,0.831014331
1715943392386051694,0.186,,,,0.838708908
1715943392393746271,0.186,,,,0.846403485
1715943392401440848,0.193,,,,0.854098062
1715943392409135425,0.2,,,,0.861792639
1715943392416830002,0.2,,,,0.869487216
1715943392424524579,0.191,,,,0.877181793
1715943392432219156,0.181,,,,0.88487637
1715943392439913733,0.188,,,,0.892570947
1715943392447608310,0.193,,,,0.900265524
1715943392455302887,0.186,,,,0.907960101
1715943392462997464,0.179,,,,0.915654678
1715943392470692041,0.181,,,,0.923349255
1715943392478386618,0.183,,,,0.931043832
1715943392486081195,0.183,,,,0.938738409
1715943392493775772,0.181,,,,0.946432986
1715943392501470349,0.176,,,,0.954127563
1715943392509164926,0.174,,,,0.96182214
1715943392516859503,0.176,,,,0.969516717
1715943392524554080,0.174,,,,0.977211294
1715943392532248657,0.171,,,,0.984905871
1715943392539943234,0.167,,,,0.992600448
1715943392547637811,0.157,,,,1.000295025
1715943392555332388,0.152,,,,1.007989602
1715943392563026965,0.152,,,,1.015684179
1715943392570721542,0.148,,,,1.023378756
1715943392578416119,0.143,,,,1.031073333
1715943392586110696,0.145,,,,1.03876791
1715943392593805273,0.155,,,,1.046462487
1715943392601499850,0.157,,,,1.054157064
1715943392609194427,0.145,,,,1.061851641
1715943392616889004,0.143,,,,1.069546218
1715943392624583581,0.152,,,,1.077240795
1715943392632278158,0.15,,,,1.084935372
1715943392639972735,0.136,,,,1.092629949
1715943392647667312,0.126,,,,1.100324526
1715943392655361889,0.109,,,,1.108019103
1715943392663056466,0.093,,,,1.11571368
1715943392670751056,0.088,65.0,979.0,,1.12340827
1715943392678445842,0.107,,,,1.131103056
1715943392686140628,0.136,,,,1.138797842
1715943392693835414,0.145,,,,1.146492628
1715943392701530200,0.14,,,,1.154187414
1715943392709224986,0.136,,,,1.1618822
1715943392716919772,0.138,,,,1.169576986
1715943392724614558,0.143,,,,1.177271772
1715943392732309344,0.143,,,,1.184966558
1715943392740004130,0.14,,,,1.192661344
1715943392747698916,0.138,,,,1.20035613
1715943392755393702,0.133,,,,1.208050916
1715943392763088488,0.119,,,,1.215745702
1715943392770783274,0.119,,,,1.223440488
1715943392778478060,0.121,,,,1.231135274
1715943392786172846,0.047,,,,1.23883006
1715943392793867632,-0.207,,,,1.246524846
1715943392801562418,-0.587,,,,1.254219632
1715943392809257204,-0.792,,,,1.261914418
1715943392816951990,-0.601,,,,1.269609204
1715943392824646776,0.062,,,,1.27730399
1715943392832341562,0.776,,,,1.284998776
1715943392840036348,0.675,,,,1.292693562
1715943392847731134,0.143,,,,1.300388348
1715943392855425920,0.088,,,,1.308083134
1715943392863120706,0.205,,,,1.31577792
1715943392870815492,0.126,,,,1.323472706
1715943392878510278,0.081,,,,1.331167492
1715943392886205064,0.112,,,,1.338862278
1715943392893899850,0.095,,,,1.346557064
1715943392901594636,0.064,,,,1.35425185
1715943392909289422,0.064,,,,1.361946636
1715943392916984208,0.069,,,,1.369641422
1715943392924678994,0.062,,,,1.377336208
1715943392932373780,0.045,,,,1.385030994
1715943392940068566,0.028,,,,1.39272578
1715943392947763352,0.019,,,,1.400420566
1715943392955458138,0.004,,,,1.408115352
1715943392963152924,-0.011,,,,1.415810138
1715943392970847710,-0.033,,,,1.423504924
1715943392978542496,-0.054,,,,1.43119971
1715943392986237282,-0.064,,,,1.438894496
1715943392993932068,-0.088,,,,1.446589282
1715943393001626854,-0.128,,,,1.454284068
1715943393009321640,-0.16,,,,1.461978854
1715943393017016426,-0.193,,,,1.46967364
1715943393024711212,-0.238,,,,1.477368426
1715943393032405998,-0.274,,,,1.485063212
1715943393040100784,-0.293,,,,1.492757998
1715943393047795570,-0.305,,,,1.500452784
1715943393055490356,-0.308,,,,1.50814757
1715943393063185142,-0.286,,,,1.515842356
1715943393070879928,-0.243,,,,1.523537142
1715943393078574714,-0.198,,,,1.531231928
1715943393086269500,-0.131,,,,1.538926714
1715943393093964286,-0.035,,,,1.5466215
1715943393101659072,0.052,,,,1.554316286
1715943393109353858,0.119,,,,1.562011072
1715943393117048644,0.176,,,,1.569705858
1715943393124743430,0.224,,,,1.577400644
1715943393132438216,0.255,,,,1.58509543
1715943393140133002,0.269,,,,1.592790216
1715943393147827788,0.274,,,,1.600485002
1715943393155522574,0.269,,,,1.608179788
1715943393163217360,0.262,,,,1.615874574
1715943393170912146,0.26,,,,1.62356936
1715943393178606932,0.257,,,,1.631264146
1715943393186301718,0.246,,,,1.638958932
1715943393193996504,0.231,,,,1.646653718
1715943393201691290,0.231,,,,1.654348504
1715943393209386076,0.229,,,,1.66204329
1715943393217080862,0.214,,,,1.669738076
1715943393224775648,0.21,,,,1.677432862
1715943393232470450,0.207,64.0,979.0,,1.685127664
1715943393240164818,0.2,,,,1.692822032
1715943393247859186,0.2,,,,1.7005164
1715943393255553554,0.203,,,,1.708210768
1715943393263247922,0.188,,,,1.715905136
1715943393270942290,0.171,,,,1.723599504
1715943393278636658,0.181,,,,1.731293872
1715943393286331026,0.188,,,,1.73898824
1715943393294025394,0.179,,,,1.746682608
1715943393301719762,0.171,,,,1.754376976
1715943393309414130,0.181,,,,1.762071344
1715943393317108498,0.188,,,,1.769765712
1715943393324802866,0.186,,,,1.77746008
1715943393332497234,0.186,,,,1.785154448
1715943393340191602,0.186,,,,1.792848816
1715943393347885970,0.179,,,,1.800543184
1715943393355580338,0.167,,,,1.808237552
1715943393363274706,0.169,,,,1.81593192
1715943393370969074,0.179,,,,1.823626288
1715943393378663442,0.179,,,,1.831320656
1715943393386357810,0.171,,,,1.839015024
1715943393394052178,0.171,,,,1.846709392
1715943393401746546,0.174,,,,1.85440376
1715943393409440914,0.171,,,,1.862098128
1715943393417135282,0.167,,,,1.869792496
1715943393424829650,0.167,,,,1.877486864
1715943393432524018,0.174,,,,1.885181232
1715943393440218386,0.167,,,,1.8928756
1715943393447912754,0.162,,,,1.900569968
1715943393455607122,0.167,,,,1.908264336
1715943393463301490,0.169,,,,1.915958704
1715943393470995858,0.164,,,,1.923653072
1715943393478690226,0.162,,,,1.93134744
1715943393486384594,0.157,,,,1.939041808
1715943393494078962,0.138,,,,1.946736176
1715943393501773330,0.117,,,,1.954430544
1715943393509467698,0.105,,,,1.962124912
1715943393517162066,0.109,,,,1.96981928
1715943393524856434,0.124,,,,1.977513648
1715943393532550802,0.136,,,,1.985208016
1715943393540245170,0.148,,,,1.992902384
1715943393547939538,0.16,,,,2.000596752
1715943393555633906,0.155,,,,2.00829112
1715943393563328274,0.143,,,,2.015985488
1715943393571022642,0.148,,,,2.023679856
1715943393578717010,0.15,,,,2.031374224
1715943393586411378,0.138,,,,2.039068592
1715943393594105746,0.136,,,,2.04676296
1715943393601800114,0.143,,,,2.054457328
1715943393609494482,0.143,,,,2.062151696
1715943393617188850,0.131,,,,2.069846064
1715943393624883218,0.124,,,,2.077540432
1715943393632577586,0.1,,,,2.0852348
1715943393640271954,-0.026,,,,2.092929168
1715943393647966322,-0.322,,,,2.100623536
1715943393655660690,-0.625,,,,2.108317904
1715943393663355058,-0.649,,,,2.116012272
1715943393671049426,-0.253,,,,2.12370664
1715943393678743794,0.465,,,,2.131401008
1715943393686438162,0.843,,,,2.139095376
1715943393694132530,0.437,,,,2.146789744
1715943393701826898,0.066,,,,2.154484112
1715943393709521266,0.155,,,,2.16217848
1715943393717215634,0.181,,,,2.169872848
1715943393724910002,0.095,,,,2.177567216
1715943393732604370,0.105,,,,2.185261584
1715943393740298738,0.121,,,,2.192955952
1715943393747993106,0.088,,,,2.20065032
1715943393755687474,0.083,,,,2.208344688
1715943393763381842,0.09,,,,2.216039056
1715943393771076210,0.066,,,,2.223733424
1715943393778770578,0.052,,,,2.231427792
1715943393786464946,0.054,,,,2.23912216
1715943393794159326,0.042,,,,2.24681654
1715943393801854112,0.028,,,,2.254511326
1715943393809548898,0.016,,,,2.262206112
1715943393817243684,-0.004,,,,2.269900898
1715943393824938470,-0.028,,,,2.277595684
1715943393832633256,-0.04,,,,2.28529047
1715943393840328042,-0.064,,,,2.292985256
1715943393848022828,-0.105,,,,2.300680042
1715943393855717614,-0.14,,,,2.308374828
1715943393863412400,-0.174,,,,2.316069614
1715943393871107186,-0.207,,,,2.3237644
1715943393878801972,-0.236,,,,2.331459186
1715943393886496758,-0.267,,,,2.339153972
1715943393894191544,-0.289,,,,2.346848758
1715943393901886330,-0.284,,,,2.354543544
1715943393909581116,-0.272,,,,2.36223833
1715943393917275902,-0.25,,,,2.369933116
1715943393924970688,-0.195,,,,2.377627902
1715943393932665474,-0.119,,,,2.385322688
1715943393940360260,-0.038,,,,2.393017474
1715943393948055046,0.047,,,,2.40071226
1715943393955749832,0.131,,,,2.408407046
1715943393963444618,0.188,,,,2.416101832
1715943393971139404,0.236,,,,2.423796618
1715943393978834190,0.279,,,,2.431491404
1715943393986528976,0.293,,,,2.43918619
1715943393994223762,0.286,,,,2.446880976
1715943394001918548,0.286,,,,2.454575762
1715943394009613334,0.284,,,,2.462270548
1715943394017308120,0.269,,,,2.469965334
1715943394025002906,0.255,,,,2.47766012
1715943394032697692,0.248,,,,2.485354906
1715943394040392478,0.238,,,,2.493049692
1715943394048087264,0.231,,,,2.500744478
1715943394055782050,0.224,,,,2.508439264
1715943394063476836,0.207,,,,2.51613405
1715943394071171622,0.186,,,,2.523828836
1715943394078866408,0.176,,,,2.531523622
1715943394086561194,0.174,,,,2.539218408
1715943394094255980,0.164,,,,2.546913194
1715943394101950766,0.157,,,,2.55460798
1715943394109645552,0.162,,,,2.562302766
1715943394117340338,0.162,,,,2.569997552
1715943394125035124,0.155,,,,2.577692338
1715943394132729910,0.155,,,,2.585387124
1715943394140424696,0.152,,,,2.59308191
1715943394148119482,0.155,,,,2.600776696
1715943394155814268,0.167,,,,2.608471482
1715943394163509054,0.169,,,,2.616166268
1715943394171203840,0.16,,,,2.623861054
1715943394178898626,0.16,,,,2.63155584
1715943394186593412,0.167,,,,2.639250626
1715943394194288198,0.16,,,,2.646945412
1715943394201982984,0.155,,,,2.654640198
1715943394209677770,0.167,,,,2.662334984
1715943394217372556,0.167,,,,2.67002977
1715943394225067342,0.155,,,,2.677724556
1715943394232762128,0.157,,,,2.685419342
1715943394240456914,0.164,,,,2.693114128
1715943394248151700,0.162,,,,2.700808914
1715943394255846486,0.164,,,,2.7085037
1715943394263541272,0.164,,,,2.716198486
1715943394271236058,0.152,,,,2.723893272
1715943394278930844,0.131,,,,2.731588058
1715943394286625630,0.119,,,,2.739282844
1715943394294320416,0.114,,,,2.74697763
1715943394302015202,0.109,,,,2.754672416
1715943394309709988,0.112,,,,2.762367202
1715943394317404774,0.124,,,,2.770061988
1715943394325099560,0.136,,,,2.777756774
1715943394332794346,0.148,,,,2.78545156
1715943394340489132,0.152,,,,2.793146346
1715943394348183918,0.15,,,,2.800841132
1715943394355878722,0.152,64.0,971.0,,2.808535936
1715943394363573508,0.15,,918.0,,2.816230722
1715943394371268294,0.145,,,,2.823925508
1715943394378963080,0.15,,,,2.831620294
1715943394386657866,0.16,,,,2.83931508
1715943394394352652,0.155,,,,2.847009866
1715943394402047438,0.145,,,,2.854704652
1715943394409742224,0.14,,,,2.862399438
1715943394417437010,0.136,,,,2.870094224
1715943394425131796,0.105,,,,2.87778901
1715943394432826582,-0.028,,,,2.885483796
1715943394440521368,-0.32,,,,2.893178582
1715943394448216154,-0.597,,,,2.900873368
1715943394455910940,-0.604,,,,2.908568154
1715943394463605726,-0.246,,,,2.91626294
1715943394471300512,0.439,,,,2.923957726
1715943394478995298,0.795,,,,2.931652512
1715943394486690084,0.377,,,,2.939347298
1715943394494384870,0.033,,,,2.947042084
1715943394502079656,0.155,,,,2.95473687
1715943394509774442,0.181,,,,2.962431656
1715943394517469228,0.083,,,,2.970126442
1715943394525164014,0.102,,,,2.977821228
1715943394532858800,0.124,,,,2.985516014
1715943394540553586,0.085,,,,2.9932108
1715943394548248372,0.078,,,,3.000905586
1715943394555943158,0.083,,,,3.008600372
1715943394563637944,0.066,,,,3.016295158
1715943394571332730,0.05,,,,3.023989944
1715943394579027516,0.031,,,,3.03168473
1715943394586722302,0.014,,,,3.039379516
1715943394594417088,0.004,,,,3.047074302
1715943394602111874,-0.007,,,,3.054769088
1715943394609806660,-0.019,,,,3.062463874
1715943394617501446,-0.033,,,,3.07015866
1715943394625196232,-0.052,,,,3.077853446
1715943394632891018,-0.071,,,,3.085548232
1715943394640585804,-0.095,,,,3.093243018
1715943394648280590,-0.131,,,,3.100937804
1715943394655975376,-0.164,,,,3.10863259
1715943394663670162,-0.188,,,,3.116327376
1715943394671364948,-0.212,,,,3.124022162
1715943394679059734,-0.231,,,,3.131716948
1715943394686754520,-0.241,,,,3.139411734
1715943394694449306,-0.238,,,,3.14710652
1715943394702144092,-0.222,,,,3.154801306
1715943394709838878,-0.191,,,,3.162496092
1715943394717533664,-0.136,,,,3.170190878
1715943394725228450,-0.064,,,,3.177885664
1715943394732923236,0.016,,,,3.18558045
1715943394740618022,0.09,,,,3.193275236
1715943394748312808,0.162,,,,3.200970022
1715943394756007594,0.222,,,,3.208664808
1715943394763702380,0.26,,,,3.216359594
1715943394771397166,0.281,,,,3.22405438
1715943394779091952,0.293,,,,3.231749166
1715943394786786738,0.293,,,,3.239443952
1715943394794481524,0.286,,,,3.247138738
1715943394802176310,0.281,,,,3.254833524
1715943394809871096,0.279,,,,3.26252831
1715943394817565882,0.269,,,,3.270223096
1715943394825260668,0.255,,,,3.277917882
1715943394832955454,0.246,,,,3.285612668
1715943394840650240,0.241,,,,3.293307454
1715943394848345026,0.236,,,,3.30100224
1715943394856039812,0.222,,,,3.308697026
1715943394863734598,0.212,,,,3.316391812
1715943394871429384,0.21,,,,3.324086598
1715943394879124170,0.203,,,,3.331781384
1715943394886818956,0.193,,,,3.33947617
1715943394894513742,0.193,,,,3.347170956
1715943394902208528,0.198,,,,3.354865742
1715943394909903314,0.191,,,,3.362560528
1715943394917598116,0.183,,,,3.37025533
1715943394925292902,0.186,,,,3.377950116
1715943394932987688,0.188,,,,3.385644902
1715943394940682474,0.188,,,,3.393339688
1715943394948377260,0.186,,,,3.401034474
1715943394956072046,0.186,,,,3.40872926
1715943394963766832,0.183,,,,3.416424046
1715943394971461618,0.176,,,,3.424118832
1715943394979156404,0.164,,,,3.431813618
1715943394986851190,0.16,,,,3.439508404
1715943394994545976,0.157,,,,3.44720319
1715943395002240762,0.157,,,,3.454897976
1715943395009935548,0.152,,,,3.462592762
1715943395017630334,0.148,,,,3.470287548
1715943395025325120,0.145,,,,3.477982334
1715943395033019906,0.143,,,,3.48567712
1715943395040714692,0.143,,,,3.493371906
1715943395048409478,0.143,,,,3.501066692
1715943395056104264,0.143,,,,3.508761478
1715943395063799050,0.14,,,,3.516456264
1715943395071493836,0.133,,,,3.52415105
1715943395079188622,0.114,,,,3.531845836
1715943395086883408,0.097,,,,3.539540622
1715943395094578194,0.095,,,,3.547235408
1715943395102272980,0.083,,,,3.554930194
1715943395109967766,0.071,,,,3.56262498
1715943395117662552,0.081,,,,3.570319766
1715943395125357338,0.097,,,,3.578014552
1715943395133052124,0.117,,,,3.585709338
1715943395140746910,0.133,,,,3.593404124
1715943395148441696,0.138,,,,3.60109891
1715943395156136482,0.126,,,,3.608793696
1715943395163831268,0.128,,,,3.616488482
1715943395171526054,0.138,,,,3.624183268
1715943395179220840,0.133,,,,3.631878054
1715943395186915626,0.131,,,,3.63957284
1715943395194610412,0.136,,,,3.647267626
1715943395202305198,0.136,,,,3.654962412
1715943395209999984,0.133,,,,3.662657198
1715943395217694770,0.131,,,,3.670351984
1715943395225389556,0.124,,,,3.67804677
1715943395233084342,0.09,,,,3.685741556
1715943395240779128,-0.042,,,,3.693436342
1715943395248473914,-0.355,,,,3.701131128
1715943395256168700,-0.637,,,,3.708825914
1715943395263863486,-0.632,,,,3.7165207
1715943395271558272,-0.198,,,,3.724215486
1715943395279253058,0.535,,,,3.731910272
1715943395286947844,0.7020000000000001,,,,3.739605058
1715943395294642630,0.203,,,,3.747299844
1715943395302337416,0.033,,,,3.75499463
1715943395310032202,0.2,,,,3.762689416
1715943395317726988,0.16,,,,3.770384202
1715943395325421774,0.076,,,,3.778078988
1715943395333116560,0.117,,,,3.785773774
1715943395340811346,0.114,,,,3.79346856
1715943395348506132,0.078,,,,3.801163346
1715943395356200918,0.085,,,,3.808858132
1715943395363895704,0.088,,,,3.816552918
1715943395371590490,0.069,,,,3.824247704
1715943395379285276,0.059,,,,3.83194249
1715943395386980062,0.057,,,,3.839637276
1715943395394674848,0.042,,,,3.847332062
1715943395402369634,0.031,,,,3.855026848
1715943395410064420,0.023,,,,3.862721634
1715943395417759206,0.009,,,,3.87041642
1715943395425453992,-0.011,,,,3.878111206
1715943395433148778,-0.031,,,,3.885805992
1715943395440843564,-0.047,,,,3.893500778
1715943395448538350,-0.071,,,,3.901195564
1715943395456233136,-0.102,,,,3.90889035
1715943395463927922,-0.136,,,,3.916585136
1715943395471622708,-0.167,,,,3.924279922
1715943395479317510,-0.193,64.0,851.0,,3.931974724
1715943395487011878,-0.21,,,,3.939669092
1715943395494706246,-0.217,,,,3.94736346
1715943395502400614,-0.214,,,,3.955057828
1715943395510094982,-0.2,,,,3.962752196
1715943395517789350,-0.171,,,,3.970446564
1715943395525483718,-0.128,,,,3.978140932
1715943395533178086,-0.059,,,,3.9858353
1715943395540872454,0.016,,,,3.993529668
1715943395548566822,0.085,,,,4.001224036
1715943395556261190,0.145,,,,4.008918404
1715943395563955558,0.198,,,,4.016612772
1715943395571649926,0.229,,,,4.02430714
1715943395579344294,0.241,,,,4.032001508
1715943395587038662,0.246,,,,4.039695876
1715943395594733030,0.25,,,,4.047390244
1715943395602427398,0.253,,,,4.055084612
1715943395610121766,0.243,,,,4.06277898
1715943395617816134,0.231,,,,4.070473348
1715943395625510502,0.224,,,,4.078167716
1715943395633204870,0.222,,,,4.085862084
1715943395640899238,0.217,,,,4.093556452
1715943395648593606,0.214,,,,4.10125082
1715943395656287974,0.212,,,,4.108945188
1715943395663982342,0.203,,,,4.116639556
1715943395671676710,0.2,,,,4.124333924
1715943395679371078,0.203,,,,4.132028292
1715943395687065446,0.203,,,,4.13972266
1715943395694759814,0.198,,,,4.147417028
1715943395702454182,0.195,,,,4.155111396
1715943395710148550,0.195,,,,4.162805764
1715943395717842918,0.195,,,,4.170500132
1715943395725537286,0.195,,,,4.1781945
1715943395733231654,0.195,,,,4.185888868
1715943395740926022,0.195,,,,4.193583236
1715943395748620390,0.195,,,,4.201277604
1715943395756314758,0.191,,,,4.208971972
1715943395764009126,0.191,,,,4.21666634
1715943395771703494,0.191,,,,4.224360708
1715943395779397862,0.191,,,,4.232055076
1715943395787092230,0.188,,,,4.239749444
1715943395794786598,0.188,,,,4.247443812
1715943395802480966,0.186,,,,4.25513818
1715943395810175334,0.176,,,,4.262832548
1715943395817869702,0.169,,,,4.270526916
1715943395825564070,0.169,,,,4.278221284
1715943395833258438,0.167,,,,4.285915652
1715943395840952806,0.162,,,,4.29361002
1715943395848647174,0.157,,,,4.301304388
1715943395856341542,0.155,,,,4.308998756
1715943395864035910,0.157,,,,4.316693124
1715943395871730278,0.157,,,,4.324387492
1715943395879424646,0.152,,,,4.33208186
1715943395887119014,0.15,,,,4.339776228
1715943395894813382,0.15,,,,4.347470596
1715943395902507750,0.148,,,,4.355164964
1715943395910202118,0.145,,,,4.362859332
1715943395917896486,0.148,,,,4.3705537
1715943395925590854,0.148,,,,4.378248068
1715943395933285222,0.148,,,,4.385942436
1715943395940979590,0.143,,,,4.393636804
1715943395948673958,0.133,,,,4.401331172
1715943395956368326,0.114,,,,4.40902554
1715943395964062694,0.097,,,,4.416719908
1715943395971757062,0.088,,,,4.424414276
1715943395979451430,0.074,,,,4.432108644
1715943395987145798,0.074,,,,4.439803012
1715943395994840166,0.085,,,,4.44749738
1715943396002534534,0.102,,,,4.455191748
1715943396010228902,0.121,,,,4.462886116
1715943396017923270,0.128,,,,4.470580484
1715943396025617638,0.121,,,,4.478274852
1715943396033312006,0.117,,,,4.48596922
1715943396041006386,0.124,,,,4.4936636
1715943396048701172,0.126,,,,4.501358386
1715943396056395958,0.121,,,,4.509053172
1715943396064090744,0.117,,,,4.516747958
1715943396071785530,0.114,,,,4.524442744
1715943396079480316,0.109,,,,4.53213753
1715943396087175102,0.097,,,,4.539832316
1715943396094869888,0.093,,,,4.547527102
1715943396102564674,0.076,,,,4.555221888
1715943396110259460,-0.05,,,,4.562916674
1715943396117954246,-0.406,,,,4.57061146
1715943396125649032,-0.8260000000000001,,,,4.578306246
1715943396133343818,-0.986,,,,4.586001032
1715943396141038604,-0.618,,,,4.593695818
1715943396148733390,0.277,,,,4.601390604
1715943396156428176,0.752,,,,4.60908539
1715943396164122962,0.305,,,,4.616780176
1715943396171817748,0.0,,,,4.624474962
1715943396179512534,0.179,,,,4.632169748
1715943396187207320,0.195,,,,4.639864534
1715943396194902106,0.088,,,,4.64755932
1715943396202596892,0.119,,,,4.655254106
1715943396210291678,0.136,,,,4.662948892
1715943396217986464,0.09,,,,4.670643678
1715943396225681250,0.088,,,,4.678338464
1715943396233376036,0.1,,,,4.68603325
1715943396241070822,0.078,,,,4.693728036
1715943396248765608,0.069,,,,4.701422822
1715943396256460394,0.069,,,,4.709117608
1715943396264155180,0.052,,,,4.716812394
1715943396271849966,0.038,,,,4.72450718
1715943396279544752,0.031,,,,4.732201966
1715943396287239538,0.021,,,,4.739896752
1715943396294934324,0.004,,,,4.747591538
1715943396302629110,-0.019,,,,4.755286324
1715943396310323896,-0.042,,,,4.76298111
1715943396318018682,-0.066,,,,4.770675896
1715943396325713468,-0.093,,,,4.778370682
1715943396333408254,-0.121,,,,4.786065468
1715943396341103040,-0.15,,,,4.793760254
1715943396348797826,-0.176,,,,4.80145504
1715943396356492612,-0.203,,,,4.809149826
1715943396364187398,-0.21,,,,4.816844612
1715943396371882184,-0.21,,,,4.824539398
1715943396379576970,-0.203,,,,4.832234184
1715943396387271756,-0.181,,,,4.83992897
1715943396394966542,-0.145,,,,4.847623756
1715943396402661328,-0.093,,,,4.855318542
1715943396410356114,-0.021,,,,4.863013328
1715943396418050900,0.054,,,,4.870708114
1715943396425745686,0.126,,,,4.8784029
1715943396433440472,0.188,,,,4.886097686
1715943396441135258,0.231,,,,4.893792472
1715943396448830044,0.255,,,,4.901487258
1715943396456524830,0.272,,,,4.909182044
1715943396464219616,0.279,,,,4.91687683
1715943396471914402,0.281,,,,4.924571616
1715943396479609188,0.274,,,,4.932266402
1715943396487303974,0.267,,,,4.939961188
1715943396494998760,0.257,,,,4.947655974
1715943396502693546,0.248,,,,4.95535076
1715943396510388332,0.243,,,,4.963045546
1715943396518083118,0.238,,,,4.970740332
1715943396525777904,0.234,,,,4.978435118
1715943396533472690,0.226,,,,4.986129904
1715943396541167476,0.219,,,,4.99382469
1715943396548862262,0.212,,,,5.001519476
1715943396556557048,0.207,,,,5.009214262
1715943396564251834,0.205,,,,5.016909048
1715943396571946620,0.205,,,,5.024603834
1715943396579641406,0.203,,,,5.03229862
1715943396587336192,0.195,,,,5.039993406
1715943396595030978,0.186,,,,5.047688192
1715943396602725780,0.179,64.0,793.0,,5.055382994
1715943396610420566,0.183,,,,5.06307778
1715943396618115352,0.186,,,,5.070772566
1715943396625810138,0.179,,,,5.078467352
1715943396633504924,0.174,,,,5.086162138
1715943396641199710,0.176,,,,5.093856924
1715943396648894496,0.179,,,,5.10155171
1715943396656589282,0.167,,,,5.109246496
1715943396664284068,0.16,,,,5.116941282
1715943396671978854,0.167,,,,5.124636068
1715943396679673640,0.164,,,,5.132330854
1715943396687368426,0.157,,,,5.14002564
1715943396695063212,0.157,,,,5.147720426
1715943396702757998,0.162,,,,5.155415212
1715943396710452784,0.16,,,,5.163109998
1715943396718147570,0.155,,,,5.170804784
1715943396725842356,0.155,,,,5.17849957
1715943396733537142,0.155,,,,5.186194356
1715943396741231928,0.15,,,,5.193889142
1715943396748926714,0.145,,,,5.201583928
1715943396756621500,0.143,,,,5.209278714
1715943396764316286,0.14,,,,5.2169735
1715943396772011072,0.136,,,,5.224668286
1715943396779705858,0.133,,,,5.232363072
1715943396787400644,0.136,,,,5.240057858
1715943396795095430,0.131,,,,5.247752644
1715943396802790216,0.124,,,,5.25544743
1715943396810485002,0.124,,,,5.263142216
1715943396818179788,0.124,,,,5.270837002
1715943396825874574,0.121,,,,5.278531788
1715943396833569360,0.119,,,,5.286226574
1715943396841264146,0.121,,,,5.29392136
1715943396848958932,0.126,,,,5.301616146
1715943396856653718,0.121,,,,5.309310932
1715943396864348504,0.114,,,,5.317005718
1715943396872043290,0.109,,,,5.324700504
1715943396879738076,0.1,,,,5.33239529
1715943396887432862,0.083,,,,5.340090076
1715943396895127648,0.071,,,,5.347784862
1715943396902822434,0.059,,,,5.355479648
1715943396910517220,0.047,,,,5.363174434
1715943396918212006,0.052,,,,5.37086922
1715943396925906792,0.066,,,,5.378564006
1715943396933601578,0.083,,,,5.386258792
1715943396941296364,0.107,,,,5.393953578
1715943396948991150,0.117,,,,5.401648364
1715943396956685936,0.107,,,,5.40934315
1715943396964380722,0.107,,,,5.417037936
1715943396972075508,0.114,,,,5.424732722
1715943396979770294,0.114,,,,5.432427508
1715943396987465080,0.112,,,,5.440122294
1715943396995159866,0.112,,,,5.44781708
1715943397002854652,0.112,,,,5.455511866
1715943397010549438,0.109,,,,5.463206652
1715943397018244224,0.114,,,,5.470901438
1715943397025939010,0.119,,,,5.478596224
1715943397033633796,0.081,,,,5.48629101
1715943397041328582,-0.117,,,,5.493985796
1715943397049023368,-0.556,,,,5.501680582
1715943397056718154,-1.034,,,,5.509375368
1715943397064412940,-1.187,,,,5.517070154
1715943397072107726,-0.632,,,,5.52476494
1715943397079802512,0.441,,,,5.532459726
1715943397087497298,0.785,,,,5.540154512
1715943397095192084,0.229,,,,5.547849298
1715943397102886870,0.028,,,,5.555544084
1715943397110581656,0.229,,,,5.56323887
1715943397118276442,0.191,,,,5.570933656
1715943397125971228,0.1,,,,5.578628442
1715943397133666014,0.145,,,,5.586323228
1715943397141360800,0.145,,,,5.594018014
1715943397149055586,0.105,,,,5.6017128
1715943397156750372,0.109,,,,5.609407586
1715943397164445174,0.109,,,,5.617102388
1715943397172139542,0.09,,,,5.624796756
1715943397179833910,0.083,,,,5.632491124
1715943397187528278,0.074,,,,5.640185492
1715943397195222646,0.05,,,,5.64787986
1715943397202917014,0.033,,,,5.655574228
1715943397210611382,0.026,,,,5.663268596
1715943397218305750,0.009,,,,5.670962964
1715943397226000118,-0.019,,,,5.678657332
1715943397233694486,-0.04,,,,5.6863517
1715943397241388854,-0.057,,,,5.694046068
1715943397249083222,-0.078,,,,5.701740436
1715943397256777590,-0.109,,,,5.709434804
1715943397264471958,-0.136,,,,5.717129172
1715943397272166326,-0.162,,,,5.72482354
1715943397279860694,-0.191,,,,5.732517908
1715943397287555062,-0.212,,,,5.740212276
1715943397295249430,-0.219,,,,5.747906644
1715943397302943798,-0.214,,,,5.755601012
1715943397310638166,-0.203,,,,5.76329538
1715943397318332534,-0.181,,,,5.770989748
1715943397326026902,-0.148,,,,5.778684116
1715943397333721270,-0.093,,,,5.786378484
1715943397341415638,-0.019,,,,5.794072852
1715943397349110006,0.054,,,,5.80176722
1715943397356804374,0.124,,,,5.809461588
1715943397364498742,0.183,,,,5.817155956
1715943397372193110,0.224,,,,5.824850324
1715943397379887478,0.25,,,,5.832544692
1715943397387581846,0.269,,,,5.84023906
1715943397395276214,0.279,,,,5.847933428
1715943397402970582,0.274,,,,5.855627796
1715943397410664950,0.267,,,,5.863322164
1715943397418359318,0.26,,,,5.871016532
1715943397426053686,0.253,,,,5.8787109
1715943397433748054,0.243,,,,5.886405268
1715943397441442422,0.236,,,,5.894099636
1715943397449136790,0.231,,,,5.901794004
1715943397456831158,0.224,,,,5.909488372
1715943397464525526,0.214,,,,5.91718274
1715943397472219894,0.212,,,,5.924877108
1715943397479914262,0.214,,,,5.932571476
1715943397487608630,0.212,,,,5.940265844
1715943397495302998,0.207,,,,5.947960212
1715943397502997366,0.207,,,,5.95565458
1715943397510691734,0.207,,,,5.963348948
1715943397518386102,0.205,,,,5.971043316
1715943397526080470,0.205,,,,5.978737684
1715943397533774838,0.203,,,,5.986432052
1715943397541469206,0.198,,,,5.99412642
1715943397549163574,0.193,,,,6.001820788
1715943397556857942,0.191,,,,6.009515156
1715943397564552310,0.193,,,,6.017209524
1715943397572246678,0.198,,,,6.024903892
1715943397579941046,0.193,,,,6.03259826
1715943397587635414,0.186,,,,6.040292628
1715943397595329782,0.174,,,,6.047986996
1715943397603024150,0.164,,,,6.055681364
1715943397610718518,0.164,,,,6.063375732
1715943397618412886,0.162,,,,6.0710701
1715943397626107254,0.157,,,,6.078764468
1715943397633801622,0.16,,,,6.086458836
1715943397641495990,0.157,,,,6.094153204
1715943397649190358,0.148,,,,6.101847572
1715943397656884726,0.15,,,,6.10954194
1715943397664579094,0.155,,,,6.117236308
1715943397672273462,0.155,,,,6.124930676
1715943397679967830,0.15,,,,6.132625044
1715943397687662198,0.152,,,,6.140319412
1715943397695356566,0.152,,,,6.14801378
1715943397703050934,0.148,,,,6.155708148
1715943397710745302,0.15,,,,6.163402516
1715943397718439670,0.157,,,,6.171096884
1715943397726134052,0.155,65.0,808.0,,6.178791266
1715943397733828838,0.143,,,,6.186486052
1715943397741523624,0.138,,,,6.194180838
1715943397749218410,0.136,,,,6.201875624
1715943397756913196,0.131,,,,6.20957041
1715943397764607982,0.128,,,,6.217265196
1715943397772302768,0.124,,,,6.224959982
1715943397779997554,0.114,,,,6.232654768
1715943397787692340,0.107,,,,6.240349554
1715943397795387126,0.102,,,,6.24804434
1715943397803081912,0.097,,,,6.255739126
1715943397810776698,0.1,,,,6.263433912
1715943397818471484,0.102,,,,6.271128698
1715943397826166270,0.095,,,,6.278823484
1715943397833861056,0.083,,,,6.28651827
1715943397841555842,0.071,,,,6.294213056
1715943397849250628,0.069,,,,6.301907842
1715943397856945414,0.064,,,,6.309602628
1715943397864640200,0.05,,,,6.317297414
1715943397872334986,0.052,,,,6.3249922
1715943397880029772,0.069,,,,6.332686986
1715943397887724558,0.085,,,,6.340381772
1715943397895419344,0.105,,,,6.348076558
1715943397903114130,0.121,,,,6.355771344
1715943397910808916,0.119,,,,6.36346613
1715943397918503702,0.114,,,,6.371160916
1715943397926198488,0.117,,,,6.378855702
1715943397933893274,0.121,,,,6.386550488
1715943397941588060,0.124,,,,6.394245274
1715943397949282846,0.124,,,,6.40194006
1715943397956977632,0.124,,,,6.409634846
1715943397964672418,0.124,,,,6.417329632
1715943397972367204,0.124,,,,6.425024418
1715943397980061990,0.126,,,,6.432719204
1715943397987756776,0.085,,,,6.44041399
1715943397995451562,-0.128,,,,6.448108776
1715943398003146348,-0.601,,,,6.455803562
1715943398010841134,-1.101,,,,6.463498348
1715943398018535920,-1.218,,,,6.471193134
1715943398026230706,-0.546,,,,6.47888792
1715943398033925492,0.5660000000000001,,,,6.486582706
1715943398041620278,0.79,,,,6.494277492
1715943398049315064,0.21,,,,6.501972278
1715943398057009850,0.088,,,,6.509667064
1715943398064704636,0.277,,,,6.51736185
1715943398072399422,0.203,,,,6.525056636
1715943398080094208,0.133,,,,6.532751422
1715943398087788994,0.188,,,,6.540446208
1715943398095483780,0.179,,,,6.548140994
1715943398103178566,0.126,,,,6.55583578
1715943398110873352,0.126,,,,6.563530566
1715943398118568138,0.128,,,,6.571225352
1715943398126262924,0.109,,,,6.578920138
1715943398133957710,0.097,,,,6.586614924
1715943398141652496,0.093,,,,6.59430971
1715943398149347282,0.081,,,,6.602004496
1715943398157042068,0.062,,,,6.609699282
1715943398164736854,0.047,,,,6.617394068
1715943398172431640,0.033,,,,6.625088854
1715943398180126426,0.014,,,,6.63278364
1715943398187821212,-0.004,,,,6.640478426
1715943398195515998,-0.031,,,,6.648173212
1715943398203210784,-0.057,,,,6.655867998
1715943398210905570,-0.083,,,,6.663562784
1715943398218600356,-0.112,,,,6.67125757
1715943398226295142,-0.138,,,,6.678952356
1715943398233989928,-0.16,,,,6.686647142
1715943398241684714,-0.179,,,,6.694341928
1715943398249379500,-0.191,,,,6.702036714
1715943398257074286,-0.186,,,,6.7097315
1715943398264769072,-0.174,,,,6.717426286
1715943398272463858,-0.155,,,,6.725121072
1715943398280158644,-0.119,,,,6.732815858
1715943398287853446,-0.062,66.0,872.0,,6.74051066
1715943398295548023,0.007,,,,6.748205237
1715943398303242600,0.081,,,,6.755899814
1715943398310937177,0.15,,,,6.763594391
1715943398318631754,0.212,,,,6.771288968
1715943398326326331,0.255,,,,6.778983545
1715943398334020908,0.279,,,,6.786678122
1715943398341715485,0.289,,,,6.794372699
1715943398349410062,0.296,,,,6.802067276
1715943398357104639,0.298,,,,6.809761853
1715943398364799216,0.291,,,,6.81745643
1715943398372493793,0.281,,,,6.825151007
1715943398380188370,0.267,,,,6.832845584
1715943398387882947,0.253,,,,6.840540161
1715943398395577524,0.246,,,,6.848234738
1715943398403272101,0.241,,,,6.855929315
1715943398410966678,0.231,,,,6.863623892
1715943398418661255,0.222,,,,6.871318469
1715943398426355832,0.212,,,,6.879013046
1715943398434050409,0.205,,,,6.886707623
1715943398441744986,0.205,,,,6.8944022
1715943398449439563,0.2,,,,6.902096777
1715943398457134140,0.195,,,,6.909791354
1715943398464828717,0.195,,,,6.917485931
1715943398472523294,0.198,,,,6.925180508
1715943398480217871,0.198,,,,6.932875085
1715943398487912448,0.195,,,,6.940569662
1715943398495607025,0.191,,,,6.948264239
1715943398503301602,0.186,,,,6.955958816
1715943398510996179,0.186,,,,6.963653393
1715943398518690756,0.188,,,,6.97134797
1715943398526385333,0.193,,,,6.979042547
1715943398534079910,0.188,,,,6.986737124
1715943398541774487,0.171,,,,6.994431701
1715943398549469064,0.167,,,,7.002126278
1715943398557163641,0.171,,,,7.009820855
1715943398564858218,0.171,,,,7.017515432
1715943398572552795,0.167,,,,7.025210009
1715943398580247372,0.162,,,,7.032904586
1715943398587941949,0.16,,,,7.040599163
1715943398595636526,0.16,,,,7.04829374
1715943398603331103,0.15,,,,7.055988317
1715943398611025680,0.138,,,,7.063682894
1715943398618720257,0.138,,,,7.071377471
1715943398626414834,0.145,,,,7.079072048
1715943398634109411,0.14,,,,7.086766625
1715943398641803988,0.133,,,,7.094461202
1715943398649498565,0.138,,,,7.102155779
1715943398657193142,0.14,,,,7.109850356
1715943398664887719,0.136,,,,7.117544933
1715943398672582296,0.128,,,,7.12523951
1715943398680276873,0.131,,,,7.132934087
1715943398687971450,0.136,,,,7.140628664
1715943398695666027,0.133,,,,7.148323241
1715943398703360604,0.128,,,,7.156017818
1715943398711055181,0.133,,,,7.163712395
1715943398718749758,0.138,,,,7.171406972
1715943398726444335,0.136,,,,7.179101549
1715943398734138912,0.126,,,,7.186796126
1715943398741833489,0.114,,,,7.194490703
1715943398749528066,0.105,,,,7.20218528
1715943398757222643,0.088,,,,7.209879857
1715943398764917220,0.071,,,,7.217574434
1715943398772611797,0.071,,,,7.225269011
1715943398780306374,0.085,,,,7.232963588
1715943398788000951,0.102,,,,7.240658165
1715943398795695528,0.126,,,,7.248352742
1715943398803390105,0.14,,,,7.256047319
1715943398811084682,0.131,,,,7.263741896
1715943398818779259,0.124,,,,7.271436473
1715943398826473836,0.131,,,,7.27913105
1715943398834168413,0.136,,,,7.286825627
1715943398841862990,0.136,,,,7.294520204
1715943398849557582,0.136,,,,7.302214796
1715943398857252159,0.136,,,,7.309909373
1715943398864946736,0.128,,,,7.31760395
1715943398872641313,0.128,,,,7.325298527
1715943398880335890,0.136,,,,7.332993104
1715943398888030467,0.081,,,,7.340687681
1715943398895725044,-0.16,,,,7.348382258
1715943398903419621,-0.604,,,,7.356076835
1715943398911114198,-0.976,,,,7.363771412
1715943398918808775,-0.919,,,,7.371465989
1715943398926503352,-0.212,,,,7.379160566
1715943398934197929,0.7020000000000001,,,,7.386855143
1715943398941892506,0.742,,,,7.39454972
1715943398949587083,0.181,,,,7.402244297
1715943398957281660,0.085,,,,7.409938874
1715943398964976237,0.224,,,,7.417633451
1715943398972670814,0.14,,,,7.425328028
1715943398980365391,0.088,,,,7.433022605
1715943398988059968,0.133,,,,7.440717182
1715943398995754545,0.117,,,,7.448411759
1715943399003449122,0.085,,,,7.456106336
1715943399011143699,0.093,,,,7.463800913
1715943399018838276,0.081,,,,7.47149549
1715943399026532853,0.057,,,,7.479190067
1715943399034227430,0.05,,,,7.486884644
1715943399041922007,0.05,,,,7.494579221
1715943399049616584,0.04,,,,7.502273798
1715943399057311161,0.016,,,,7.509968375
1715943399065005738,0.002,,,,7.517662952
1715943399072700315,-0.009,,,,7.525357529
1715943399080394892,-0.033,,,,7.533052106
1715943399088089469,-0.059,,,,7.540746683
1715943399095784046,-0.076,,,,7.54844126
1715943399103478623,-0.102,,,,7.556135837
1715943399111173200,-0.148,,,,7.563830414
1715943399118867777,-0.191,,,,7.571524991
1715943399126562354,-0.217,,,,7.579219568
1715943399134256931,-0.236,,,,7.586914145
1715943399141951508,-0.25,,,,7.594608722
1715943399149646085,-0.248,,,,7.602303299
1715943399157340662,-0.236,,,,7.609997876
1715943399165035239,-0.217,,,,7.617692453
1715943399172729816,-0.188,,,,7.62538703
1715943399180424393,-0.133,,,,7.633081607
1715943399188118970,-0.054,,,,7.640776184
1715943399195813547,0.021,,,,7.648470761
1715943399203508124,0.085,,,,7.656165338
1715943399211202701,0.15,,,,7.663859915
1715943399218897278,0.205,,,,7.671554492
1715943399226591855,0.25,,,,7.679249069
1715943399234286432,0.277,,,,7.686943646
1715943399241981009,0.286,,,,7.694638223
1715943399249675586,0.291,,,,7.7023328
1715943399257370163,0.279,,,,7.710027377
1715943399265064740,0.262,,,,7.717721954
1715943399272759317,0.26,,,,7.725416531
1715943399280453894,0.255,,,,7.733111108
1715943399288148471,0.241,,,,7.740805685
1715943399295843048,0.226,,,,7.748500262
1715943399303537625,0.226,,,,7.756194839
1715943399311232202,0.226,,,,7.763889416
1715943399318926779,0.212,,,,7.771583993
1715943399326621356,0.193,,,,7.77927857
1715943399334315933,0.188,,,,7.786973147
1715943399342010510,0.193,,,,7.794667724
1715943399349705087,0.191,,,,7.802362301
1715943399357399664,0.181,,,,7.810056878
1715943399365094241,0.179,,,,7.817751455
1715943399372788818,0.176,,,,7.825446032
1715943399380483395,0.169,,,,7.833140609
1715943399388177972,0.174,,,,7.840835186
1715943399395872549,0.186,,,,7.848529763
1715943399403567126,0.186,,,,7.85622434
1715943399411261716,0.171,67.0,930.0,,7.86391893
1715943399418956502,0.164,,,,7.871613716
1715943399426651288,0.174,,,,7.879308502
1715943399434346074,0.179,,,,7.887003288
1715943399442040860,0.174,,,,7.894698074
1715943399449735646,0.171,,,,7.90239286
1715943399457430432,0.171,,,,7.910087646
1715943399465125218,0.171,,,,7.917782432
1715943399472820004,0.174,,,,7.925477218
1715943399480514790,0.169,,,,7.933172004
1715943399488209576,0.169,,,,7.94086679
1715943399495904362,0.171,,,,7.948561576
1715943399503599148,0.16,,,,7.956256362
1715943399511293934,0.152,,,,7.963951148
1715943399518988720,0.16,,,,7.971645934
1715943399526683506,0.16,,,,7.97934072
1715943399534378292,0.15,,,,7.987035506
1715943399542073078,0.143,,,,7.994730292
1715943399549767864,0.14,,,,8.002425078
1715943399557462650,0.121,,,,8.010119864
1715943399565157436,0.097,,,,8.01781465
1715943399572852222,0.097,,,,8.025509436
1715943399580547008,0.097,,,,8.033204222
1715943399588241794,0.093,,,,8.040899008
1715943399595936580,0.102,,,,8.048593794
1715943399603631366,0.124,,,,8.05628858
1715943399611326152,0.138,,,,8.063983366
1715943399619020938,0.133,,,,8.071678152
1715943399626715724,0.128,,,,8.079372938
1715943399634410510,0.131,,,,8.087067724
1715943399642105296,0.136,,,,8.09476251
1715943399649800082,0.14,,,,8.102457296
1715943399657494868,0.133,,,,8.110152082
1715943399665189654,0.131,,,,8.117846868
1715943399672884440,0.143,,,,8.125541654
1715943399680579226,0.143,,,,8.13323644
1715943399688274012,0.133,,,,8.140931226
1715943399695968798,0.138,,,,8.148626012
1715943399703663584,0.102,,,,8.156320798
1715943399711358370,-0.074,,,,8.164015584
1715943399719053156,-0.417,,,,8.17171037
1715943399726747942,-0.742,,,,8.179405156
1715943399734442728,-0.759,,,,8.187099942
1715943399742137514,-0.284,,,,8.194794728
1715943399749832300,0.532,,,,8.202489514
1715943399757527086,0.852,,,,8.2101843
1715943399765221872,0.377,,,,8.217879086
1715943399772916658,0.059,,,,8.225573872
1715943399780611444,0.176,,,,8.233268658
1715943399788306230,0.181,,,,8.240963444
1715943399796001016,0.093,,,,8.24865823
1715943399803695802,0.112,,,,8.256353016
1715943399811390588,0.119,,,,8.264047802
1715943399819085374,0.083,,,,8.271742588
1715943399826780160,0.081,,,,8.279437374
1715943399834474946,0.083,,,,8.28713216
1715943399842169732,0.064,,,,8.294826946
1715943399849864518,0.054,,,,8.302521732
1715943399857559304,0.057,,,,8.310216518
1715943399865254090,0.038,,,,8.317911304
1715943399872948876,0.014,,,,8.32560609
1715943399880643662,0.007,,,,8.333300876
1715943399888338448,-0.009,,,,8.340995662
1715943399896033234,-0.035,,,,8.348690448
1715943399903728020,-0.052,,,,8.356385234
1715943399911422806,-0.074,,,,8.36408002
1715943399919117592,-0.107,,,,8.371774806
1715943399926812378,-0.145,,,,8.379469592
1715943399934507164,-0.169,,,,8.387164378
1715943399942201950,-0.186,,,,8.394859164
1715943399949896736,-0.219,,,,8.40255395
1715943399957591522,-0.25,,,,8.410248736
1715943399965286308,-0.25,,,,8.417943522
1715943399972981110,-0.236,,,,8.425638324
1715943399980675896,-0.214,,,,8.43333311
1715943399988370682,-0.183,,,,8.441027896
1715943399996065468,-0.14,,,,8.448722682
1715943400003760254,-0.071,,,,8.456417468
1715943400011455040,0.014,,,,8.464112254
1715943400019149826,0.095,,,,8.47180704
1715943400026844612,0.167,,,,8.479501826
1715943400034539398,0.217,,,,8.487196612
1715943400042234184,0.25,,,,8.494891398
1715943400049928970,0.279,,,,8.502586184
1715943400057623756,0.298,,,,8.51028097
1715943400065318542,0.296,,,,8.517975756
1715943400073013328,0.286,,,,8.525670542
1715943400080708114,0.281,,,,8.533365328
1715943400088402900,0.277,,,,8.541060114
1715943400096097686,0.265,,,,8.5487549
1715943400103792472,0.243,,,,8.556449686
1715943400111487258,0.231,,,,8.564144472
1715943400119182044,0.222,,,,8.571839258
1715943400126876830,0.198,,,,8.579534044
1715943400134571616,0.186,,,,8.58722883
1715943400142266402,0.195,,,,8.594923616
1715943400149961188,0.2,,,,8.602618402
1715943400157655974,0.186,,,,8.610313188
1715943400165350760,0.181,,,,8.618007974
1715943400173045546,0.183,,,,8.62570276
1715943400180740332,0.179,,,,8.633397546
1715943400188435118,0.179,,,,8.641092332
1715943400196129904,0.179,,,,8.648787118
1715943400203824690,0.169,,,,8.656481904
1715943400211519476,0.164,,,,8.66417669
1715943400219214262,0.174,,,,8.671871476
1715943400226909048,0.171,,,,8.679566262
1715943400234603834,0.155,,,,8.687261048
1715943400242298620,0.152,,,,8.694955834
1715943400249993406,0.155,,,,8.70265062
1715943400257688192,0.155,,,,8.710345406
1715943400265382978,0.157,,,,8.718040192
1715943400273077764,0.157,,,,8.725734978
1715943400280772550,0.15,,,,8.733429764
1715943400288467336,0.15,,,,8.74112455
1715943400296162122,0.155,,,,8.748819336
1715943400303856908,0.152,,,,8.756514122
1715943400311551694,0.152,,,,8.764208908
1715943400319246480,0.152,,,,8.771903694
1715943400326941266,0.143,,,,8.77959848
1715943400334636052,0.126,,,,8.787293266
1715943400342330838,0.117,,,,8.794988052
1715943400350025624,0.114,,,,8.802682838
1715943400357720410,0.109,,,,8.810377624
1715943400365415196,0.095,,,,8.81807241
1715943400373109982,0.097,,,,8.825767196
1715943400380804768,0.114,,,,8.833461982
1715943400388499554,0.133,,,,8.841156768
1715943400396194340,0.16,,,,8.848851554
1715943400403889126,0.162,,,,8.85654634
1715943400411583912,0.148,,,,8.864241126
1715943400419278698,0.145,,,,8.871935912
1715943400426973484,0.155,,,,8.879630698
1715943400434668270,0.155,,,,8.887325484
1715943400442363056,0.148,,,,8.89502027
1715943400450057842,0.15,,,,8.902715056
1715943400457752628,0.152,,,,8.910409842
1715943400465447414,0.148,,,,8.918104628
1715943400473142200,0.145,,,,8.925799414
1715943400480836986,0.131,,,,8.9334942
1715943400488531772,0.035,,,,8.941188986
1715943400496226558,-0.224,,,,8.948883772
1715943400503921344,-0.585,,,,8.956578558
1715943400511616130,-0.733,,,,8.964273344
1715943400519310916,-0.472,,,,8.97196813
1715943400527005702,0.193,,,,8.979662916
1715943400534700504,0.807,66.0,953.0,,8.987357718
1715943400542395220,0.628,,898.0,,8.995052434
1715943400550089936,0.128,,,,9.00274715
1715943400557784652,0.097,,,,9.010441866
1715943400565479368,0.183,,,,9.018136582
1715943400573174084,0.107,,,,9.025831298
1715943400580868800,0.088,,,,9.033526014
1715943400588563516,0.119,,,,9.04122073
1715943400596258232,0.09,,,,9.048915446
1715943400603952948,0.074,,,,9.056610162
1715943400611647664,0.081,,,,9.064304878
1715943400619342380,0.062,,,,9.071999594
1715943400627037096,0.038,,,,9.07969431
1715943400634731812,0.04,,,,9.087389026
1715943400642426528,0.028,,,,9.095083742
1715943400650121244,0.004,,,,9.102778458
1715943400657815960,-0.007,,,,9.110473174
1715943400665510676,-0.016,,,,9.11816789
1715943400673205392,-0.023,,,,9.125862606
1715943400680900108,-0.045,,,,9.133557322
1715943400688594824,-0.078,,,,9.141252038
1715943400696289540,-0.102,,,,9.148946754
1715943400703984256,-0.121,,,,9.15664147
1715943400711678972,-0.152,,,,9.164336186
1715943400719373688,-0.183,,,,9.172030902
1715943400727068404,-0.203,,,,9.179725618
1715943400734763120,-0.217,,,,9.187420334
1715943400742457836,-0.231,,,,9.19511505
1715943400750152552,-0.224,,,,9.202809766
1715943400757847268,-0.2,,,,9.210504482
1715943400765541984,-0.174,,,,9.218199198
1715943400773236700,-0.136,,,,9.225893914
1715943400780931416,-0.071,,,,9.23358863
1715943400788626132,0.009,,,,9.241283346
1715943400796320848,0.088,,,,9.248978062
1715943400804015564,0.155,,,,9.256672778
1715943400811710280,0.217,,,,9.264367494
1715943400819404996,0.257,,,,9.27206221
1715943400827099712,0.272,,,,9.279756926
1715943400834794428,0.284,,,,9.287451642
1715943400842489144,0.298,,,,9.295146358
1715943400850183860,0.298,,,,9.302841074
1715943400857878576,0.286,,,,9.31053579
1715943400865573292,0.277,,,,9.318230506
1715943400873268008,0.269,,,,9.325925222
1715943400880962724,0.26,,,,9.333619938
1715943400888657440,0.246,,,,9.341314654
1715943400896352156,0.236,,,,9.34900937
1715943400904046872,0.231,,,,9.356704086
1715943400911741588,0.226,,,,9.364398802
1715943400919436304,0.217,,,,9.372093518
1715943400927131020,0.21,,,,9.379788234
1715943400934825736,0.21,,,,9.38748295
1715943400942520452,0.207,,,,9.395177666
1715943400950215168,0.198,,,,9.402872382
1715943400957909884,0.198,,,,9.410567098
1715943400965604600,0.203,,,,9.418261814
1715943400973299316,0.2,,,,9.42595653
1715943400980994032,0.195,,,,9.433651246
1715943400988688748,0.193,,,,9.441345962
1715943400996383464,0.191,,,,9.449040678
1715943401004078180,0.186,,,,9.456735394
1715943401011772896,0.181,,,,9.46443011
1715943401019467612,0.181,,,,9.472124826
1715943401027162328,0.179,,,,9.479819542
1715943401034857044,0.179,,,,9.487514258
1715943401042551760,0.181,,,,9.495208974
1715943401050246476,0.181,,,,9.50290369
1715943401057941192,0.183,,,,9.510598406
1715943401065635908,0.176,,,,9.518293122
1715943401073330624,0.171,,,,9.525987838
1715943401081025340,0.174,,,,9.533682554
1715943401088720056,0.174,,,,9.54137727
1715943401096414814,0.167,,,,9.549072028
1715943401104109251,0.152,,,,9.556766465
1715943401111803688,0.143,,,,9.564460902
1715943401119498125,0.133,,,,9.572155339
1715943401127192562,0.112,,,,9.579849776
1715943401134886999,0.09,,,,9.587544213
1715943401142581436,0.095,,,,9.59523865
1715943401150275873,0.105,,,,9.602933087
1715943401157970310,0.107,,,,9.610627524
1715943401165664747,0.121,,,,9.618321961
1715943401173359184,0.131,,,,9.626016398
1715943401181053621,0.121,,,,9.633710835
1715943401188748058,0.119,,,,9.641405272
1715943401196442495,0.128,,,,9.649099709
1715943401204136932,0.124,,,,9.656794146
1715943401211831369,0.119,,,,9.664488583
1715943401219525806,0.119,,,,9.67218302
1715943401227220243,0.117,,,,9.679877457
1715943401234914680,0.109,,,,9.687571894
1715943401242609117,0.105,,,,9.695266331
1715943401250303554,0.093,,,,9.702960768
1715943401257997991,0.05,,,,9.710655205
1715943401265692428,-0.1,,,,9.718349642
1715943401273386865,-0.398,,,,9.726044079
1715943401281081302,-0.637,,,,9.733738516
1715943401288775739,-0.594,,,,9.741432953
1715943401296470176,-0.097,,,,9.74912739
1715943401304164613,0.616,,,,9.756821827
1715943401311859050,0.628,,,,9.764516264
1715943401319553487,0.107,,,,9.772210701
1715943401327247924,0.038,,,,9.779905138
1715943401334942361,0.195,,,,9.787599575
1715943401342636798,0.119,,,,9.795294012
1715943401350331235,0.066,,,,9.802988449
1715943401358025672,0.117,,,,9.810682886
1715943401365720109,0.102,,,,9.818377323
1715943401373414546,0.069,,,,9.82607176
1715943401381108983,0.076,,,,9.833766197
1715943401388803420,0.069,,,,9.841460634
1715943401396497857,0.05,,,,9.849155071
1715943401404192294,0.05,,,,9.856849508
1715943401411886731,0.054,,,,9.864543945
1715943401419581168,0.04,,,,9.872238382
1715943401427275605,0.019,,,,9.879932819
1715943401434970042,0.009,,,,9.887627256
1715943401442664479,0.0,,,,9.895321693
1715943401450358916,-0.016,,,,9.90301613
1715943401458053353,-0.038,,,,9.910710567
1715943401465747790,-0.059,,,,9.918405004
1715943401473442227,-0.088,,,,9.926099441
1715943401481136664,-0.124,,,,9.933793878
1715943401488831101,-0.148,,,,9.941488315
1715943401496525538,-0.169,,,,9.949182752
1715943401504219975,-0.188,,,,9.956877189
1715943401511914412,-0.195,,,,9.964571626
1715943401519608849,-0.198,,,,9.972266063
1715943401527303286,-0.186,,,,9.9799605
1715943401534997723,-0.16,,,,9.987654937
1715943401542692160,-0.121,,,,9.995349374
1715943401550386597,-0.069,,,,10.003043811
1715943401558081034,0.002,,,,10.010738248
1715943401565775471,0.076,,,,10.018432685
1715943401573469908,0.14,,,,10.026127122
1715943401581164345,0.193,,,,10.033821559
1715943401588858782,0.238,,,,10.041515996
1715943401596553219,0.267,,,,10.049210433
1715943401604247656,0.277,,,,10.05690487
1715943401611942093,0.279,,,,10.064599307
1715943401619636530,0.279,,,,10.072293744
1715943401627330967,0.274,,,,10.079988181
1715943401635025404,0.26,,,,10.087682618
1715943401642719841,0.246,,,,10.095377055
1715943401650414278,0.238,,,,10.103071492
1715943401658108776,0.231,66.0,817.0,,10.11076599
1715943401665803562,0.217,,,,10.118460776
1715943401673498348,0.214,,,,10.126155562
1715943401681193134,0.214,,,,10.133850348
1715943401688887920,0.21,,,,10.141545134
1715943401696582706,0.205,,,,10.14923992
1715943401704277492,0.203,,,,10.156934706
1715943401711972278,0.2,,,,10.164629492
1715943401719667064,0.191,,,,10.172324278
1715943401727361850,0.186,,,,10.180019064
1715943401735056636,0.188,,,,10.18771385
1715943401742751422,0.193,,,,10.195408636
1715943401750446208,0.186,,,,10.203103422
1715943401758140994,0.174,,,,10.210798208
1715943401765835780,0.171,,,,10.218492994
1715943401773530566,0.179,,,,10.22618778
1715943401781225352,0.181,,,,10.233882566
1715943401788920138,0.176,,,,10.241577352
1715943401796614924,0.176,,,,10.249272138
1715943401804309710,0.176,,,,10.256966924
1715943401812004496,0.176,,,,10.26466171
1715943401819699282,0.171,,,,10.272356496
1715943401827394068,0.169,,,,10.280051282
1715943401835088854,0.171,,,,10.287746068
1715943401842783640,0.171,,,,10.295440854
1715943401850478426,0.164,,,,10.30313564
1715943401858173212,0.164,,,,10.310830426
1715943401865867998,0.167,,,,10.318525212
1715943401873562784,0.167,,,,10.326219998
1715943401881257570,0.167,,,,10.333914784
1715943401888952356,0.169,,,,10.34160957
1715943401896647142,0.162,,,,10.349304356
1715943401904341928,0.143,,,,10.356999142
1715943401912036714,0.126,,,,10.364693928
1715943401919731500,0.121,,,,10.372388714
1715943401927426286,0.114,,,,10.3800835
1715943401935121072,0.107,,,,10.387778286
1715943401942815858,0.114,,,,10.395473072
1715943401950510644,0.126,,,,10.403167858
1715943401958205430,0.145,,,,10.410862644
1715943401965900216,0.15,,,,10.41855743
1715943401973595002,0.143,,,,10.426252216
1715943401981289788,0.138,,,,10.433947002
1715943401988984574,0.143,,,,10.441641788
1715943401996679360,0.143,,,,10.449336574
1715943402004374146,0.14,,,,10.45703136
1715943402012068932,0.143,,,,10.464726146
1715943402019763718,0.143,,,,10.472420932
1715943402027458504,0.138,,,,10.480115718
1715943402035153290,0.136,,,,10.487810504
1715943402042848076,0.133,,,,10.49550529
1715943402050542862,0.119,,,,10.503200076
1715943402058237648,0.059,,,,10.510894862
1715943402065932434,-0.15,,,,10.518589648
1715943402073627220,-0.515,,,,10.526284434
1715943402081322006,-0.776,,,,10.53397922
1715943402089016792,-0.661,,,,10.541674006
1715943402096711578,0.004,,,,10.549368792
1715943402104406364,0.704,,,,10.557063578
1715943402112101150,0.515,,,,10.564758364
1715943402119795936,0.026,,,,10.57245315
1715943402127490722,0.093,,,,10.580147936
1715943402135185508,0.207,,,,10.587842722
1715943402142880294,0.085,,,,10.595537508
1715943402150575080,0.062,,,,10.603232294
1715943402158269866,0.117,,,,10.61092708
1715943402165964652,0.083,,,,10.618621866
1715943402173659438,0.057,,,,10.626316652
1715943402181354224,0.069,,,,10.634011438
1715943402189049010,0.059,,,,10.641706224
1715943402196743796,0.042,,,,10.64940101
1715943402204438582,0.042,,,,10.657095796
1715943402212133368,0.033,,,,10.664790582
1715943402219828170,0.014,67.0,780.0,,10.672485384
1715943402227522677,0.004,,,,10.680179891
1715943402235217184,-0.002,,,,10.687874398
1715943402242911691,-0.019,,,,10.695568905
1715943402250606198,-0.035,,,,10.703263412
1715943402258300705,-0.054,,,,10.710957919
1715943402265995212,-0.085,,,,10.718652426
1715943402273689719,-0.114,,,,10.726346933
1715943402281384226,-0.133,,,,10.73404144
1715943402289078733,-0.157,,,,10.741735947
1715943402296773240,-0.186,,,,10.749430454
1715943402304467747,-0.203,,,,10.757124961
1715943402312162254,-0.207,,,,10.764819468
1715943402319856761,-0.207,,,,10.772513975
1715943402327551268,-0.193,,,,10.780208482
1715943402335245775,-0.164,,,,10.787902989
1715943402342940282,-0.126,,,,10.795597496
1715943402350634789,-0.074,,,,10.803292003
1715943402358329296,-0.007,,,,10.81098651
1715943402366023803,0.064,,,,10.818681017
1715943402373718310,0.133,,,,10.826375524
1715943402381412817,0.186,,,,10.834070031
1715943402389107324,0.224,,,,10.841764538
1715943402396801831,0.253,,,,10.849459045
1715943402404496338,0.267,,,,10.857153552
1715943402412190845,0.267,,,,10.864848059
1715943402419885352,0.265,,,,10.872542566
1715943402427579859,0.26,,,,10.880237073
1715943402435274366,0.257,,,,10.88793158
1715943402442968873,0.248,,,,10.895626087
1715943402450663380,0.231,,,,10.903320594
1715943402458357887,0.219,,,,10.911015101
1715943402466052394,0.212,,,,10.918709608
1715943402473746901,0.207,,,,10.926404115
1715943402481441408,0.203,,,,10.934098622
1715943402489135915,0.203,,,,10.941793129
1715943402496830422,0.2,,,,10.949487636
1715943402504524929,0.198,,,,10.957182143
1715943402512219436,0.198,,,,10.96487665
1715943402519913943,0.2,,,,10.972571157
1715943402527608450,0.198,,,,10.980265664
1715943402535302957,0.195,,,,10.987960171
1715943402542997464,0.193,,,,10.995654678
1715943402550691971,0.195,,,,11.003349185
1715943402558386478,0.198,,,,11.011043692
1715943402566080985,0.193,,,,11.018738199
1715943402573775492,0.195,,,,11.026432706
1715943402581469999,0.2,,,,11.034127213
1715943402589164506,0.198,,,,11.04182172
1715943402596859013,0.193,,,,11.049516227
1715943402604553520,0.193,,,,11.057210734
1715943402612248027,0.193,,,,11.064905241
1715943402619942534,0.193,,,,11.072599748
1715943402627637041,0.191,,,,11.080294255
1715943402635331548,0.183,,,,11.087988762
1715943402643026055,0.169,,,,11.095683269
1715943402650720562,0.167,,,,11.103377776
1715943402658415069,0.169,,,,11.111072283
1715943402666109576,0.167,,,,11.11876679
1715943402673804083,0.164,,,,11.126461297
1715943402681498590,0.162,,,,11.134155804
1715943402689193097,0.157,,,,11.141850311
1715943402696887604,0.16,,,,11.149544818
1715943402704582111,0.157,,,,11.157239325
1715943402712276618,0.15,,,,11.164933832
1715943402719971125,0.148,,,,11.172628339
1715943402727665632,0.148,,,,11.180322846
1715943402735360139,0.145,,,,11.188017353
1715943402743054646,0.145,,,,11.19571186
1715943402750749153,0.148,,,,11.203406367
1715943402758443660,0.148,,,,11.211100874
1715943402766138167,0.145,,,,11.218795381
1715943402773832674,0.143,,,,11.226489888
1715943402781527220,0.143,,,,11.234184434
1715943402789221866,0.143,,,,11.24187908
1715943402796916512,0.128,,,,11.249573726
1715943402804611158,0.109,,,,11.257268372
1715943402812305804,0.102,,,,11.264963018
1715943402820000450,0.097,,,,11.272657664
1715943402827695096,0.09,,,,11.28035231
1715943402835389742,0.097,,,,11.288046956
1715943402843084388,0.112,,,,11.295741602
1715943402850779034,0.128,,,,11.303436248
1715943402858473680,0.136,,,,11.311130894
1715943402866168326,0.126,,,,11.31882554
1715943402873862972,0.114,,,,11.326520186
1715943402881557618,0.119,,,,11.334214832
1715943402889252264,0.126,,,,11.341909478
1715943402896946910,0.121,,,,11.349604124
1715943402904641556,0.121,,,,11.35729877
1715943402912336202,0.121,,,,11.364993416
1715943402920030848,0.121,,,,11.372688062
1715943402927725494,0.119,,,,11.380382708
1715943402935420140,0.121,,,,11.388077354
1715943402943114786,0.117,,,,11.395772
1715943402950809432,0.052,,,,11.403466646
1715943402958504078,-0.193,,,,11.411161292
1715943402966198724,-0.64,,,,11.418855938
1715943402973893370,-1.0,,,,11.426550584
1715943402981588016,-0.948,,,,11.43424523
1715943402989282662,-0.222,,,,11.441939876
1715943402996977308,0.671,,,,11.449634522
1715943403004671954,0.618,,,,11.457329168
1715943403012366600,0.074,,,,11.465023814
1715943403020061246,0.081,,,,11.47271846
1715943403027755892,0.236,,,,11.480413106
1715943403035450538,0.14,,,,11.488107752
1715943403043145184,0.095,,,,11.495802398
1715943403050839830,0.143,,,,11.503497044
1715943403058534476,0.121,,,,11.51119169
1715943403066229122,0.093,,,,11.518886336
1715943403073923768,0.1,,,,11.526580982
1715943403081618414,0.09,,,,11.534275628
1715943403089313060,0.074,,,,11.541970274
1715943403097007706,0.069,,,,11.54966492
1715943403104702352,0.054,,,,11.557359566
1715943403112396998,0.042,,,,11.565054212
1715943403120091644,0.038,,,,11.572748858
1715943403127786290,0.026,,,,11.580443504
1715943403135480936,0.002,,,,11.58813815
1715943403143175582,-0.023,,,,11.595832796
1715943403150870228,-0.047,,,,11.603527442
1715943403158564874,-0.066,,,,11.611222088
1715943403166259520,-0.088,,,,11.618916734
1715943403173954166,-0.114,,,,11.62661138
1715943403181648812,-0.14,,,,11.634306026
1715943403189343458,-0.164,,,,11.642000672
1715943403197038104,-0.183,,,,11.649695318
1715943403204732750,-0.195,,,,11.657389964
1715943403212427396,-0.193,,,,11.66508461
1715943403220122042,-0.181,,,,11.672779256
1715943403227816688,-0.167,,,,11.680473902
1715943403235511334,-0.138,,,,11.688168548
1715943403243205980,-0.093,,,,11.695863194
1715943403250900626,-0.035,,,,11.70355784
1715943403258595272,0.033,,,,11.711252486
1715943403266289918,0.102,,,,11.718947132
1715943403273984564,0.16,,,,11.726641778
1715943403281679210,0.203,,,,11.734336424
1715943403289373856,0.236,,,,11.74203107
1715943403297068502,0.26,,,,11.749725716
1715943403304763148,0.272,,,,11.757420362
1715943403312457794,0.269,,,,11.765115008
1715943403320152440,0.26,,,,11.772809654
1715943403327847086,0.25,,,,11.7805043
1715943403335541732,0.246,,,,11.788198946
1715943403343236440,0.238,67.0,772.0,,11.795893654
1715943403350930808,0.229,,,,11.803588022
1715943403358625176,0.222,,,,11.81128239
1715943403366319544,0.217,,,,11.818976758
1715943403374013912,0.212,,,,11.826671126
1715943403381708280,0.207,,,,11.834365494
1715943403389402648,0.207,,,,11.842059862
1715943403397097016,0.207,,,,11.84975423
1715943403404791384,0.198,,,,11.857448598
1715943403412485752,0.188,,,,11.865142966
1715943403420180120,0.191,,,,11.872837334
1715943403427874488,0.193,,,,11.880531702
1715943403435568856,0.195,,,,11.88822607
1715943403443263224,0.193,,,,11.895920438
1715943403450957592,0.191,,,,11.903614806
1715943403458651960,0.188,,,,11.911309174
1715943403466346328,0.188,,,,11.919003542
1715943403474040696,0.188,,,,11.92669791
1715943403481735064,0.188,,,,11.934392278
1715943403489429432,0.191,,,,11.942086646
1715943403497123800,0.191,,,,11.949781014
1715943403504818168,0.188,,,,11.957475382
1715943403512512536,0.186,,,,11.96516975
1715943403520206904,0.183,,,,11.972864118
1715943403527901272,0.181,,,,11.980558486
1715943403535595640,0.183,,,,11.988252854
1715943403543290008,0.183,,,,11.995947222
1715943403550984376,0.179,,,,12.00364159
1715943403558678744,0.176,,,,12.011335958
1715943403566373112,0.176,,,,12.019030326
1715943403574067480,0.176,,,,12.026724694
1715943403581761848,0.171,,,,12.034419062
1715943403589456216,0.169,,,,12.04211343
1715943403597150584,0.169,,,,12.049807798
1715943403604844952,0.164,,,,12.057502166
1715943403612539320,0.164,,,,12.065196534
1715943403620233688,0.164,,,,12.072890902
1715943403627928056,0.162,,,,12.08058527
1715943403635622424,0.16,,,,12.088279638
1715943403643316792,0.152,,,,12.095974006
1715943403651011160,0.14,,,,12.103668374
1715943403658705528,0.138,,,,12.111362742
1715943403666399896,0.138,,,,12.11905711
1715943403674094264,0.131,,,,12.126751478
1715943403681788632,0.128,,,,12.134445846
1715943403689483000,0.124,,,,12.142140214
1715943403697177368,0.117,,,,12.149834582
1715943403704871736,0.114,,,,12.15752895
1715943403712566104,0.119,,,,12.165223318
1715943403720260472,0.119,,,,12.172917686
1715943403727954840,0.119,,,,12.180612054
1715943403735649208,0.119,,,,12.188306422
1715943403743343576,0.117,,,,12.19600079
1715943403751037944,0.117,,,,12.203695158
1715943403758732312,0.109,,,,12.211389526
1715943403766426680,0.088,,,,12.219083894
1715943403774121048,0.083,,,,12.226778262
1715943403781815416,0.081,,,,12.23447263
1715943403789509784,0.064,,,,12.242166998
1715943403797204152,0.059,,,,12.249861366
1715943403804898520,0.078,,,,12.257555734
1715943403812592888,0.093,,,,12.265250102
1715943403820287256,0.105,,,,12.27294447
1715943403827981624,0.109,,,,12.280638838
1715943403835675992,0.105,,,,12.288333206
1715943403843370360,0.102,,,,12.296027574
1715943403851064728,0.107,,,,12.303721942
1715943403858759096,0.107,,,,12.31141631
1715943403866453464,0.107,,,,12.319110678
1715943403874147832,0.109,,,,12.326805046
1715943403881842200,0.105,,,,12.334499414
1715943403889536568,0.102,,,,12.342193782
1715943403897230936,0.109,,,,12.34988815
1715943403904925318,0.112,,,,12.357582532
1715943403912620104,0.062,,,,12.365277318
1715943403920314890,-0.171,,,,12.372972104
1715943403928009676,-0.649,,,,12.38066689
1715943403935704462,-1.105,,,,12.388361676
1715943403943399248,-1.136,,,,12.396056462
1715943403951094034,-0.429,,,,12.403751248
1715943403958788820,0.58,,,,12.411446034
1715943403966483606,0.687,,,,12.41914082
1715943403974178392,0.133,,,,12.426835606
1715943403981873178,0.062,,,,12.434530392
1715943403989567964,0.238,,,,12.442225178
1715943403997262750,0.162,,,,12.449919964
1715943404004957536,0.102,,,,12.45761475
1715943404012652322,0.15,,,,12.465309536
1715943404020347108,0.138,,,,12.473004322
1715943404028041894,0.102,,,,12.480699108
1715943404035736680,0.107,,,,12.488393894
1715943404043431466,0.105,,,,12.49608868
1715943404051126252,0.085,,,,12.503783466
1715943404058821038,0.081,,,,12.511478252
1715943404066515824,0.071,,,,12.519173038
1715943404074210610,0.057,,,,12.526867824
1715943404081905396,0.047,,,,12.53456261
1715943404089600182,0.038,,,,12.542257396
1715943404097294968,0.021,,,,12.549952182
1715943404104989754,0.002,,,,12.557646968
1715943404112684540,-0.016,,,,12.565341754
1715943404120379326,-0.035,,,,12.57303654
1715943404128074112,-0.059,,,,12.580731326
1715943404135768898,-0.081,,,,12.588426112
1715943404143463684,-0.105,,,,12.596120898
1715943404151158470,-0.138,,,,12.603815684
1715943404158853256,-0.167,,,,12.61151047
1715943404166548042,-0.171,,,,12.619205256
1715943404174242828,-0.167,,,,12.626900042
1715943404181937614,-0.167,,,,12.634594828
1715943404189632400,-0.155,,,,12.642289614
1715943404197327186,-0.126,,,,12.6499844
1715943404205021972,-0.093,,,,12.657679186
1715943404212716758,-0.045,,,,12.665373972
1715943404220411544,0.021,,,,12.673068758
1715943404228106330,0.09,,,,12.680763544
1715943404235801116,0.148,,,,12.68845833
1715943404243495902,0.191,,,,12.696153116
1715943404251190688,0.224,,,,12.703847902
1715943404258885474,0.25,,,,12.711542688
1715943404266580260,0.265,,,,12.719237474
1715943404274275046,0.267,,,,12.72693226
1715943404281969832,0.265,,,,12.734627046
1715943404289664618,0.257,,,,12.742321832
1715943404297359404,0.246,,,,12.750016618
1715943404305054190,0.234,,,,12.757711404
1715943404312748976,0.226,,,,12.76540619
1715943404320443762,0.222,,,,12.773100976
1715943404328138548,0.214,,,,12.780795762
1715943404335833334,0.21,,,,12.788490548
1715943404343528120,0.205,,,,12.796185334
1715943404351222906,0.2,,,,12.80388012
1715943404358917692,0.203,,,,12.811574906
1715943404366612478,0.203,,,,12.819269692
1715943404374307264,0.203,,,,12.826964478
1715943404382002050,0.203,,,,12.834659264
1715943404389696836,0.2,,,,12.84235405
1715943404397391622,0.198,,,,12.850048836
1715943404405086408,0.2,,,,12.857743622
1715943404412781194,0.203,,,,12.865438408
1715943404420475980,0.203,,,,12.873133194
1715943404428170766,0.2,,,,12.88082798
1715943404435865552,0.193,,,,12.888522766
1715943404443560338,0.191,,,,12.896217552
1715943404451255124,0.188,,,,12.903912338
1715943404458949910,0.186,,,,12.911607124
1715943404466644712,0.183,68.0,799.0,,12.919301926
1715943404474339080,0.183,,,,12.926996294
1715943404482033448,0.179,,,,12.934690662
1715943404489727816,0.174,,,,12.94238503
1715943404497422184,0.176,,,,12.950079398
1715943404505116552,0.179,,,,12.957773766
1715943404512810920,0.174,,,,12.965468134
1715943404520505288,0.167,,,,12.973162502
1715943404528199656,0.167,,,,12.98085687
1715943404535894024,0.167,,,,12.988551238
1715943404543588392,0.164,,,,12.996245606
1715943404551282760,0.16,,,,13.003939974
1715943404558977128,0.162,,,,13.011634342
1715943404566671496,0.16,,,,13.01932871
1715943404574365864,0.15,,,,13.027023078
1715943404582060232,0.143,,,,13.034717446
1715943404589754600,0.143,,,,13.042411814
1715943404597448968,0.143,,,,13.050106182
1715943404605143336,0.136,,,,13.05780055
1715943404612837704,0.133,,,,13.065494918
1715943404620532072,0.128,,,,13.073189286
1715943404628226440,0.124,,,,13.080883654
1715943404635920808,0.112,,,,13.088578022
1715943404643615176,0.105,,,,13.09627239
1715943404651309544,0.102,,,,13.103966758
1715943404659003912,0.095,,,,13.111661126
1715943404666698280,0.088,,,,13.119355494
1715943404674392648,0.085,,,,13.127049862
1715943404682087016,0.088,,,,13.13474423
1715943404689781384,0.083,,,,13.142438598
1715943404697475752,0.076,,,,13.150132966
1715943404705170120,0.074,,,,13.157827334
1715943404712864488,0.078,,,,13.165521702
1715943404720558856,0.076,,,,13.17321607
1715943404728253224,0.062,,,,13.180910438
1715943404735947592,0.052,,,,13.188604806
1715943404743641960,0.047,,,,13.196299174
1715943404751336328,0.033,,,,13.203993542
1715943404759030696,0.031,,,,13.21168791
1715943404766725064,0.054,,,,13.219382278
1715943404774419432,0.076,,,,13.227076646
1715943404782113800,0.093,,,,13.234771014
1715943404789808168,0.105,,,,13.242465382
1715943404797502536,0.105,,,,13.25015975
1715943404805196904,0.097,,,,13.257854118
1715943404812891272,0.102,,,,13.265548486
1715943404820585640,0.107,,,,13.273242854
1715943404828280008,0.114,,,,13.280937222
1715943404835974376,0.117,,,,13.28863159
1715943404843668744,0.109,,,,13.296325958
1715943404851363112,0.102,,,,13.304020326
1715943404859057480,0.112,,,,13.311714694
1715943404866751848,0.119,,,,13.319409062
1715943404874446216,0.064,,,,13.32710343
1715943404882140584,-0.152,,,,13.334797798
1715943404889834952,-0.582,,,,13.342492166
1715943404897529320,-0.996,,,,13.350186534
1715943404905223688,-1.036,,,,13.357880902
1715943404912918056,-0.386,,,,13.36557527
1715943404920612424,0.616,,,,13.373269638
1715943404928306792,0.776,,,,13.380964006
1715943404936001160,0.195,,,,13.388658374
1715943404943695528,0.057,,,,13.396352742
1715943404951389896,0.231,,,,13.40404711
1715943404959084264,0.169,,,,13.411741478
1715943404966778632,0.1,,,,13.419435846
1715943404974473000,0.15,,,,13.427130214
1715943404982167368,0.14,,,,13.434824582
1715943404989861736,0.1,,,,13.44251895
1715943404997556104,0.105,,,,13.450213318
1715943405005250472,0.105,,,,13.457907686
1715943405012944840,0.083,,,,13.465602054
1715943405020639208,0.071,,,,13.473296422
1715943405028333588,0.066,,,,13.480990802
1715943405036028165,0.054,,,,13.488685379
1715943405043722742,0.04,,,,13.496379956
1715943405051417319,0.026,,,,13.504074533
1715943405059111896,0.009,,,,13.51176911
1715943405066806473,-0.011,,,,13.519463687
1715943405074501050,-0.026,,,,13.527158264
1715943405082195627,-0.054,,,,13.534852841
1715943405089890204,-0.09,,,,13.542547418
1715943405097584781,-0.114,,,,13.550241995
1715943405105279358,-0.136,,,,13.557936572
1715943405112973935,-0.169,,,,13.565631149
1715943405120668512,-0.195,,,,13.573325726
1715943405128363089,-0.203,,,,13.581020303
1715943405136057666,-0.2,,,,13.58871488
1715943405143752243,-0.193,,,,13.596409457
1715943405151446820,-0.181,,,,13.604104034
1715943405159141397,-0.162,,,,13.611798611
1715943405166835974,-0.126,,,,13.619493188
1715943405174530551,-0.071,,,,13.627187765
1715943405182225128,-0.002,,,,13.634882342
1715943405189919705,0.074,,,,13.642576919
1715943405197614282,0.143,,,,13.650271496
1715943405205308859,0.195,,,,13.657966073
1715943405213003436,0.234,,,,13.66566065
1715943405220698013,0.25,,,,13.673355227
1715943405228392590,0.257,,,,13.681049804
1715943405236087167,0.267,,,,13.688744381
1715943405243781744,0.265,,,,13.696438958
1715943405251476321,0.255,,,,13.704133535
1715943405259170898,0.246,,,,13.711828112
1715943405266865475,0.236,,,,13.719522689
1715943405274560052,0.231,,,,13.727217266
1715943405282254629,0.226,,,,13.734911843
1715943405289949206,0.217,,,,13.74260642
1715943405297643783,0.207,,,,13.750300997
1715943405305338360,0.2,,,,13.757995574
1715943405313032937,0.195,,,,13.765690151
1715943405320727514,0.203,,,,13.773384728
1715943405328422091,0.203,,,,13.781079305
1715943405336116668,0.193,,,,13.788773882
1715943405343811245,0.183,,,,13.796468459
1715943405351505822,0.183,,,,13.804163036
1715943405359200399,0.179,,,,13.811857613
1715943405366894976,0.174,,,,13.81955219
1715943405374589553,0.171,,,,13.827246767
1715943405382284130,0.174,,,,13.834941344
1715943405389978707,0.171,,,,13.842635921
1715943405397673284,0.167,,,,13.850330498
1715943405405367861,0.171,,,,13.858025075
1715943405413062438,0.174,,,,13.865719652
1715943405420757015,0.167,,,,13.873414229
1715943405428451592,0.167,,,,13.881108806
1715943405436146169,0.167,,,,13.888803383
1715943405443840746,0.162,,,,13.89649796
1715943405451535323,0.162,,,,13.904192537
1715943405459229900,0.167,,,,13.911887114
1715943405466924477,0.162,,,,13.919581691
1715943405474619054,0.157,,,,13.927276268
1715943405482313631,0.157,,,,13.934970845
1715943405490008208,0.155,,,,13.942665422
1715943405497702785,0.157,,,,13.950359999
1715943405505397362,0.162,,,,13.958054576
1715943405513091939,0.16,,,,13.965749153
1715943405520786516,0.152,,,,13.97344373
1715943405528481093,0.15,,,,13.981138307
1715943405536175670,0.15,,,,13.988832884
1715943405543870247,0.15,,,,13.996527461
1715943405551564824,0.152,,,,14.004222038
1715943405559259401,0.152,,,,14.011916615
1715943405566953978,0.145,,,,14.019611192
1715943405574648555,0.14,,,,14.027305769
1715943405582343132,0.145,,,,14.035000346
1715943405590037724,0.145,69.0,894.0,,14.042694938
1715943405597732301,0.145,,,,14.050389515
1715943405605426878,0.148,,,,14.058084092
1715943405613121455,0.15,,,,14.065778669
1715943405620816032,0.133,,,,14.073473246
1715943405628510609,0.109,,,,14.081167823
1715943405636205186,0.107,,,,14.0888624
1715943405643899763,0.1,,,,14.096556977
1715943405651594340,0.081,,,,14.104251554
1715943405659288917,0.09,,,,14.111946131
1715943405666983494,0.107,,,,14.119640708
1715943405674678071,0.114,,,,14.127335285
1715943405682372648,0.128,,,,14.135029862
1715943405690067225,0.131,,,,14.142724439
1715943405697761802,0.117,,,,14.150419016
1715943405705456379,0.121,,,,14.158113593
1715943405713150956,0.138,,,,14.16580817
1715943405720845533,0.138,,,,14.173502747
1715943405728540110,0.128,,,,14.181197324
1715943405736234687,0.128,,,,14.188891901
1715943405743929264,0.124,,,,14.196586478
1715943405751623841,0.119,,,,14.204281055
1715943405759318418,0.121,,,,14.211975632
1715943405767012995,0.088,,,,14.219670209
1715943405774707572,-0.085,,,,14.227364786
1715943405782402149,-0.439,,,,14.235059363
1715943405790096726,-0.776,,,,14.24275394
1715943405797791303,-0.807,,,,14.250448517
1715943405805485880,-0.322,,,,14.258143094
1715943405813180457,0.527,,,,14.265837671
1715943405820875034,0.845,,,,14.273532248
1715943405828569611,0.336,,,,14.281226825
1715943405836264188,0.007,,,,14.288921402
1715943405843958765,0.124,,,,14.296615979
1715943405851653342,0.112,,,,14.304310556
1715943405859347919,0.009,,,,14.312005133
1715943405867042496,0.026,,,,14.31969971
1715943405874737073,0.045,,,,14.327394287
1715943405882431650,0.021,,,,14.335088864
1715943405890126227,0.019,,,,14.342783441
1715943405897820804,0.016,,,,14.350478018
1715943405905515381,0.0,,,,14.358172595
1715943405913209958,-0.011,,,,14.365867172
1715943405920904535,-0.016,,,,14.373561749
1715943405928599112,-0.026,,,,14.381256326
1715943405936293689,-0.035,,,,14.388950903
1715943405943988266,-0.042,,,,14.39664548
1715943405951682843,-0.059,,,,14.404340057
1715943405959377420,-0.081,,,,14.412034634
1715943405967071997,-0.097,,,,14.419729211
1715943405974766574,-0.114,,,,14.427423788
1715943405982461151,-0.143,,,,14.435118365
1715943405990155728,-0.174,,,,14.442812942
1715943405997850305,-0.2,,,,14.450507519
1715943406005544882,-0.224,,,,14.458202096
1715943406013239459,-0.25,,,,14.465896673
1715943406020934036,-0.267,,,,14.47359125
1715943406028628613,-0.262,,,,14.481285827
1715943406036323190,-0.253,,,,14.488980404
1715943406044017767,-0.241,,,,14.496674981
1715943406051712344,-0.21,,,,14.504369558
1715943406059406921,-0.152,,,,14.512064135
1715943406067101498,-0.076,,,,14.519758712
1715943406074796075,0.002,,,,14.527453289
1715943406082490652,0.081,,,,14.535147866
1715943406090185229,0.155,,,,14.542842443
1715943406097879806,0.212,,,,14.55053702
1715943406105574383,0.243,,,,14.558231597
1715943406113268960,0.269,,,,14.565926174
1715943406120963537,0.293,,,,14.573620751
1715943406128658114,0.303,,,,14.581315328
1715943406136352691,0.296,,,,14.589009905
1715943406144047268,0.284,,,,14.596704482
1715943406151741858,0.267,,,,14.604399072
1715943406159436644,0.246,,,,14.612093858
1715943406167131430,0.229,,,,14.619788644
1715943406174826216,0.222,,,,14.62748343
1715943406182521002,0.217,,,,14.635178216
1715943406190215788,0.205,,,,14.642873002
1715943406197910574,0.198,,,,14.650567788
1715943406205605360,0.2,,,,14.658262574
1715943406213300146,0.193,,,,14.66595736
1715943406220994932,0.179,,,,14.673652146
1715943406228689718,0.169,,,,14.681346932
1715943406236384504,0.164,,,,14.689041718
1715943406244079290,0.169,,,,14.696736504
1715943406251774076,0.176,,,,14.70443129
1715943406259468862,0.176,,,,14.712126076
1715943406267163648,0.176,,,,14.719820862
1715943406274858434,0.176,,,,14.727515648
1715943406282553220,0.169,,,,14.735210434
1715943406290248006,0.171,,,,14.74290522
1715943406297942792,0.183,,,,14.750600006
1715943406305637578,0.186,,,,14.758294792
1715943406313332364,0.179,,,,14.765989578
1715943406321027150,0.176,,,,14.773684364
1715943406328721936,0.181,,,,14.78137915
1715943406336416722,0.191,,,,14.789073936
1715943406344111508,0.186,,,,14.796768722
1715943406351806294,0.181,,,,14.804463508
1715943406359501080,0.186,,,,14.812158294
1715943406367195866,0.186,,,,14.81985308
1715943406374890652,0.176,,,,14.827547866
1715943406382585438,0.176,,,,14.835242652
1715943406390280224,0.179,,,,14.842937438
1715943406397975010,0.176,,,,14.850632224
1715943406405669796,0.169,,,,14.85832701
1715943406413364582,0.167,,,,14.866021796
1715943406421059368,0.167,,,,14.873716582
1715943406428754154,0.169,,,,14.881411368
1715943406436448940,0.167,,,,14.889106154
1715943406444143726,0.152,,,,14.89680094
1715943406451838512,0.136,,,,14.904495726
1715943406459533298,0.126,,,,14.912190512
1715943406467228084,0.119,,,,14.919885298
1715943406474922870,0.109,,,,14.927580084
1715943406482617656,0.121,,,,14.93527487
1715943406490312442,0.133,,,,14.942969656
1715943406498007228,0.148,,,,14.950664442
1715943406505702014,0.169,,,,14.958359228
1715943406513396800,0.179,,,,14.966054014
1715943406521091586,0.169,,,,14.9737488
1715943406528786372,0.167,,,,14.981443586
1715943406536481158,0.169,,,,14.989138372
1715943406544175944,0.171,,,,14.996833158
1715943406551870730,0.174,,,,15.004527944
1715943406559565516,0.171,,,,15.01222273
1715943406567260302,0.164,,,,15.019917516
1715943406574955088,0.16,,,,15.027612302
1715943406582649874,0.162,,,,15.035307088
1715943406590344660,0.143,,,,15.043001874
1715943406598039446,0.028,,,,15.05069666
1715943406605734232,-0.257,,,,15.058391446
1715943406613429018,-0.604,,,,15.066086232
1715943406621123804,-0.709,,,,15.073781018
1715943406628818590,-0.386,,,,15.081475804
1715943406636513376,0.346,,,,15.08917059
1715943406644208162,0.867,,,,15.096865376
1715943406651902948,0.523,,,,15.104560162
1715943406659597734,0.071,,,,15.112254948
1715943406667292520,0.143,,,,15.119949734
1715943406674987306,0.207,,,,15.12764452
1715943406682682092,0.1,,,,15.135339306
1715943406690376878,0.1,,,,15.143034092
1715943406698071664,0.128,,,,15.150728878
1715943406705766450,0.093,,,,15.158423664
1715943406713461252,0.078,69.0,963.0,,15.166118466
1715943406721155620,0.095,,,,15.173812834
1715943406728849988,0.085,,,,15.181507202
1715943406736544356,0.066,,,,15.18920157
1715943406744238724,0.057,,,,15.196895938
1715943406751933092,0.047,,,,15.204590306
1715943406759627460,0.031,,,,15.212284674
1715943406767321828,0.007,,,,15.219979042
1715943406775016196,-0.007,,,,15.22767341
1715943406782710564,-0.019,,,,15.235367778
1715943406790404932,-0.04,,,,15.243062146
1715943406798099300,-0.069,,,,15.250756514
1715943406805793668,-0.095,,,,15.258450882
1715943406813488036,-0.121,,,,15.26614525
1715943406821182404,-0.148,,,,15.273839618
1715943406828876772,-0.174,,,,15.281533986
1715943406836571140,-0.193,,,,15.289228354
1715943406844265508,-0.205,,,,15.296922722
1715943406851959876,-0.21,,,,15.30461709
1715943406859654244,-0.205,,,,15.312311458
1715943406867348612,-0.188,,,,15.320005826
1715943406875042980,-0.155,,,,15.327700194
1715943406882737348,-0.112,,,,15.335394562
1715943406890431716,-0.057,,,,15.34308893
1715943406898126084,0.021,,,,15.350783298
1715943406905820452,0.105,,,,15.358477666
1715943406913514820,0.167,,,,15.366172034
1715943406921209188,0.21,,,,15.373866402
1715943406928903556,0.246,,,,15.38156077
1715943406936597924,0.272,,,,15.389255138
1715943406944292292,0.284,,,,15.396949506
1715943406951986660,0.289,,,,15.404643874
1715943406959681028,0.289,,,,15.412338242
1715943406967375396,0.284,,,,15.42003261
1715943406975069764,0.267,,,,15.427726978
1715943406982764132,0.253,,,,15.435421346
1715943406990458500,0.248,,,,15.443115714
1715943406998152868,0.243,,,,15.450810082
1715943407005847236,0.229,,,,15.45850445
1715943407013541604,0.219,,,,15.466198818
1715943407021235972,0.217,,,,15.473893186
1715943407028930340,0.212,,,,15.481587554
1715943407036624708,0.205,,,,15.489281922
1715943407044319076,0.198,,,,15.49697629
1715943407052013444,0.193,,,,15.504670658
1715943407059707812,0.186,,,,15.512365026
1715943407067402180,0.176,,,,15.520059394
1715943407075096548,0.174,,,,15.527753762
1715943407082790916,0.179,,,,15.53544813
1715943407090485284,0.179,,,,15.543142498
1715943407098179652,0.174,,,,15.550836866
1715943407105874020,0.174,,,,15.558531234
1715943407113568388,0.179,,,,15.566225602
1715943407121262756,0.179,,,,15.57391997
1715943407128957124,0.174,,,,15.581614338
1715943407136651492,0.167,,,,15.589308706
1715943407144345860,0.167,,,,15.597003074
1715943407152040228,0.169,,,,15.604697442
1715943407159734596,0.164,,,,15.61239181
1715943407167428964,0.157,,,,15.620086178
1715943407175123332,0.152,,,,15.627780546
1715943407182817700,0.143,,,,15.635474914
1715943407190512068,0.14,,,,15.643169282
1715943407198206436,0.145,,,,15.65086365
1715943407205900804,0.143,,,,15.658558018
1715943407213595172,0.14,,,,15.666252386
1715943407221289540,0.14,,,,15.673946754
1715943407228983908,0.145,,,,15.681641122
1715943407236678276,0.148,,,,15.68933549
1715943407244372644,0.148,,,,15.697029858
1715943407252067012,0.143,,,,15.704724226
1715943407259761380,0.131,,,,15.712418594
1715943407267455748,0.117,,,,15.720112962
1715943407275150128,0.107,68.0,962.0,,15.727807342
1715943407282844496,0.1,,894.0,,15.73550171
1715943407290538864,0.093,,,,15.743196078
1715943407298233232,0.097,,,,15.750890446
1715943407305927600,0.105,,,,15.758584814
1715943407313621968,0.119,,,,15.766279182
1715943407321316336,0.138,,,,15.77397355
1715943407329010704,0.143,,,,15.781667918
1715943407336705072,0.136,,,,15.789362286
1715943407344399440,0.138,,,,15.797056654
1715943407352093808,0.143,,,,15.804751022
1715943407359788176,0.143,,,,15.81244539
1715943407367482544,0.14,,,,15.820139758
1715943407375176912,0.143,,,,15.827834126
1715943407382871280,0.14,,,,15.835528494
1715943407390565648,0.128,,,,15.843222862
1715943407398260016,0.124,,,,15.85091723
1715943407405954384,0.112,,,,15.858611598
1715943407413648752,0.033,,,,15.866305966
1715943407421343120,-0.205,,,,15.874000334
1715943407429037488,-0.558,,,,15.881694702
1715943407436731856,-0.759,,,,15.88938907
1715943407444426224,-0.5750000000000001,,,,15.897083438
1715943407452120592,0.107,,,,15.904777806
1715943407459814960,0.754,,,,15.912472174
1715943407467509328,0.53,,,,15.920166542
1715943407475203696,0.057,,,,15.92786091
1715943407482898064,0.119,,,,15.935555278
1715943407490592432,0.224,,,,15.943249646
1715943407498286800,0.121,,,,15.950944014
1715943407505981168,0.107,,,,15.958638382
1715943407513675536,0.148,,,,15.96633275
1715943407521369904,0.112,,,,15.974027118
1715943407529064272,0.09,,,,15.981721486
1715943407536758640,0.105,,,,15.989415854
1715943407544453008,0.093,,,,15.997110222
1715943407552147376,0.076,,,,16.00480459
1715943407559841744,0.074,,,,16.012498958
1715943407567536112,0.066,,,,16.020193326
1715943407575230480,0.05,,,,16.027887694
1715943407582924848,0.038,,,,16.035582062
1715943407590619216,0.023,,,,16.04327643
1715943407598313584,0.011,,,,16.050970798
1715943407606007952,-0.007,,,,16.058665166
1715943407613702320,-0.028,,,,16.066359534
1715943407621396688,-0.052,,,,16.074053902
1715943407629091056,-0.083,,,,16.08174827
1715943407636785424,-0.114,,,,16.089442638
1715943407644479792,-0.138,,,,16.097137006
1715943407652174160,-0.157,,,,16.104831374
1715943407659868528,-0.174,,,,16.112525742
1715943407667562896,-0.179,,,,16.12022011
1715943407675257264,-0.176,,,,16.127914478
1715943407682951632,-0.171,,,,16.135608846
1715943407690646000,-0.152,,,,16.143303214
1715943407698340368,-0.109,,,,16.150997582
1715943407706034736,-0.057,,,,16.15869195
1715943407713729104,0.007,,,,16.166386318
1715943407721423472,0.081,,,,16.174080686
1715943407729117840,0.143,,,,16.181775054
1715943407736812208,0.195,,,,16.189469422
1715943407744506576,0.238,,,,16.19716379
1715943407752200944,0.262,,,,16.204858158
1715943407759895312,0.269,,,,16.212552526
1715943407767589680,0.274,,,,16.220246894
1715943407775284048,0.277,,,,16.227941262
1715943407782978416,0.269,,,,16.23563563
1715943407790672784,0.26,,,,16.243329998
1715943407798367152,0.253,,,,16.251024366
1715943407806061520,0.243,,,,16.258718734
1715943407813755888,0.231,,,,16.266413102
1715943407821450256,0.224,,,,16.27410747
1715943407829144624,0.219,,,,16.281801838
1715943407836839006,0.217,,,,16.28949622
1715943407844533652,0.212,,,,16.297190866
1715943407852228298,0.207,,,,16.304885512
1715943407859922944,0.205,,,,16.312580158
1715943407867617590,0.203,,,,16.320274804
1715943407875312236,0.193,,,,16.32796945
1715943407883006882,0.186,,,,16.335664096
1715943407890701528,0.186,,,,16.343358742
1715943407898396174,0.183,,,,16.351053388
1715943407906090820,0.174,,,,16.358748034
1715943407913785466,0.169,,,,16.36644268
1715943407921480112,0.174,,,,16.374137326
1715943407929174758,0.174,,,,16.381831972
1715943407936869404,0.171,,,,16.389526618
1715943407944564050,0.174,,,,16.397221264
1715943407952258696,0.176,,,,16.40491591
1715943407959953342,0.174,,,,16.412610556
1715943407967647988,0.171,,,,16.420305202
1715943407975342634,0.169,,,,16.427999848
1715943407983037280,0.171,,,,16.435694494
1715943407990731926,0.169,,,,16.44338914
1715943407998426572,0.162,,,,16.451083786
1715943408006121218,0.157,,,,16.458778432
1715943408013815864,0.157,,,,16.466473078
1715943408021510510,0.152,,,,16.474167724
1715943408029205156,0.145,,,,16.48186237
1715943408036899802,0.143,,,,16.489557016
1715943408044594448,0.143,,,,16.497251662
1715943408052289094,0.143,,,,16.504946308
1715943408059983740,0.143,,,,16.512640954
1715943408067678386,0.14,,,,16.5203356
1715943408075373032,0.124,,,,16.528030246
1715943408083067678,0.102,,,,16.535724892
1715943408090762324,0.095,,,,16.543419538
1715943408098456970,0.093,,,,16.551114184
1715943408106151616,0.088,,,,16.55880883
1715943408113846262,0.093,,,,16.566503476
1715943408121540908,0.102,,,,16.574198122
1715943408129235554,0.114,,,,16.581892768
1715943408136930200,0.136,,,,16.589587414
1715943408144624846,0.14,,,,16.59728206
1715943408152319492,0.131,,,,16.604976706
1715943408160014138,0.133,,,,16.612671352
1715943408167708784,0.138,,,,16.620365998
1715943408175403430,0.136,,,,16.628060644
1715943408183098076,0.131,,,,16.63575529
1715943408190792722,0.128,,,,16.643449936
1715943408198487368,0.121,,,,16.651144582
1715943408206182014,0.114,,,,16.658839228
1715943408213876660,0.117,,,,16.666533874
1715943408221571306,0.112,,,,16.67422852
1715943408229265952,0.047,,,,16.681923166
1715943408236960598,-0.186,,,,16.689617812
1715943408244655244,-0.594,,,,16.697312458
1715943408252349890,-0.914,,,,16.705007104
1715943408260044536,-0.833,,,,16.71270175
1715943408267739182,-0.124,,,,16.720396396
1715943408275433828,0.6990000000000001,,,,16.728091042
1715943408283128474,0.604,,,,16.735785688
1715943408290823120,0.081,,,,16.743480334
1715943408298517766,0.102,,,,16.75117498
1715943408306212412,0.243,,,,16.758869626
1715943408313907058,0.143,,,,16.766564272
1715943408321601704,0.109,,,,16.774258918
1715943408329296350,0.157,,,,16.781953564
1715943408336990996,0.131,,,,16.78964821
1715943408344685642,0.102,,,,16.797342856
1715943408352380288,0.109,,,,16.805037502
1715943408360074934,0.102,,,,16.812732148
1715943408367769580,0.081,,,,16.820426794
1715943408375464226,0.071,,,,16.82812144
1715943408383158872,0.062,,,,16.835816086
1715943408390853518,0.05,,,,16.843510732
1715943408398548228,0.035,68.0,825.0,,16.851205442
1715943408406242735,0.021,,,,16.858899949
1715943408413937242,0.009,,,,16.866594456
1715943408421631749,-0.002,,,,16.874288963
1715943408429326256,-0.023,,,,16.88198347
1715943408437020763,-0.047,,,,16.889677977
1715943408444715270,-0.071,,,,16.897372484
1715943408452409777,-0.097,,,,16.905066991
1715943408460104284,-0.121,,,,16.912761498
1715943408467798791,-0.145,,,,16.920456005
1715943408475493298,-0.171,,,,16.928150512
1715943408483187805,-0.183,,,,16.935845019
1715943408490882312,-0.174,,,,16.943539526
1715943408498576819,-0.157,,,,16.951234033
1715943408506271326,-0.14,,,,16.95892854
1715943408513965833,-0.109,,,,16.966623047
1715943408521660340,-0.057,,,,16.974317554
1715943408529354847,0.009,,,,16.982012061
1715943408537049354,0.076,,,,16.989706568
1715943408544743861,0.136,,,,16.997401075
1715943408552438368,0.186,,,,17.005095582
1715943408560132875,0.234,,,,17.012790089
1715943408567827382,0.26,,,,17.020484596
1715943408575521889,0.272,,,,17.028179103
1715943408583216396,0.281,,,,17.03587361
1715943408590910903,0.281,,,,17.043568117
1715943408598605410,0.272,,,,17.051262624
1715943408606299917,0.262,,,,17.058957131
1715943408613994424,0.25,,,,17.066651638
1715943408621688931,0.236,,,,17.074346145
1715943408629383438,0.219,,,,17.082040652
1715943408637077945,0.214,,,,17.089735159
1715943408644772452,0.212,,,,17.097429666
1715943408652466959,0.21,,,,17.105124173
1715943408660161466,0.203,,,,17.11281868
1715943408667855973,0.203,,,,17.120513187
1715943408675550480,0.2,,,,17.128207694
1715943408683244987,0.198,,,,17.135902201
1715943408690939494,0.193,,,,17.143596708
1715943408698634001,0.183,,,,17.151291215
1715943408706328508,0.176,,,,17.158985722
1715943408714023015,0.176,,,,17.166680229
1715943408721717522,0.176,,,,17.174374736
1715943408729412029,0.174,,,,17.182069243
1715943408737106536,0.179,,,,17.18976375
1715943408744801043,0.181,,,,17.197458257
1715943408752495550,0.176,,,,17.205152764
1715943408760190057,0.179,,,,17.212847271
1715943408767884564,0.183,,,,17.220541778
1715943408775579071,0.179,,,,17.228236285
1715943408783273578,0.174,,,,17.235930792
1715943408790968085,0.176,,,,17.243625299
1715943408798662592,0.176,,,,17.251319806
1715943408806357099,0.174,,,,17.259014313
1715943408814051606,0.171,,,,17.26670882
1715943408821746113,0.169,,,,17.274403327
1715943408829440620,0.167,,,,17.282097834
1715943408837135127,0.164,,,,17.289792341
1715943408844829634,0.155,,,,17.297486848
1715943408852524141,0.152,,,,17.305181355
1715943408860218648,0.155,,,,17.312875862
1715943408867913155,0.148,,,,17.320570369
1715943408875607662,0.145,,,,17.328264876
1715943408883302169,0.152,,,,17.335959383
1715943408890996676,0.15,,,,17.34365389
1715943408898691183,0.143,,,,17.351348397
1715943408906385690,0.14,,,,17.359042904
1715943408914080197,0.145,,,,17.366737411
1715943408921774704,0.143,,,,17.374431918
1715943408929469211,0.126,,,,17.382126425
1715943408937163718,0.109,,,,17.389820932
1715943408944858225,0.105,,,,17.397515439
1715943408952552732,0.095,,,,17.405209946
1715943408960247276,0.083,,,,17.41290449
1715943408967942062,0.085,,,,17.420599276
1715943408975636848,0.102,,,,17.428294062
1715943408983331634,0.119,,,,17.435988848
1715943408991026420,0.131,,,,17.443683634
1715943408998721206,0.128,,,,17.45137842
1715943409006415992,0.119,,,,17.459073206
1715943409014110778,0.119,,,,17.466767992
1715943409021805564,0.126,,,,17.474462778
1715943409029500350,0.126,,,,17.482157564
1715943409037195136,0.126,,,,17.48985235
1715943409044889922,0.114,,,,17.497547136
1715943409052584708,0.105,,,,17.505241922
1715943409060279494,0.107,,,,17.512936708
1715943409067974280,0.114,,,,17.520631494
1715943409075669066,0.1,,,,17.52832628
1715943409083363852,0.002,,,,17.536021066
1715943409091058638,-0.312,,,,17.543715852
1715943409098753424,-0.804,,,,17.551410638
1715943409106448210,-1.146,,,,17.559105424
1715943409114142996,-0.962,,,,17.56680021
1715943409121837782,-0.062,,,,17.574494996
1715943409129532568,0.761,,,,17.582189782
1715943409137227354,0.523,,,,17.589884568
1715943409144922140,0.035,,,,17.597579354
1715943409152616926,0.14,,,,17.60527414
1715943409160311712,0.248,,,,17.612968926
1715943409168006498,0.128,,,,17.620663712
1715943409175701284,0.119,,,,17.628358498
1715943409183396070,0.162,,,,17.636053284
1715943409191090856,0.124,,,,17.64374807
1715943409198785642,0.102,,,,17.651442856
1715943409206480428,0.105,,,,17.659137642
1715943409214175214,0.09,,,,17.666832428
1715943409221870000,0.076,,,,17.674527214
1715943409229564786,0.069,,,,17.682222
1715943409237259572,0.057,,,,17.689916786
1715943409244954358,0.047,,,,17.697611572
1715943409252649144,0.035,,,,17.705306358
1715943409260343930,0.023,,,,17.713001144
1715943409268038716,0.009,,,,17.72069593
1715943409275733502,-0.007,,,,17.728390716
1715943409283428288,-0.028,,,,17.736085502
1715943409291123074,-0.052,,,,17.743780288
1715943409298817860,-0.074,,,,17.751475074
1715943409306512646,-0.097,,,,17.75916986
1715943409314207432,-0.124,,,,17.766864646
1715943409321902218,-0.145,,,,17.774559432
1715943409329597004,-0.157,,,,17.782254218
1715943409337291790,-0.16,,,,17.789949004
1715943409344986576,-0.157,,,,17.79764379
1715943409352681362,-0.148,,,,17.805338576
1715943409360376148,-0.131,,,,17.813033362
1715943409368070934,-0.1,,,,17.820728148
1715943409375765720,-0.054,,,,17.828422934
1715943409383460506,0.004,,,,17.83611772
1715943409391155292,0.071,,,,17.843812506
1715943409398850078,0.133,,,,17.851507292
1715943409406544864,0.186,,,,17.859202078
1715943409414239650,0.229,,,,17.866896864
1715943409421934436,0.255,,,,17.87459165
1715943409429629222,0.269,,,,17.882286436
1715943409437324008,0.272,,,,17.889981222
1715943409445018794,0.269,,,,17.897676008
1715943409452713580,0.265,,,,17.905370794
1715943409460408366,0.253,,,,17.91306558
1715943409468103152,0.238,,,,17.920760366
1715943409475797938,0.231,,,,17.928455152
1715943409483492724,0.226,,,,17.936149938
1715943409491187510,0.219,,,,17.943844724
1715943409498882296,0.212,,,,17.95153951
1715943409506577082,0.207,,,,17.959234296
1715943409514271868,0.205,,,,17.966929082
1715943409521966670,0.203,68.0,817.0,,17.974623884
1715943409529661038,0.2,,,,17.982318252
1715943409537355406,0.203,,,,17.99001262
1715943409545049774,0.205,,,,17.997706988
1715943409552744142,0.2,,,,18.005401356
1715943409560438510,0.195,,,,18.013095724
1715943409568132878,0.2,,,,18.020790092
1715943409575827246,0.205,,,,18.02848446
1715943409583521614,0.2,,,,18.036178828
1715943409591215982,0.191,,,,18.043873196
1715943409598910350,0.186,,,,18.051567564
1715943409606604718,0.181,,,,18.059261932
1715943409614299086,0.183,,,,18.0669563
1715943409621993454,0.186,,,,18.074650668
1715943409629687822,0.188,,,,18.082345036
1715943409637382190,0.188,,,,18.090039404
1715943409645076558,0.181,,,,18.097733772
1715943409652770926,0.176,,,,18.10542814
1715943409660465294,0.181,,,,18.113122508
1715943409668159662,0.183,,,,18.120816876
1715943409675854030,0.179,,,,18.128511244
1715943409683548398,0.176,,,,18.136205612
1715943409691242766,0.176,,,,18.14389998
1715943409698937134,0.174,,,,18.151594348
1715943409706631502,0.164,,,,18.159288716
1715943409714325870,0.155,,,,18.166983084
1715943409722020238,0.155,,,,18.174677452
1715943409729714606,0.15,,,,18.18237182
1715943409737408974,0.14,,,,18.190066188
1715943409745103342,0.143,,,,18.197760556
1715943409752797710,0.15,,,,18.205454924
1715943409760492078,0.145,,,,18.213149292
1715943409768186446,0.133,,,,18.22084366
1715943409775880814,0.138,,,,18.228538028
1715943409783575182,0.14,,,,18.236232396
1715943409791269550,0.133,,,,18.243926764
1715943409798963918,0.133,,,,18.251621132
1715943409806658286,0.126,,,,18.2593155
1715943409814352654,0.109,,,,18.267009868
1715943409822047022,0.097,,,,18.274704236
1715943409829741390,0.093,,,,18.282398604
1715943409837435758,0.081,,,,18.290092972
1715943409845130126,0.076,,,,18.29778734
1715943409852824494,0.085,,,,18.305481708
1715943409860518862,0.097,,,,18.313176076
1715943409868213230,0.117,,,,18.320870444
1715943409875907598,0.121,,,,18.328564812
1715943409883601966,0.109,,,,18.33625918
1715943409891296334,0.107,,,,18.343953548
1715943409898990702,0.117,,,,18.351647916
1715943409906685070,0.114,,,,18.359342284
1715943409914379438,0.112,,,,18.367036652
1715943409922073806,0.114,,,,18.37473102
1715943409929768174,0.117,,,,18.382425388
1715943409937462542,0.112,,,,18.390119756
1715943409945156910,0.114,,,,18.397814124
1715943409952851278,0.119,,,,18.405508492
1715943409960545646,0.05,,,,18.41320286
1715943409968240014,-0.231,,,,18.420897228
1715943409975934382,-0.738,,,,18.428591596
1715943409983628750,-1.177,,,,18.436285964
1715943409991323118,-1.151,,,,18.443980332
1715943409999017486,-0.327,,,,18.4516747
1715943410006711854,0.706,,,,18.459369068
1715943410014406222,0.706,,,,18.467063436
1715943410022100590,0.136,,,,18.474757804
1715943410029794958,0.117,,,,18.482452172
1715943410037489326,0.265,,,,18.49014654
1715943410045183694,0.169,,,,18.497840908
1715943410052878062,0.133,,,,18.505535276
1715943410060572430,0.181,,,,18.513229644
1715943410068266798,0.152,,,,18.520924012
1715943410075961166,0.121,,,,18.52861838
1715943410083655546,0.133,,,,18.53631276
1715943410091350332,0.124,,,,18.544007546
1715943410099045118,0.097,,,,18.551702332
1715943410106739904,0.09,,,,18.559397118
1715943410114434690,0.081,,,,18.567091904
1715943410122129476,0.057,,,,18.57478669
1715943410129824262,0.035,,,,18.582481476
1715943410137519048,0.021,,,,18.590176262
1715943410145213834,0.011,,,,18.597871048
1715943410152908620,-0.009,,,,18.605565834
1715943410160603406,-0.033,,,,18.61326062
1715943410168298192,-0.05,,,,18.620955406
1715943410175992978,-0.074,,,,18.628650192
1715943410183687764,-0.105,,,,18.636344978
1715943410191382550,-0.131,,,,18.644039764
1715943410199077336,-0.152,,,,18.65173455
1715943410206772122,-0.176,,,,18.659429336
1715943410214466908,-0.198,,,,18.667124122
1715943410222161694,-0.195,,,,18.674818908
1715943410229856480,-0.174,,,,18.682513694
1715943410237551266,-0.155,,,,18.69020848
1715943410245246052,-0.131,,,,18.697903266
1715943410252940838,-0.088,,,,18.705598052
1715943410260635624,-0.023,,,,18.713292838
1715943410268330410,0.042,,,,18.720987624
1715943410276025196,0.112,,,,18.72868241
1715943410283719982,0.174,,,,18.736377196
1715943410291414768,0.224,,,,18.744071982
1715943410299109554,0.253,,,,18.751766768
1715943410306804340,0.267,,,,18.759461554
1715943410314499126,0.274,,,,18.76715634
1715943410322193912,0.277,,,,18.774851126
1715943410329888698,0.272,,,,18.782545912
1715943410337583484,0.262,,,,18.790240698
1715943410345278270,0.243,,,,18.797935484
1715943410352973056,0.231,,,,18.80563027
1715943410360667842,0.231,,,,18.813325056
1715943410368362628,0.222,,,,18.821019842
1715943410376057414,0.21,,,,18.828714628
1715943410383752200,0.207,,,,18.836409414
1715943410391446986,0.207,,,,18.8441042
1715943410399141772,0.205,,,,18.851798986
1715943410406836558,0.203,,,,18.859493772
1715943410414531344,0.2,,,,18.867188558
1715943410422226130,0.198,,,,18.874883344
1715943410429920916,0.195,,,,18.88257813
1715943410437615702,0.195,,,,18.890272916
1715943410445310488,0.2,,,,18.897967702
1715943410453005274,0.203,,,,18.905662488
1715943410460700060,0.203,,,,18.913357274
1715943410468394846,0.2,,,,18.92105206
1715943410476089632,0.203,,,,18.928746846
1715943410483784418,0.203,,,,18.936441632
1715943410491479204,0.195,,,,18.944136418
1715943410499173990,0.188,,,,18.951831204
1715943410506868776,0.191,,,,18.95952599
1715943410514563562,0.198,,,,18.967220776
1715943410522258348,0.195,,,,18.974915562
1715943410529953134,0.193,,,,18.982610348
1715943410537647920,0.2,,,,18.990305134
1715943410545342706,0.198,,,,18.99799992
1715943410553037492,0.186,,,,19.005694706
1715943410560732278,0.183,,,,19.013389492
1715943410568427064,0.183,,,,19.021084278
1715943410576121850,0.176,,,,19.028779064
1715943410583816636,0.167,,,,19.03647385
1715943410591511422,0.16,,,,19.044168636
1715943410599206208,0.155,,,,19.051863422
1715943410606900994,0.155,,,,19.059558208
1715943410614595780,0.155,,,,19.067252994
1715943410622290566,0.157,,,,19.07494778
1715943410629985352,0.157,,,,19.082642566
1715943410637680138,0.155,,,,19.090337352
1715943410645374940,0.155,69.0,817.0,,19.098032154
1715943410653069308,0.15,,,,19.105726522
1715943410660763676,0.131,,,,19.11342089
1715943410668458044,0.114,,,,19.121115258
1715943410676152412,0.107,,,,19.128809626
1715943410683846780,0.093,,,,19.136503994
1715943410691541148,0.081,,,,19.144198362
1715943410699235516,0.088,,,,19.15189273
1715943410706929884,0.097,,,,19.159587098
1715943410714624252,0.107,,,,19.167281466
1715943410722318620,0.107,,,,19.174975834
1715943410730012988,0.105,,,,19.182670202
1715943410737707356,0.109,,,,19.19036457
1715943410745401724,0.112,,,,19.198058938
1715943410753096092,0.107,,,,19.205753306
1715943410760790460,0.107,,,,19.213447674
1715943410768484828,0.109,,,,19.221142042
1715943410776179196,0.109,,,,19.22883641
1715943410783873564,0.107,,,,19.236530778
1715943410791567932,0.109,,,,19.244225146
1715943410799262300,0.109,,,,19.251919514
1715943410806956668,0.042,,,,19.259613882
1715943410814651036,-0.212,,,,19.26730825
1715943410822345404,-0.659,,,,19.275002618
1715943410830039772,-0.998,,,,19.282696986
1715943410837734140,-0.902,,,,19.290391354
1715943410845428508,-0.207,,,,19.298085722
1715943410853122876,0.652,,,,19.30578009
1715943410860817244,0.678,,,,19.313474458
1715943410868511612,0.148,,,,19.321168826
1715943410876205980,0.076,,,,19.328863194
1715943410883900348,0.219,,,,19.336557562
1715943410891594716,0.145,,,,19.34425193
1715943410899289084,0.095,,,,19.351946298
1715943410906983452,0.14,,,,19.359640666
1715943410914677820,0.126,,,,19.367335034
1715943410922372188,0.093,,,,19.375029402
1715943410930066556,0.097,,,,19.38272377
1715943410937760924,0.093,,,,19.390418138
1715943410945455292,0.071,,,,19.398112506
1715943410953149660,0.071,,,,19.405806874
1715943410960844028,0.066,,,,19.413501242
1715943410968538396,0.045,,,,19.42119561
1715943410976232764,0.031,,,,19.428889978
1715943410983927132,0.023,,,,19.436584346
1715943410991621500,0.004,,,,19.444278714
1715943410999315868,-0.016,,,,19.451973082
1715943411007010236,-0.035,,,,19.45966745
1715943411014704604,-0.054,,,,19.467361818
1715943411022398972,-0.074,,,,19.475056186
1715943411030093340,-0.109,,,,19.482750554
1715943411037787708,-0.143,,,,19.490444922
1715943411045482076,-0.155,,,,19.49813929
1715943411053176444,-0.167,,,,19.505833658
1715943411060870812,-0.183,,,,19.513528026
1715943411068565180,-0.174,,,,19.521222394
1715943411076259548,-0.155,,,,19.528916762
1715943411083953916,-0.14,,,,19.53661113
1715943411091648284,-0.107,,,,19.544305498
1715943411099342652,-0.052,,,,19.551999866
1715943411107037020,0.014,,,,19.559694234
1715943411114731388,0.088,,,,19.567388602
1715943411122425756,0.157,,,,19.57508297
1715943411130120124,0.207,,,,19.582777338
1715943411137814492,0.246,,,,19.590471706
1715943411145508860,0.279,,,,19.598166074
1715943411153203228,0.293,,,,19.605860442
1715943411160897596,0.298,,,,19.61355481
1715943411168591964,0.305,,,,19.621249178
1715943411176286332,0.305,,,,19.628943546
1715943411183980700,0.289,,,,19.636637914
1715943411191675068,0.269,,,,19.644332282
1715943411199369436,0.255,,,,19.65202665
1715943411207063818,0.25,69.0,853.0,,19.659721032
1715943411214758186,0.25,,,,19.6674154
1715943411222452554,0.231,,,,19.675109768
1715943411230146922,0.21,,,,19.682804136
1715943411237841290,0.203,,,,19.690498504
1715943411245535658,0.207,,,,19.698192872
1715943411253230026,0.207,,,,19.70588724
1715943411260924394,0.2,,,,19.713581608
1715943411268618762,0.186,,,,19.721275976
1715943411276313130,0.181,,,,19.728970344
1715943411284007498,0.186,,,,19.736664712
1715943411291701866,0.191,,,,19.74435908
1715943411299396234,0.191,,,,19.752053448
1715943411307090602,0.193,,,,19.759747816
1715943411314784970,0.193,,,,19.767442184
1715943411322479338,0.191,,,,19.775136552
1715943411330173706,0.191,,,,19.78283092
1715943411337868074,0.193,,,,19.790525288
1715943411345562442,0.193,,,,19.798219656
1715943411353256810,0.188,,,,19.805914024
1715943411360951178,0.186,,,,19.813608392
1715943411368645546,0.183,,,,19.82130276
1715943411376339914,0.183,,,,19.828997128
1715943411384034282,0.179,,,,19.836691496
1715943411391728650,0.171,,,,19.844385864
1715943411399423018,0.171,,,,19.852080232
1715943411407117386,0.176,,,,19.8597746
1715943411414811754,0.174,,,,19.867468968
1715943411422506122,0.169,,,,19.875163336
1715943411430200490,0.171,,,,19.882857704
1715943411437894858,0.176,,,,19.890552072
1715943411445589226,0.167,,,,19.89824644
1715943411453283594,0.15,,,,19.905940808
1715943411460977962,0.133,,,,19.913635176
1715943411468672330,0.121,,,,19.921329544
1715943411476366698,0.112,,,,19.929023912
1715943411484061066,0.112,,,,19.93671828
1715943411491755434,0.124,,,,19.944412648
1715943411499449802,0.133,,,,19.952107016
1715943411507144170,0.143,,,,19.959801384
1715943411514838538,0.16,,,,19.967495752
1715943411522532906,0.157,,,,19.97519012
1715943411530227274,0.143,,,,19.982884488
1715943411537921642,0.136,,,,19.990578856
1715943411545616010,0.138,,,,19.998273224
1715943411553310378,0.136,,,,20.005967592
1715943411561004746,0.133,,,,20.01366196
1715943411568699114,0.136,,,,20.021356328
1715943411576393482,0.133,,,,20.029050696
1715943411584087850,0.121,,,,20.036745064
1715943411591782218,0.114,,,,20.044439432
1715943411599476586,0.069,,,,20.0521338
1715943411607170954,-0.076,,,,20.059828168
1715943411614865322,-0.334,,,,20.067522536
1715943411622559690,-0.549,,,,20.075216904
1715943411630254058,-0.492,,,,20.082911272
1715943411637948426,-0.097,,,,20.09060564
1715943411645642794,0.501,,,,20.098300008
1715943411653337162,0.704,,,,20.105994376
1715943411661031530,0.291,,,,20.113688744
1715943411668725898,0.033,,,,20.121383112
1715943411676420266,0.148,,,,20.12907748
1715943411684114634,0.152,,,,20.136771848
1715943411691809002,0.071,,,,20.144466216
1715943411699503370,0.095,,,,20.152160584
1715943411707197738,0.102,,,,20.159854952
1715943411714892106,0.062,,,,20.16754932
1715943411722586474,0.059,,,,20.175243688
1715943411730280842,0.069,,,,20.182938056
1715943411737975210,0.045,,,,20.190632424
1715943411745669578,0.021,,,,20.198326792
1715943411753363946,0.016,,,,20.20602116
1715943411761058314,0.014,,,,20.213715528
1715943411768752694,0.007,,,,20.221409908
1715943411776447271,-0.011,,,,20.229104485
1715943411784141848,-0.033,,,,20.236799062
1715943411791836425,-0.04,,,,20.244493639
1715943411799531002,-0.047,,,,20.252188216
1715943411807225579,-0.076,,,,20.259882793
1715943411814920156,-0.112,,,,20.26757737
1715943411822614733,-0.136,,,,20.275271947
1715943411830309310,-0.16,,,,20.282966524
1715943411838003887,-0.191,,,,20.290661101
1715943411845698464,-0.205,,,,20.298355678
1715943411853393041,-0.2,,,,20.306050255
1715943411861087618,-0.205,,,,20.313744832
1715943411868782195,-0.2,,,,20.321439409
1715943411876476772,-0.171,,,,20.329133986
1715943411884171349,-0.128,,,,20.336828563
1715943411891865926,-0.081,,,,20.34452314
1715943411899560503,-0.011,,,,20.352217717
1715943411907255080,0.064,,,,20.359912294
1715943411914949657,0.126,,,,20.367606871
1715943411922644234,0.174,,,,20.375301448
1715943411930338811,0.217,,,,20.382996025
1715943411938033388,0.248,,,,20.390690602
1715943411945727965,0.262,,,,20.398385179
1715943411953422542,0.267,,,,20.406079756
1715943411961117119,0.272,,,,20.413774333
1715943411968811696,0.265,,,,20.42146891
1715943411976506273,0.253,,,,20.429163487
1715943411984200850,0.253,,,,20.436858064
1715943411991895427,0.253,,,,20.444552641
1715943411999590004,0.241,,,,20.452247218
1715943412007284581,0.226,,,,20.459941795
1715943412014979158,0.217,,,,20.467636372
1715943412022673735,0.205,,,,20.475330949
1715943412030368312,0.205,,,,20.483025526
1715943412038062889,0.212,,,,20.490720103
1715943412045757466,0.198,,,,20.49841468
1715943412053452043,0.186,,,,20.506109257
1715943412061146620,0.188,,,,20.513803834
1715943412068841197,0.179,,,,20.521498411
1715943412076535774,0.174,,,,20.529192988
1715943412084230351,0.183,,,,20.536887565
1715943412091924928,0.183,,,,20.544582142
1715943412099619505,0.176,,,,20.552276719
1715943412107314082,0.183,,,,20.559971296
1715943412115008659,0.188,,,,20.567665873
1715943412122703236,0.181,,,,20.57536045
1715943412130397813,0.176,,,,20.583055027
1715943412138092390,0.179,,,,20.590749604
1715943412145786967,0.179,,,,20.598444181
1715943412153481544,0.181,,,,20.606138758
1715943412161176121,0.188,,,,20.613833335
1715943412168870698,0.179,,,,20.621527912
1715943412176565275,0.171,,,,20.629222489
1715943412184259852,0.176,,,,20.636917066
1715943412191954429,0.171,,,,20.644611643
1715943412199649006,0.162,,,,20.65230622
1715943412207343583,0.157,,,,20.660000797
1715943412215038160,0.148,,,,20.667695374
1715943412222732737,0.133,,,,20.675389951
1715943412230427314,0.112,,,,20.683084528
1715943412238121891,0.093,,,,20.690779105
1715943412245816468,0.097,,,,20.698473682
1715943412253511045,0.117,,,,20.706168259
1715943412261205622,0.128,,,,20.713862836
1715943412268900199,0.143,,,,20.721557413
1715943412276594776,0.152,,,,20.72925199
1715943412284289353,0.148,,,,20.736946567
1715943412291983930,0.145,,,,20.744641144
1715943412299678507,0.145,,,,20.752335721
1715943412307373084,0.138,,,,20.760030298
1715943412315067661,0.131,,,,20.767724875
1715943412322762238,0.128,,,,20.775419452
1715943412330456830,0.124,69.0,879.0,,20.783114044
1715943412338151407,0.117,,846.0,,20.790808621
1715943412345845984,0.105,,,,20.798503198
1715943412353540561,0.088,,,,20.806197775
1715943412361235138,0.031,,,,20.813892352
1715943412368929715,-0.119,,,,20.821586929
1715943412376624292,-0.363,,,,20.829281506
1715943412384318869,-0.494,,,,20.836976083
1715943412392013446,-0.358,,,,20.84467066
1715943412399708023,0.071,,,,20.852365237
1715943412407402600,0.589,,,,20.860059814
1715943412415097177,0.554,,,,20.867754391
1715943412422791754,0.1,,,,20.875448968
1715943412430486331,0.009,,,,20.883143545
1715943412438180908,0.138,,,,20.890838122
1715943412445875485,0.093,,,,20.898532699
1715943412453570062,0.04,,,,20.906227276
1715943412461264639,0.071,,,,20.913921853
1715943412468959216,0.062,,,,20.92161643
1715943412476653793,0.031,,,,20.929311007
1715943412484348370,0.035,,,,20.937005584
1715943412492042947,0.04,,,,20.944700161
1715943412499737524,0.028,,,,20.952394738
1715943412507432101,0.014,,,,20.960089315
1715943412515126678,0.007,,,,20.967783892
1715943412522821255,-0.002,,,,20.975478469
1715943412530515832,-0.014,,,,20.983173046
1715943412538210409,-0.021,,,,20.990867623
1715943412545904986,-0.035,,,,20.9985622
1715943412553599563,-0.059,,,,21.006256777
1715943412561294140,-0.081,,,,21.013951354
1715943412568988717,-0.1,,,,21.021645931
1715943412576683294,-0.117,,,,21.029340508
1715943412584377871,-0.148,,,,21.037035085
1715943412592072448,-0.181,,,,21.044729662
1715943412599767025,-0.193,,,,21.052424239
1715943412607461602,-0.193,,,,21.060118816
1715943412615156179,-0.2,,,,21.067813393
1715943412622850756,-0.198,,,,21.07550797
1715943412630545333,-0.169,,,,21.083202547
1715943412638239910,-0.133,,,,21.090897124
1715943412645934487,-0.097,,,,21.098591701
1715943412653629064,-0.047,,,,21.106286278
1715943412661323641,0.031,,,,21.113980855
1715943412669018218,0.109,,,,21.121675432
1715943412676712795,0.16,,,,21.129370009
1715943412684407372,0.198,,,,21.137064586
1715943412692101949,0.241,,,,21.144759163
1715943412699796526,0.267,,,,21.15245374
1715943412707491103,0.262,,,,21.160148317
1715943412715185680,0.262,,,,21.167842894
1715943412722880257,0.272,,,,21.175537471
1715943412730574834,0.267,,,,21.183232048
1715943412738269411,0.25,,,,21.190926625
1715943412745963988,0.231,,,,21.198621202
1715943412753658565,0.219,,,,21.206315779
1715943412761353142,0.212,,,,21.214010356
1715943412769047719,0.203,,,,21.221704933
1715943412776742296,0.195,,,,21.22939951
1715943412784436873,0.195,,,,21.237094087
1715943412792131450,0.188,,,,21.244788664
1715943412799826027,0.181,,,,21.252483241
1715943412807520604,0.179,,,,21.260177818
1715943412815215181,0.176,,,,21.267872395
1715943412822909758,0.169,,,,21.275566972
1715943412830604335,0.167,,,,21.283261549
1715943412838298912,0.167,,,,21.290956126
1715943412845993489,0.171,,,,21.298650703
1715943412853688066,0.179,,,,21.30634528
1715943412861382643,0.176,,,,21.314039857
1715943412869077220,0.164,,,,21.321734434
1715943412876771797,0.167,,,,21.329429011
1715943412884466374,0.171,,,,21.337123588
1715943412892160964,0.169,,,,21.344818178
1715943412899855332,0.171,,,,21.352512546
1715943412907549700,0.176,,,,21.360206914
1715943412915244068,0.171,,,,21.367901282
1715943412922938436,0.174,,,,21.37559565
1715943412930632804,0.179,,,,21.383290018
1715943412938327172,0.171,,,,21.390984386
1715943412946021540,0.155,,,,21.398678754
1715943412953715908,0.145,,,,21.406373122
1715943412961410276,0.136,,,,21.41406749
1715943412969104644,0.124,,,,21.421761858
1715943412976799012,0.109,,,,21.429456226
1715943412984493380,0.1,,,,21.437150594
1715943412992187748,0.107,,,,21.444844962
1715943412999882116,0.126,,,,21.45253933
1715943413007576484,0.138,,,,21.460233698
1715943413015270852,0.155,,,,21.467928066
1715943413022965220,0.164,,,,21.475622434
1715943413030659588,0.157,,,,21.483316802
1715943413038353956,0.15,,,,21.49101117
1715943413046048324,0.148,,,,21.498705538
1715943413053742692,0.143,,,,21.506399906
1715943413061437060,0.138,,,,21.514094274
1715943413069131428,0.133,,,,21.521788642
1715943413076825796,0.136,,,,21.52948301
1715943413084520164,0.14,,,,21.537177378
1715943413092214532,0.138,,,,21.544871746
1715943413099908900,0.121,,,,21.552566114
1715943413107603268,0.057,,,,21.560260482
1715943413115297636,-0.117,,,,21.56795485
1715943413122992004,-0.391,,,,21.575649218
1715943413130686372,-0.53,,,,21.583343586
1715943413138380740,-0.346,,,,21.591037954
1715943413146075108,0.157,,,,21.598732322
1715943413153769476,0.718,,,,21.60642669
1715943413161463844,0.666,,,,21.614121058
1715943413169158212,0.169,,,,21.621815426
1715943413176852580,0.045,,,,21.629509794
1715943413184546948,0.152,,,,21.637204162
1715943413192241316,0.095,,,,21.64489853
1715943413199935684,0.04,,,,21.652592898
1715943413207630052,0.074,,,,21.660287266
1715943413215324420,0.062,,,,21.667981634
1715943413223018788,0.028,,,,21.675676002
1715943413230713156,0.033,,,,21.68337037
1715943413238407524,0.033,,,,21.691064738
1715943413246101892,0.007,,,,21.698759106
1715943413253796260,-0.007,,,,21.706453474
1715943413261490628,-0.011,,,,21.714147842
1715943413269184996,-0.021,,,,21.72184221
1715943413276879364,-0.033,,,,21.729536578
1715943413284573732,-0.042,,,,21.737230946
1715943413292268100,-0.059,,,,21.744925314
1715943413299962468,-0.083,,,,21.752619682
1715943413307656836,-0.105,,,,21.76031405
1715943413315351204,-0.117,,,,21.768008418
1715943413323045572,-0.136,,,,21.775702786
1715943413330739940,-0.162,,,,21.783397154
1715943413338434308,-0.186,,,,21.791091522
1715943413346128676,-0.2,,,,21.79878589
1715943413353823044,-0.205,,,,21.806480258
1715943413361517412,-0.2,,,,21.814174626
1715943413369211780,-0.191,,,,21.821868994
1715943413376906148,-0.174,,,,21.829563362
1715943413384600516,-0.145,,,,21.83725773
1715943413392294884,-0.107,,,,21.844952098
1715943413399989252,-0.052,,,,21.852646466
1715943413407683620,0.019,,,,21.860340834
1715943413415377988,0.088,,,,21.868035202
1715943413423072356,0.145,,,,21.87572957
1715943413430766724,0.191,,,,21.883423938
1715943413438461092,0.222,,,,21.891118306
1715943413446155460,0.243,,,,21.898812674
1715943413453849840,0.257,69.0,794.0,,21.906507054
1715943413461544626,0.26,,,,21.91420184
1715943413469239412,0.26,,,,21.921896626
1715943413476934198,0.255,,,,21.929591412
1715943413484628984,0.236,,,,21.937286198
1715943413492323770,0.219,,,,21.944980984
1715943413500018556,0.212,,,,21.95267577
1715943413507713342,0.205,,,,21.960370556
1715943413515408128,0.198,,,,21.968065342
1715943413523102914,0.191,,,,21.975760128
1715943413530797700,0.186,,,,21.983454914
1715943413538492486,0.179,,,,21.9911497
1715943413546187272,0.171,,,,21.998844486
1715943413553882058,0.169,,,,22.006539272
1715943413561576844,0.171,,,,22.014234058
1715943413569271630,0.169,,,,22.021928844
1715943413576966416,0.162,,,,22.02962363
1715943413584661202,0.167,,,,22.037318416
1715943413592355988,0.174,,,,22.045013202
1715943413600050774,0.176,,,,22.052707988
1715943413607745560,0.171,,,,22.060402774
1715943413615440346,0.171,,,,22.06809756
1715943413623135132,0.176,,,,22.075792346
1715943413630829918,0.179,,,,22.083487132
1715943413638524704,0.179,,,,22.091181918
1715943413646219490,0.181,,,,22.098876704
1715943413653914276,0.183,,,,22.10657149
1715943413661609062,0.179,,,,22.114266276
1715943413669303848,0.174,,,,22.121961062
1715943413676998634,0.176,,,,22.129655848
1715943413684693420,0.181,,,,22.137350634
1715943413692388206,0.179,,,,22.14504542
1715943413700082992,0.169,,,,22.152740206
1715943413707777778,0.157,,,,22.160434992
1715943413715472564,0.145,,,,22.168129778
1715943413723167350,0.133,,,,22.175824564
1715943413730862136,0.124,,,,22.18351935
1715943413738556922,0.121,,,,22.191214136
1715943413746251708,0.131,,,,22.198908922
1715943413753946494,0.133,,,,22.206603708
