time,ecg,hr,rr,marker,norm_time
1715943184837932132,0.124,,,,0.0
1715943184845626918,0.095,,,,0.007694786
1715943184853321704,0.066,,,,0.015389572
1715943184861016490,0.066,,,,0.023084358
1715943184868711276,0.064,,,,0.030779144
1715943184876406062,0.035,,,,0.03847393
1715943184884100848,0.009,,,,0.046168716
1715943184891795634,0.002,,,,0.053863502
1715943184899490420,-0.009,,,,0.061558288
1715943184907185206,-0.035,,,,0.069253074
1715943184914879992,-0.066,,,,0.07694786
1715943184922574778,-0.097,,,,0.084642646
1715943184930269564,-0.124,,,,0.092337432
1715943184937964350,-0.148,,,,0.100032218
1715943184945659136,-0.176,,,,0.107727004
1715943184953353922,-0.203,,,,0.11542179
1715943184961048708,-0.212,,,,0.123116576
1715943184968743494,-0.212,,,,0.130811362
1715943184976438280,-0.2,,,,0.138506148
1715943184984133066,-0.171,,,,0.146200934
1715943184991827852,-0.14,,,,0.15389572
1715943184999522638,-0.093,,,,0.161590506
1715943185007217424,-0.014,,,,0.169285292
1715943185014912210,0.066,,,,0.176980078
1715943185022606996,0.131,,,,0.184674864
1715943185030301782,0.191,,,,0.19236965
1715943185037996568,0.241,,,,0.200064436
1715943185045691354,0.272,,,,0.207759222
1715943185053386140,0.286,,,,0.215454008
1715943185061080926,0.289,,,,0.223148794
1715943185068775712,0.284,,,,0.23084358
1715943185076470498,0.277,,,,0.238538366
1715943185084165284,0.262,,,,0.246233152
1715943185091860070,0.246,,,,0.253927938
1715943185099554856,0.241,,,,0.261622724
1715943185107249642,0.236,,,,0.26931751
1715943185114944428,0.219,,,,0.277012296
1715943185122639214,0.207,,,,0.284707082
1715943185130334000,0.205,,,,0.292401868
1715943185138028786,0.203,,,,0.300096654
1715943185145723572,0.198,,,,0.30779144
1715943185153418358,0.193,,,,0.315486226
1715943185161113144,0.193,,,,0.323181012
1715943185168807930,0.193,,,,0.330875798
1715943185176502716,0.191,,,,0.338570584
1715943185184197502,0.188,,,,0.34626537
1715943185191892288,0.193,,,,0.353960156
1715943185199587074,0.193,,,,0.361654942
1715943185207281860,0.188,,,,0.369349728
1715943185214976646,0.188,,,,0.377044514
1715943185222671432,0.186,,,,0.3847393
1715943185230366218,0.181,,,,0.392434086
1715943185238061004,0.181,,,,0.400128872
1715943185245755790,0.181,,,,0.407823658
1715943185253450576,0.176,,,,0.415518444
1715943185261145362,0.174,,,,0.42321323
1715943185268840148,0.171,,,,0.430908016
1715943185276534934,0.171,,,,0.438602802
1715943185284229720,0.174,,,,0.446297588
1715943185291924506,0.171,,,,0.453992374
1715943185299619292,0.167,,,,0.46168716
1715943185307314078,0.164,,,,0.469381946
1715943185315008864,0.167,,,,0.477076732
1715943185322703650,0.164,,,,0.484771518
1715943185330398436,0.164,,,,0.492466304
1715943185338093222,0.167,,,,0.50016109
1715943185345788008,0.162,,,,0.507855876
1715943185353482794,0.143,,,,0.515550662
1715943185361177580,0.121,,,,0.523245448
1715943185368872366,0.107,,,,0.530940234
1715943185376567152,0.102,,,,0.53863502
1715943185384261938,0.093,,,,0.546329806
1715943185391956724,0.085,,,,0.554024592
1715943185399651528,0.1,69.0,891.0,,0.561719396
1715943185407346314,0.121,,,,0.569414182
1715943185415041100,0.136,,,,0.577108968
1715943185422735886,0.143,,,,0.584803754
1715943185430430672,0.138,,,,0.59249854
1715943185438125458,0.131,,,,0.600193326
1715943185445820244,0.133,,,,0.607888112
1715943185453515030,0.14,,,,0.615582898
1715943185461209816,0.14,,,,0.623277684
1715943185468904602,0.138,,,,0.63097247
1715943185476599388,0.136,,,,0.638667256
1715943185484294174,0.128,,,,0.646362042
1715943185491988960,0.124,,,,0.654056828
1715943185499683746,0.124,,,,0.661751614
1715943185507378532,0.057,,,,0.6694464
1715943185515073318,-0.179,,,,0.677141186
1715943185522768104,-0.606,,,,0.684835972
1715943185530462890,-0.972,,,,0.692530758
1715943185538157676,-0.95,,,,0.700225544
1715943185545852462,-0.289,,,,0.70792033
1715943185553547248,0.63,,,,0.715615116
1715943185561242034,0.706,,,,0.723309902
1715943185568936820,0.162,,,,0.731004688
1715943185576631606,0.081,,,,0.738699474
1715943185584326392,0.231,,,,0.74639426
1715943185592021178,0.145,,,,0.754089046
1715943185599715964,0.088,,,,0.761783832
1715943185607410750,0.14,,,,0.769478618
1715943185615105536,0.124,,,,0.777173404
1715943185622800322,0.09,,,,0.78486819
1715943185630495108,0.097,,,,0.792562976
1715943185638189894,0.09,,,,0.800257762
1715943185645884680,0.071,,,,0.807952548
1715943185653579466,0.064,,,,0.815647334
1715943185661274252,0.057,,,,0.82334212
1715943185668969038,0.042,,,,0.831036906
1715943185676663824,0.028,,,,0.838731692
1715943185684358610,0.014,,,,0.846426478
1715943185692053396,-0.002,,,,0.854121264
1715943185699748182,-0.019,,,,0.86181605
1715943185707442968,-0.038,,,,0.869510836
1715943185715137754,-0.066,,,,0.877205622
1715943185722832540,-0.1,,,,0.884900408
1715943185730527326,-0.136,,,,0.892595194
1715943185738222112,-0.169,,,,0.90028998
1715943185745916898,-0.198,,,,0.907984766
1715943185753611684,-0.219,,,,0.915679552
1715943185761306470,-0.222,,,,0.923374338
1715943185769001256,-0.214,,,,0.931069124
1715943185776696042,-0.203,,,,0.93876391
1715943185784390828,-0.181,,,,0.946458696
1715943185792085614,-0.138,,,,0.954153482
1715943185799780400,-0.071,,,,0.961848268
1715943185807475186,0.002,,,,0.969543054
1715943185815169972,0.083,,,,0.97723784
1715943185822864758,0.162,,,,0.984932626
1715943185830559544,0.217,,,,0.992627412
1715943185838254330,0.248,,,,1.000322198
1715943185845949116,0.272,,,,1.008016984
1715943185853643902,0.293,,,,1.01571177
1715943185861338688,0.298,,,,1.023406556
1715943185869033474,0.291,,,,1.031101342
1715943185876728260,0.281,,,,1.038796128
1715943185884423046,0.277,,,,1.046490914
1715943185892117832,0.267,,,,1.0541857
1715943185899812618,0.255,,,,1.061880486
1715943185907507404,0.248,,,,1.069575272
1715943185915202190,0.243,,,,1.077270058
1715943185922896976,0.226,,,,1.084964844
1715943185930591762,0.21,,,,1.09265963
1715943185938286548,0.207,,,,1.100354416
1715943185945981334,0.212,,,,1.108049202
1715943185953676120,0.207,,,,1.115743988
1715943185961370922,0.203,,,,1.12343879
1715943185969065708,0.2,,,,1.131133576
1715943185976760494,0.195,,,,1.138828362
1715943185984455280,0.191,,,,1.146523148
1715943185992150066,0.191,,,,1.154217934
1715943185999844852,0.193,,,,1.16191272
1715943186007539638,0.198,,,,1.169607506
1715943186015234424,0.193,,,,1.177302292
1715943186022929210,0.191,,,,1.184997078
1715943186030623996,0.193,,,,1.192691864
1715943186038318782,0.2,,,,1.20038665
1715943186046013568,0.193,,,,1.208081436
1715943186053708354,0.179,,,,1.215776222
1715943186061403140,0.179,,,,1.223471008
1715943186069097926,0.183,,,,1.231165794
1715943186076792712,0.181,,,,1.23886058
1715943186084487498,0.171,,,,1.246555366
1715943186092182284,0.164,,,,1.254250152
1715943186099877070,0.164,,,,1.261944938
1715943186107571856,0.162,,,,1.269639724
1715943186115266642,0.162,,,,1.27733451
1715943186122961428,0.16,,,,1.285029296
1715943186130656214,0.152,,,,1.292724082
1715943186138351000,0.148,,,,1.300418868
1715943186146045786,0.148,,,,1.308113654
1715943186153740572,0.148,,,,1.31580844
1715943186161435358,0.148,,,,1.323503226
1715943186169130144,0.143,,,,1.331198012
1715943186176824930,0.14,,,,1.338892798
1715943186184519716,0.136,,,,1.346587584
1715943186192214502,0.119,,,,1.35428237
1715943186199909288,0.107,,,,1.361977156
1715943186207604074,0.102,,,,1.369671942
1715943186215298860,0.095,,,,1.377366728
1715943186222993646,0.093,,,,1.385061514
1715943186230688432,0.102,,,,1.3927563
1715943186238383218,0.119,,,,1.400451086
1715943186246078004,0.138,,,,1.408145872
1715943186253772790,0.143,,,,1.415840658
1715943186261467576,0.133,,,,1.423535444
1715943186269162362,0.128,,,,1.43123023
1715943186276857148,0.128,,,,1.438925016
1715943186284551934,0.126,,,,1.446619802
1715943186292246720,0.121,,,,1.454314588
1715943186299941506,0.126,,,,1.462009374
1715943186307636292,0.126,,,,1.46970416
1715943186315331078,0.124,,,,1.477398946
1715943186323025864,0.121,,,,1.485093732
1715943186330720650,0.117,,,,1.492788518
1715943186338415436,0.071,,,,1.500483304
1715943186346110222,-0.136,,,,1.50817809
1715943186353805008,-0.58,,,,1.515872876
1715943186361499794,-1.003,,,,1.523567662
1715943186369194580,-1.046,,,,1.531262448
1715943186376889366,-0.427,,,,1.538957234
1715943186384584152,0.544,,,,1.54665202
1715943186392278938,0.721,,,,1.554346806
1715943186399973724,0.181,,,,1.562041592
1715943186407668510,0.076,,,,1.569736378
1715943186415363296,0.265,,,,1.577431164
1715943186423058082,0.198,,,,1.58512595
1715943186430752868,0.112,,,,1.592820736
1715943186438447654,0.14,,,,1.600515522
1715943186446142440,0.131,,,,1.608210308
1715943186453837226,0.105,,,,1.615905094
1715943186461532012,0.114,,,,1.62359988
1715943186469226798,0.107,,,,1.631294666
1715943186476921584,0.083,,,,1.638989452
1715943186484616370,0.078,,,,1.646684238
1715943186492311156,0.074,,,,1.654379024
1715943186500005942,0.057,,,,1.66207381
1715943186507700728,0.042,,,,1.669768596
1715943186515395514,0.028,,,,1.677463382
1715943186523090316,0.014,69.0,857.0,,1.685158184
1715943186530784684,-0.009,,796.0,,1.692852552
1715943186538479052,-0.035,,,,1.70054692
1715943186546173420,-0.054,,,,1.708241288
1715943186553867788,-0.078,,,,1.715935656
1715943186561562156,-0.112,,,,1.723630024
1715943186569256524,-0.148,,,,1.731324392
1715943186576950892,-0.179,,,,1.73901876
1715943186584645260,-0.219,,,,1.746713128
1715943186592339628,-0.246,,,,1.754407496
1715943186600033996,-0.234,,,,1.762101864
1715943186607728364,-0.207,,,,1.769796232
1715943186615422732,-0.195,,,,1.7774906
1715943186623117100,-0.167,,,,1.785184968
1715943186630811468,-0.102,,,,1.792879336
1715943186638505836,-0.026,,,,1.800573704
1715943186646200204,0.047,,,,1.808268072
1715943186653894572,0.121,,,,1.81596244
1715943186661588940,0.183,,,,1.823656808
1715943186669283308,0.231,,,,1.831351176
1715943186676977676,0.255,,,,1.839045544
1715943186684672044,0.267,,,,1.846739912
1715943186692366412,0.272,,,,1.85443428
1715943186700060780,0.272,,,,1.862128648
1715943186707755148,0.265,,,,1.869823016
1715943186715449516,0.253,,,,1.877517384
1715943186723143884,0.243,,,,1.885211752
1715943186730838252,0.234,,,,1.89290612
1715943186738532620,0.224,,,,1.900600488
1715943186746226988,0.214,,,,1.908294856
1715943186753921356,0.21,,,,1.915989224
1715943186761615724,0.203,,,,1.923683592
1715943186769310092,0.195,,,,1.93137796
1715943186777004460,0.193,,,,1.939072328
1715943186784698828,0.193,,,,1.946766696
1715943186792393196,0.191,,,,1.954461064
1715943186800087564,0.191,,,,1.962155432
1715943186807781932,0.191,,,,1.9698498
1715943186815476300,0.188,,,,1.977544168
1715943186823170668,0.186,,,,1.985238536
1715943186830865036,0.186,,,,1.992932904
1715943186838559404,0.186,,,,2.000627272
1715943186846253772,0.191,,,,2.00832164
1715943186853948140,0.198,,,,2.016016008
1715943186861642508,0.195,,,,2.023710376
1715943186869336876,0.193,,,,2.031404744
1715943186877031244,0.193,,,,2.039099112
1715943186884725612,0.193,,,,2.04679348
1715943186892419980,0.188,,,,2.054487848
1715943186900114348,0.186,,,,2.062182216
1715943186907808716,0.188,,,,2.069876584
1715943186915503084,0.191,,,,2.077570952
1715943186923197452,0.191,,,,2.08526532
1715943186930891820,0.186,,,,2.092959688
1715943186938586188,0.183,,,,2.100654056
1715943186946280556,0.181,,,,2.108348424
1715943186953974924,0.181,,,,2.116042792
1715943186961669292,0.179,,,,2.12373716
1715943186969363660,0.167,,,,2.131431528
1715943186977058028,0.16,,,,2.139125896
1715943186984752396,0.157,,,,2.146820264
1715943186992446764,0.162,,,,2.154514632
1715943187000141132,0.162,,,,2.162209
1715943187007835500,0.16,,,,2.169903368
1715943187015529868,0.155,,,,2.177597736
1715943187023224236,0.145,,,,2.185292104
1715943187030918604,0.14,,,,2.192986472
1715943187038612972,0.145,,,,2.20068084
1715943187046307340,0.145,,,,2.208375208
1715943187054001708,0.143,,,,2.216069576
1715943187061696076,0.15,,,,2.223763944
1715943187069390444,0.15,,,,2.231458312
1715943187077084812,0.138,,,,2.23915268
1715943187084779192,0.133,,,,2.24684706
1715943187092473978,0.121,,,,2.254541846
1715943187100168764,0.097,,,,2.262236632
1715943187107863550,0.088,,,,2.269931418
1715943187115558336,0.09,,,,2.277626204
1715943187123253122,0.078,,,,2.28532099
1715943187130947908,0.057,,,,2.293015776
1715943187138642694,0.064,,,,2.300710562
1715943187146337480,0.083,,,,2.308405348
1715943187154032266,0.095,,,,2.316100134
1715943187161727052,0.105,,,,2.32379492
1715943187169421838,0.102,,,,2.331489706
1715943187177116624,0.097,,,,2.339184492
1715943187184811410,0.097,,,,2.346879278
1715943187192506196,0.102,,,,2.354574064
1715943187200200982,0.102,,,,2.36226885
1715943187207895768,0.095,,,,2.369963636
1715943187215590554,0.088,,,,2.377658422
1715943187223285340,0.09,,,,2.385353208
1715943187230980126,0.093,,,,2.393047994
1715943187238674912,0.095,,,,2.40074278
1715943187246369698,0.088,,,,2.408437566
1715943187254064484,0.002,,,,2.416132352
1715943187261759270,-0.298,,,,2.423827138
1715943187269454056,-0.781,,,,2.431521924
1715943187277148842,-1.098,,,,2.43921671
1715943187284843628,-0.91,,,,2.446911496
1715943187292538414,-0.052,,,,2.454606282
1715943187300233200,0.781,,,,2.462301068
1715943187307927986,0.589,,,,2.469995854
1715943187315622772,0.066,,,,2.47769064
1715943187323317558,0.126,,,,2.485385426
1715943187331012344,0.236,,,,2.493080212
1715943187338707130,0.119,,,,2.500774998
1715943187346401916,0.102,,,,2.508469784
1715943187354096702,0.15,,,,2.51616457
1715943187361791488,0.119,,,,2.523859356
1715943187369486274,0.09,,,,2.531554142
1715943187377181060,0.097,,,,2.539248928
1715943187384875846,0.09,,,,2.546943714
1715943187392570632,0.071,,,,2.5546385
1715943187400265418,0.062,,,,2.562333286
1715943187407960204,0.057,,,,2.570028072
1715943187415654990,0.045,,,,2.577722858
1715943187423349776,0.028,,,,2.585417644
1715943187431044562,0.009,,,,2.59311243
1715943187438739348,-0.009,,,,2.600807216
1715943187446434134,-0.028,,,,2.608502002
1715943187454128920,-0.052,,,,2.616196788
1715943187461823706,-0.085,,,,2.623891574
1715943187469518492,-0.119,,,,2.63158636
1715943187477213278,-0.148,,,,2.639281146
1715943187484908064,-0.176,,,,2.646975932
1715943187492602850,-0.21,,,,2.654670718
1715943187500297636,-0.226,,,,2.662365504
1715943187507992422,-0.224,,,,2.67006029
1715943187515687208,-0.219,,,,2.677755076
1715943187523381994,-0.2,,,,2.685449862
1715943187531076780,-0.174,,,,2.693144648
1715943187538771566,-0.138,,,,2.700839434
1715943187546466352,-0.076,,,,2.70853422
1715943187554161138,0.007,,,,2.716229006
1715943187561855924,0.088,,,,2.723923792
1715943187569550710,0.155,,,,2.731618578
1715943187577245496,0.207,,,,2.739313364
1715943187584940282,0.246,,,,2.74700815
1715943187592635068,0.265,,,,2.754702936
1715943187600329854,0.274,,,,2.762397722
1715943187608024640,0.277,,,,2.770092508
1715943187615719426,0.279,,,,2.777787294
1715943187623414212,0.277,,,,2.78548208
1715943187631108998,0.267,,,,2.793176866
1715943187638803784,0.255,,,,2.800871652
1715943187646498586,0.246,69.0,798.0,,2.808566454
1715943187654192954,0.238,,,,2.816260822
1715943187661887322,0.231,,,,2.82395519
1715943187669581690,0.224,,,,2.831649558
1715943187677276058,0.214,,,,2.839343926
1715943187684970426,0.21,,,,2.847038294
1715943187692664794,0.207,,,,2.854732662
1715943187700359162,0.2,,,,2.86242703
1715943187708053530,0.193,,,,2.870121398
1715943187715747898,0.195,,,,2.877815766
1715943187723442266,0.188,,,,2.885510134
1715943187731136634,0.167,,,,2.893204502
1715943187738831002,0.164,,,,2.90089887
1715943187746525370,0.176,,,,2.908593238
1715943187754219738,0.181,,,,2.916287606
1715943187761914106,0.181,,,,2.923981974
1715943187769608474,0.183,,,,2.931676342
1715943187777302842,0.183,,,,2.93937071
1715943187784997210,0.183,,,,2.947065078
1715943187792691578,0.183,,,,2.954759446
1715943187800385946,0.186,,,,2.962453814
1715943187808080314,0.181,,,,2.970148182
1715943187815774682,0.179,,,,2.97784255
1715943187823469050,0.181,,,,2.985536918
1715943187831163418,0.183,,,,2.993231286
1715943187838857786,0.183,,,,3.000925654
1715943187846552154,0.181,,,,3.008620022
1715943187854246522,0.176,,,,3.01631439
1715943187861940890,0.174,,,,3.024008758
1715943187869635258,0.169,,,,3.031703126
1715943187877329626,0.162,,,,3.039397494
1715943187885023994,0.162,,,,3.047091862
1715943187892718362,0.164,,,,3.05478623
1715943187900412730,0.16,,,,3.062480598
1715943187908107098,0.15,,,,3.070174966
1715943187915801466,0.148,,,,3.077869334
1715943187923495834,0.152,,,,3.085563702
1715943187931190202,0.15,,,,3.09325807
1715943187938884570,0.145,,,,3.100952438
1715943187946578938,0.14,,,,3.108646806
1715943187954273306,0.138,,,,3.116341174
1715943187961967674,0.136,,,,3.124035542
1715943187969662042,0.138,,,,3.13172991
1715943187977356410,0.136,,,,3.139424278
1715943187985050778,0.136,,,,3.147118646
1715943187992745146,0.133,,,,3.154813014
1715943188000439514,0.128,,,,3.162507382
1715943188008133882,0.121,,,,3.17020175
1715943188015828250,0.124,,,,3.177896118
1715943188023522618,0.119,,,,3.185590486
1715943188031216986,0.112,,,,3.193284854
1715943188038911354,0.114,,,,3.200979222
1715943188046605722,0.117,,,,3.20867359
1715943188054300090,0.114,,,,3.216367958
1715943188061994458,0.105,,,,3.224062326
1715943188069688826,0.095,,,,3.231756694
1715943188077383194,0.088,,,,3.239451062
1715943188085077562,0.078,,,,3.24714543
1715943188092771930,0.059,,,,3.254839798
1715943188100466298,0.047,,,,3.262534166
1715943188108160666,0.057,,,,3.270228534
1715943188115855034,0.074,,,,3.277922902
1715943188123549402,0.088,,,,3.28561727
1715943188131243770,0.107,,,,3.293311638
1715943188138938138,0.109,,,,3.301006006
1715943188146632506,0.102,,,,3.308700374
1715943188154326874,0.107,,,,3.316394742
1715943188162021242,0.112,,,,3.32408911
1715943188169715610,0.114,,,,3.331783478
1715943188177409978,0.114,,,,3.339477846
1715943188185104346,0.107,,,,3.347172214
1715943188192798714,0.1,,,,3.354866582
1715943188200493082,0.102,,,,3.36256095
1715943188208187464,0.105,70.0,832.0,,3.370255332
1715943188215882250,0.102,,,,3.377950118
1715943188223577036,0.031,,,,3.385644904
1715943188231271822,-0.255,,,,3.39333969
1715943188238966608,-0.747,,,,3.401034476
1715943188246661394,-1.084,,,,3.408729262
1715943188254356180,-0.943,,,,3.416424048
1715943188262050966,-0.162,,,,3.424118834
1715943188269745752,0.666,,,,3.43181362
1715943188277440538,0.539,,,,3.439508406
1715943188285135324,0.059,,,,3.447203192
1715943188292830110,0.126,,,,3.454897978
1715943188300524896,0.246,,,,3.462592764
1715943188308219682,0.133,,,,3.47028755
1715943188315914468,0.114,,,,3.477982336
1715943188323609254,0.162,,,,3.485677122
1715943188331304040,0.128,,,,3.493371908
1715943188338998826,0.107,,,,3.501066694
1715943188346693612,0.121,,,,3.50876148
1715943188354388398,0.109,,,,3.516456266
1715943188362083184,0.09,,,,3.524151052
1715943188369777970,0.081,,,,3.531845838
1715943188377472756,0.074,,,,3.539540624
1715943188385167542,0.059,,,,3.54723541
1715943188392862328,0.047,,,,3.554930196
1715943188400557114,0.038,,,,3.562624982
1715943188408251900,0.023,,,,3.570319768
1715943188415946686,-0.004,,,,3.578014554
1715943188423641472,-0.031,,,,3.58570934
1715943188431336258,-0.042,,,,3.593404126
1715943188439031044,-0.071,,,,3.601098912
1715943188446725830,-0.114,,,,3.608793698
1715943188454420616,-0.145,,,,3.616488484
1715943188462115402,-0.167,,,,3.62418327
1715943188469810188,-0.186,,,,3.631878056
1715943188477504974,-0.2,,,,3.639572842
1715943188485199760,-0.203,,,,3.647267628
1715943188492894546,-0.191,,,,3.654962414
1715943188500589332,-0.16,,,,3.6626572
1715943188508284118,-0.126,,,,3.670351986
1715943188515978904,-0.081,,,,3.678046772
1715943188523673690,-0.009,,,,3.685741558
1715943188531368476,0.066,,,,3.693436344
1715943188539063262,0.128,,,,3.70113113
1715943188546758048,0.181,,,,3.708825916
1715943188554452834,0.226,,,,3.716520702
1715943188562147620,0.255,,,,3.724215488
1715943188569842406,0.267,,,,3.731910274
1715943188577537192,0.274,,,,3.73960506
1715943188585231978,0.274,,,,3.747299846
1715943188592926764,0.262,,,,3.754994632
1715943188600621550,0.248,,,,3.762689418
1715943188608316336,0.236,,,,3.770384204
1715943188616011122,0.229,,,,3.77807899
1715943188623705908,0.222,,,,3.785773776
1715943188631400694,0.214,,,,3.793468562
1715943188639095480,0.21,,,,3.801163348
1715943188646790266,0.205,,,,3.808858134
1715943188654485052,0.205,,,,3.81655292
1715943188662179838,0.198,,,,3.824247706
1715943188669874624,0.188,,,,3.831942492
1715943188677569410,0.183,,,,3.839637278
1715943188685264196,0.179,,,,3.847332064
1715943188692958982,0.167,,,,3.85502685
1715943188700653768,0.169,,,,3.862721636
1715943188708348554,0.174,,,,3.870416422
1715943188716043340,0.171,,,,3.878111208
1715943188723738126,0.169,,,,3.885805994
1715943188731432912,0.169,,,,3.89350078
1715943188739127698,0.167,,,,3.901195566
1715943188746822484,0.167,,,,3.908890352
1715943188754517270,0.167,,,,3.916585138
1715943188762212056,0.169,,,,3.924279924
1715943188769906858,0.171,,,,3.931974726
1715943188777601644,0.167,,,,3.939669512
1715943188785296430,0.167,,,,3.947364298
1715943188792991216,0.167,,,,3.955059084
1715943188800686002,0.157,,,,3.96275387
1715943188808380788,0.15,,,,3.970448656
1715943188816075574,0.15,,,,3.978143442
1715943188823770360,0.143,,,,3.985838228
1715943188831465146,0.133,,,,3.993533014
1715943188839159932,0.124,,,,4.0012278
1715943188846854718,0.119,,,,4.008922586
1715943188854549504,0.119,,,,4.016617372
1715943188862244290,0.119,,,,4.024312158
1715943188869939076,0.109,,,,4.032006944
1715943188877633862,0.102,,,,4.03970173
1715943188885328648,0.109,,,,4.047396516
1715943188893023434,0.109,,,,4.055091302
1715943188900718220,0.102,,,,4.062786088
1715943188908413006,0.102,,,,4.070480874
1715943188916107792,0.109,,,,4.07817566
1715943188923802578,0.109,,,,4.085870446
1715943188931497364,0.105,,,,4.093565232
1715943188939192150,0.105,,,,4.101260018
1715943188946886936,0.105,,,,4.108954804
1715943188954581722,0.105,,,,4.11664959
1715943188962276508,0.102,,,,4.124344376
1715943188969971294,0.105,,,,4.132039162
1715943188977666080,0.109,,,,4.139733948
1715943188985360866,0.114,,,,4.147428734
1715943188993055652,0.112,,,,4.15512352
1715943189000750438,0.114,,,,4.162818306
1715943189008445224,0.119,,,,4.170513092
1715943189016140010,0.119,,,,4.178207878
1715943189023834796,0.119,,,,4.185902664
1715943189031529582,0.119,,,,4.19359745
1715943189039224368,0.121,,,,4.201292236
1715943189046919154,0.121,,,,4.208987022
1715943189054613940,0.124,,,,4.216681808
1715943189062308726,0.126,,,,4.224376594
1715943189070003512,0.126,,,,4.23207138
1715943189077698298,0.124,,,,4.239766166
1715943189085393084,0.117,,,,4.247460952
1715943189093087870,0.102,,,,4.255155738
1715943189100782656,0.095,,,,4.262850524
1715943189108477442,0.085,,,,4.27054531
1715943189116172228,0.069,,,,4.278240096
1715943189123867014,0.074,,,,4.285934882
1715943189131561800,0.093,,,,4.293629668
1715943189139256586,0.102,,,,4.301324454
1715943189146951372,0.114,,,,4.30901924
1715943189154646158,0.128,,,,4.316714026
1715943189162340944,0.126,,,,4.324408812
1715943189170035730,0.119,,,,4.332103598
1715943189177730516,0.121,,,,4.339798384
1715943189185425302,0.121,,,,4.34749317
1715943189193120088,0.121,,,,4.355187956
1715943189200814874,0.119,,,,4.362882742
1715943189208509660,0.119,,,,4.370577528
1715943189216204446,0.121,,,,4.378272314
1715943189223899232,0.119,,,,4.3859671
1715943189231594018,0.117,,,,4.393661886
1715943189239288804,0.102,,,,4.401356672
1715943189246983590,-0.054,,,,4.409051458
1715943189254678376,-0.496,,,,4.416746244
1715943189262373162,-1.007,,,,4.42444103
1715943189270067948,-1.194,,,,4.432135816
1715943189277762734,-0.733,,,,4.439830602
1715943189285457520,0.298,,,,4.447525388
1715943189293152306,0.757,,,,4.455220174
1715943189300847092,0.279,,,,4.46291496
1715943189308541878,0.057,,,,4.470609746
1715943189316236664,0.265,,,,4.478304532
1715943189323931450,0.243,,,,4.485999318
1715943189331626252,0.14,70.0,913.0,,4.49369412
1715943189339321038,0.181,,,,4.501388906
1715943189347015824,0.188,,,,4.509083692
1715943189354710610,0.143,,,,4.516778478
1715943189362405396,0.148,,,,4.524473264
1715943189370100182,0.152,,,,4.53216805
1715943189377794968,0.128,,,,4.539862836
1715943189385489754,0.112,,,,4.547557622
1715943189393184540,0.109,,,,4.555252408
1715943189400879326,0.097,,,,4.562947194
1715943189408574112,0.074,,,,4.57064198
1715943189416268898,0.054,,,,4.578336766
1715943189423963684,0.038,,,,4.586031552
1715943189431658470,0.011,,,,4.593726338
1715943189439353256,-0.011,,,,4.601421124
1715943189447048042,-0.031,,,,4.60911591
1715943189454742828,-0.057,,,,4.616810696
1715943189462437614,-0.093,,,,4.624505482
1715943189470132400,-0.133,,,,4.632200268
1715943189477827186,-0.167,,,,4.639895054
1715943189485521972,-0.195,,,,4.64758984
1715943189493216758,-0.214,,,,4.655284626
1715943189500911544,-0.226,,,,4.662979412
1715943189508606330,-0.224,,,,4.670674198
1715943189516301116,-0.21,,,,4.678368984
1715943189523995902,-0.193,,,,4.68606377
1715943189531690688,-0.152,,,,4.693758556
1715943189539385474,-0.081,,,,4.701453342
1715943189547080260,0.0,,,,4.709148128
1715943189554775046,0.071,,,,4.716842914
1715943189562469832,0.136,,,,4.7245377
1715943189570164618,0.195,,,,4.732232486
1715943189577859404,0.241,,,,4.739927272
1715943189585554190,0.262,,,,4.747622058
1715943189593248976,0.269,,,,4.755316844
1715943189600943762,0.277,,,,4.76301163
1715943189608638548,0.262,,,,4.770706416
1715943189616333334,0.236,,,,4.778401202
1715943189624028120,0.224,,,,4.786095988
1715943189631722906,0.224,,,,4.793790774
1715943189639417692,0.219,,,,4.80148556
1715943189647112478,0.21,,,,4.809180346
1715943189654807264,0.205,,,,4.816875132
1715943189662502050,0.2,,,,4.824569918
1715943189670196836,0.193,,,,4.832264704
1715943189677891622,0.183,,,,4.83995949
1715943189685586408,0.179,,,,4.847654276
1715943189693281194,0.174,,,,4.855349062
1715943189700975980,0.174,,,,4.863043848
1715943189708670766,0.171,,,,4.870738634
1715943189716365552,0.169,,,,4.87843342
1715943189724060338,0.169,,,,4.886128206
1715943189731755124,0.169,,,,4.893822992
1715943189739449910,0.167,,,,4.901517778
1715943189747144696,0.164,,,,4.909212564
1715943189754839482,0.169,,,,4.91690735
1715943189762534268,0.169,,,,4.924602136
1715943189770229054,0.167,,,,4.932296922
1715943189777923840,0.169,,,,4.939991708
1715943189785618626,0.179,,,,4.947686494
1715943189793313412,0.174,,,,4.95538128
1715943189801008198,0.162,,,,4.963076066
1715943189808702984,0.164,,,,4.970770852
1715943189816397770,0.171,,,,4.978465638
1715943189824092556,0.169,,,,4.986160424
1715943189831787342,0.167,,,,4.99385521
1715943189839482128,0.167,,,,5.001549996
1715943189847176914,0.167,,,,5.009244782
1715943189854871700,0.164,,,,5.016939568
1715943189862566486,0.164,,,,5.024634354
1715943189870261272,0.167,,,,5.03232914
1715943189877956058,0.162,,,,5.040023926
1715943189885650844,0.157,,,,5.047718712
1715943189893345646,0.152,,,,5.055413514
1715943189901040432,0.152,,,,5.0631083
1715943189908735218,0.162,,,,5.070803086
1715943189916430004,0.16,,,,5.078497872
1715943189924124790,0.148,,,,5.086192658
1715943189931819576,0.145,,,,5.093887444
1715943189939514362,0.148,,,,5.10158223
1715943189947209148,0.14,,,,5.109277016
1715943189954903934,0.131,,,,5.116971802
1715943189962598720,0.128,,,,5.124666588
1715943189970293506,0.136,,,,5.132361374
1715943189977988292,0.136,,,,5.14005616
1715943189985683078,0.131,,,,5.147750946
1715943189993377864,0.131,,,,5.155445732
1715943190001072650,0.14,,,,5.163140518
1715943190008767436,0.138,,,,5.170835304
1715943190016462222,0.131,,,,5.17853009
1715943190024157008,0.131,,,,5.186224876
1715943190031851794,0.133,,,,5.193919662
1715943190039546580,0.128,,,,5.201614448
1715943190047241366,0.128,,,,5.209309234
1715943190054936152,0.131,,,,5.21700402
1715943190062630938,0.131,,,,5.224698806
1715943190070325724,0.133,,,,5.232393592
1715943190078020510,0.136,,,,5.240088378
1715943190085715296,0.136,,,,5.247783164
1715943190093410082,0.138,,,,5.25547795
1715943190101104868,0.136,,,,5.263172736
1715943190108799654,0.114,,,,5.270867522
1715943190116494440,0.088,,,,5.278562308
1715943190124189226,0.083,,,,5.286257094
1715943190131884012,0.081,,,,5.29395188
1715943190139578798,0.069,,,,5.301646666
1715943190147273584,0.076,,,,5.309341452
1715943190154968370,0.097,,,,5.317036238
1715943190162663156,0.107,,,,5.324731024
1715943190170357942,0.112,,,,5.33242581
1715943190178052728,0.119,,,,5.340120596
1715943190185747514,0.121,,,,5.347815382
1715943190193442300,0.124,,,,5.355510168
1715943190201137086,0.128,,,,5.363204954
1715943190208831872,0.131,,,,5.37089974
1715943190216526658,0.126,,,,5.378594526
1715943190224221444,0.121,,,,5.386289312
1715943190231916230,0.126,,,,5.393984098
1715943190239611016,0.128,,,,5.401678884
1715943190247305802,0.124,,,,5.40937367
1715943190255000588,0.107,,,,5.417068456
1715943190262695374,-0.011,,,,5.424763242
1715943190270390160,-0.363,,,,5.432458028
1715943190278084946,-0.807,,,,5.440152814
1715943190285779732,-0.962,,,,5.4478476
1715943190293474518,-0.594,,,,5.455542386
1715943190301169304,0.257,,,,5.463237172
1715943190308864090,0.807,,,,5.470931958
1715943190316558876,0.441,,,,5.478626744
1715943190324253662,0.054,,,,5.48632153
1715943190331948448,0.179,,,,5.494016316
1715943190339643234,0.219,,,,5.501711102
1715943190347338020,0.109,,,,5.509405888
1715943190355032806,0.121,,,,5.517100674
1715943190362727592,0.148,,,,5.52479546
1715943190370422378,0.105,,,,5.532490246
1715943190378117164,0.095,,,,5.540185032
1715943190385811950,0.105,,,,5.547879818
1715943190393506736,0.09,,,,5.555574604
1715943190401201522,0.076,,,,5.56326939
1715943190408896308,0.062,,,,5.570964176
1715943190416591094,0.042,,,,5.578658962
1715943190424285880,0.026,,,,5.586353748
1715943190431980666,0.011,,,,5.594048534
1715943190439675452,-0.009,,,,5.60174332
1715943190447370238,-0.04,,,,5.609438106
1715943190455065040,-0.071,70.0,970.0,,5.617132908
1715943190462759826,-0.09,,,,5.624827694
1715943190470454612,-0.109,,,,5.63252248
1715943190478149398,-0.148,,,,5.640217266
1715943190485844184,-0.193,,,,5.647912052
1715943190493538970,-0.226,,,,5.655606838
1715943190501233756,-0.253,,,,5.663301624
1715943190508928542,-0.274,,,,5.67099641
1715943190516623328,-0.291,,,,5.678691196
1715943190524318114,-0.296,,,,5.686385982
1715943190532012900,-0.277,,,,5.694080768
1715943190539707686,-0.236,,,,5.701775554
1715943190547402472,-0.193,,,,5.70947034
1715943190555097258,-0.131,,,,5.717165126
1715943190562792044,-0.045,,,,5.724859912
1715943190570486830,0.042,,,,5.732554698
1715943190578181616,0.119,,,,5.740249484
1715943190585876402,0.174,,,,5.74794427
1715943190593571188,0.219,,,,5.755639056
1715943190601265974,0.255,,,,5.763333842
1715943190608960760,0.272,,,,5.771028628
1715943190616655546,0.269,,,,5.778723414
1715943190624350332,0.267,,,,5.7864182
1715943190632045118,0.257,,,,5.794112986
1715943190639739904,0.243,,,,5.801807772
1715943190647434690,0.236,,,,5.809502558
1715943190655129476,0.231,,,,5.817197344
1715943190662824262,0.222,,,,5.82489213
1715943190670519048,0.21,,,,5.832586916
1715943190678213834,0.203,,,,5.840281702
1715943190685908620,0.193,,,,5.847976488
1715943190693603406,0.191,,,,5.855671274
1715943190701298192,0.188,,,,5.86336606
1715943190708992978,0.183,,,,5.871060846
1715943190716687764,0.186,,,,5.878755632
1715943190724382550,0.183,,,,5.886450418
1715943190732077336,0.174,,,,5.894145204
1715943190739772122,0.174,,,,5.90183999
1715943190747466908,0.176,,,,5.909534776
1715943190755161694,0.174,,,,5.917229562
1715943190762856480,0.169,,,,5.924924348
1715943190770551266,0.174,,,,5.932619134
1715943190778246052,0.179,,,,5.94031392
1715943190785940838,0.181,,,,5.948008706
1715943190793635624,0.181,,,,5.955703492
1715943190801330410,0.183,,,,5.963398278
1715943190809025196,0.181,,,,5.971093064
1715943190816719982,0.179,,,,5.97878785
1715943190824414768,0.174,,,,5.986482636
1715943190832109554,0.176,,,,5.994177422
1715943190839804340,0.183,,,,6.001872208
1715943190847499126,0.183,,,,6.009566994
1715943190855193912,0.174,,,,6.01726178
1715943190862888698,0.169,,,,6.024956566
1715943190870583484,0.174,,,,6.032651352
1715943190878278270,0.176,,,,6.040346138
1715943190885973056,0.171,,,,6.048040924
1715943190893667842,0.169,,,,6.05573571
1715943190901362628,0.169,,,,6.063430496
1715943190909057414,0.157,,,,6.071125282
1715943190916752200,0.148,,,,6.078820068
1715943190924446986,0.157,,,,6.086514854
1715943190932141772,0.162,,,,6.09420964
1715943190939836558,0.152,,,,6.101904426
1715943190947531344,0.148,,,,6.109599212
1715943190955226130,0.152,,,,6.117293998
1715943190962920916,0.152,,,,6.124988784
1715943190970615702,0.148,,,,6.13268357
1715943190978310488,0.148,,,,6.140378356
1715943190986005274,0.152,,,,6.148073142
1715943190993700060,0.155,,,,6.155767928
1715943191001394846,0.15,,,,6.163462714
1715943191009089632,0.145,,,,6.1711575
1715943191016784434,0.148,,,,6.178852302
1715943191024479220,0.145,,,,6.186547088
1715943191032174006,0.145,,,,6.194241874
1715943191039868792,0.145,,,,6.20193666
1715943191047563578,0.14,,,,6.209631446
1715943191055258364,0.133,,,,6.217326232
1715943191062953150,0.128,,,,6.225021018
1715943191070647936,0.131,,,,6.232715804
1715943191078342722,0.136,,,,6.24041059
1715943191086037508,0.131,,,,6.248105376
1715943191093732294,0.121,,,,6.255800162
1715943191101427080,0.112,,,,6.263494948
1715943191109121866,0.105,,,,6.271189734
1715943191116816652,0.095,,,,6.27888452
1715943191124511438,0.076,,,,6.286579306
1715943191132206224,0.059,,,,6.294274092
1715943191139901010,0.074,,,,6.301968878
1715943191147595796,0.095,,,,6.309663664
1715943191155290582,0.105,,,,6.31735845
1715943191162985368,0.117,,,,6.325053236
1715943191170680154,0.121,,,,6.332748022
1715943191178374940,0.114,,,,6.340442808
1715943191186069726,0.114,,,,6.348137594
1715943191193764512,0.119,,,,6.35583238
1715943191201459298,0.121,,,,6.363527166
1715943191209154084,0.114,,,,6.371221952
1715943191216848870,0.117,,,,6.378916738
1715943191224543656,0.119,,,,6.386611524
1715943191232238442,0.112,,,,6.39430631
1715943191239933228,0.105,,,,6.402001096
1715943191247628014,0.071,,,,6.409695882
1715943191255322800,-0.114,,,,6.417390668
1715943191263017586,-0.52,,,,6.425085454
1715943191270712372,-0.888,,,,6.43278024
1715943191278407158,-0.878,,,,6.440475026
1715943191286101944,-0.322,,,,6.448169812
1715943191293796730,0.532,,,,6.455864598
1715943191301491516,0.738,,,,6.463559384
1715943191309186302,0.234,,,,6.47125417
1715943191316881088,0.052,,,,6.478948956
1715943191324575874,0.207,,,,6.486643742
1715943191332270660,0.169,,,,6.494338528
1715943191339965446,0.093,,,,6.502033314
1715943191347660232,0.128,,,,6.5097281
1715943191355355018,0.126,,,,6.517422886
1715943191363049804,0.078,,,,6.525117672
1715943191370744590,0.074,,,,6.532812458
1715943191378439376,0.081,,,,6.540507244
1715943191386134162,0.062,,,,6.54820203
1715943191393828948,0.045,,,,6.555896816
1715943191401523734,0.038,,,,6.563591602
1715943191409218520,0.021,,,,6.571286388
1715943191416913306,0.004,,,,6.578981174
1715943191424608092,-0.007,,,,6.58667596
1715943191432302878,-0.019,,,,6.594370746
1715943191439997664,-0.038,,,,6.602065532
1715943191447692450,-0.059,,,,6.609760318
1715943191455387236,-0.085,,,,6.617455104
1715943191463082022,-0.119,,,,6.62514989
1715943191470776808,-0.15,,,,6.632844676
1715943191478471594,-0.181,,,,6.640539462
1715943191486166380,-0.214,,,,6.648234248
1715943191493861166,-0.238,,,,6.655929034
1715943191501555952,-0.253,,,,6.66362382
1715943191509250738,-0.257,,,,6.671318606
1715943191516945524,-0.25,,,,6.679013392
1715943191524640310,-0.229,,,,6.686708178
1715943191532335096,-0.195,,,,6.694402964
1715943191540029882,-0.148,,,,6.70209775
1715943191547724668,-0.076,,,,6.709792536
1715943191555419454,0.004,,,,6.717487322
1715943191563114240,0.081,,,,6.725182108
1715943191570809026,0.152,,,,6.732876894
1715943191578503828,0.214,69.0,1020.0,,6.740571696
1715943191586198614,0.253,,,,6.748266482
1715943191593893400,0.269,,,,6.755961268
1715943191601588186,0.269,,,,6.763656054
1715943191609282972,0.269,,,,6.77135084
1715943191616977758,0.274,,,,6.779045626
1715943191624672544,0.272,,,,6.786740412
1715943191632367330,0.26,,,,6.794435198
1715943191640062116,0.241,,,,6.802129984
1715943191647756902,0.222,,,,6.80982477
1715943191655451688,0.214,,,,6.817519556
1715943191663146474,0.205,,,,6.825214342
1715943191670841260,0.2,,,,6.832909128
1715943191678536046,0.2,,,,6.840603914
1715943191686230832,0.191,,,,6.8482987
1715943191693925618,0.181,,,,6.855993486
1715943191701620404,0.183,,,,6.863688272
1715943191709315190,0.181,,,,6.871383058
1715943191717009976,0.176,,,,6.879077844
1715943191724704762,0.174,,,,6.88677263
1715943191732399548,0.176,,,,6.894467416
1715943191740094334,0.174,,,,6.902162202
1715943191747789120,0.174,,,,6.909856988
1715943191755483906,0.174,,,,6.917551774
1715943191763178692,0.176,,,,6.92524656
1715943191770873478,0.179,,,,6.932941346
1715943191778568264,0.181,,,,6.940636132
1715943191786263050,0.174,,,,6.948330918
1715943191793957836,0.176,,,,6.956025704
1715943191801652622,0.181,,,,6.96372049
1715943191809347408,0.181,,,,6.971415276
1715943191817042194,0.176,,,,6.979110062
1715943191824736980,0.174,,,,6.986804848
1715943191832431766,0.171,,,,6.994499634
1715943191840126552,0.174,,,,7.00219442
1715943191847821338,0.169,,,,7.009889206
1715943191855516124,0.167,,,,7.017583992
1715943191863210910,0.174,,,,7.025278778
1715943191870905696,0.171,,,,7.032973564
1715943191878600482,0.162,,,,7.04066835
1715943191886295268,0.162,,,,7.048363136
1715943191893990054,0.162,,,,7.056057922
1715943191901684840,0.155,,,,7.063752708
1715943191909379626,0.152,,,,7.071447494
1715943191917074412,0.155,,,,7.07914228
1715943191924769198,0.145,,,,7.086837066
1715943191932463984,0.145,,,,7.094531852
1715943191940158770,0.16,,,,7.102226638
1715943191947853556,0.16,,,,7.109921424
1715943191955548342,0.15,,,,7.11761621
1715943191963243128,0.143,,,,7.125310996
1715943191970937914,0.148,,,,7.133005782
1715943191978632700,0.155,,,,7.140700568
1715943191986327486,0.152,,,,7.148395354
1715943191994022272,0.145,,,,7.15609014
1715943192001717058,0.14,,,,7.163784926
1715943192009411844,0.138,,,,7.171479712
1715943192017106630,0.138,,,,7.179174498
1715943192024801416,0.138,,,,7.186869284
1715943192032496202,0.14,,,,7.19456407
1715943192040190988,0.145,,,,7.202258856
1715943192047885774,0.14,,,,7.209953642
1715943192055580560,0.136,,,,7.217648428
1715943192063275346,0.138,,,,7.225343214
1715943192070970132,0.138,,,,7.233038
1715943192078664918,0.136,,,,7.240732786
1715943192086359704,0.133,,,,7.248427572
1715943192094054490,0.136,,,,7.256122358
1715943192101749276,0.136,,,,7.263817144
1715943192109444062,0.131,,,,7.27151193
1715943192117138848,0.121,,,,7.279206716
1715943192124833634,0.109,,,,7.286901502
1715943192132528420,0.097,,,,7.294596288
1715943192140223224,0.085,,,,7.302291092
1715943192147917870,0.064,,,,7.309985738
1715943192155612516,0.057,,,,7.317680384
1715943192163307162,0.074,,,,7.32537503
1715943192171001808,0.093,,,,7.333069676
1715943192178696454,0.107,,,,7.340764322
1715943192186391100,0.114,,,,7.348458968
1715943192194085746,0.112,,,,7.356153614
1715943192201780392,0.105,,,,7.36384826
1715943192209475038,0.102,,,,7.371542906
1715943192217169684,0.107,,,,7.379237552
1715943192224864330,0.1,,,,7.386932198
1715943192232558976,0.09,,,,7.394626844
1715943192240253622,0.093,,,,7.40232149
1715943192247948268,0.095,,,,7.410016136
1715943192255642914,0.097,,,,7.417710782
1715943192263337560,0.093,,,,7.425405428
1715943192271032206,0.021,,,,7.433100074
1715943192278726852,-0.246,,,,7.44079472
1715943192286421498,-0.716,,,,7.448489366
1715943192294116144,-1.06,,,,7.456184012
1715943192301810790,-0.924,,,,7.463878658
1715943192309505436,-0.15,,,,7.471573304
1715943192317200082,0.6970000000000001,,,,7.47926795
1715943192324894728,0.611,,,,7.486962596
1715943192332589374,0.088,,,,7.494657242
1715943192340284020,0.085,,,,7.502351888
1715943192347978666,0.207,,,,7.510046534
1715943192355673312,0.112,,,,7.51774118
1715943192363367958,0.081,,,,7.525435826
1715943192371062604,0.124,,,,7.533130472
1715943192378757250,0.095,,,,7.540825118
1715943192386451896,0.059,,,,7.548519764
1715943192394146542,0.062,,,,7.55621441
1715943192401841188,0.062,,,,7.563909056
1715943192409535834,0.052,,,,7.571603702
1715943192417230480,0.045,,,,7.579298348
1715943192424925126,0.031,,,,7.586992994
1715943192432619772,0.016,,,,7.59468764
1715943192440314418,0.002,,,,7.602382286
1715943192448009064,-0.011,,,,7.610076932
1715943192455703710,-0.023,,,,7.617771578
1715943192463398356,-0.042,,,,7.625466224
1715943192471093002,-0.069,,,,7.63316087
1715943192478787648,-0.09,,,,7.640855516
1715943192486482294,-0.119,,,,7.648550162
1715943192494176940,-0.152,,,,7.656244808
1715943192501871586,-0.179,,,,7.663939454
1715943192509566232,-0.205,,,,7.6716341
1715943192517260878,-0.234,,,,7.679328746
1715943192524955524,-0.253,,,,7.687023392
1715943192532650170,-0.253,,,,7.694718038
1715943192540344816,-0.241,,,,7.702412684
1715943192548039462,-0.219,,,,7.71010733
1715943192555734108,-0.181,,,,7.717801976
1715943192563428754,-0.128,,,,7.725496622
1715943192571123400,-0.059,,,,7.733191268
1715943192578818046,0.021,,,,7.740885914
1715943192586512692,0.095,,,,7.74858056
1715943192594207338,0.16,,,,7.756275206
1715943192601901984,0.219,,,,7.763969852
1715943192609596630,0.262,,,,7.771664498
1715943192617291276,0.279,,,,7.779359144
1715943192624985922,0.281,,,,7.78705379
1715943192632680568,0.281,,,,7.794748436
1715943192640375214,0.279,,,,7.802443082
1715943192648069860,0.265,,,,7.810137728
1715943192655764506,0.246,,,,7.817832374
1715943192663459152,0.241,,,,7.82552702
1715943192671153798,0.238,,,,7.833221666
1715943192678848444,0.229,,,,7.840916312
1715943192686543090,0.217,,,,7.848610958
1715943192694237736,0.212,,,,7.856305604
1715943192701932446,0.207,69.0,1017.0,,7.864000314
1715943192709627162,0.203,,,,7.87169503
1715943192717321878,0.195,,,,7.879389746
1715943192725016594,0.193,,,,7.887084462
1715943192732711310,0.191,,,,7.894779178
1715943192740406026,0.186,,,,7.902473894
1715943192748100742,0.186,,,,7.91016861
1715943192755795458,0.188,,,,7.917863326
1715943192763490174,0.179,,,,7.925558042
1715943192771184890,0.167,,,,7.933252758
1715943192778879606,0.171,,,,7.940947474
1715943192786574322,0.176,,,,7.94864219
1715943192794269038,0.179,,,,7.956336906
1715943192801963754,0.179,,,,7.964031622
1715943192809658470,0.181,,,,7.971726338
1715943192817353186,0.183,,,,7.979421054
1715943192825047902,0.179,,,,7.98711577
1715943192832742618,0.176,,,,7.994810486
1715943192840437334,0.179,,,,8.002505202
1715943192848132050,0.179,,,,8.010199918
1715943192855826766,0.176,,,,8.017894634
1715943192863521482,0.174,,,,8.02558935
1715943192871216198,0.174,,,,8.033284066
1715943192878910914,0.169,,,,8.040978782
1715943192886605630,0.162,,,,8.048673498
1715943192894300346,0.16,,,,8.056368214
1715943192901995062,0.162,,,,8.06406293
1715943192909689778,0.164,,,,8.071757646
1715943192917384494,0.162,,,,8.079452362
1715943192925079210,0.157,,,,8.087147078
1715943192932773926,0.157,,,,8.094841794
1715943192940468642,0.157,,,,8.10253651
1715943192948163358,0.15,,,,8.110231226
1715943192955858074,0.15,,,,8.117925942
1715943192963552790,0.155,,,,8.125620658
1715943192971247506,0.152,,,,8.133315374
1715943192978942222,0.15,,,,8.14101009
1715943192986636938,0.148,,,,8.148704806
1715943192994331654,0.148,,,,8.156399522
1715943193002026370,0.148,,,,8.164094238
1715943193009721086,0.148,,,,8.171788954
1715943193017415802,0.148,,,,8.17948367
1715943193025110518,0.145,,,,8.187178386
1715943193032805234,0.138,,,,8.194873102
1715943193040499950,0.138,,,,8.202567818
1715943193048194666,0.14,,,,8.210262534
1715943193055889382,0.138,,,,8.21795725
1715943193063584098,0.138,,,,8.225651966
1715943193071278814,0.14,,,,8.233346682
1715943193078973530,0.14,,,,8.241041398
1715943193086668246,0.138,,,,8.248736114
1715943193094362962,0.138,,,,8.25643083
1715943193102057678,0.121,,,,8.264125546
1715943193109752394,0.105,,,,8.271820262
1715943193117447110,0.102,,,,8.279514978
1715943193125141826,0.085,,,,8.287209694
1715943193132836542,0.071,,,,8.29490441
1715943193140531258,0.081,,,,8.302599126
1715943193148225974,0.09,,,,8.310293842
1715943193155920690,0.097,,,,8.317988558
1715943193163615406,0.117,,,,8.325683274
1715943193171310122,0.121,,,,8.33337799
1715943193179004838,0.112,,,,8.341072706
1715943193186699554,0.114,,,,8.348767422
1715943193194394270,0.124,,,,8.356462138
1715943193202088986,0.119,,,,8.364156854
1715943193209783702,0.112,,,,8.37185157
1715943193217478418,0.114,,,,8.379546286
1715943193225173134,0.112,,,,8.387241002
1715943193232867850,0.105,,,,8.394935718
1715943193240562566,0.107,,,,8.402630434
1715943193248257282,0.093,,,,8.41032515
1715943193255951998,-0.033,,,,8.418019866
1715943193263646754,-0.41,68.0,990.0,,8.425714622
1715943193271341331,-0.859,,,,8.433409199
1715943193279035908,-1.005,,,,8.441103776
1715943193286730485,-0.611,,,,8.448798353
1715943193294425062,0.267,,,,8.45649293
1715943193302119639,0.726,,,,8.464187507
1715943193309814216,0.305,,,,8.471882084
1715943193317508793,0.019,,,,8.479576661
1715943193325203370,0.195,,,,8.487271238
1715943193332897947,0.205,,,,8.494965815
1715943193340592524,0.09,,,,8.502660392
1715943193348287101,0.117,,,,8.510354969
1715943193355981678,0.133,,,,8.518049546
1715943193363676255,0.076,,,,8.525744123
1715943193371370832,0.064,,,,8.5334387
1715943193379065409,0.083,,,,8.541133277
1715943193386759986,0.069,,,,8.548827854
1715943193394454563,0.052,,,,8.556522431
1715943193402149140,0.05,,,,8.564217008
1715943193409843717,0.04,,,,8.571911585
1715943193417538294,0.026,,,,8.579606162
1715943193425232871,0.014,,,,8.587300739
1715943193432927448,0.004,,,,8.594995316
1715943193440622025,-0.014,,,,8.602689893
1715943193448316602,-0.035,,,,8.61038447
1715943193456011179,-0.057,,,,8.618079047
1715943193463705756,-0.081,,,,8.625773624
1715943193471400333,-0.102,,,,8.633468201
1715943193479094910,-0.126,,,,8.641162778
1715943193486789487,-0.162,,,,8.648857355
1715943193494484064,-0.195,,,,8.656551932
1715943193502178641,-0.212,,,,8.664246509
1715943193509873218,-0.219,,,,8.671941086
1715943193517567795,-0.217,,,,8.679635663
1715943193525262372,-0.205,,,,8.68733024
1715943193532956949,-0.186,,,,8.695024817
1715943193540651526,-0.15,,,,8.702719394
1715943193548346103,-0.093,,,,8.710413971
1715943193556040680,-0.021,,,,8.718108548
1715943193563735257,0.052,,,,8.725803125
1715943193571429834,0.119,,,,8.733497702
1715943193579124411,0.176,,,,8.741192279
1715943193586818988,0.217,,,,8.748886856
1715943193594513565,0.246,,,,8.756581433
1715943193602208142,0.269,,,,8.76427601
1715943193609902719,0.279,,,,8.771970587
1715943193617597296,0.272,,,,8.779665164
1715943193625291873,0.257,,,,8.787359741
1715943193632986450,0.253,,,,8.795054318
1715943193640681027,0.248,,,,8.802748895
1715943193648375604,0.234,,,,8.810443472
1715943193656070181,0.217,,,,8.818138049
1715943193663764758,0.203,,,,8.825832626
1715943193671459335,0.198,,,,8.833527203
1715943193679153912,0.198,,,,8.84122178
1715943193686848489,0.193,,,,8.848916357
1715943193694543066,0.188,,,,8.856610934
1715943193702237643,0.188,,,,8.864305511
1715943193709932220,0.188,,,,8.872000088
1715943193717626797,0.186,,,,8.879694665
1715943193725321374,0.181,,,,8.887389242
1715943193733015951,0.176,,,,8.895083819
1715943193740710528,0.188,,,,8.902778396
1715943193748405105,0.193,,,,8.910472973
1715943193756099682,0.179,,,,8.91816755
1715943193763794259,0.174,,,,8.925862127
1715943193771488836,0.186,,,,8.933556704
1715943193779183413,0.186,,,,8.941251281
1715943193786877990,0.179,,,,8.948945858
1715943193794572567,0.181,,,,8.956640435
1715943193802267144,0.186,,,,8.964335012
1715943193809961721,0.183,,,,8.972029589
1715943193817656298,0.176,,,,8.979724166
1715943193825350888,0.174,,,,8.987418756
1715943193833045674,0.179,,,,8.995113542
1715943193840740460,0.176,,,,9.002808328
1715943193848435246,0.174,,,,9.010503114
1715943193856130032,0.164,,,,9.0181979
1715943193863824818,0.152,,,,9.025892686
1715943193871519604,0.15,,,,9.033587472
1715943193879214390,0.15,,,,9.041282258
1715943193886909176,0.143,,,,9.048977044
1715943193894603962,0.145,,,,9.05667183
1715943193902298748,0.145,,,,9.064366616
1715943193909993534,0.138,,,,9.072061402
1715943193917688320,0.14,,,,9.079756188
1715943193925383106,0.14,,,,9.087450974
1715943193933077892,0.133,,,,9.09514576
1715943193940772678,0.133,,,,9.102840546
1715943193948467464,0.14,,,,9.110535332
1715943193956162250,0.14,,,,9.118230118
1715943193963857036,0.136,,,,9.125924904
1715943193971551822,0.133,,,,9.13361969
1715943193979246608,0.136,,,,9.141314476
1715943193986941394,0.138,,,,9.149009262
1715943193994636180,0.131,,,,9.156704048
1715943194002330966,0.126,,,,9.164398834
1715943194010025752,0.128,,,,9.17209362
1715943194017720538,0.133,,,,9.179788406
1715943194025415324,0.136,,,,9.187483192
1715943194033110110,0.136,,,,9.195177978
1715943194040804896,0.128,,,,9.202872764
1715943194048499682,0.114,,,,9.21056755
1715943194056194468,0.105,,,,9.218262336
1715943194063889254,0.095,,,,9.225957122
1715943194071584040,0.081,,,,9.233651908
1715943194079278826,0.088,,,,9.241346694
1715943194086973612,0.102,,,,9.24904148
1715943194094668398,0.114,,,,9.256736266
1715943194102363184,0.133,,,,9.264431052
1715943194110057970,0.133,,,,9.272125838
1715943194117752756,0.121,,,,9.279820624
1715943194125447542,0.128,,,,9.28751541
1715943194133142328,0.138,,,,9.295210196
1715943194140837114,0.124,,,,9.302904982
1715943194148531900,0.109,,,,9.310599768
1715943194156226686,0.107,,,,9.318294554
1715943194163921472,0.112,,,,9.32598934
1715943194171616258,0.117,,,,9.333684126
1715943194179311044,0.121,,,,9.341378912
1715943194187005830,0.105,,,,9.349073698
1715943194194700616,-0.028,,,,9.356768484
1715943194202395402,-0.417,,,,9.36446327
1715943194210090188,-0.912,,,,9.372158056
1715943194217784974,-1.148,,,,9.379852842
1715943194225479760,-0.807,,,,9.387547628
1715943194233174546,0.164,,,,9.395242414
1715943194240869332,0.757,,,,9.4029372
1715943194248564118,0.343,,,,9.410631986
1715943194256258904,0.031,,,,9.418326772
1715943194263953690,0.222,,,,9.426021558
1715943194271648476,0.236,,,,9.433716344
1715943194279343262,0.117,,,,9.44141113
1715943194287038048,0.148,,,,9.449105916
1715943194294732834,0.167,,,,9.456800702
1715943194302427620,0.119,,,,9.464495488
1715943194310122406,0.112,,,,9.472190274
1715943194317817192,0.121,,,,9.47988506
1715943194325511978,0.105,,,,9.487579846
1715943194333206764,0.09,,,,9.495274632
1715943194340901550,0.081,,,,9.502969418
1715943194348596336,0.059,,,,9.510664204
1715943194356291122,0.038,,,,9.51835899
1715943194363985908,0.021,,,,9.526053776
1715943194371680694,0.004,,,,9.533748562
1715943194379375480,-0.019,,,,9.541443348
1715943194387070282,-0.038,67.0,1021.0,,9.54913815
1715943194394765068,-0.054,,,,9.556832936
1715943194402459854,-0.081,,,,9.564527722
1715943194410154640,-0.109,,,,9.572222508
1715943194417849426,-0.145,,,,9.579917294
1715943194425544212,-0.186,,,,9.58761208
1715943194433238998,-0.21,,,,9.595306866
1715943194440933784,-0.229,,,,9.603001652
1715943194448628570,-0.246,,,,9.610696438
1715943194456323356,-0.246,,,,9.618391224
1715943194464018142,-0.229,,,,9.62608601
1715943194471712928,-0.207,,,,9.633780796
1715943194479407714,-0.171,,,,9.641475582
1715943194487102500,-0.112,,,,9.649170368
1715943194494797286,-0.031,,,,9.656865154
1715943194502492072,0.045,,,,9.66455994
1715943194510186858,0.102,,,,9.672254726
1715943194517881644,0.16,,,,9.679949512
1715943194525576430,0.214,,,,9.687644298
1715943194533271216,0.246,,,,9.695339084
1715943194540966002,0.262,,,,9.70303387
1715943194548660788,0.272,,,,9.710728656
1715943194556355574,0.267,,,,9.718423442
1715943194564050360,0.257,,,,9.726118228
1715943194571745146,0.253,,,,9.733813014
1715943194579439932,0.248,,,,9.7415078
1715943194587134718,0.241,,,,9.749202586
1715943194594829504,0.231,,,,9.756897372
1715943194602524290,0.217,,,,9.764592158
1715943194610219076,0.207,,,,9.772286944
1715943194617913862,0.205,,,,9.77998173
1715943194625608648,0.203,,,,9.787676516
1715943194633303434,0.205,,,,9.795371302
1715943194640998220,0.207,,,,9.803066088
1715943194648693006,0.191,,,,9.810760874
1715943194656387792,0.179,,,,9.81845566
1715943194664082578,0.183,,,,9.826150446
1715943194671777364,0.183,,,,9.833845232
1715943194679472150,0.181,,,,9.841540018
1715943194687166936,0.176,,,,9.849234804
1715943194694861722,0.176,,,,9.85692959
1715943194702556508,0.179,,,,9.864624376
1715943194710251294,0.186,,,,9.872319162
1715943194717946080,0.186,,,,9.880013948
1715943194725640866,0.179,,,,9.887708734
1715943194733335652,0.176,,,,9.89540352
1715943194741030438,0.181,,,,9.903098306
1715943194748725224,0.188,,,,9.910793092
1715943194756420010,0.186,,,,9.918487878
1715943194764114796,0.176,,,,9.926182664
1715943194771809582,0.176,,,,9.93387745
1715943194779504368,0.176,,,,9.941572236
1715943194787199154,0.171,,,,9.949267022
1715943194794893940,0.176,,,,9.956961808
1715943194802588726,0.179,,,,9.964656594
1715943194810283512,0.167,,,,9.97235138
1715943194817978298,0.16,,,,9.980046166
1715943194825673084,0.164,,,,9.987740952
1715943194833367870,0.167,,,,9.995435738
1715943194841062656,0.16,,,,10.003130524
1715943194848757442,0.157,,,,10.01082531
1715943194856452228,0.16,,,,10.018520096
1715943194864147014,0.157,,,,10.026214882
1715943194871841800,0.15,,,,10.033909668
1715943194879536586,0.143,,,,10.041604454
1715943194887231372,0.14,,,,10.04929924
1715943194894926158,0.15,,,,10.056994026
1715943194902620944,0.148,,,,10.064688812
1715943194910315730,0.138,,,,10.072383598
1715943194918010516,0.145,,,,10.080078384
1715943194925705302,0.145,,,,10.08777317
1715943194933400088,0.14,,,,10.095467956
1715943194941094874,0.143,,,,10.103162742
1715943194948789678,0.14,,,,10.110857546
1715943194956484812,0.126,,,,10.11855268
1715943194964179946,0.107,,,,10.126247814
1715943194971875080,0.093,,,,10.133942948
1715943194979570214,0.088,,,,10.141638082
1715943194987265348,0.085,,,,10.149333216
1715943194994960482,0.09,,,,10.15702835
1715943195002655616,0.107,,,,10.164723484
1715943195010350750,0.131,,,,10.172418618
1715943195018045884,0.133,,,,10.180113752
1715943195025741018,0.124,,,,10.187808886
1715943195033436152,0.131,,,,10.19550402
1715943195041131286,0.14,,,,10.203199154
1715943195048826420,0.133,,,,10.210894288
1715943195056521554,0.131,,,,10.218589422
1715943195064216688,0.136,,,,10.226284556
1715943195071911822,0.136,,,,10.23397969
1715943195079606956,0.136,,,,10.241674824
1715943195087302090,0.136,,,,10.249369958
1715943195094997224,0.126,,,,10.257065092
1715943195102692358,0.028,,,,10.264760226
1715943195110387492,-0.289,,,,10.27245536
1715943195118082626,-0.804,,,,10.280150494
1715943195125777760,-1.179,,,,10.287845628
1715943195133472894,-1.039,,,,10.295540762
1715943195141168028,-0.148,,,,10.303235896
1715943195148863162,0.752,,,,10.31093103
1715943195156558296,0.58,,,,10.318626164
1715943195164253430,0.066,,,,10.326321298
1715943195171948564,0.143,,,,10.334016432
1715943195179643698,0.267,,,,10.341711566
1715943195187338832,0.155,,,,10.3494067
1715943195195033966,0.138,,,,10.357101834
1715943195202729100,0.179,,,,10.364796968
1715943195210424234,0.14,,,,10.372492102
1715943195218119368,0.114,,,,10.380187236
1715943195225814502,0.121,,,,10.38788237
1715943195233509636,0.109,,,,10.395577504
1715943195241204770,0.09,,,,10.403272638
1715943195248899904,0.083,,,,10.410967772
1715943195256595038,0.076,,,,10.418662906
1715943195264290172,0.059,,,,10.42635804
1715943195271985306,0.042,,,,10.434053174
1715943195279680440,0.028,,,,10.441748308
1715943195287375574,0.014,,,,10.449443442
1715943195295070708,-0.007,,,,10.457138576
1715943195302765842,-0.028,,,,10.46483371
1715943195310460976,-0.05,,,,10.472528844
1715943195318156110,-0.078,,,,10.480223978
1715943195325851244,-0.107,,,,10.487919112
1715943195333546378,-0.143,,,,10.495614246
1715943195341241512,-0.181,,,,10.50330938
1715943195348936646,-0.21,,,,10.511004514
1715943195356631780,-0.222,,,,10.518699648
1715943195364326914,-0.222,,,,10.526394782
1715943195372022048,-0.207,,,,10.534089916
1715943195379717182,-0.195,,,,10.54178505
1715943195387412316,-0.169,,,,10.549480184
1715943195395107450,-0.112,,,,10.557175318
1715943195402802584,-0.045,,,,10.564870452
1715943195410497718,0.021,,,,10.572565586
1715943195418192852,0.093,,,,10.58026072
1715943195425887986,0.157,,,,10.587955854
1715943195433583120,0.198,,,,10.595650988
1715943195441278254,0.224,,,,10.603346122
1715943195448973388,0.246,,,,10.611041256
1715943195456668522,0.257,,,,10.61873639
1715943195464363656,0.257,,,,10.626431524
1715943195472058790,0.248,,,,10.634126658
1715943195479753924,0.241,,,,10.641821792
1715943195487449058,0.234,,,,10.649516926
1715943195495144192,0.226,,,,10.65721206
1715943195502839326,0.214,,,,10.664907194
1715943195510534504,0.207,66.0,981.0,,10.672602372
1715943195518229220,0.2,,,,10.680297088
1715943195525923936,0.193,,,,10.687991804
1715943195533618652,0.188,,,,10.69568652
1715943195541313368,0.191,,,,10.703381236
1715943195549008084,0.188,,,,10.711075952
1715943195556702800,0.188,,,,10.718770668
1715943195564397516,0.183,,,,10.726465384
1715943195572092232,0.179,,,,10.7341601
1715943195579786948,0.176,,,,10.741854816
1715943195587481664,0.167,,,,10.749549532
1715943195595176380,0.16,,,,10.757244248
1715943195602871096,0.164,,,,10.764938964
1715943195610565812,0.174,,,,10.77263368
1715943195618260528,0.169,,,,10.780328396
1715943195625955244,0.169,,,,10.788023112
1715943195633649960,0.174,,,,10.795717828
1715943195641344676,0.174,,,,10.803412544
1715943195649039392,0.174,,,,10.81110726
1715943195656734108,0.174,,,,10.818801976
1715943195664428824,0.169,,,,10.826496692
1715943195672123540,0.155,,,,10.834191408
1715943195679818256,0.145,,,,10.841886124
1715943195687512972,0.152,,,,10.84958084
1715943195695207688,0.16,,,,10.857275556
1715943195702902404,0.157,,,,10.864970272
1715943195710597120,0.155,,,,10.872664988
1715943195718291836,0.155,,,,10.880359704
1715943195725986552,0.157,,,,10.88805442
1715943195733681268,0.16,,,,10.895749136
1715943195741375984,0.157,,,,10.903443852
1715943195749070700,0.16,,,,10.911138568
1715943195756765416,0.157,,,,10.918833284
1715943195764460132,0.148,,,,10.926528
1715943195772154848,0.145,,,,10.934222716
1715943195779849564,0.15,,,,10.941917432
1715943195787544280,0.155,,,,10.949612148
1715943195795238996,0.15,,,,10.957306864
1715943195802933712,0.143,,,,10.96500158
1715943195810628428,0.148,,,,10.972696296
1715943195818323144,0.157,,,,10.980391012
1715943195826017860,0.152,,,,10.988085728
1715943195833712576,0.143,,,,10.995780444
1715943195841407292,0.138,,,,11.00347516
1715943195849102008,0.126,,,,11.011169876
1715943195856796724,0.114,,,,11.018864592
1715943195864491440,0.1,,,,11.026559308
1715943195872186156,0.088,,,,11.034254024
1715943195879880872,0.095,,,,11.04194874
1715943195887575588,0.109,,,,11.049643456
1715943195895270304,0.124,,,,11.057338172
1715943195902965020,0.14,,,,11.065032888
1715943195910659736,0.15,,,,11.072727604
1715943195918354452,0.15,,,,11.08042232
1715943195926049168,0.148,,,,11.088117036
1715943195933743884,0.148,,,,11.095811752
1715943195941438600,0.145,,,,11.103506468
1715943195949133316,0.143,,,,11.111201184
1715943195956828032,0.15,,,,11.1188959
1715943195964522748,0.15,,,,11.126590616
1715943195972217464,0.145,,,,11.134285332
1715943195979912180,0.15,,,,11.141980048
1715943195987606896,0.133,,,,11.149674764
1715943195995301612,-0.014,,,,11.15736948
1715943196002996328,-0.396,,,,11.165064196
1715943196010691044,-0.893,,,,11.172758912
1715943196018385760,-1.151,,,,11.180453628
1715943196026080476,-0.778,,,,11.188148344
1715943196033775192,0.279,,,,11.19584306
1715943196041469908,0.962,,,,11.203537776
1715943196049164624,0.53,,,,11.211232492
1715943196056859340,0.088,,,,11.218927208
1715943196064554056,0.224,,,,11.226621924
1715943196072248812,0.25,,,,11.23431668
1715943196079943528,0.119,,,,11.242011396
1715943196087638244,0.143,,,,11.249706112
1715943196095332960,0.181,,,,11.257400828
1715943196103027676,0.131,,,,11.265095544
1715943196110722392,0.112,,,,11.27279026
1715943196118417108,0.121,,,,11.280484976
1715943196126111824,0.1,,,,11.288179692
1715943196133806540,0.071,,,,11.295874408
1715943196141501256,0.064,,,,11.303569124
1715943196149195972,0.054,,,,11.31126384
1715943196156890688,0.033,,,,11.318958556
1715943196164585404,0.014,,,,11.326653272
1715943196172280120,-0.009,,,,11.334347988
1715943196179974836,-0.045,,,,11.342042704
1715943196187669552,-0.059,,,,11.34973742
1715943196195364268,-0.064,,,,11.357432136
1715943196203058984,-0.095,,,,11.365126852
1715943196210753700,-0.143,,,,11.372821568
1715943196218448416,-0.181,,,,11.380516284
1715943196226143132,-0.21,,,,11.388211
1715943196233837848,-0.243,,,,11.395905716
1715943196241532564,-0.267,,,,11.403600432
1715943196249227280,-0.269,,,,11.411295148
1715943196256921996,-0.265,,,,11.418989864
1715943196264616712,-0.25,,,,11.42668458
1715943196272311428,-0.214,,,,11.434379296
1715943196280006144,-0.169,,,,11.442074012
1715943196287700860,-0.109,,,,11.449768728
1715943196295395576,-0.023,,,,11.457463444
1715943196303090292,0.059,,,,11.46515816
1715943196310785008,0.126,,,,11.472852876
1715943196318479724,0.191,,,,11.480547592
1715943196326174440,0.241,,,,11.488242308
1715943196333869156,0.262,,,,11.495937024
1715943196341563872,0.279,,,,11.50363174
1715943196349258588,0.289,,,,11.511326456
1715943196356953304,0.279,,,,11.519021172
1715943196364648020,0.262,,,,11.526715888
1715943196372342736,0.246,,,,11.534410604
1715943196380037452,0.236,,,,11.54210532
1715943196387732168,0.229,,,,11.549800036
1715943196395426884,0.217,,,,11.557494752
1715943196403121600,0.203,,,,11.565189468
1715943196410816316,0.195,,,,11.572884184
1715943196418511032,0.195,,,,11.5805789
1715943196426205748,0.191,,,,11.588273616
1715943196433900464,0.181,,,,11.595968332
1715943196441595180,0.176,,,,11.603663048
1715943196449289896,0.176,,,,11.611357764
1715943196456984612,0.176,,,,11.61905248
1715943196464679328,0.174,,,,11.626747196
1715943196472374044,0.176,,,,11.634441912
1715943196480068760,0.183,,,,11.642136628
1715943196487763476,0.179,,,,11.649831344
1715943196495458192,0.171,,,,11.65752606
1715943196503152908,0.176,,,,11.665220776
1715943196510847624,0.179,,,,11.672915492
1715943196518542340,0.176,,,,11.680610208
1715943196526237056,0.176,,,,11.688304924
1715943196533931772,0.179,,,,11.69599964
1715943196541626488,0.176,,,,11.703694356
1715943196549321204,0.174,,,,11.711389072
1715943196557015920,0.171,,,,11.719083788
1715943196564710636,0.169,,,,11.726778504
1715943196572405352,0.164,,,,11.73447322
1715943196580100068,0.16,,,,11.742167936
1715943196587794784,0.16,,,,11.749862652
1715943196595489500,0.157,,,,11.757557368
1715943196603184216,0.155,,,,11.765252084
1715943196610878932,0.155,,,,11.7729468
1715943196618573648,0.157,,,,11.780641516
1715943196626268364,0.155,,,,11.788336232
1715943196633963120,0.152,65.0,939.0,,11.796030988
1715943196641657697,0.152,,,,11.803725565
1715943196649352274,0.152,,,,11.811420142
1715943196657046851,0.145,,,,11.819114719
1715943196664741428,0.128,,,,11.826809296
1715943196672436005,0.112,,,,11.834503873
1715943196680130582,0.093,,,,11.84219845
1715943196687825159,0.078,,,,11.849893027
1715943196695519736,0.083,,,,11.857587604
1715943196703214313,0.093,,,,11.865282181
1715943196710908890,0.105,,,,11.872976758
1715943196718603467,0.126,,,,11.880671335
1715943196726298044,0.126,,,,11.888365912
1715943196733992621,0.109,,,,11.896060489
1715943196741687198,0.109,,,,11.903755066
1715943196749381775,0.121,,,,11.911449643
1715943196757076352,0.121,,,,11.91914422
1715943196764770929,0.119,,,,11.926838797
1715943196772465506,0.121,,,,11.934533374
1715943196780160083,0.121,,,,11.942227951
1715943196787854660,0.119,,,,11.949922528
1715943196795549237,0.124,,,,11.957617105
1715943196803243814,0.121,,,,11.965311682
1715943196810938391,0.031,,,,11.973006259
1715943196818632968,-0.226,,,,11.980700836
1715943196826327545,-0.592,,,,11.988395413
1715943196834022122,-0.8190000000000001,,,,11.99608999
1715943196841716699,-0.666,,,,12.003784567
1715943196849411276,0.011,,,,12.011479144
1715943196857105853,0.745,,,,12.019173721
1715943196864800430,0.623,,,,12.026868298
1715943196872495007,0.112,,,,12.034562875
1715943196880189584,0.1,,,,12.042257452
1715943196887884161,0.219,,,,12.049952029
1715943196895578738,0.136,,,,12.057646606
1715943196903273315,0.1,,,,12.065341183
1715943196910967892,0.131,,,,12.07303576
1715943196918662469,0.112,,,,12.080730337
1715943196926357046,0.09,,,,12.088424914
1715943196934051623,0.095,,,,12.096119491
1715943196941746200,0.088,,,,12.103814068
1715943196949440777,0.074,,,,12.111508645
1715943196957135354,0.066,,,,12.119203222
1715943196964829931,0.054,,,,12.126897799
1715943196972524508,0.042,,,,12.134592376
1715943196980219085,0.033,,,,12.142286953
1715943196987913662,0.019,,,,12.14998153
1715943196995608239,0.0,,,,12.157676107
1715943197003302816,-0.019,,,,12.165370684
1715943197010997393,-0.04,,,,12.173065261
1715943197018691970,-0.062,,,,12.180759838
1715943197026386547,-0.088,,,,12.188454415
1715943197034081124,-0.117,,,,12.196148992
1715943197041775701,-0.143,,,,12.203843569
1715943197049470278,-0.164,,,,12.211538146
1715943197057164855,-0.183,,,,12.219232723
1715943197064859432,-0.193,,,,12.2269273
1715943197072554009,-0.183,,,,12.234621877
1715943197080248586,-0.162,,,,12.242316454
1715943197087943163,-0.143,,,,12.250011031
1715943197095637740,-0.109,,,,12.257705608
1715943197103332317,-0.052,,,,12.265400185
1715943197111026894,0.021,,,,12.273094762
1715943197118721471,0.09,,,,12.280789339
1715943197126416048,0.15,,,,12.288483916
1715943197134110625,0.203,,,,12.296178493
1715943197141805202,0.243,,,,12.30387307
1715943197149499779,0.267,,,,12.311567647
1715943197157194356,0.281,,,,12.319262224
1715943197164888933,0.289,,,,12.326956801
1715943197172583510,0.286,,,,12.334651378
1715943197180278087,0.274,,,,12.342345955
1715943197187972664,0.253,,,,12.350040532
1715943197195667254,0.241,,,,12.357735122
1715943197203362040,0.238,,,,12.365429908
1715943197211056826,0.226,,,,12.373124694
1715943197218751612,0.207,,,,12.38081948
1715943197226446398,0.198,,,,12.388514266
1715943197234141184,0.191,,,,12.396209052
1715943197241835970,0.179,,,,12.403903838
1715943197249530756,0.169,,,,12.411598624
1715943197257225542,0.169,,,,12.41929341
1715943197264920328,0.169,,,,12.426988196
1715943197272615114,0.164,,,,12.434682982
1715943197280309900,0.162,,,,12.442377768
1715943197288004686,0.169,,,,12.450072554
1715943197295699472,0.169,,,,12.45776734
1715943197303394258,0.16,,,,12.465462126
1715943197311089044,0.16,,,,12.473156912
1715943197318783830,0.162,,,,12.480851698
1715943197326478616,0.162,,,,12.488546484
1715943197334173402,0.162,,,,12.49624127
1715943197341868188,0.157,,,,12.503936056
1715943197349562974,0.152,,,,12.511630842
1715943197357257760,0.15,,,,12.519325628
1715943197364952546,0.145,,,,12.527020414
1715943197372647332,0.143,,,,12.5347152
1715943197380342118,0.145,,,,12.542409986
1715943197388036904,0.143,,,,12.550104772
1715943197395731690,0.14,,,,12.557799558
1715943197403426476,0.136,,,,12.565494344
1715943197411121262,0.138,,,,12.57318913
1715943197418816048,0.138,,,,12.580883916
1715943197426510834,0.136,,,,12.588578702
1715943197434205620,0.138,,,,12.596273488
1715943197441900406,0.138,,,,12.603968274
1715943197449595192,0.128,,,,12.61166306
1715943197457289978,0.114,,,,12.619357846
1715943197464984764,0.1,,,,12.627052632
1715943197472679550,0.09,,,,12.634747418
1715943197480374336,0.085,,,,12.642442204
1715943197488069122,0.09,,,,12.65013699
1715943197495763908,0.105,,,,12.657831776
1715943197503458694,0.119,,,,12.665526562
1715943197511153480,0.131,,,,12.673221348
1715943197518848266,0.136,,,,12.680916134
1715943197526543052,0.131,,,,12.68861092
1715943197534237838,0.133,,,,12.696305706
1715943197541932624,0.143,,,,12.704000492
1715943197549627410,0.138,,,,12.711695278
1715943197557322196,0.126,,,,12.719390064
1715943197565016982,0.126,,,,12.72708485
1715943197572711768,0.128,,,,12.734779636
1715943197580406554,0.126,,,,12.742474422
1715943197588101340,0.124,,,,12.750169208
1715943197595796126,0.119,,,,12.757863994
1715943197603490912,0.074,,,,12.76555878
1715943197611185698,-0.078,,,,12.773253566
1715943197618880484,-0.386,,,,12.780948352
1715943197626575270,-0.664,,,,12.788643138
1715943197634270056,-0.671,,,,12.796337924
1715943197641964842,-0.222,,,,12.80403271
1715943197649659628,0.537,,,,12.811727496
1715943197657354414,0.685,,,,12.819422282
1715943197665049200,0.179,,,,12.827117068
1715943197672743986,0.04,,,,12.834811854
1715943197680438772,0.217,,,,12.84250664
1715943197688133558,0.162,,,,12.850201426
1715943197695828344,0.076,,,,12.857896212
1715943197703523130,0.114,,,,12.865590998
1715943197711217916,0.117,,,,12.873285784
1715943197718912702,0.078,,,,12.88098057
1715943197726607488,0.081,,,,12.888675356
1715943197734302274,0.088,,,,12.896370142
1715943197741997060,0.066,,,,12.904064928
1715943197749691846,0.052,,,,12.911759714
1715943197757386648,0.054,65.0,910.0,,12.919454516
1715943197765081434,0.04,,,,12.927149302
1715943197772776220,0.026,,,,12.934844088
1715943197780471006,0.016,,,,12.942538874
1715943197788165792,0.002,,,,12.95023366
1715943197795860578,-0.019,,,,12.957928446
1715943197803555364,-0.05,,,,12.965623232
1715943197811250150,-0.085,,,,12.973318018
1715943197818944936,-0.107,,,,12.981012804
1715943197826639722,-0.124,,,,12.98870759
1715943197834334508,-0.152,,,,12.996402376
1715943197842029294,-0.181,,,,13.004097162
1715943197849724080,-0.195,,,,13.011791948
1715943197857418866,-0.195,,,,13.019486734
1715943197865113652,-0.191,,,,13.02718152
1715943197872808438,-0.181,,,,13.034876306
1715943197880503224,-0.157,,,,13.042571092
1715943197888198010,-0.121,,,,13.050265878
1715943197895892796,-0.074,,,,13.057960664
1715943197903587582,-0.011,,,,13.06565545
1715943197911282368,0.062,,,,13.073350236
1715943197918977154,0.126,,,,13.081045022
1715943197926671940,0.176,,,,13.088739808
1715943197934366726,0.217,,,,13.096434594
1715943197942061512,0.246,,,,13.10412938
1715943197949756298,0.26,,,,13.111824166
1715943197957451084,0.265,,,,13.119518952
1715943197965145870,0.262,,,,13.127213738
1715943197972840656,0.255,,,,13.134908524
1715943197980535442,0.248,,,,13.14260331
1715943197988230228,0.241,,,,13.150298096
1715943197995925014,0.234,,,,13.157992882
1715943198003619800,0.229,,,,13.165687668
1715943198011314586,0.217,,,,13.173382454
1715943198019009372,0.203,,,,13.18107724
1715943198026704158,0.195,,,,13.188772026
1715943198034398944,0.2,,,,13.196466812
1715943198042093730,0.198,,,,13.204161598
1715943198049788516,0.188,,,,13.211856384
1715943198057483302,0.188,,,,13.21955117
1715943198065178088,0.188,,,,13.227245956
1715943198072872874,0.186,,,,13.234940742
1715943198080567660,0.186,,,,13.242635528
1715943198088262446,0.183,,,,13.250330314
1715943198095957232,0.188,,,,13.2580251
1715943198103652018,0.188,,,,13.265719886
1715943198111346804,0.186,,,,13.273414672
1715943198119041590,0.188,,,,13.281109458
1715943198126736376,0.188,,,,13.288804244
1715943198134431162,0.186,,,,13.29649903
1715943198142125948,0.183,,,,13.304193816
1715943198149820734,0.179,,,,13.311888602
1715943198157515520,0.174,,,,13.319583388
1715943198165210306,0.169,,,,13.327278174
1715943198172905092,0.167,,,,13.33497296
1715943198180599878,0.169,,,,13.342667746
1715943198188294664,0.169,,,,13.350362532
1715943198195989450,0.16,,,,13.358057318
1715943198203684236,0.145,,,,13.365752104
1715943198211379022,0.145,,,,13.37344689
1715943198219073808,0.15,,,,13.381141676
1715943198226768594,0.145,,,,13.388836462
1715943198234463380,0.14,,,,13.396531248
1715943198242158166,0.143,,,,13.404226034
1715943198249852952,0.148,,,,13.41192082
1715943198257547738,0.145,,,,13.419615606
1715943198265242524,0.138,,,,13.427310392
1715943198272937310,0.126,,,,13.435005178
1715943198280632096,0.107,,,,13.442699964
1715943198288326882,0.09,,,,13.45039475
1715943198296021668,0.074,,,,13.458089536
1715943198303716454,0.066,,,,13.465784322
1715943198311411240,0.081,,,,13.473479108
1715943198319106042,0.097,65.0,891.0,,13.48117391
1715943198326800828,0.112,,817.0,,13.488868696
1715943198334495614,0.121,,,,13.496563482
1715943198342190400,0.109,,,,13.504258268
1715943198349885186,0.095,,,,13.511953054
1715943198357579972,0.097,,,,13.51964784
1715943198365274758,0.105,,,,13.527342626
1715943198372969544,0.105,,,,13.535037412
1715943198380664330,0.09,,,,13.542732198
1715943198388359116,0.083,,,,13.550426984
1715943198396053902,0.085,,,,13.55812177
1715943198403748688,0.09,,,,13.565816556
1715943198411443474,0.085,,,,13.573511342
1715943198419138260,0.047,,,,13.581206128
1715943198426833046,-0.081,,,,13.588900914
1715943198434527832,-0.367,,,,13.5965957
1715943198442222618,-0.654,,,,13.604290486
1715943198449917404,-0.6990000000000001,,,,13.611985272
1715943198457612190,-0.32,,,,13.619680058
1715943198465306976,0.422,,,,13.627374844
1715943198473001762,0.673,,,,13.63506963
1715943198480696548,0.203,,,,13.642764416
1715943198488391334,-0.007,,,,13.650459202
1715943198496086120,0.164,,,,13.658153988
1715943198503780906,0.15,,,,13.665848774
1715943198511475692,0.064,,,,13.67354356
1715943198519170478,0.1,,,,13.681238346
1715943198526865264,0.102,,,,13.688933132
1715943198534560050,0.059,,,,13.696627918
1715943198542254836,0.059,,,,13.704322704
1715943198549949622,0.064,,,,13.71201749
1715943198557644408,0.045,,,,13.719712276
1715943198565339194,0.035,,,,13.727407062
1715943198573033980,0.035,,,,13.735101848
1715943198580728766,0.028,,,,13.742796634
1715943198588423552,0.014,,,,13.75049142
1715943198596118338,0.007,,,,13.758186206
1715943198603813124,-0.002,,,,13.765880992
1715943198611507910,-0.014,,,,13.773575778
1715943198619202696,-0.033,,,,13.781270564
1715943198626897482,-0.052,,,,13.78896535
1715943198634592268,-0.069,,,,13.796660136
1715943198642287054,-0.088,,,,13.804354922
1715943198649981840,-0.117,,,,13.812049708
1715943198657676626,-0.138,,,,13.819744494
1715943198665371412,-0.15,,,,13.82743928
1715943198673066198,-0.155,,,,13.835134066
1715943198680760984,-0.152,,,,13.842828852
1715943198688455770,-0.138,,,,13.850523638
1715943198696150556,-0.117,,,,13.858218424
1715943198703845342,-0.095,,,,13.86591321
1715943198711540128,-0.066,,,,13.873607996
1715943198719234914,-0.014,,,,13.881302782
1715943198726929700,0.05,,,,13.888997568
1715943198734624486,0.109,,,,13.896692354
1715943198742319272,0.157,,,,13.90438714
1715943198750014058,0.2,,,,13.912081926
1715943198757708844,0.229,,,,13.919776712
1715943198765403630,0.243,,,,13.927471498
1715943198773098416,0.248,,,,13.935166284
1715943198780793202,0.25,,,,13.94286107
1715943198788487988,0.238,,,,13.950555856
1715943198796182774,0.224,,,,13.958250642
1715943198803877560,0.212,,,,13.965945428
1715943198811572346,0.207,,,,13.973640214
1715943198819267132,0.203,,,,13.981335
1715943198826961918,0.198,,,,13.989029786
1715943198834656704,0.193,,,,13.996724572
1715943198842351490,0.186,,,,14.004419358
1715943198850046276,0.186,,,,14.012114144
1715943198857741062,0.186,,,,14.01980893
1715943198865435848,0.181,,,,14.027503716
1715943198873130634,0.181,,,,14.035198502
1715943198880825438,0.181,,,,14.042893306
1715943198888520224,0.181,,,,14.050588092
1715943198896215010,0.176,,,,14.058282878
1715943198903909796,0.179,,,,14.065977664
1715943198911604582,0.181,,,,14.07367245
1715943198919299368,0.183,,,,14.081367236
1715943198926994154,0.183,,,,14.089062022
1715943198934688940,0.183,,,,14.096756808
1715943198942383726,0.179,,,,14.104451594
1715943198950078512,0.169,,,,14.11214638
1715943198957773298,0.164,,,,14.119841166
1715943198965468084,0.167,,,,14.127535952
1715943198973162870,0.167,,,,14.135230738
1715943198980857656,0.162,,,,14.142925524
1715943198988552442,0.162,,,,14.15062031
1715943198996247228,0.164,,,,14.158315096
1715943199003942014,0.162,,,,14.166009882
1715943199011636800,0.157,,,,14.173704668
1715943199019331586,0.162,,,,14.181399454
1715943199027026372,0.162,,,,14.18909424
1715943199034721158,0.148,,,,14.196789026
1715943199042415944,0.14,,,,14.204483812
1715943199050110730,0.145,,,,14.212178598
1715943199057805516,0.148,,,,14.219873384
1715943199065500302,0.14,,,,14.22756817
1715943199073195088,0.133,,,,14.235262956
1715943199080889874,0.133,,,,14.242957742
1715943199088584660,0.136,,,,14.250652528
1715943199096279446,0.133,,,,14.258347314
1715943199103974232,0.131,,,,14.2660421
1715943199111669018,0.133,,,,14.273736886
1715943199119363804,0.133,,,,14.281431672
1715943199127058590,0.121,,,,14.289126458
1715943199134753376,0.105,,,,14.296821244
1715943199142448162,0.1,,,,14.30451603
1715943199150142948,0.093,,,,14.312210816
1715943199157837734,0.083,,,,14.319905602
1715943199165532520,0.088,,,,14.327600388
1715943199173227306,0.102,,,,14.335295174
1715943199180922092,0.121,,,,14.34298996
1715943199188616878,0.133,,,,14.350684746
1715943199196311664,0.128,,,,14.358379532
1715943199204006450,0.119,,,,14.366074318
1715943199211701236,0.112,,,,14.373769104
1715943199219396022,0.1,,,,14.38146389
1715943199227090808,0.095,,,,14.389158676
1715943199234785594,0.1,,,,14.396853462
1715943199242480380,0.1,,,,14.404548248
1715943199250175166,0.097,,,,14.412243034
1715943199257869952,0.095,,,,14.41993782
1715943199265564738,0.09,,,,14.427632606
1715943199273259524,0.076,,,,14.435327392
1715943199280954310,0.011,,,,14.443022178
1715943199288649096,-0.186,,,,14.450716964
1715943199296343882,-0.503,,,,14.45841175
1715943199304038668,-0.7020000000000001,,,,14.466106536
1715943199311733454,-0.5750000000000001,,,,14.473801322
1715943199319428240,0.019,,,,14.481496108
1715943199327123026,0.654,,,,14.489190894
1715943199334817812,0.492,,,,14.49688568
1715943199342512598,0.028,,,,14.504580466
1715943199350207384,0.071,,,,14.512275252
1715943199357902170,0.186,,,,14.519970038
1715943199365596956,0.088,,,,14.527664824
1715943199373291742,0.066,,,,14.53535961
1715943199380986528,0.114,,,,14.543054396
1715943199388681314,0.09,,,,14.550749182
1715943199396376100,0.062,,,,14.558443968
1715943199404070886,0.064,,,,14.566138754
1715943199411765672,0.062,,,,14.57383354
1715943199419460458,0.05,,,,14.581528326
1715943199427155244,0.045,,,,14.589223112
1715943199434850030,0.035,,,,14.596917898
1715943199442544832,0.021,66.0,796.0,,14.6046127
1715943199450239618,0.014,,,,14.612307486
1715943199457934404,0.004,,,,14.620002272
1715943199465629190,-0.009,,,,14.627697058
1715943199473323976,-0.023,,,,14.635391844
1715943199481018762,-0.038,,,,14.64308663
1715943199488713548,-0.059,,,,14.650781416
1715943199496408334,-0.083,,,,14.658476202
1715943199504103120,-0.1,,,,14.666170988
1715943199511797906,-0.112,,,,14.673865774
1715943199519492692,-0.128,,,,14.68156056
1715943199527187478,-0.148,,,,14.689255346
1715943199534882264,-0.152,,,,14.696950132
1715943199542577050,-0.148,,,,14.704644918
1715943199550271836,-0.14,,,,14.712339704
1715943199557966622,-0.121,,,,14.72003449
1715943199565661408,-0.085,,,,14.727729276
1715943199573356194,-0.045,,,,14.735424062
1715943199581050980,0.0,,,,14.743118848
1715943199588745766,0.057,,,,14.750813634
1715943199596440552,0.117,,,,14.75850842
1715943199604135338,0.16,,,,14.766203206
1715943199611830124,0.191,,,,14.773897992
1715943199619524910,0.219,,,,14.781592778
1715943199627219696,0.241,,,,14.789287564
1715943199634914482,0.241,,,,14.79698235
1715943199642609268,0.231,,,,14.804677136
1715943199650304054,0.224,,,,14.812371922
1715943199657998840,0.222,,,,14.820066708
1715943199665693626,0.21,,,,14.827761494
1715943199673388412,0.198,,,,14.83545628
1715943199681083198,0.195,,,,14.843151066
1715943199688777984,0.193,,,,14.850845852
1715943199696472770,0.186,,,,14.858540638
1715943199704167556,0.181,,,,14.866235424
1715943199711862342,0.181,,,,14.87393021
1715943199719557128,0.174,,,,14.881624996
1715943199727251914,0.162,,,,14.889319782
1715943199734946700,0.16,,,,14.897014568
1715943199742641486,0.164,,,,14.904709354
1715943199750336272,0.167,,,,14.91240414
1715943199758031058,0.164,,,,14.920098926
1715943199765725844,0.164,,,,14.927793712
1715943199773420630,0.16,,,,14.935488498
1715943199781115416,0.155,,,,14.943183284
1715943199788810202,0.16,,,,14.95087807
1715943199796504988,0.164,,,,14.958572856
1715943199804199774,0.167,,,,14.966267642
1715943199811894560,0.167,,,,14.973962428
1715943199819589346,0.162,,,,14.981657214
1715943199827284132,0.16,,,,14.989352
1715943199834978918,0.162,,,,14.997046786
1715943199842673704,0.162,,,,15.004741572
1715943199850368490,0.157,,,,15.012436358
1715943199858063276,0.16,,,,15.020131144
1715943199865758062,0.162,,,,15.02782593
1715943199873452848,0.157,,,,15.035520716
1715943199881147634,0.155,,,,15.043215502
1715943199888842420,0.157,,,,15.050910288
1715943199896537206,0.157,,,,15.058605074
1715943199904231992,0.152,,,,15.06629986
1715943199911926778,0.15,,,,15.073994646
1715943199919621564,0.152,,,,15.081689432
1715943199927316350,0.155,,,,15.089384218
1715943199935011136,0.15,,,,15.097079004
1715943199942705922,0.145,,,,15.10477379
1715943199950400708,0.145,,,,15.112468576
1715943199958095494,0.138,,,,15.120163362
1715943199965790280,0.131,,,,15.127858148
1715943199973485066,0.133,,,,15.135552934
1715943199981179852,0.133,,,,15.14324772
1715943199988874638,0.131,,,,15.150942506
1715943199996569424,0.128,,,,15.158637292
1715943200004264226,0.124,,,,15.166332094
1715943200011959012,0.121,,,,15.17402688
1715943200019653798,0.119,,,,15.181721666
1715943200027348584,0.119,,,,15.189416452
1715943200035043370,0.121,,,,15.197111238
1715943200042738156,0.109,,,,15.204806024
1715943200050432942,0.09,,,,15.21250081
1715943200058127728,0.071,,,,15.220195596
1715943200065822514,0.059,,,,15.227890382
1715943200073517300,0.057,,,,15.235585168
1715943200081212086,0.066,,,,15.243279954
1715943200088906872,0.076,,,,15.25097474
1715943200096601658,0.09,,,,15.258669526
1715943200104296444,0.1,,,,15.266364312
1715943200111991230,0.095,,,,15.274059098
1715943200119686016,0.093,,,,15.281753884
1715943200127380802,0.097,,,,15.28944867
1715943200135075588,0.1,,,,15.297143456
1715943200142770374,0.095,,,,15.304838242
1715943200150465160,0.093,,,,15.312533028
1715943200158159946,0.097,,,,15.320227814
1715943200165854732,0.097,,,,15.3279226
1715943200173549518,0.093,,,,15.335617386
1715943200181244304,0.085,,,,15.343312172
1715943200188939090,0.057,,,,15.351006958
1715943200196633876,-0.052,,,,15.358701744
1715943200204328662,-0.324,,,,15.36639653
1715943200212023448,-0.628,,,,15.374091316
1715943200219718234,-0.6970000000000001,,,,15.381786102
1715943200227413020,-0.339,,,,15.389480888
1715943200235107806,0.379,,,,15.397175674
1715943200242802592,0.666,,,,15.40487046
1715943200250497378,0.224,,,,15.412565246
1715943200258192164,-0.019,,,,15.420260032
1715943200265886950,0.133,,,,15.427954818
1715943200273581736,0.131,,,,15.435649604
1715943200281276522,0.04,,,,15.44334439
1715943200288971308,0.074,,,,15.451039176
1715943200296666094,0.09,,,,15.458733962
1715943200304360880,0.054,,,,15.466428748
1715943200312055666,0.052,,,,15.474123534
1715943200319750452,0.057,,,,15.48181832
1715943200327445238,0.038,,,,15.489513106
1715943200335140024,0.031,,,,15.497207892
1715943200342834810,0.031,,,,15.504902678
1715943200350529596,0.016,,,,15.512597464
1715943200358224382,0.004,,,,15.52029225
1715943200365919168,0.002,,,,15.527987036
1715943200373613954,-0.009,,,,15.535681822
1715943200381308740,-0.028,,,,15.543376608
1715943200389003526,-0.042,,,,15.551071394
1715943200396698312,-0.054,,,,15.55876618
1715943200404393098,-0.071,,,,15.566460966
1715943200412087884,-0.09,,,,15.574155752
1715943200419782670,-0.112,,,,15.581850538
1715943200427477456,-0.128,,,,15.589545324
1715943200435172242,-0.136,,,,15.59724011
1715943200442867028,-0.138,,,,15.604934896
1715943200450561814,-0.14,,,,15.612629682
1715943200458256600,-0.136,,,,15.620324468
1715943200465951386,-0.117,,,,15.628019254
1715943200473646172,-0.093,,,,15.63571404
1715943200481340958,-0.069,,,,15.643408826
1715943200489035744,-0.028,,,,15.651103612
1715943200496730530,0.035,,,,15.658798398
1715943200504425316,0.093,,,,15.666493184
1715943200512120102,0.128,,,,15.67418797
1715943200519814888,0.169,,,,15.681882756
1715943200527509674,0.21,,,,15.689577542
1715943200535204460,0.229,,,,15.697272328
1715943200542899246,0.234,,,,15.704967114
1715943200550594032,0.241,,,,15.7126619
1715943200558288818,0.241,,,,15.720356686
1715943200565983620,0.224,67.0,816.0,,15.728051488
1715943200573678406,0.214,,,,15.735746274
1715943200581373192,0.212,,,,15.74344106
1715943200589067978,0.205,,,,15.751135846
1715943200596762764,0.195,,,,15.758830632
1715943200604457550,0.191,,,,15.766525418
1715943200612152336,0.193,,,,15.774220204
1715943200619847122,0.191,,,,15.78191499
1715943200627541908,0.181,,,,15.789609776
1715943200635236694,0.174,,,,15.797304562
1715943200642931480,0.181,,,,15.804999348
1715943200650626266,0.181,,,,15.812694134
1715943200658321052,0.176,,,,15.82038892
1715943200666015838,0.176,,,,15.828083706
1715943200673710624,0.181,,,,15.835778492
1715943200681405410,0.183,,,,15.843473278
1715943200689100196,0.183,,,,15.851168064
1715943200696794982,0.181,,,,15.85886285
1715943200704489768,0.181,,,,15.866557636
1715943200712184554,0.183,,,,15.874252422
1715943200719879340,0.186,,,,15.881947208
1715943200727574126,0.181,,,,15.889641994
1715943200735268912,0.169,,,,15.89733678
1715943200742963698,0.157,,,,15.905031566
1715943200750658484,0.16,,,,15.912726352
1715943200758353270,0.16,,,,15.920421138
1715943200766048056,0.148,,,,15.928115924
1715943200773742842,0.143,,,,15.93581071
1715943200781437628,0.143,,,,15.943505496
1715943200789132414,0.145,,,,15.951200282
1715943200796827200,0.148,,,,15.958895068
1715943200804521986,0.145,,,,15.966589854
1715943200812216772,0.14,,,,15.97428464
1715943200819911558,0.14,,,,15.981979426
1715943200827606344,0.138,,,,15.989674212
1715943200835301130,0.133,,,,15.997368998
1715943200842995916,0.128,,,,16.005063784
1715943200850690702,0.136,,,,16.01275857
1715943200858385488,0.143,,,,16.020453356
1715943200866080274,0.133,,,,16.028148142
1715943200873775060,0.124,,,,16.035842928
1715943200881469846,0.131,,,,16.043537714
1715943200889164632,0.138,,,,16.0512325
1715943200896859418,0.131,,,,16.058927286
1715943200904554204,0.119,,,,16.066622072
1715943200912248990,0.117,,,,16.074316858
1715943200919943776,0.114,,,,16.082011644
1715943200927638562,0.105,,,,16.08970643
1715943200935333348,0.102,,,,16.097401216
1715943200943028134,0.109,,,,16.105096002
1715943200950722920,0.109,,,,16.112790788
1715943200958417706,0.109,,,,16.120485574
1715943200966112492,0.097,,,,16.12818036
1715943200973807278,0.074,,,,16.135875146
1715943200981502064,0.059,,,,16.143569932
1715943200989196850,0.057,,,,16.151264718
1715943200996891636,0.057,,,,16.158959504
1715943201004586422,0.062,,,,16.16665429
1715943201012281208,0.078,,,,16.174349076
1715943201019975994,0.097,,,,16.182043862
1715943201027670780,0.1,,,,16.189738648
1715943201035365566,0.1,,,,16.197433434
1715943201043060352,0.102,,,,16.20512822
1715943201050755138,0.107,,,,16.212823006
1715943201058449924,0.112,,,,16.220517792
1715943201066144710,0.109,,,,16.228212578
1715943201073839496,0.102,,,,16.235907364
1715943201081534282,0.107,,,,16.24360215
1715943201089229068,0.114,,,,16.251296936
1715943201096923854,0.109,,,,16.258991722
1715943201104618640,0.093,,,,16.266686508
1715943201112313426,0.014,,,,16.274381294
1715943201120008212,-0.21,,,,16.28207608
1715943201127703014,-0.546,,,,16.289770882
1715943201135397800,-0.738,,,,16.297465668
1715943201143092586,-0.532,,,,16.305160454
1715943201150787372,0.143,,,,16.31285524
1715943201158482158,0.73,,,,16.320550026
1715943201166176944,0.489,,,,16.328244812
1715943201173871730,0.035,,,,16.335939598
1715943201181566516,0.088,,,,16.343634384
1715943201189261302,0.188,,,,16.35132917
1715943201196956088,0.093,,,,16.359023956
1715943201204650874,0.074,,,,16.366718742
1715943201212345660,0.114,,,,16.374413528
1715943201220040446,0.093,,,,16.382108314
1715943201227735232,0.069,,,,16.3898031
1715943201235430018,0.064,,,,16.397497886
1715943201243124804,0.042,,,,16.405192672
1715943201250819590,0.026,,,,16.412887458
1715943201258514376,0.021,,,,16.420582244
1715943201266209162,0.016,,,,16.42827703
1715943201273903948,0.009,,,,16.435971816
1715943201281598734,-0.002,,,,16.443666602
1715943201289293520,-0.016,,,,16.451361388
1715943201296988306,-0.028,,,,16.459056174
1715943201304683092,-0.035,,,,16.46675096
1715943201312377878,-0.05,,,,16.474445746
1715943201320072664,-0.066,,,,16.482140532
1715943201327767450,-0.088,,,,16.489835318
1715943201335462236,-0.105,,,,16.497530104
1715943201343157022,-0.117,,,,16.50522489
1715943201350851808,-0.131,,,,16.512919676
1715943201358546594,-0.14,,,,16.520614462
1715943201366241380,-0.14,,,,16.528309248
1715943201373936166,-0.133,,,,16.536004034
1715943201381630952,-0.121,,,,16.54369882
1715943201389325738,-0.102,,,,16.551393606
1715943201397020524,-0.078,,,,16.559088392
1715943201404715310,-0.05,,,,16.566783178
1715943201412410096,0.0,,,,16.574477964
1715943201420104882,0.062,,,,16.58217275
1715943201427799668,0.112,,,,16.589867536
1715943201435494454,0.152,,,,16.597562322
1715943201443189240,0.198,,,,16.605257108
1715943201450884026,0.229,,,,16.612951894
1715943201458578812,0.238,,,,16.62064668
1715943201466273598,0.246,,,,16.628341466
1715943201473968384,0.246,,,,16.636036252
1715943201481663170,0.229,,,,16.643731038
1715943201489357956,0.217,,,,16.651425824
1715943201497052742,0.212,,,,16.65912061
1715943201504747528,0.203,,,,16.666815396
1715943201512442314,0.195,,,,16.674510182
1715943201520137100,0.191,,,,16.682204968
1715943201527831886,0.188,,,,16.689899754
1715943201535526672,0.188,,,,16.69759454
1715943201543221458,0.186,,,,16.705289326
1715943201550916244,0.188,,,,16.712984112
1715943201558611030,0.188,,,,16.720678898
1715943201566305816,0.181,,,,16.728373684
1715943201574000602,0.179,,,,16.73606847
1715943201581695388,0.179,,,,16.743763256
1715943201589390174,0.179,,,,16.751458042
1715943201597084960,0.181,,,,16.759152828
1715943201604779746,0.188,,,,16.766847614
1715943201612474532,0.183,,,,16.7745424
1715943201620169318,0.181,,,,16.782237186
1715943201627864104,0.183,,,,16.789931972
1715943201635558890,0.186,,,,16.797626758
1715943201643253676,0.186,,,,16.805321544
1715943201650948462,0.183,,,,16.81301633
1715943201658643248,0.183,,,,16.820711116
1715943201666338034,0.181,,,,16.828405902
1715943201674032820,0.179,,,,16.836100688
1715943201681727606,0.179,,,,16.843795474
1715943201689422408,0.176,67.0,858.0,,16.851490276
1715943201697117194,0.171,,,,16.859185062
1715943201704811980,0.164,,,,16.866879848
1715943201712506766,0.157,,,,16.874574634
1715943201720201552,0.152,,,,16.88226942
1715943201727896338,0.155,,,,16.889964206
1715943201735591124,0.152,,,,16.897658992
1715943201743285910,0.136,,,,16.905353778
1715943201750980696,0.128,,,,16.913048564
1715943201758675482,0.131,,,,16.92074335
1715943201766370268,0.126,,,,16.928438136
1715943201774065054,0.119,,,,16.936132922
1715943201781759840,0.114,,,,16.943827708
1715943201789454626,0.114,,,,16.951522494
1715943201797149412,0.114,,,,16.95921728
1715943201804844198,0.112,,,,16.966912066
1715943201812538984,0.112,,,,16.974606852
1715943201820233770,0.117,,,,16.982301638
1715943201827928556,0.117,,,,16.989996424
1715943201835623342,0.119,,,,16.99769121
1715943201843318128,0.114,,,,17.005385996
1715943201851012914,0.095,,,,17.013080782
1715943201858707700,0.076,,,,17.020775568
1715943201866402486,0.066,,,,17.028470354
1715943201874097272,0.064,,,,17.03616514
1715943201881792058,0.074,,,,17.043859926
1715943201889486844,0.09,,,,17.051554712
1715943201897181630,0.109,,,,17.059249498
1715943201904876416,0.126,,,,17.066944284
1715943201912571202,0.128,,,,17.07463907
1715943201920265988,0.121,,,,17.082333856
1715943201927960774,0.126,,,,17.090028642
1715943201935655560,0.133,,,,17.097723428
1715943201943350346,0.133,,,,17.105418214
1715943201951045132,0.133,,,,17.113113
1715943201958739918,0.133,,,,17.120807786
1715943201966434704,0.131,,,,17.128502572
1715943201974129490,0.131,,,,17.136197358
1715943201981824276,0.126,,,,17.143892144
1715943201989519062,0.085,,,,17.15158693
1715943201997213848,-0.093,,,,17.159281716
1715943202004908634,-0.477,,,,17.166976502
1715943202012603420,-0.845,,,,17.174671288
1715943202020298206,-0.85,,,,17.182366074
1715943202027992992,-0.246,,,,17.19006086
1715943202035687778,0.644,,,,17.197755646
1715943202043382564,0.785,,,,17.205450432
1715943202051077350,0.236,,,,17.213145218
1715943202058772136,0.066,,,,17.220840004
1715943202066466922,0.217,,,,17.22853479
1715943202074161708,0.169,,,,17.236229576
1715943202081856494,0.095,,,,17.243924362
1715943202089551280,0.131,,,,17.251619148
1715943202097246066,0.133,,,,17.259313934
1715943202104940852,0.097,,,,17.26700872
1715943202112635638,0.095,,,,17.274703506
1715943202120330424,0.093,,,,17.282398292
1715943202128025210,0.074,,,,17.290093078
1715943202135719996,0.062,,,,17.297787864
1715943202143414782,0.059,,,,17.30548265
1715943202151109568,0.047,,,,17.313177436
1715943202158804354,0.033,,,,17.320872222
1715943202166499140,0.019,,,,17.328567008
1715943202174193926,0.002,,,,17.336261794
1715943202181888712,-0.016,,,,17.34395658
1715943202189583498,-0.04,,,,17.351651366
1715943202197278284,-0.064,,,,17.359346152
1715943202204973070,-0.085,,,,17.367040938
1715943202212667856,-0.107,,,,17.374735724
1715943202220362642,-0.136,,,,17.38243051
1715943202228057428,-0.16,,,,17.390125296
1715943202235752214,-0.186,,,,17.397820082
1715943202243447000,-0.205,,,,17.405514868
1715943202251141804,-0.203,68.0,912.0,,17.413209672
1715943202258836590,-0.186,,,,17.420904458
1715943202266531376,-0.171,,,,17.428599244
1715943202274226162,-0.148,,,,17.43629403
1715943202281920948,-0.102,,,,17.443988816
1715943202289615734,-0.045,,,,17.451683602
1715943202297310520,0.021,,,,17.459378388
1715943202305005306,0.09,,,,17.467073174
1715943202312700092,0.155,,,,17.47476796
1715943202320394878,0.203,,,,17.482462746
1715943202328089664,0.234,,,,17.490157532
1715943202335784450,0.25,,,,17.497852318
1715943202343479236,0.255,,,,17.505547104
1715943202351174022,0.25,,,,17.51324189
1715943202358868808,0.243,,,,17.520936676
1715943202366563594,0.231,,,,17.528631462
1715943202374258380,0.219,,,,17.536326248
1715943202381953166,0.207,,,,17.544021034
1715943202389647952,0.2,,,,17.55171582
1715943202397342738,0.195,,,,17.559410606
1715943202405037524,0.191,,,,17.567105392
1715943202412732310,0.186,,,,17.574800178
1715943202420427096,0.183,,,,17.582494964
1715943202428121882,0.179,,,,17.59018975
1715943202435816668,0.181,,,,17.597884536
1715943202443511454,0.186,,,,17.605579322
1715943202451206240,0.181,,,,17.613274108
1715943202458901026,0.174,,,,17.620968894
1715943202466595812,0.176,,,,17.62866368
1715943202474290598,0.181,,,,17.636358466
1715943202481985384,0.181,,,,17.644053252
1715943202489680170,0.179,,,,17.651748038
1715943202497374956,0.179,,,,17.659442824
1715943202505069742,0.179,,,,17.66713761
1715943202512764528,0.169,,,,17.674832396
1715943202520459314,0.162,,,,17.682527182
1715943202528154100,0.164,,,,17.690221968
1715943202535848886,0.164,,,,17.697916754
1715943202543543672,0.157,,,,17.70561154
1715943202551238458,0.16,,,,17.713306326
1715943202558933244,0.164,,,,17.721001112
1715943202566628030,0.162,,,,17.728695898
1715943202574322816,0.152,,,,17.736390684
1715943202582017602,0.15,,,,17.74408547
1715943202589712388,0.15,,,,17.751780256
1715943202597407174,0.15,,,,17.759475042
1715943202605101960,0.148,,,,17.767169828
1715943202612796746,0.15,,,,17.774864614
1715943202620491532,0.148,,,,17.7825594
1715943202628186318,0.143,,,,17.790254186
1715943202635881104,0.14,,,,17.797948972
1715943202643575890,0.138,,,,17.805643758
1715943202651270676,0.14,,,,17.813338544
1715943202658965462,0.145,,,,17.82103333
1715943202666660248,0.143,,,,17.828728116
1715943202674355034,0.143,,,,17.836422902
1715943202682049820,0.143,,,,17.844117688
1715943202689744606,0.138,,,,17.851812474
1715943202697439392,0.119,,,,17.85950726
1715943202705134178,0.1,,,,17.867202046
1715943202712828964,0.095,,,,17.874896832
1715943202720523750,0.083,,,,17.882591618
1715943202728218536,0.074,,,,17.890286404
1715943202735913322,0.088,,,,17.89798119
1715943202743608108,0.109,,,,17.905675976
1715943202751302894,0.121,,,,17.913370762
1715943202758997680,0.126,,,,17.921065548
1715943202766692466,0.124,,,,17.928760334
1715943202774387252,0.121,,,,17.93645512
1715943202782082038,0.124,,,,17.944149906
1715943202789776824,0.126,,,,17.951844692
1715943202797471610,0.128,,,,17.959539478
1715943202805166396,0.133,,,,17.967234264
1715943202812861198,0.131,,,,17.974929066
1715943202820555775,0.124,,,,17.982623643
1715943202828250352,0.126,,,,17.99031822
1715943202835944929,0.126,,,,17.998012797
1715943202843639506,0.021,,,,18.005707374
1715943202851334083,-0.298,,,,18.013401951
1715943202859028660,-0.752,,,,18.021096528
1715943202866723237,-1.015,,,,18.028791105
1715943202874417814,-0.766,,,,18.036485682
1715943202882112391,0.14,,,,18.044180259
1715943202889806968,0.979,,,,18.051874836
1715943202897501545,0.759,,,,18.059569413
1715943202905196122,0.167,,,,18.06726399
1715943202912890699,0.128,,,,18.074958567
1715943202920585276,0.205,,,,18.082653144
1715943202928279853,0.107,,,,18.090347721
1715943202935974430,0.093,,,,18.098042298
1715943202943669007,0.126,,,,18.105736875
1715943202951363584,0.1,,,,18.113431452
1715943202959058161,0.076,,,,18.121126029
1715943202966752738,0.074,,,,18.128820606
1715943202974447315,0.059,,,,18.136515183
1715943202982141892,0.045,,,,18.14420976
1715943202989836469,0.033,,,,18.151904337
1715943202997531046,0.019,,,,18.159598914
1715943203005225623,0.007,,,,18.167293491
1715943203012920200,-0.007,,,,18.174988068
1715943203020614777,-0.028,,,,18.182682645
1715943203028309354,-0.052,,,,18.190377222
1715943203036003931,-0.069,,,,18.198071799
1715943203043698508,-0.085,,,,18.205766376
1715943203051393085,-0.117,,,,18.213460953
1715943203059087662,-0.15,,,,18.22115553
1715943203066782239,-0.181,,,,18.228850107
1715943203074476816,-0.203,,,,18.236544684
1715943203082171393,-0.226,,,,18.244239261
1715943203089865970,-0.246,,,,18.251933838
1715943203097560547,-0.253,,,,18.259628415
1715943203105255124,-0.25,,,,18.267322992
1715943203112949701,-0.236,,,,18.275017569
1715943203120644278,-0.21,,,,18.282712146
1715943203128338855,-0.167,,,,18.290406723
1715943203136033432,-0.109,,,,18.2981013
1715943203143728009,-0.035,,,,18.305795877
1715943203151422586,0.047,,,,18.313490454
1715943203159117163,0.133,,,,18.321185031
1715943203166811740,0.205,,,,18.328879608
1715943203174506317,0.257,,,,18.336574185
1715943203182200894,0.286,,,,18.344268762
1715943203189895471,0.303,,,,18.351963339
1715943203197590048,0.312,,,,18.359657916
1715943203205284625,0.308,,,,18.367352493
1715943203212979202,0.293,,,,18.37504707
1715943203220673779,0.279,,,,18.382741647
1715943203228368356,0.267,,,,18.390436224
1715943203236062933,0.25,,,,18.398130801
1715943203243757510,0.234,,,,18.405825378
1715943203251452087,0.224,,,,18.413519955
1715943203259146664,0.212,,,,18.421214532
1715943203266841241,0.195,,,,18.428909109
1715943203274535818,0.193,,,,18.436603686
1715943203282230395,0.193,,,,18.444298263
1715943203289924972,0.183,,,,18.45199284
1715943203297619549,0.181,,,,18.459687417
1715943203305314126,0.186,,,,18.467381994
1715943203313008703,0.193,,,,18.475076571
1715943203320703280,0.191,,,,18.482771148
1715943203328397857,0.183,,,,18.490465725
1715943203336092434,0.183,,,,18.498160302
1715943203343787011,0.191,,,,18.505854879
1715943203351481588,0.195,,,,18.513549456
1715943203359176165,0.191,,,,18.521244033
1715943203366870742,0.186,,,,18.52893861
1715943203374565334,0.183,68.0,919.0,,18.536633202
1715943203382259911,0.181,,,,18.544327779
1715943203389954488,0.174,,,,18.552022356
1715943203397649065,0.171,,,,18.559716933
1715943203405343642,0.176,,,,18.56741151
1715943203413038219,0.171,,,,18.575106087
1715943203420732796,0.15,,,,18.582800664
1715943203428427373,0.143,,,,18.590495241
1715943203436121950,0.152,,,,18.598189818
1715943203443816527,0.152,,,,18.605884395
1715943203451511104,0.145,,,,18.613578972
1715943203459205681,0.143,,,,18.621273549
1715943203466900258,0.138,,,,18.628968126
1715943203474594835,0.136,,,,18.636662703
1715943203482289412,0.133,,,,18.64435728
1715943203489983989,0.131,,,,18.652051857
1715943203497678566,0.121,,,,18.659746434
1715943203505373143,0.1,,,,18.667441011
1715943203513067720,0.088,,,,18.675135588
1715943203520762297,0.081,,,,18.682830165
1715943203528456874,0.074,,,,18.690524742
1715943203536151451,0.09,,,,18.698219319
1715943203543846028,0.114,,,,18.705913896
1715943203551540605,0.131,,,,18.713608473
1715943203559235182,0.145,,,,18.72130305
1715943203566929759,0.145,,,,18.728997627
1715943203574624336,0.138,,,,18.736692204
1715943203582318913,0.143,,,,18.744386781
1715943203590013490,0.152,,,,18.752081358
1715943203597708067,0.148,,,,18.759775935
1715943203605402644,0.14,,,,18.767470512
1715943203613097221,0.143,,,,18.775165089
1715943203620791798,0.143,,,,18.782859666
1715943203628486375,0.143,,,,18.790554243
1715943203636180952,0.15,,,,18.79824882
1715943203643875529,0.112,,,,18.805943397
1715943203651570106,-0.076,,,,18.813637974
1715943203659264683,-0.48,,,,18.821332551
1715943203666959260,-0.912,,,,18.829027128
1715943203674653837,-1.005,,,,18.836721705
1715943203682348414,-0.427,,,,18.844416282
1715943203690042991,0.606,,,,18.852110859
1715943203697737568,0.962,,,,18.859805436
1715943203705432145,0.398,,,,18.867500013
1715943203713126722,0.081,,,,18.87519459
1715943203720821299,0.21,,,,18.882889167
1715943203728515876,0.188,,,,18.890583744
1715943203736210453,0.105,,,,18.898278321
1715943203743905030,0.131,,,,18.905972898
1715943203751599607,0.131,,,,18.913667475
1715943203759294184,0.095,,,,18.921362052
1715943203766988761,0.088,,,,18.929056629
1715943203774683338,0.078,,,,18.936751206
1715943203782377915,0.054,,,,18.944445783
1715943203790072492,0.045,,,,18.95214036
1715943203797767069,0.035,,,,18.959834937
1715943203805461646,0.021,,,,18.967529514
1715943203813156223,0.014,,,,18.975224091
1715943203820850800,0.002,,,,18.982918668
1715943203828545377,-0.019,,,,18.990613245
1715943203836239954,-0.042,,,,18.998307822
1715943203843934531,-0.071,,,,19.006002399
1715943203851629108,-0.095,,,,19.013696976
1715943203859323685,-0.119,,,,19.021391553
1715943203867018262,-0.148,,,,19.02908613
1715943203874712839,-0.183,,,,19.036780707
1715943203882407416,-0.21,,,,19.044475284
1715943203890101993,-0.217,,,,19.052169861
1715943203897796570,-0.226,,,,19.059864438
1715943203905491147,-0.236,,,,19.067559015
1715943203913185724,-0.224,,,,19.075253592
1715943203920880301,-0.195,,,,19.082948169
1715943203928574878,-0.167,,,,19.090642746
1715943203936269468,-0.119,,,,19.098337336
1715943203943964254,-0.042,,,,19.106032122
1715943203951659040,0.045,,,,19.113726908
1715943203959353826,0.121,,,,19.121421694
1715943203967048612,0.181,,,,19.12911648
1715943203974743398,0.229,,,,19.136811266
1715943203982438184,0.267,,,,19.144506052
1715943203990132970,0.281,,,,19.152200838
1715943203997827756,0.281,,,,19.159895624
1715943204005522542,0.291,,,,19.16759041
1715943204013217328,0.291,,,,19.175285196
1715943204020912114,0.269,,,,19.182979982
1715943204028606900,0.255,,,,19.190674768
1715943204036301686,0.248,,,,19.198369554
1715943204043996472,0.241,,,,19.20606434
1715943204051691258,0.231,,,,19.213759126
1715943204059386044,0.224,,,,19.221453912
1715943204067080830,0.219,,,,19.229148698
1715943204074775616,0.214,,,,19.236843484
1715943204082470402,0.207,,,,19.24453827
1715943204090165188,0.21,,,,19.252233056
1715943204097859974,0.212,,,,19.259927842
1715943204105554760,0.205,,,,19.267622628
1715943204113249546,0.2,,,,19.275317414
1715943204120944332,0.205,,,,19.2830122
1715943204128639118,0.207,,,,19.290706986
1715943204136333904,0.205,,,,19.298401772
1715943204144028690,0.203,,,,19.306096558
1715943204151723476,0.2,,,,19.313791344
1715943204159418262,0.195,,,,19.32148613
1715943204167113048,0.193,,,,19.329180916
1715943204174807834,0.193,,,,19.336875702
1715943204182502620,0.191,,,,19.344570488
1715943204190197406,0.193,,,,19.352265274
1715943204197892192,0.195,,,,19.35996006
1715943204205586978,0.188,,,,19.367654846
1715943204213281764,0.179,,,,19.375349632
1715943204220976550,0.176,,,,19.383044418
1715943204228671336,0.179,,,,19.390739204
1715943204236366122,0.179,,,,19.39843399
1715943204244060908,0.179,,,,19.406128776
1715943204251755694,0.179,,,,19.413823562
1715943204259450480,0.169,,,,19.421518348
1715943204267145266,0.167,,,,19.429213134
1715943204274840052,0.164,,,,19.43690792
1715943204282534838,0.143,,,,19.444602706
1715943204290229624,0.121,,,,19.452297492
1715943204297924410,0.105,,,,19.459992278
1715943204305619196,0.088,,,,19.467687064
1715943204313313982,0.078,,,,19.47538185
1715943204321008768,0.081,,,,19.483076636
1715943204328703554,0.102,,,,19.490771422
1715943204336398340,0.117,,,,19.498466208
1715943204344093126,0.124,,,,19.506160994
1715943204351787912,0.148,,,,19.51385578
1715943204359482698,0.152,,,,19.521550566
1715943204367177484,0.136,,,,19.529245352
1715943204374872270,0.136,,,,19.536940138
1715943204382567056,0.14,,,,19.544634924
1715943204390261842,0.133,,,,19.55232971
1715943204397956628,0.136,,,,19.560024496
1715943204405651414,0.138,,,,19.567719282
1715943204413346200,0.133,,,,19.575414068
1715943204421040986,0.138,,,,19.583108854
1715943204428735772,0.138,,,,19.59080364
1715943204436430558,0.069,,,,19.598498426
1715943204444125344,-0.176,,,,19.606193212
1715943204451820130,-0.587,,,,19.613887998
1715943204459514916,-0.888,,,,19.621582784
1715943204467209702,-0.783,,,,19.62927757
1715943204474904488,-0.107,,,,19.636972356
1715943204482599274,0.769,,,,19.644667142
1715943204490294060,0.862,,,,19.652361928
1715943204497988862,0.284,68.0,881.0,,19.66005673
1715943204505683648,0.083,,852.0,,19.667751516
1715943204513378434,0.195,,,,19.675446302
1715943204521073220,0.133,,,,19.683141088
1715943204528768006,0.059,,,,19.690835874
1715943204536462792,0.093,,,,19.69853066
1715943204544157578,0.088,,,,19.706225446
1715943204551852364,0.05,,,,19.713920232
1715943204559547150,0.05,,,,19.721615018
1715943204567241936,0.054,,,,19.729309804
1715943204574936722,0.035,,,,19.73700459
1715943204582631508,0.023,,,,19.744699376
1715943204590326294,0.016,,,,19.752394162
1715943204598021080,-0.002,,,,19.760088948
1715943204605715866,-0.011,,,,19.767783734
1715943204613410652,-0.021,,,,19.77547852
1715943204621105438,-0.045,,,,19.783173306
1715943204628800224,-0.069,,,,19.790868092
1715943204636495010,-0.093,,,,19.798562878
1715943204644189796,-0.121,,,,19.806257664
1715943204651884582,-0.148,,,,19.81395245
1715943204659579368,-0.176,,,,19.821647236
1715943204667274154,-0.217,,,,19.829342022
1715943204674968940,-0.243,,,,19.837036808
1715943204682663726,-0.253,,,,19.844731594
1715943204690358512,-0.267,,,,19.85242638
1715943204698053298,-0.272,,,,19.860121166
1715943204705748084,-0.25,,,,19.867815952
1715943204713442870,-0.219,,,,19.875510738
1715943204721137656,-0.174,,,,19.883205524
1715943204728832442,-0.102,,,,19.89090031
1715943204736527228,-0.019,,,,19.898595096
1715943204744222014,0.071,,,,19.906289882
1715943204751916800,0.152,,,,19.913984668
1715943204759611586,0.212,,,,19.921679454
1715943204767306372,0.257,,,,19.92937424
1715943204775001158,0.289,,,,19.937069026
1715943204782695944,0.3,,,,19.944763812
1715943204790390730,0.3,,,,19.952458598
1715943204798085516,0.298,,,,19.960153384
1715943204805780302,0.291,,,,19.96784817
1715943204813475088,0.284,,,,19.975542956
1715943204821169874,0.269,,,,19.983237742
1715943204828864660,0.25,,,,19.990932528
1715943204836559446,0.246,,,,19.998627314
1715943204844254232,0.246,,,,20.0063221
1715943204851949018,0.231,,,,20.014016886
1715943204859643804,0.217,,,,20.021711672
1715943204867338590,0.217,,,,20.029406458
1715943204875033376,0.219,,,,20.037101244
1715943204882728162,0.207,,,,20.04479603
1715943204890422948,0.198,,,,20.052490816
1715943204898117734,0.198,,,,20.060185602
1715943204905812520,0.195,,,,20.067880388
1715943204913507306,0.195,,,,20.075575174
1715943204921202092,0.198,,,,20.08326996
1715943204928896878,0.205,,,,20.090964746
1715943204936591664,0.205,,,,20.098659532
1715943204944286450,0.188,,,,20.106354318
1715943204951981236,0.176,,,,20.114049104
1715943204959676022,0.186,,,,20.12174389
1715943204967370808,0.198,,,,20.129438676
1715943204975065594,0.193,,,,20.137133462
1715943204982760380,0.188,,,,20.144828248
1715943204990455166,0.191,,,,20.152523034
1715943204998149952,0.193,,,,20.16021782
1715943205005844738,0.191,,,,20.167912606
1715943205013539524,0.188,,,,20.175607392
1715943205021234310,0.191,,,,20.183302178
1715943205028929096,0.188,,,,20.190996964
1715943205036623882,0.179,,,,20.19869175
1715943205044318668,0.169,,,,20.206386536
1715943205052013454,0.157,,,,20.214081322
1715943205059708256,0.145,,,,20.221776124
1715943205067403042,0.128,,,,20.22947091
1715943205075097828,0.119,,,,20.237165696
1715943205082792614,0.131,,,,20.244860482
1715943205090487400,0.148,,,,20.252555268
1715943205098182186,0.15,,,,20.260250054
1715943205105876972,0.152,,,,20.26794484
1715943205113571758,0.157,,,,20.275639626
1715943205121266544,0.155,,,,20.283334412
1715943205128961330,0.15,,,,20.291029198
1715943205136656116,0.152,,,,20.298723984
1715943205144350902,0.152,,,,20.30641877
1715943205152045688,0.15,,,,20.314113556
1715943205159740474,0.145,,,,20.321808342
1715943205167435260,0.143,,,,20.329503128
1715943205175130046,0.14,,,,20.337197914
1715943205182824832,0.136,,,,20.3448927
1715943205190519618,0.1,,,,20.352587486
1715943205198214404,-0.042,,,,20.360282272
1715943205205909190,-0.332,,,,20.367977058
1715943205213603976,-0.604,,,,20.375671844
1715943205221298762,-0.609,,,,20.38336663
1715943205228993548,-0.222,,,,20.391061416
1715943205236688334,0.451,,,,20.398756202
1715943205244383120,0.769,,,,20.406450988
1715943205252077906,0.36,,,,20.414145774
1715943205259772692,0.028,,,,20.42184056
1715943205267467478,0.128,,,,20.429535346
1715943205275162264,0.15,,,,20.437230132
1715943205282857050,0.057,,,,20.444924918
1715943205290551836,0.064,,,,20.452619704
1715943205298246622,0.074,,,,20.46031449
1715943205305941408,0.04,,,,20.468009276
1715943205313636194,0.031,,,,20.475704062
1715943205321330980,0.035,,,,20.483398848
1715943205329025766,0.028,,,,20.491093634
1715943205336720552,0.023,,,,20.49878842
1715943205344415338,0.016,,,,20.506483206
1715943205352110124,0.004,,,,20.514177992
1715943205359804910,-0.009,,,,20.521872778
1715943205367499696,-0.021,,,,20.529567564
1715943205375194482,-0.033,,,,20.53726235
1715943205382889268,-0.052,,,,20.544957136
1715943205390584054,-0.071,,,,20.552651922
1715943205398278840,-0.09,,,,20.560346708
1715943205405973626,-0.117,,,,20.568041494
1715943205413668412,-0.138,,,,20.57573628
1715943205421363198,-0.16,,,,20.583431066
1715943205429057984,-0.188,,,,20.591125852
1715943205436752770,-0.21,,,,20.598820638
1715943205444447556,-0.214,,,,20.606515424
1715943205452142342,-0.212,,,,20.61421021
1715943205459837128,-0.198,,,,20.621904996
1715943205467531914,-0.164,,,,20.629599782
1715943205475226700,-0.119,,,,20.637294568
1715943205482921486,-0.066,,,,20.644989354
1715943205490616272,-0.002,,,,20.65268414
1715943205498311058,0.069,,,,20.660378926
1715943205506005844,0.138,,,,20.668073712
1715943205513700630,0.195,,,,20.675768498
1715943205521395416,0.236,,,,20.683463284
1715943205529090202,0.262,,,,20.69115807
1715943205536784988,0.277,,,,20.698852856
1715943205544479774,0.277,,,,20.706547642
1715943205552174560,0.277,,,,20.714242428
1715943205559869346,0.274,,,,20.721937214
1715943205567564132,0.272,,,,20.729632
1715943205575258918,0.265,,,,20.737326786
1715943205582953704,0.253,,,,20.745021572
1715943205590648490,0.241,,,,20.752716358
1715943205598343276,0.234,,,,20.760411144
1715943205606038062,0.226,,,,20.76810593
1715943205613732848,0.219,,,,20.775800716
1715943205621427652,0.212,68.0,805.0,,20.78349552
1715943205629122020,0.207,,,,20.791189888
1715943205636816388,0.203,,,,20.798884256
1715943205644510756,0.195,,,,20.806578624
1715943205652205124,0.195,,,,20.814272992
1715943205659899492,0.198,,,,20.82196736
1715943205667593860,0.191,,,,20.829661728
1715943205675288228,0.186,,,,20.837356096
1715943205682982596,0.181,,,,20.845050464
1715943205690676964,0.176,,,,20.852744832
1715943205698371332,0.174,,,,20.8604392
1715943205706065700,0.171,,,,20.868133568
1715943205713760068,0.171,,,,20.875827936
1715943205721454436,0.174,,,,20.883522304
1715943205729148804,0.171,,,,20.891216672
1715943205736843172,0.169,,,,20.89891104
1715943205744537540,0.171,,,,20.906605408
1715943205752231908,0.174,,,,20.914299776
1715943205759926276,0.169,,,,20.921994144
1715943205767620644,0.164,,,,20.929688512
1715943205775315012,0.167,,,,20.93738288
1715943205783009380,0.169,,,,20.945077248
1715943205790703748,0.157,,,,20.952771616
1715943205798398116,0.136,,,,20.960465984
1715943205806092484,0.126,,,,20.968160352
1715943205813786852,0.121,,,,20.97585472
1715943205821481220,0.107,,,,20.983549088
1715943205829175588,0.102,,,,20.991243456
1715943205836869956,0.117,,,,20.998937824
1715943205844564324,0.126,,,,21.006632192
1715943205852258692,0.138,,,,21.01432656
1715943205859953060,0.152,,,,21.022020928
1715943205867647428,0.157,,,,21.029715296
1715943205875341796,0.15,,,,21.037409664
1715943205883036164,0.15,,,,21.045104032
1715943205890730532,0.15,,,,21.0527984
1715943205898424900,0.152,,,,21.060492768
1715943205906119268,0.152,,,,21.068187136
1715943205913813636,0.152,,,,21.075881504
1715943205921508004,0.148,,,,21.083575872
1715943205929202372,0.138,,,,21.09127024
1715943205936896740,0.128,,,,21.098964608
1715943205944591108,0.114,,,,21.106658976
1715943205952285476,0.076,,,,21.114353344
1715943205959979844,-0.066,,,,21.122047712
1715943205967674212,-0.32,,,,21.12974208
1715943205975368580,-0.47,,,,21.137436448
1715943205983062948,-0.386,,,,21.145130816
1715943205990757316,0.045,,,,21.152825184
1715943205998451684,0.628,,,,21.160519552
1715943206006146052,0.558,,,,21.16821392
1715943206013840420,0.071,,,,21.175908288
1715943206021534788,0.042,,,,21.183602656
1715943206029229156,0.186,,,,21.191297024
1715943206036923524,0.105,,,,21.198991392
1715943206044617892,0.059,,,,21.20668576
1715943206052312260,0.105,,,,21.214380128
1715943206060006628,0.083,,,,21.222074496
1715943206067700996,0.057,,,,21.229768864
1715943206075395364,0.069,,,,21.237463232
1715943206083089732,0.062,,,,21.2451576
1715943206090784100,0.04,,,,21.252851968
1715943206098478468,0.028,,,,21.260546336
1715943206106172836,0.016,,,,21.268240704
1715943206113867204,0.002,,,,21.275935072
1715943206121561572,-0.007,,,,21.28362944
1715943206129255940,-0.016,,,,21.291323808
1715943206136950308,-0.033,,,,21.299018176
1715943206144644676,-0.052,,,,21.306712544
1715943206152339044,-0.076,,,,21.314406912
1715943206160033412,-0.097,,,,21.32210128
1715943206167727780,-0.124,,,,21.329795648
1715943206175422148,-0.164,,,,21.337490016
1715943206183116528,-0.2,,,,21.345184396
1715943206190811314,-0.217,,,,21.352879182
1715943206198506100,-0.229,,,,21.360573968
1715943206206200886,-0.238,,,,21.368268754
1715943206213895672,-0.229,,,,21.37596354
1715943206221590458,-0.205,,,,21.383658326
1715943206229285244,-0.176,,,,21.391353112
1715943206236980030,-0.133,,,,21.399047898
1715943206244674816,-0.064,,,,21.406742684
1715943206252369602,0.016,,,,21.41443747
1715943206260064388,0.088,,,,21.422132256
1715943206267759174,0.14,,,,21.429827042
1715943206275453960,0.179,,,,21.437521828
1715943206283148746,0.212,,,,21.445216614
1715943206290843532,0.234,,,,21.4529114
1715943206298538318,0.236,,,,21.460606186
1715943206306233104,0.226,,,,21.468300972
1715943206313927890,0.226,,,,21.475995758
1715943206321622676,0.229,,,,21.483690544
1715943206329317462,0.217,,,,21.49138533
1715943206337012248,0.205,,,,21.499080116
1715943206344707034,0.203,,,,21.506774902
1715943206352401820,0.2,,,,21.514469688
1715943206360096606,0.193,,,,21.522164474
1715943206367791392,0.188,,,,21.52985926
1715943206375486178,0.186,,,,21.537554046
1715943206383180964,0.183,,,,21.545248832
1715943206390875750,0.181,,,,21.552943618
1715943206398570536,0.176,,,,21.560638404
1715943206406265322,0.176,,,,21.56833319
1715943206413960108,0.176,,,,21.576027976
1715943206421654894,0.167,,,,21.583722762
1715943206429349680,0.167,,,,21.591417548
1715943206437044466,0.174,,,,21.599112334
1715943206444739252,0.174,,,,21.60680712
1715943206452434038,0.169,,,,21.614501906
1715943206460128824,0.174,,,,21.622196692
1715943206467823610,0.179,,,,21.629891478
1715943206475518396,0.176,,,,21.637586264
1715943206483213182,0.171,,,,21.64528105
1715943206490907968,0.171,,,,21.652975836
1715943206498602754,0.176,,,,21.660670622
1715943206506297540,0.176,,,,21.668365408
1715943206513992326,0.171,,,,21.676060194
1715943206521687112,0.169,,,,21.68375498
1715943206529381898,0.174,,,,21.691449766
1715943206537076684,0.171,,,,21.699144552
1715943206544771470,0.167,,,,21.706839338
1715943206552466256,0.164,,,,21.714534124
1715943206560161042,0.164,,,,21.72222891
1715943206567855828,0.164,,,,21.729923696
1715943206575550614,0.162,,,,21.737618482
1715943206583245400,0.167,,,,21.745313268
1715943206590940186,0.169,,,,21.753008054
1715943206598634972,0.162,,,,21.76070284
1715943206606329758,0.157,,,,21.768397626
1715943206614024544,0.164,,,,21.776092412
1715943206621719330,0.164,,,,21.783787198
1715943206629414116,0.145,,,,21.791481984
1715943206637108902,0.126,,,,21.79917677
1715943206644803688,0.121,,,,21.806871556
1715943206652498474,0.117,,,,21.814566342
1715943206660193260,0.109,,,,21.822261128
1715943206667888046,0.114,,,,21.829955914
1715943206675582832,0.126,,,,21.8376507
1715943206683277618,0.14,,,,21.845345486
1715943206690972404,0.152,,,,21.853040272
1715943206698667190,0.152,,,,21.860735058
1715943206706361976,0.148,,,,21.868429844
1715943206714056762,0.148,,,,21.87612463
1715943206721751548,0.148,,,,21.883819416
1715943206729446334,0.15,,,,21.891514202
1715943206737141120,0.152,,,,21.899208988
1715943206744835922,0.15,68.0,790.0,,21.90690379
1715943206752530708,0.148,,,,21.914598576
1715943206760225494,0.145,,,,21.922293362
1715943206767920280,0.14,,,,21.929988148
1715943206775615066,0.128,,,,21.937682934
1715943206783309852,0.097,,,,21.94537772
1715943206791004638,-0.026,,,,21.953072506
1715943206798699424,-0.305,,,,21.960767292
1715943206806394210,-0.542,,,,21.968462078
1715943206814088996,-0.523,,,,21.976156864
1715943206821783782,-0.117,,,,21.98385165
1715943206829478568,0.525,,,,21.991546436
1715943206837173354,0.58,,,,21.999241222
1715943206844868140,0.097,,,,22.006936008
1715943206852562926,0.014,,,,22.014630794
1715943206860257712,0.181,,,,22.02232558
1715943206867952498,0.119,,,,22.030020366
1715943206875647284,0.047,,,,22.037715152
1715943206883342070,0.093,,,,22.045409938
1715943206891036856,0.093,,,,22.053104724
1715943206898731642,0.057,,,,22.06079951
1715943206906426428,0.059,,,,22.068494296
1715943206914121214,0.059,,,,22.076189082
1715943206921816000,0.035,,,,22.083883868
1715943206929510786,0.023,,,,22.091578654
1715943206937205572,0.016,,,,22.09927344
1715943206944900358,0.004,,,,22.106968226
1715943206952595144,-0.009,,,,22.114663012
1715943206960289930,-0.023,,,,22.122357798
1715943206967984716,-0.038,,,,22.130052584
1715943206975679502,-0.054,,,,22.13774737
1715943206983374288,-0.071,,,,22.145442156
1715943206991069074,-0.093,,,,22.153136942
1715943206998763860,-0.119,,,,22.160831728
1715943207006458646,-0.143,,,,22.168526514
1715943207014153432,-0.171,,,,22.1762213
1715943207021848218,-0.2,,,,22.183916086
1715943207029543004,-0.214,,,,22.191610872
1715943207037237790,-0.219,,,,22.199305658
1715943207044932576,-0.217,,,,22.207000444
1715943207052627362,-0.203,,,,22.21469523
1715943207060322148,-0.174,,,,22.222390016
