time,ecg,hr,rr,marker,norm_time
1715828895443065642,-0.12,81.0,763.0,,0.0
1715828895450760428,-0.103,,,,0.007694786
1715828895458455214,-0.106,,,,0.015389572
1715828895466150000,-0.072,,,,0.023084358
1715828895473844786,-0.053,,,,0.030779144
1715828895481539572,-0.038,,,,0.03847393
1715828895489234358,-0.007,,,,0.046168716
1715828895496929144,0.021,,,,0.053863502
1715828895504623930,0.036,,,,0.061558288
1715828895512318716,0.06,,,,0.069253074
1715828895520013502,0.091,,,,0.07694786
1715828895527708288,0.111,,,,0.084642646
1715828895535403074,0.13,,,,0.092337432
1715828895543097860,0.161,,,,0.100032218
1715828895550792646,0.188,,,,0.107727004
1715828895558487432,0.198,,,,0.11542179
1715828895566182218,0.21,,,,0.123116576
1715828895573877004,0.224,,,,0.130811362
1715828895581571790,0.227,,,,0.138506148
1715828895589266576,0.21,,,,0.146200934
1715828895596961362,0.193,,,,0.15389572
1715828895604656148,0.176,,,,0.161590506
1715828895612350934,0.14,,,,0.169285292
1715828895620045720,0.087,,,,0.176980078
1715828895627740506,0.024,,,,0.184674864
1715828895635435292,-0.036,,,,0.19236965
1715828895643130078,-0.082,,,,0.200064436
1715828895650824864,-0.123,,,,0.207759222
1715828895658519650,-0.157,,,,0.215454008
1715828895666214436,-0.169,,,,0.223148794
1715828895673909222,-0.161,,,,0.23084358
1715828895681604008,-0.147,,,,0.238538366
1715828895689298794,-0.135,,,,0.246233152
1715828895696993580,-0.123,,,,0.253927938
1715828895704688366,-0.108,,,,0.261622724
1715828895712383152,-0.096,,,,0.26931751
1715828895720077938,-0.084,,,,0.277012296
1715828895727772724,-0.072,,,,0.284707082
1715828895735467510,-0.067,,,,0.292401868
1715828895743162296,-0.067,,,,0.300096654
1715828895750857082,-0.055,,,,0.30779144
1715828895758551868,-0.045,,,,0.315486226
1715828895766246654,-0.043,,,,0.323181012
1715828895773941440,-0.041,,,,0.330875798
1715828895781636226,-0.036,,,,0.338570584
1715828895789331012,-0.036,,,,0.34626537
1715828895797025798,-0.038,,,,0.353960156
1715828895804720584,-0.033,,,,0.361654942
1715828895812415370,-0.029,,,,0.369349728
1715828895820110156,-0.029,,,,0.377044514
1715828895827804942,-0.033,,,,0.3847393
1715828895835499728,-0.033,,,,0.392434086
1715828895843194514,-0.026,,,,0.400128872
1715828895850889300,-0.024,,,,0.407823658
1715828895858584086,-0.021,,,,0.415518444
1715828895866278872,-0.019,,,,0.42321323
1715828895873973658,-0.021,,,,0.430908016
1715828895881668444,-0.024,,,,0.438602802
1715828895889363230,-0.016,,,,0.446297588
1715828895897058016,-0.014,,,,0.453992374
1715828895904752802,-0.014,,,,0.46168716
1715828895912447588,-0.012,,,,0.469381946
1715828895920142374,-0.012,,,,0.477076732
1715828895927837160,-0.014,,,,0.484771518
1715828895935531946,-0.012,,,,0.492466304
1715828895943226732,-0.002,,,,0.50016109
1715828895950921518,-0.002,,,,0.507855876
1715828895958616304,0.0,,,,0.515550662
1715828895966311090,0.004,,,,0.523245448
1715828895974005876,0.007,,,,0.530940234
1715828895981700662,0.009,,,,0.53863502
1715828895989395448,0.014,,,,0.546329806
1715828895997090234,0.019,,,,0.554024592
1715828896004785038,0.019,80.0,772.0,,0.561719396
1715828896012479684,0.014,,788.0,,0.569414042
1715828896020174330,0.009,,,,0.577108688
1715828896027868976,0.012,,,,0.584803334
1715828896035563622,0.019,,,,0.59249798
1715828896043258268,0.029,,,,0.600192626
1715828896050952914,0.048,,,,0.607887272
1715828896058647560,0.079,,,,0.615581918
1715828896066342206,0.084,,,,0.623276564
1715828896074036852,0.045,,,,0.63097121
1715828896081731498,0.021,,,,0.638665856
1715828896089426144,0.033,,,,0.646360502
1715828896097120790,0.043,,,,0.654055148
1715828896104815436,0.041,,,,0.661749794
1715828896112510082,0.041,,,,0.66944444
1715828896120204728,0.048,,,,0.677139086
1715828896127899374,0.041,,,,0.684833732
1715828896135594020,0.048,,,,0.692528378
1715828896143288666,0.217,,,,0.700223024
1715828896150983312,0.749,,,,0.70791767
1715828896158677958,1.571,,,,0.715612316
1715828896166372604,2.332,,,,0.723306962
1715828896174067250,2.419,,,,0.731001608
1715828896181761896,1.102,,,,0.738696254
1715828896189456542,-0.42,,,,0.7463909
1715828896197151188,-0.331,,,,0.754085546
1715828896204845834,0.14,,,,0.761780192
1715828896212540480,-0.193,,,,0.769474838
1715828896220235126,-0.323,,,,0.777169484
1715828896227929772,-0.103,,,,0.78486413
1715828896235624418,-0.12,,,,0.792558776
1715828896243319064,-0.178,,,,0.800253422
1715828896251013710,-0.096,,,,0.807948068
1715828896258708356,-0.06,,,,0.815642714
1715828896266403002,-0.065,,,,0.82333736
1715828896274097648,-0.029,,,,0.831032006
1715828896281792294,0.002,,,,0.838726652
1715828896289486940,0.016,,,,0.846421298
1715828896297181586,0.041,,,,0.854115944
1715828896304876232,0.072,,,,0.86181059
1715828896312570878,0.094,,,,0.869505236
1715828896320265524,0.118,,,,0.877199882
1715828896327960170,0.149,,,,0.884894528
1715828896335654816,0.171,,,,0.892589174
1715828896343349462,0.195,,,,0.90028382
1715828896351044108,0.222,,,,0.907978466
1715828896358738754,0.246,,,,0.915673112
1715828896366433400,0.265,,,,0.923367758
1715828896374128046,0.277,,,,0.931062404
1715828896381822692,0.285,,,,0.93875705
1715828896389517338,0.282,,,,0.946451696
1715828896397211984,0.27,,,,0.954146342
1715828896404906630,0.256,,,,0.961840988
1715828896412601276,0.229,,,,0.969535634
1715828896420295922,0.19,,,,0.97723028
1715828896427990568,0.142,,,,0.984924926
1715828896435685214,0.082,,,,0.992619572
1715828896443379860,0.029,,,,1.000314218
1715828896451074506,-0.012,,,,1.008008864
1715828896458769152,-0.045,,,,1.01570351
1715828896466463798,-0.067,,,,1.023398156
1715828896474158444,-0.077,,,,1.031092802
1715828896481853090,-0.074,,,,1.038787448
1715828896489547736,-0.067,,,,1.046482094
1715828896497242382,-0.055,,,,1.05417674
1715828896504937028,-0.043,,,,1.061871386
1715828896512631674,-0.031,,,,1.069566032
1715828896520326320,-0.021,,,,1.077260678
1715828896528020966,-0.014,,,,1.084955324
1715828896535715612,-0.004,,,,1.09264997
1715828896543410258,0.004,,,,1.100344616
1715828896551104904,0.009,,,,1.108039262
1715828896558799550,0.012,,,,1.115733908
1715828896566494260,0.016,,,,1.123428618
1715828896574188767,0.016,,,,1.131123125
1715828896581883274,0.014,,,,1.138817632
1715828896589577781,0.009,,,,1.146512139
1715828896597272288,0.012,,,,1.154206646
1715828896604966795,0.014,,,,1.161901153
1715828896612661302,0.007,,,,1.16959566
1715828896620355809,0.002,,,,1.177290167
1715828896628050316,0.004,,,,1.184984674
1715828896635744823,0.002,,,,1.192679181
1715828896643439330,-0.004,,,,1.200373688
1715828896651133837,-0.004,,,,1.208068195
1715828896658828344,-0.002,,,,1.215762702
1715828896666522851,-0.004,,,,1.223457209
1715828896674217358,-0.012,,,,1.231151716
1715828896681911865,-0.016,,,,1.238846223
1715828896689606372,-0.016,,,,1.24654073
1715828896697300879,-0.012,,,,1.254235237
1715828896704995386,-0.009,,,,1.261929744
1715828896712689893,-0.009,,,,1.269624251
1715828896720384400,-0.004,,,,1.277318758
1715828896728078907,0.0,,,,1.285013265
1715828896735773414,0.002,,,,1.292707772
1715828896743467921,0.009,,,,1.300402279
1715828896751162428,0.014,,,,1.308096786
1715828896758856935,0.014,,,,1.315791293
1715828896766551442,0.019,,,,1.3234858
1715828896774245949,0.024,,,,1.331180307
1715828896781940456,0.026,,,,1.338874814
1715828896789634963,0.029,,,,1.346569321
1715828896797329470,0.031,,,,1.354263828
1715828896805023977,0.036,,,,1.361958335
1715828896812718484,0.038,,,,1.369652842
1715828896820412991,0.041,,,,1.377347349
1715828896828107498,0.043,,,,1.385041856
1715828896835802005,0.05,,,,1.392736363
1715828896843496512,0.053,,,,1.40043087
1715828896851191019,0.05,,,,1.408125377
1715828896858885526,0.048,,,,1.415819884
1715828896866580033,0.053,,,,1.423514391
1715828896874274540,0.053,,,,1.431208898
1715828896881969047,0.055,,,,1.438903405
1715828896889663554,0.06,,,,1.446597912
1715828896897358061,0.06,,,,1.454292419
1715828896905052568,0.062,,,,1.461986926
1715828896912747075,0.062,,,,1.469681433
1715828896920441582,0.055,,,,1.47737594
1715828896928136089,0.053,,,,1.485070447
1715828896935830596,0.053,,,,1.492764954
1715828896943525103,0.058,,,,1.500459461
1715828896951219610,0.067,,,,1.508153968
1715828896958914117,0.084,,,,1.515848475
1715828896966608624,0.113,,,,1.523542982
1715828896974303131,0.128,,,,1.531237489
1715828896981997638,0.103,,,,1.538931996
1715828896989692145,0.072,,,,1.546626503
1715828896997386652,0.072,,,,1.55432101
1715828897005081159,0.089,,,,1.562015517
1715828897012775666,0.089,,,,1.569710024
1715828897020470173,0.087,,,,1.577404531
1715828897028164680,0.091,,,,1.585099038
1715828897035859187,0.087,,,,1.592793545
1715828897043553694,0.101,,,,1.600488052
1715828897051248201,0.251,,,,1.608182559
1715828897058942708,0.751,,,,1.615877066
1715828897066637215,1.563,,,,1.623571573
1715828897074331722,2.349,,,,1.63126608
1715828897082026229,2.501,,,,1.638960587
1715828897089720736,1.242,,,,1.646655094
1715828897097415243,-0.323,,,,1.654349601
1715828897105109750,-0.309,,,,1.662044108
1715828897112804257,0.166,,,,1.669738615
1715828897120498764,-0.142,,,,1.677433122
1715828897128193308,-0.299,80.0,823.0,,1.685127666
1715828897135888094,-0.094,,,,1.692822452
1715828897143582880,-0.101,,,,1.700517238
1715828897151277666,-0.161,,,,1.708212024
1715828897158972452,-0.074,,,,1.71590681
1715828897166667238,-0.036,,,,1.723601596
1715828897174362024,-0.062,,,,1.731296382
1715828897182056810,-0.033,,,,1.738991168
1715828897189751596,0.007,,,,1.746685954
1715828897197446382,0.019,,,,1.75438074
1715828897205141168,0.041,,,,1.762075526
1715828897212835954,0.058,,,,1.769770312
1715828897220530740,0.072,,,,1.777465098
1715828897228225526,0.106,,,,1.785159884
1715828897235920312,0.132,,,,1.79285467
1715828897243615098,0.14,,,,1.800549456
1715828897251309884,0.159,,,,1.808244242
1715828897259004670,0.193,,,,1.815939028
1715828897266699456,0.217,,,,1.823633814
1715828897274394242,0.232,,,,1.8313286
1715828897282089028,0.248,,,,1.839023386
1715828897289783814,0.261,,,,1.846718172
1715828897297478600,0.261,,,,1.854412958
1715828897305173386,0.256,,,,1.862107744
1715828897312868172,0.244,,,,1.86980253
1715828897320562958,0.224,,,,1.877497316
1715828897328257744,0.193,,,,1.885192102
1715828897335952530,0.152,,,,1.892886888
1715828897343647316,0.108,,,,1.900581674
1715828897351342102,0.053,,,,1.90827646
1715828897359036888,-0.007,,,,1.915971246
1715828897366731674,-0.043,,,,1.923666032
1715828897374426460,-0.06,,,,1.931360818
1715828897382121246,-0.074,,,,1.939055604
1715828897389816032,-0.077,,,,1.94675039
1715828897397510818,-0.07,,,,1.954445176
1715828897405205604,-0.058,,,,1.962139962
1715828897412900390,-0.048,,,,1.969834748
1715828897420595176,-0.036,,,,1.977529534
1715828897428289962,-0.026,,,,1.98522432
1715828897435984748,-0.021,,,,1.992919106
1715828897443679534,-0.016,,,,2.000613892
1715828897451374320,-0.012,,,,2.008308678
1715828897459069106,-0.009,,,,2.016003464
1715828897466763892,0.002,,,,2.02369825
1715828897474458678,0.009,,,,2.031393036
1715828897482153464,0.007,,,,2.039087822
1715828897489848250,0.009,,,,2.046782608
1715828897497543036,0.014,,,,2.054477394
1715828897505237822,0.014,,,,2.06217218
1715828897512932608,0.014,,,,2.069866966
1715828897520627394,0.016,,,,2.077561752
1715828897528322180,0.021,,,,2.085256538
1715828897536016966,0.019,,,,2.092951324
1715828897543711752,0.019,,,,2.10064611
1715828897551406538,0.019,,,,2.108340896
1715828897559101324,0.024,,,,2.116035682
1715828897566796110,0.029,,,,2.123730468
1715828897574490896,0.029,,,,2.131425254
1715828897582185682,0.033,,,,2.13912004
1715828897589880468,0.036,,,,2.146814826
1715828897597575254,0.031,,,,2.154509612
1715828897605270040,0.031,,,,2.162204398
1715828897612964826,0.038,,,,2.169899184
1715828897620659612,0.043,,,,2.17759397
1715828897628354398,0.045,,,,2.185288756
1715828897636049184,0.045,,,,2.192983542
1715828897643743970,0.05,,,,2.200678328
1715828897651438756,0.055,,,,2.208373114
1715828897659133542,0.053,,,,2.2160679
1715828897666828328,0.058,,,,2.223762686
1715828897674523114,0.062,,,,2.231457472
1715828897682217900,0.06,,,,2.239152258
1715828897689912702,0.05,,,,2.24684706
1715828897697607488,0.053,,,,2.254541846
1715828897705302274,0.067,,,,2.262236632
1715828897712997060,0.067,,,,2.269931418
1715828897720691846,0.065,,,,2.277626204
1715828897728386632,0.07,,,,2.28532099
1715828897736081418,0.072,,,,2.293015776
1715828897743776204,0.072,,,,2.300710562
1715828897751470990,0.065,,,,2.308405348
1715828897759165776,0.062,,,,2.316100134
1715828897766860562,0.072,,,,2.32379492
1715828897774555348,0.074,,,,2.331489706
1715828897782250134,0.074,,,,2.339184492
1715828897789944920,0.079,,,,2.346879278
1715828897797639706,0.084,,,,2.354574064
1715828897805334492,0.087,,,,2.36226885
1715828897813029278,0.087,,,,2.369963636
1715828897820724064,0.087,,,,2.377658422
1715828897828418850,0.091,,,,2.385353208
1715828897836113636,0.091,,,,2.393047994
1715828897843808422,0.087,,,,2.40074278
1715828897851503208,0.077,,,,2.408437566
1715828897859197994,0.074,,,,2.416132352
1715828897866892780,0.079,,,,2.423827138
1715828897874587566,0.087,,,,2.431521924
1715828897882282352,0.101,,,,2.43921671
1715828897889977138,0.132,,,,2.446911496
1715828897897671924,0.154,,,,2.454606282
1715828897905366710,0.135,,,,2.462301068
1715828897913061496,0.094,,,,2.469995854
1715828897920756282,0.087,,,,2.47769064
1715828897928451068,0.101,,,,2.485385426
1715828897936145854,0.103,,,,2.493080212
1715828897943840640,0.106,,,,2.500774998
1715828897951535426,0.108,,,,2.508469784
1715828897959230212,0.103,,,,2.51616457
1715828897966924998,0.103,,,,2.523859356
1715828897974619784,0.2,,,,2.531554142
1715828897982314570,0.589,,,,2.539248928
1715828897990009356,1.322,,,,2.546943714
1715828897997704142,2.114,,,,2.5546385
1715828898005398928,2.52,,,,2.562333286
1715828898013093714,1.716,,,,2.570028072
1715828898020788500,0.05,,,,2.577722858
1715828898028483286,-0.437,,,,2.585417644
1715828898036178072,0.113,,,,2.59311243
1715828898043872858,0.014,,,,2.600807216
1715828898051567644,-0.292,,,,2.608502002
1715828898059262430,-0.125,,,,2.616196788
1715828898066957216,-0.041,,,,2.623891574
1715828898074652002,-0.13,,,,2.63158636
1715828898082346788,-0.089,,,,2.639281146
1715828898090041574,-0.026,,,,2.646975932
1715828898097736360,-0.038,,,,2.654670718
1715828898105431146,-0.019,,,,2.662365504
1715828898113125932,0.024,,,,2.67006029
1715828898120820718,0.041,,,,2.677755076
1715828898128515504,0.062,,,,2.685449862
1715828898136210290,0.089,,,,2.693144648
1715828898143905076,0.103,,,,2.700839434
1715828898151599862,0.123,,,,2.70853422
1715828898159294648,0.152,,,,2.716229006
1715828898166989434,0.178,,,,2.723923792
1715828898174684220,0.198,,,,2.731618578
1715828898182379006,0.217,,,,2.739313364
1715828898190073792,0.232,,,,2.74700815
1715828898197768578,0.244,,,,2.754702936
1715828898205463364,0.265,,,,2.762397722
1715828898213158150,0.28,,,,2.770092508
1715828898220852936,0.282,,,,2.777787294
1715828898228547722,0.273,,,,2.78548208
1715828898236242508,0.258,,,,2.793176866
1715828898243937294,0.244,,,,2.800871652
1715828898251632096,0.217,79.0,811.0,,2.808566454
1715828898259326464,0.181,,,,2.816260822
1715828898267020832,0.135,,,,2.82395519
1715828898274715200,0.079,,,,2.831649558
1715828898282409568,0.019,,,,2.839343926
1715828898290103936,-0.024,,,,2.847038294
1715828898297798304,-0.055,,,,2.854732662
1715828898305492672,-0.07,,,,2.86242703
1715828898313187040,-0.082,,,,2.870121398
1715828898320881408,-0.087,,,,2.877815766
1715828898328575776,-0.084,,,,2.885510134
1715828898336270144,-0.072,,,,2.893204502
1715828898343964512,-0.065,,,,2.90089887
1715828898351658880,-0.06,,,,2.908593238
1715828898359353248,-0.048,,,,2.916287606
1715828898367047616,-0.041,,,,2.923981974
1715828898374741984,-0.041,,,,2.931676342
1715828898382436352,-0.036,,,,2.93937071
1715828898390130720,-0.024,,,,2.947065078
1715828898397825088,-0.021,,,,2.954759446
1715828898405519456,-0.021,,,,2.962453814
1715828898413213824,-0.024,,,,2.970148182
1715828898420908192,-0.026,,,,2.97784255
1715828898428602560,-0.024,,,,2.985536918
1715828898436296928,-0.026,,,,2.993231286
1715828898443991296,-0.036,,,,3.000925654
1715828898451685664,-0.038,,,,3.008620022
1715828898459380032,-0.036,,,,3.01631439
1715828898467074400,-0.048,,,,3.024008758
1715828898474768768,-0.062,,,,3.031703126
1715828898482463136,-0.053,,,,3.039397494
1715828898490157504,-0.043,,,,3.047091862
1715828898497851872,-0.053,,,,3.05478623
1715828898505546240,-0.06,,,,3.062480598
1715828898513240608,-0.06,,,,3.070174966
1715828898520934976,-0.06,,,,3.077869334
1715828898528629344,-0.06,,,,3.085563702
1715828898536323712,-0.06,,,,3.09325807
1715828898544018080,-0.053,,,,3.100952438
1715828898551712448,-0.053,,,,3.108646806
1715828898559406816,-0.067,,,,3.116341174
1715828898567101184,-0.065,,,,3.124035542
1715828898574795552,-0.055,,,,3.13172991
1715828898582489920,-0.055,,,,3.139424278
1715828898590184288,-0.062,,,,3.147118646
1715828898597878656,-0.06,,,,3.154813014
1715828898605573024,-0.053,,,,3.162507382
1715828898613267392,-0.048,,,,3.17020175
1715828898620961760,-0.043,,,,3.177896118
1715828898628656128,-0.038,,,,3.185590486
1715828898636350496,-0.036,,,,3.193284854
1715828898644044864,-0.033,,,,3.200979222
1715828898651739232,-0.031,,,,3.20867359
1715828898659433600,-0.029,,,,3.216367958
1715828898667127968,-0.026,,,,3.224062326
1715828898674822336,-0.029,,,,3.231756694
1715828898682516704,-0.021,,,,3.239451062
1715828898690211072,-0.019,,,,3.24714543
1715828898697905440,-0.029,,,,3.254839798
1715828898705599808,-0.026,,,,3.262534166
1715828898713294176,-0.016,,,,3.270228534
1715828898720988544,-0.014,,,,3.277922902
1715828898728682912,-0.009,,,,3.28561727
1715828898736377280,-0.009,,,,3.293311638
1715828898744071648,-0.019,,,,3.301006006
1715828898751766016,-0.021,,,,3.308700374
1715828898759460384,-0.014,,,,3.316394742
1715828898767154752,-0.007,,,,3.32408911
1715828898774849120,0.0,,,,3.331783478
1715828898782543488,0.029,,,,3.339477846
1715828898790237856,0.058,,,,3.347172214
1715828898797932224,0.038,,,,3.354866582
1715828898805626592,0.004,,,,3.36256095
1715828898813320974,0.0,,,,3.370255332
1715828898821015760,0.012,,,,3.377950118
1715828898828710546,0.014,,,,3.385644904
1715828898836405332,0.009,,,,3.39333969
1715828898844100118,0.016,,,,3.401034476
1715828898851794904,0.014,,,,3.408729262
1715828898859489690,0.004,,,,3.416424048
1715828898867184476,0.101,,,,3.424118834
1715828898874879262,0.514,,,,3.43181362
1715828898882574048,1.3,,,,3.439508406
1715828898890268834,2.105,,,,3.447203192
1715828898897963620,2.412,,,,3.454897978
1715828898905658406,1.529,,,,3.462592764
1715828898913353192,-0.103,,,,3.47028755
1715828898921047978,-0.543,,,,3.477982336
1715828898928742764,0.024,,,,3.485677122
1715828898936437550,-0.067,,,,3.493371908
1715828898944132336,-0.362,,,,3.501066694
1715828898951827122,-0.19,,,,3.50876148
1715828898959521908,-0.111,,,,3.516456266
1715828898967216694,-0.205,,,,3.524151052
1715828898974911480,-0.161,,,,3.531845838
1715828898982606266,-0.094,,,,3.539540624
1715828898990301052,-0.101,,,,3.54723541
1715828898997995838,-0.082,,,,3.554930196
1715828899005690624,-0.033,,,,3.562624982
1715828899013385410,-0.016,,,,3.570319768
1715828899021080196,-0.002,,,,3.578014554
1715828899028774982,0.036,,,,3.58570934
1715828899036469768,0.065,,,,3.593404126
1715828899044164554,0.084,,,,3.601098912
1715828899051859340,0.103,,,,3.608793698
1715828899059554126,0.125,,,,3.616488484
1715828899067248912,0.149,,,,3.62418327
1715828899074943698,0.174,,,,3.631878056
1715828899082638484,0.195,,,,3.639572842
1715828899090333270,0.217,,,,3.647267628
1715828899098028056,0.239,,,,3.654962414
1715828899105722842,0.253,,,,3.6626572
1715828899113417628,0.261,,,,3.670351986
1715828899121112414,0.256,,,,3.678046772
1715828899128807200,0.241,,,,3.685741558
1715828899136501986,0.217,,,,3.693436344
1715828899144196772,0.193,,,,3.70113113
1715828899151891558,0.149,,,,3.708825916
1715828899159586344,0.084,,,,3.716520702
1715828899167281130,0.021,,,,3.724215488
1715828899174975916,-0.033,,,,3.731910274
1715828899182670702,-0.074,,,,3.73960506
1715828899190365488,-0.111,,,,3.747299846
1715828899198060274,-0.145,,,,3.754994632
1715828899205755060,-0.157,,,,3.762689418
1715828899213449846,-0.145,,,,3.770384204
1715828899221144632,-0.132,,,,3.77807899
1715828899228839418,-0.123,,,,3.785773776
1715828899236534204,-0.103,,,,3.793468562
1715828899244228990,-0.087,,,,3.801163348
1715828899251923776,-0.077,,,,3.808858134
1715828899259618562,-0.065,,,,3.81655292
1715828899267313348,-0.045,,,,3.824247706
1715828899275008134,-0.038,,,,3.831942492
1715828899282702920,-0.033,,,,3.839637278
1715828899290397706,-0.021,,,,3.847332064
1715828899298092492,-0.019,,,,3.85502685
1715828899305787278,-0.016,,,,3.862721636
1715828899313482064,-0.012,,,,3.870416422
1715828899321176850,-0.014,,,,3.878111208
1715828899328871636,-0.019,,,,3.885805994
1715828899336566422,-0.019,,,,3.89350078
1715828899344261208,-0.016,,,,3.901195566
1715828899351955994,-0.014,,,,3.908890352
1715828899359650780,-0.012,,,,3.916585138
1715828899367345566,-0.012,,,,3.924279924
1715828899375040368,-0.012,79.0,908.0,,3.931974726
1715828899382735154,-0.004,,,,3.939669512
1715828899390429940,-0.002,,,,3.947364298
1715828899398124726,-0.004,,,,3.955059084
1715828899405819512,0.0,,,,3.96275387
1715828899413514298,0.007,,,,3.970448656
1715828899421209084,0.012,,,,3.978143442
1715828899428903870,0.012,,,,3.985838228
1715828899436598656,0.012,,,,3.993533014
1715828899444293442,0.019,,,,4.0012278
1715828899451988228,0.024,,,,4.008922586
1715828899459683014,0.019,,,,4.016617372
1715828899467377800,0.016,,,,4.024312158
1715828899475072586,0.021,,,,4.032006944
1715828899482767372,0.024,,,,4.03970173
1715828899490462158,0.029,,,,4.047396516
1715828899498156944,0.033,,,,4.055091302
1715828899505851730,0.038,,,,4.062786088
1715828899513546516,0.041,,,,4.070480874
1715828899521241302,0.045,,,,4.07817566
1715828899528936088,0.048,,,,4.085870446
1715828899536630874,0.053,,,,4.093565232
1715828899544325660,0.058,,,,4.101260018
1715828899552020446,0.058,,,,4.108954804
1715828899559715232,0.06,,,,4.11664959
1715828899567410018,0.065,,,,4.124344376
1715828899575104804,0.06,,,,4.132039162
1715828899582799590,0.06,,,,4.139733948
1715828899590494376,0.07,,,,4.147428734
1715828899598189162,0.067,,,,4.15512352
1715828899605883948,0.06,,,,4.162818306
1715828899613578734,0.053,,,,4.170513092
1715828899621273520,0.058,,,,4.178207878
1715828899628968306,0.065,,,,4.185902664
1715828899636663092,0.07,,,,4.19359745
1715828899644357878,0.087,,,,4.201292236
1715828899652052664,0.118,,,,4.208987022
1715828899659747450,0.13,,,,4.216681808
1715828899667442236,0.101,,,,4.224376594
1715828899675137022,0.067,,,,4.23207138
1715828899682831808,0.07,,,,4.239766166
1715828899690526594,0.087,,,,4.247460952
1715828899698221380,0.079,,,,4.255155738
1715828899705916166,0.07,,,,4.262850524
1715828899713610952,0.074,,,,4.27054531
1715828899721305738,0.074,,,,4.278240096
1715828899729000524,0.079,,,,4.285934882
1715828899736695310,0.244,,,,4.293629668
1715828899744390096,0.792,,,,4.301324454
1715828899752084882,1.631,,,,4.30901924
1715828899759779668,2.361,,,,4.316714026
1715828899767474454,2.378,,,,4.324408812
1715828899775169240,1.041,,,,4.332103598
1715828899782864026,-0.401,,,,4.339798384
1715828899790558812,-0.275,,,,4.34749317
1715828899798253598,0.152,,,,4.355187956
1715828899805948384,-0.181,,,,4.362882742
1715828899813643170,-0.299,,,,4.370577528
1715828899821337956,-0.096,,,,4.378272314
1715828899829032742,-0.12,,,,4.3859671
1715828899836727528,-0.171,,,,4.393661886
1715828899844422314,-0.089,,,,4.401356672
1715828899852117100,-0.06,,,,4.409051458
1715828899859811886,-0.067,,,,4.416746244
1715828899867506672,-0.024,,,,4.42444103
1715828899875201458,0.004,,,,4.432135816
1715828899882896244,0.009,,,,4.439830602
1715828899890591030,0.038,,,,4.447525388
1715828899898285816,0.07,,,,4.455220174
1715828899905980602,0.087,,,,4.46291496
1715828899913675388,0.108,,,,4.470609746
1715828899921370174,0.142,,,,4.478304532
1715828899929064960,0.176,,,,4.485999318
1715828899936759762,0.2,,,,4.49369412
1715828899944454130,0.229,,,,4.501388488
1715828899952148498,0.261,,,,4.509082856
1715828899959842866,0.287,,,,4.516777224
1715828899967537234,0.309,,,,4.524471592
1715828899975231602,0.323,,,,4.53216596
1715828899982925970,0.333,,,,4.539860328
1715828899990620338,0.333,,,,4.547554696
1715828899998314706,0.319,,,,4.555249064
1715828900006009074,0.294,,,,4.562943432
1715828900013703442,0.263,,,,4.5706378
1715828900021397810,0.217,,,,4.578332168
1715828900029092178,0.152,,,,4.586026536
1715828900036786546,0.082,,,,4.593720904
1715828900044480914,0.041,,,,4.601415272
1715828900052175282,0.007,,,,4.60910964
1715828900059869650,-0.026,,,,4.616804008
1715828900067564018,-0.043,,,,4.624498376
1715828900075258386,-0.041,,,,4.632192744
1715828900082952754,-0.033,,,,4.639887112
1715828900090647122,-0.026,,,,4.64758148
1715828900098341490,-0.024,,,,4.655275848
1715828900106035858,-0.007,,,,4.662970216
1715828900113730226,0.009,,,,4.670664584
1715828900121424594,0.014,,,,4.678358952
1715828900129118962,0.024,,,,4.68605332
1715828900136813330,0.036,,,,4.693747688
1715828900144507698,0.045,,,,4.701442056
1715828900152202066,0.05,,,,4.709136424
1715828900159896434,0.053,,,,4.716830792
1715828900167590802,0.055,,,,4.72452516
1715828900175285170,0.055,,,,4.732219528
1715828900182979538,0.058,,,,4.739913896
1715828900190673906,0.06,,,,4.747608264
1715828900198368274,0.062,,,,4.755302632
1715828900206062642,0.055,,,,4.762997
1715828900213757010,0.038,,,,4.770691368
1715828900221451378,0.041,,,,4.778385736
1715828900229145746,0.053,,,,4.786080104
1715828900236840114,0.048,,,,4.793774472
1715828900244534482,0.048,,,,4.80146884
1715828900252228850,0.058,,,,4.809163208
1715828900259923218,0.06,,,,4.816857576
1715828900267617586,0.055,,,,4.824551944
1715828900275311954,0.058,,,,4.832246312
1715828900283006322,0.065,,,,4.83994068
1715828900290700690,0.07,,,,4.847635048
1715828900298395058,0.072,,,,4.855329416
1715828900306089426,0.072,,,,4.863023784
1715828900313783794,0.067,,,,4.870718152
1715828900321478162,0.072,,,,4.87841252
1715828900329172530,0.079,,,,4.886106888
1715828900336866898,0.077,,,,4.893801256
1715828900344561266,0.079,,,,4.901495624
1715828900352255634,0.084,,,,4.909189992
1715828900359950002,0.082,,,,4.91688436
1715828900367644370,0.084,,,,4.924578728
1715828900375338738,0.091,,,,4.932273096
1715828900383033106,0.094,,,,4.939967464
1715828900390727474,0.094,,,,4.947661832
1715828900398421842,0.096,,,,4.9553562
1715828900406116210,0.101,,,,4.963050568
1715828900413810578,0.101,,,,4.970744936
1715828900421504946,0.099,,,,4.978439304
1715828900429199314,0.103,,,,4.986133672
1715828900436893682,0.108,,,,4.99382804
1715828900444588050,0.108,,,,5.001522408
1715828900452282418,0.108,,,,5.009216776
1715828900459976786,0.108,,,,5.016911144
1715828900467671154,0.113,,,,5.024605512
1715828900475365522,0.111,,,,5.03229988
1715828900483059890,0.103,,,,5.039994248
1715828900490754258,0.099,,,,5.047688616
1715828900498448638,0.099,78.0,926.0,,5.055382996
1715828900506143424,0.106,,,,5.063077782
1715828900513838210,0.111,,,,5.070772568
1715828900521532996,0.125,,,,5.078467354
1715828900529227782,0.159,,,,5.08616214
1715828900536922568,0.171,,,,5.093856926
1715828900544617354,0.14,,,,5.101551712
1715828900552312140,0.101,,,,5.109246498
1715828900560006926,0.096,,,,5.116941284
1715828900567701712,0.103,,,,5.12463607
1715828900575396498,0.099,,,,5.132330856
1715828900583091284,0.096,,,,5.140025642
1715828900590786070,0.103,,,,5.147720428
1715828900598480856,0.096,,,,5.155415214
1715828900606175642,0.094,,,,5.16311
1715828900613870428,0.217,,,,5.170804786
1715828900621565214,0.6880000000000001,,,,5.178499572
1715828900629260000,1.486,,,,5.186194358
1715828900636954786,2.257,,,,5.193889144
1715828900644649572,2.455,,,,5.20158393
1715828900652344358,1.341,,,,5.209278716
1715828900660039144,-0.222,,,,5.216973502
1715828900667733930,-0.338,,,,5.224668288
1715828900675428716,0.171,,,,5.232363074
1715828900683123502,-0.079,,,,5.24005786
1715828900690818288,-0.287,,,,5.247752646
1715828900698513074,-0.089,,,,5.255447432
1715828900706207860,-0.067,,,,5.263142218
1715828900713902646,-0.149,,,,5.270837004
1715828900721597432,-0.089,,,,5.27853179
1715828900729292218,-0.043,,,,5.286226576
1715828900736987004,-0.048,,,,5.293921362
1715828900744681790,-0.014,,,,5.301616148
1715828900752376576,0.021,,,,5.309310934
1715828900760071362,0.026,,,,5.31700572
1715828900767766148,0.043,,,,5.324700506
1715828900775460934,0.072,,,,5.332395292
1715828900783155720,0.094,,,,5.340090078
1715828900790850506,0.111,,,,5.347784864
1715828900798545292,0.132,,,,5.35547965
1715828900806240078,0.157,,,,5.363174436
1715828900813934864,0.181,,,,5.370869222
1715828900821629650,0.21,,,,5.378564008
1715828900829324436,0.236,,,,5.386258794
1715828900837019222,0.258,,,,5.39395358
1715828900844714008,0.275,,,,5.401648366
1715828900852408794,0.28,,,,5.409343152
1715828900860103580,0.28,,,,5.417037938
1715828900867798366,0.287,,,,5.424732724
1715828900875493152,0.28,,,,5.43242751
1715828900883187938,0.261,,,,5.440122296
1715828900890882724,0.232,,,,5.447817082
1715828900898577510,0.183,,,,5.455511868
1715828900906272296,0.116,,,,5.463206654
1715828900913967082,0.048,,,,5.47090144
1715828900921661868,-0.004,,,,5.478596226
1715828900929356654,-0.055,,,,5.486291012
1715828900937051440,-0.101,,,,5.493985798
1715828900944746226,-0.123,,,,5.501680584
1715828900952441012,-0.125,,,,5.50937537
1715828900960135798,-0.128,,,,5.517070156
1715828900967830584,-0.12,,,,5.524764942
1715828900975525370,-0.108,,,,5.532459728
1715828900983220156,-0.099,,,,5.540154514
1715828900990914942,-0.087,,,,5.5478493
1715828900998609728,-0.082,,,,5.555544086
1715828901006304514,-0.079,,,,5.563238872
1715828901013999300,-0.074,,,,5.570933658
1715828901021694086,-0.067,,,,5.578628444
1715828901029388872,-0.06,,,,5.58632323
1715828901037083658,-0.058,,,,5.594018016
1715828901044778444,-0.06,,,,5.601712802
1715828901052473230,-0.055,,,,5.609407588
1715828901060168032,-0.05,77.0,892.0,,5.61710239
1715828901067862469,-0.048,,,,5.624796827
1715828901075556906,-0.053,,,,5.632491264
1715828901083251343,-0.053,,,,5.640185701
1715828901090945780,-0.05,,,,5.647880138
1715828901098640217,-0.05,,,,5.655574575
1715828901106334654,-0.043,,,,5.663269012
1715828901114029091,-0.048,,,,5.670963449
1715828901121723528,-0.06,,,,5.678657886
1715828901129417965,-0.058,,,,5.686352323
1715828901137112402,-0.055,,,,5.69404676
1715828901144806839,-0.062,,,,5.701741197
1715828901152501276,-0.053,,,,5.709435634
1715828901160195713,-0.038,,,,5.717130071
1715828901167890150,-0.043,,,,5.724824508
1715828901175584587,-0.053,,,,5.732518945
1715828901183279024,-0.045,,,,5.740213382
1715828901190973461,-0.036,,,,5.747907819
1715828901198667898,-0.041,,,,5.755602256
1715828901206362335,-0.043,,,,5.763296693
1715828901214056772,-0.036,,,,5.77099113
1715828901221751209,-0.036,,,,5.778685567
1715828901229445646,-0.038,,,,5.786380004
1715828901237140083,-0.036,,,,5.794074441
1715828901244834520,-0.024,,,,5.801768878
1715828901252528957,-0.019,,,,5.809463315
1715828901260223394,-0.021,,,,5.817157752
1715828901267917831,-0.012,,,,5.824852189
1715828901275612268,-0.002,,,,5.832546626
1715828901283306705,0.002,,,,5.840241063
1715828901291001142,0.002,,,,5.8479355
1715828901298695579,0.004,,,,5.855629937
1715828901306390016,0.007,,,,5.863324374
1715828901314084453,0.012,,,,5.871018811
1715828901321778890,0.016,,,,5.878713248
1715828901329473327,0.016,,,,5.886407685
1715828901337167764,0.012,,,,5.894102122
1715828901344862201,0.012,,,,5.901796559
1715828901352556638,0.019,,,,5.909490996
1715828901360251075,0.029,,,,5.917185433
1715828901367945512,0.033,,,,5.92487987
1715828901375639949,0.041,,,,5.932574307
1715828901383334386,0.07,,,,5.940268744
1715828901391028823,0.087,,,,5.947963181
1715828901398723260,0.062,,,,5.955657618
1715828901406417697,0.036,,,,5.963352055
1715828901414112134,0.043,,,,5.971046492
1715828901421806571,0.055,,,,5.978740929
1715828901429501008,0.053,,,,5.986435366
1715828901437195445,0.055,,,,5.994129803
1715828901444889882,0.06,,,,6.00182424
1715828901452584319,0.058,,,,6.009518677
1715828901460278756,0.087,,,,6.017213114
1715828901467973193,0.294,,,,6.024907551
1715828901475667630,0.882,,,,6.032601988
1715828901483362067,1.728,,,,6.040296425
1715828901491056504,2.412,,,,6.047990862
1715828901498750941,2.305,,,,6.055685299
1715828901506445378,0.865,,,,6.063379736
1715828901514139815,-0.483,,,,6.071074173
1715828901521834252,-0.227,,,,6.07876861
1715828901529528689,0.154,,,,6.086463047
1715828901537223126,-0.219,,,,6.094157484
1715828901544917563,-0.282,,,,6.101851921
1715828901552612000,-0.074,,,,6.109546358
1715828901560306437,-0.123,,,,6.117240795
1715828901568000874,-0.164,,,,6.124935232
1715828901575695311,-0.072,,,,6.132629669
1715828901583389748,-0.048,,,,6.140324106
1715828901591084185,-0.058,,,,6.148018543
1715828901598778622,-0.021,,,,6.15571298
1715828901606473059,0.009,,,,6.163407417
1715828901614167496,0.019,,,,6.171101854
1715828901621861996,0.043,,,,6.178796354
1715828901629556712,0.077,,,,6.18649107
1715828901637251428,0.099,,,,6.194185786
1715828901644946144,0.12,,,,6.201880502
1715828901652640860,0.147,,,,6.209575218
1715828901660335576,0.174,,,,6.217269934
1715828901668030292,0.205,,,,6.22496465
1715828901675725008,0.229,,,,6.232659366
1715828901683419724,0.246,,,,6.240354082
1715828901691114440,0.263,,,,6.248048798
1715828901698809156,0.285,,,,6.255743514
1715828901706503872,0.297,,,,6.26343823
1715828901714198588,0.29,,,,6.271132946
1715828901721893304,0.273,,,,6.278827662
1715828901729588020,0.253,,,,6.286522378
1715828901737282736,0.229,,,,6.294217094
1715828901744977452,0.183,,,,6.30191181
1715828901752672168,0.125,,,,6.309606526
1715828901760366884,0.06,,,,6.317301242
1715828901768061600,-0.002,,,,6.324995958
1715828901775756316,-0.055,,,,6.332690674
1715828901783451032,-0.096,,,,6.34038539
1715828901791145748,-0.125,,,,6.348080106
1715828901798840464,-0.14,,,,6.355774822
1715828901806535180,-0.135,,,,6.363469538
1715828901814229896,-0.123,,,,6.371164254
1715828901821924612,-0.111,,,,6.37885897
1715828901829619328,-0.096,,,,6.386553686
1715828901837314044,-0.084,,,,6.394248402
1715828901845008760,-0.07,,,,6.401943118
1715828901852703476,-0.055,,,,6.409637834
1715828901860398192,-0.043,,,,6.41733255
1715828901868092908,-0.031,,,,6.425027266
1715828901875787624,-0.024,,,,6.432721982
1715828901883482340,-0.016,,,,6.440416698
1715828901891177056,-0.012,,,,6.448111414
1715828901898871772,-0.007,,,,6.45580613
1715828901906566488,0.0,,,,6.463500846
1715828901914261204,0.002,,,,6.471195562
1715828901921955920,0.002,,,,6.478890278
1715828901929650636,0.002,,,,6.486584994
1715828901937345352,0.004,,,,6.49427971
1715828901945040068,0.007,,,,6.501974426
1715828901952734784,0.009,,,,6.509669142
1715828901960429500,0.012,,,,6.517363858
1715828901968124216,0.016,,,,6.525058574
1715828901975818932,0.014,,,,6.53275329
1715828901983513648,0.014,,,,6.540448006
1715828901991208364,0.021,,,,6.548142722
1715828901998903080,0.026,,,,6.555837438
1715828902006597796,0.026,,,,6.563532154
1715828902014292512,0.026,,,,6.57122687
1715828902021987228,0.026,,,,6.578921586
1715828902029681944,0.029,,,,6.586616302
1715828902037376660,0.029,,,,6.594311018
1715828902045071376,0.033,,,,6.602005734
1715828902052766092,0.038,,,,6.60970045
1715828902060460808,0.041,,,,6.617395166
1715828902068155524,0.041,,,,6.625089882
1715828902075850240,0.045,,,,6.632784598
1715828902083544956,0.05,,,,6.640479314
1715828902091239672,0.055,,,,6.64817403
1715828902098934388,0.058,,,,6.655868746
1715828902106629104,0.058,,,,6.663563462
1715828902114323820,0.06,,,,6.671258178
1715828902122018536,0.065,,,,6.678952894
1715828902129713252,0.067,,,,6.68664761
1715828902137407968,0.07,,,,6.694342326
1715828902145102684,0.072,,,,6.702037042
1715828902152797400,0.067,,,,6.709731758
1715828902160492116,0.058,,,,6.717426474
1715828902168186832,0.058,,,,6.72512119
1715828902175881548,0.065,,,,6.732815906
1715828902183576302,0.074,76.0,867.0,,6.74051066
1715828902191271088,0.087,,,,6.748205446
1715828902198965874,0.113,,,,6.755900232
1715828902206660660,0.132,,,,6.763595018
1715828902214355446,0.113,,,,6.771289804
1715828902222050232,0.077,,,,6.77898459
1715828902229745018,0.07,,,,6.786679376
1715828902237439804,0.077,,,,6.794374162
1715828902245134590,0.072,,,,6.802068948
1715828902252829376,0.065,,,,6.809763734
1715828902260524162,0.067,,,,6.81745852
1715828902268218948,0.072,,,,6.825153306
1715828902275913734,0.072,,,,6.832848092
1715828902283608520,0.178,,,,6.840542878
1715828902291303306,0.611,,,,6.848237664
1715828902298998092,1.375,,,,6.85593245
1715828902306692878,2.184,,,,6.863627236
1715828902314387664,2.552,,,,6.871322022
1715828902322082450,1.587,,,,6.879016808
1715828902329777236,-0.111,,,,6.886711594
1715828902337472022,-0.442,,,,6.89440638
1715828902345166808,0.123,,,,6.902101166
1715828902352861594,-0.053,,,,6.909795952
1715828902360556380,-0.319,,,,6.917490738
1715828902368251166,-0.116,,,,6.925185524
1715828902375945952,-0.055,,,,6.93288031
1715828902383640738,-0.14,,,,6.940575096
1715828902391335524,-0.077,,,,6.948269882
1715828902399030310,-0.021,,,,6.955964668
1715828902406725096,-0.041,,,,6.963659454
1715828902414419882,-0.014,,,,6.97135424
1715828902422114668,0.033,,,,6.979049026
1715828902429809454,0.043,,,,6.986743812
1715828902437504240,0.058,,,,6.994438598
1715828902445199026,0.096,,,,7.002133384
1715828902452893812,0.123,,,,7.00982817
1715828902460588598,0.14,,,,7.017522956
1715828902468283384,0.171,,,,7.025217742
1715828902475978170,0.2,,,,7.032912528
1715828902483672956,0.222,,,,7.040607314
1715828902491367742,0.244,,,,7.0483021
1715828902499062528,0.273,,,,7.055996886
1715828902506757314,0.294,,,,7.063691672
1715828902514452100,0.316,,,,7.071386458
1715828902522146886,0.326,,,,7.079081244
1715828902529841672,0.321,,,,7.08677603
1715828902537536458,0.314,,,,7.094470816
1715828902545231244,0.304,,,,7.102165602
1715828902552926030,0.28,,,,7.109860388
1715828902560620816,0.244,,,,7.117555174
1715828902568315602,0.19,,,,7.12524996
1715828902576010388,0.12,,,,7.132944746
1715828902583705174,0.045,,,,7.140639532
1715828902591399960,-0.009,,,,7.148334318
1715828902599094746,-0.053,,,,7.156029104
1715828902606789532,-0.089,,,,7.16372389
1715828902614484318,-0.111,,,,7.171418676
1715828902622179104,-0.116,,,,7.179113462
1715828902629873890,-0.108,,,,7.186808248
1715828902637568676,-0.099,,,,7.194503034
1715828902645263462,-0.082,,,,7.20219782
1715828902652958248,-0.067,,,,7.209892606
1715828902660653034,-0.06,,,,7.217587392
1715828902668347820,-0.053,,,,7.225282178
1715828902676042606,-0.043,,,,7.232976964
1715828902683737392,-0.033,,,,7.24067175
1715828902691432178,-0.024,,,,7.248366536
1715828902699126964,-0.019,,,,7.256061322
1715828902706821750,-0.016,,,,7.263756108
1715828902714516536,-0.014,,,,7.271450894
1715828902722211322,-0.012,,,,7.27914568
1715828902729906108,-0.014,,,,7.286840466
1715828902737600894,-0.021,,,,7.294535252
1715828902745295698,-0.014,,,,7.302230056
1715828902752990344,-0.009,,,,7.309924702
1715828902760684990,-0.014,,,,7.317619348
1715828902768379636,-0.014,,,,7.325313994
1715828902776074282,-0.014,,,,7.33300864
1715828902783768928,-0.009,,,,7.340703286
1715828902791463574,-0.002,,,,7.348397932
1715828902799158220,-0.002,,,,7.356092578
1715828902806852866,0.0,,,,7.363787224
1715828902814547512,0.007,,,,7.37148187
1715828902822242158,0.009,,,,7.379176516
1715828902829936804,0.016,,,,7.386871162
1715828902837631450,0.024,,,,7.394565808
1715828902845326096,0.021,,,,7.402260454
1715828902853020742,0.014,,,,7.4099551
1715828902860715388,0.016,,,,7.417649746
1715828902868410034,0.029,,,,7.425344392
1715828902876104680,0.031,,,,7.433039038
1715828902883799326,0.033,,,,7.440733684
1715828902891493972,0.038,,,,7.44842833
1715828902899188618,0.043,,,,7.456122976
1715828902906883264,0.048,,,,7.463817622
1715828902914577910,0.05,,,,7.471512268
1715828902922272556,0.053,,,,7.479206914
1715828902929967202,0.06,,,,7.48690156
1715828902937661848,0.06,,,,7.494596206
1715828902945356494,0.06,,,,7.502290852
1715828902953051140,0.062,,,,7.509985498
1715828902960745786,0.058,,,,7.517680144
1715828902968440432,0.055,,,,7.52537479
1715828902976135078,0.058,,,,7.533069436
1715828902983829724,0.067,,,,7.540764082
1715828902991524370,0.079,,,,7.548458728
1715828902999219016,0.094,,,,7.556153374
1715828903006913662,0.123,,,,7.56384802
1715828903014608308,0.128,,,,7.571542666
1715828903022302954,0.091,,,,7.579237312
1715828903029997600,0.062,,,,7.586931958
1715828903037692246,0.07,,,,7.594626604
1715828903045386892,0.082,,,,7.60232125
1715828903053081538,0.084,,,,7.610015896
1715828903060776184,0.084,,,,7.617710542
1715828903068470830,0.089,,,,7.625405188
1715828903076165476,0.082,,,,7.633099834
1715828903083860122,0.084,,,,7.64079448
1715828903091554768,0.244,,,,7.648489126
1715828903099249414,0.785,,,,7.656183772
1715828903106944060,1.641,,,,7.663878418
1715828903114638706,2.356,,,,7.671573064
1715828903122333352,2.31,,,,7.67926771
1715828903130027998,0.983,,,,7.686962356
1715828903137722644,-0.384,,,,7.694657002
1715828903145417290,-0.244,,,,7.702351648
1715828903153111936,0.164,,,,7.710046294
1715828903160806582,-0.154,,,,7.71774094
1715828903168501228,-0.251,,,,7.725435586
1715828903176195874,-0.055,,,,7.733130232
1715828903183890520,-0.091,,,,7.740824878
1715828903191585166,-0.14,,,,7.748519524
1715828903199279812,-0.053,,,,7.75621417
1715828903206974458,-0.024,,,,7.763908816
1715828903214669104,-0.036,,,,7.771603462
1715828903222363750,0.002,,,,7.779298108
1715828903230058396,0.041,,,,7.786992754
1715828903237753042,0.036,,,,7.7946874
1715828903245447688,0.05,,,,7.802382046
1715828903253142334,0.089,,,,7.810076692
1715828903260836980,0.108,,,,7.817771338
1715828903268531626,0.116,,,,7.825465984
1715828903276226272,0.147,,,,7.83316063
1715828903283920918,0.186,,,,7.840855276
1715828903291615564,0.212,,,,7.848549922
1715828903299310210,0.232,,,,7.856244568
1715828903307004920,0.256,74.0,879.0,,7.863939278
1715828903314699427,0.282,,852.0,,7.871633785
1715828903322393934,0.304,,,,7.879328292
1715828903330088441,0.323,,,,7.887022799
1715828903337782948,0.331,,,,7.894717306
1715828903345477455,0.321,,,,7.902411813
1715828903353171962,0.294,,,,7.91010632
1715828903360866469,0.256,,,,7.917800827
1715828903368560976,0.207,,,,7.925495334
1715828903376255483,0.147,,,,7.933189841
1715828903383949990,0.074,,,,7.940884348
1715828903391644497,0.002,,,,7.948578855
1715828903399339004,-0.062,,,,7.956273362
1715828903407033511,-0.103,,,,7.963967869
1715828903414728018,-0.132,,,,7.971662376
1715828903422422525,-0.154,,,,7.979356883
1715828903430117032,-0.149,,,,7.98705139
1715828903437811539,-0.142,,,,7.994745897
1715828903445506046,-0.145,,,,8.002440404
1715828903453200553,-0.135,,,,8.010134911
1715828903460895060,-0.113,,,,8.017829418
1715828903468589567,-0.101,,,,8.025523925
1715828903476284074,-0.101,,,,8.033218432
1715828903483978581,-0.096,,,,8.040912939
1715828903491673088,-0.087,,,,8.048607446
1715828903499367595,-0.079,,,,8.056301953
1715828903507062102,-0.082,,,,8.06399646
1715828903514756609,-0.084,,,,8.071690967
1715828903522451116,-0.074,,,,8.079385474
1715828903530145623,-0.067,,,,8.087079981
1715828903537840130,-0.072,,,,8.094774488
1715828903545534637,-0.072,,,,8.102468995
1715828903553229144,-0.07,,,,8.110163502
1715828903560923651,-0.074,,,,8.117858009
1715828903568618158,-0.07,,,,8.125552516
1715828903576312665,-0.06,,,,8.133247023
1715828903584007172,-0.062,,,,8.14094153
1715828903591701679,-0.07,,,,8.148636037
1715828903599396186,-0.065,,,,8.156330544
1715828903607090693,-0.055,,,,8.164025051
1715828903614785200,-0.053,,,,8.171719558
1715828903622479707,-0.05,,,,8.179414065
1715828903630174214,-0.05,,,,8.187108572
1715828903637868721,-0.048,,,,8.194803079
1715828903645563228,-0.038,,,,8.202497586
1715828903653257735,-0.031,,,,8.210192093
1715828903660952242,-0.031,,,,8.2178866
1715828903668646749,-0.021,,,,8.225581107
1715828903676341256,-0.019,,,,8.233275614
1715828903684035763,-0.024,,,,8.240970121
1715828903691730270,-0.019,,,,8.248664628
1715828903699424777,-0.007,,,,8.256359135
1715828903707119284,0.0,,,,8.264053642
1715828903714813791,0.0,,,,8.271748149
1715828903722508298,-0.004,,,,8.279442656
1715828903730202805,-0.012,,,,8.287137163
1715828903737897312,-0.014,,,,8.29483167
1715828903745591819,-0.009,,,,8.302526177
1715828903753286326,-0.002,,,,8.310220684
1715828903760980833,0.007,,,,8.317915191
1715828903768675340,0.038,,,,8.325609698
1715828903776369847,0.06,,,,8.333304205
1715828903784064354,0.031,,,,8.340998712
1715828903791758861,0.0,,,,8.348693219
1715828903799453368,0.009,,,,8.356387726
1715828903807147875,0.026,,,,8.364082233
1715828903814842382,0.021,,,,8.37177674
1715828903822536889,0.024,,,,8.379471247
1715828903830231396,0.036,,,,8.387165754
1715828903837925903,0.033,,,,8.394860261
1715828903845620410,0.024,,,,8.402554768
1715828903853314917,0.111,,,,8.410249275
1715828903861009424,0.512,,,,8.417943782
1715828903868703968,1.302,,,,8.425638326
1715828903876398754,2.129,,,,8.433333112
1715828903884093540,2.467,,,,8.441027898
1715828903891788326,1.578,,,,8.448722684
1715828903899483112,-0.087,,,,8.45641747
1715828903907177898,-0.512,,,,8.464112256
1715828903914872684,0.065,,,,8.471807042
1715828903922567470,-0.043,,,,8.479501828
1715828903930262256,-0.333,,,,8.487196614
1715828903937957042,-0.159,,,,8.4948914
1715828903945651828,-0.084,,,,8.502586186
1715828903953346614,-0.174,,,,8.510280972
1715828903961041400,-0.125,,,,8.517975758
1715828903968736186,-0.058,,,,8.525670544
1715828903976430972,-0.065,,,,8.53336533
1715828903984125758,-0.045,,,,8.541060116
1715828903991820544,-0.012,,,,8.548754902
1715828903999515330,-0.004,,,,8.556449688
1715828904007210116,0.014,,,,8.564144474
1715828904014904902,0.05,,,,8.57183926
1715828904022599688,0.074,,,,8.579534046
1715828904030294474,0.101,,,,8.587228832
1715828904037989260,0.135,,,,8.594923618
1715828904045684046,0.164,,,,8.602618404
1715828904053378832,0.188,,,,8.61031319
1715828904061073618,0.219,,,,8.618007976
1715828904068768404,0.256,,,,8.625702762
1715828904076463190,0.282,,,,8.633397548
1715828904084157976,0.302,,,,8.641092334
1715828904091852762,0.316,,,,8.64878712
1715828904099547548,0.319,,,,8.656481906
1715828904107242334,0.314,,,,8.664176692
1715828904114937120,0.299,,,,8.671871478
1715828904122631906,0.275,,,,8.679566264
1715828904130326692,0.232,,,,8.68726105
1715828904138021478,0.166,,,,8.694955836
1715828904145716264,0.091,,,,8.702650622
1715828904153411050,0.026,,,,8.710345408
1715828904161105836,-0.026,,,,8.718040194
1715828904168800622,-0.065,,,,8.72573498
1715828904176495408,-0.091,,,,8.733429766
1715828904184190194,-0.106,,,,8.741124552
1715828904191884980,-0.106,,,,8.748819338
1715828904199579766,-0.099,,,,8.756514124
1715828904207274552,-0.084,,,,8.76420891
1715828904214969338,-0.067,,,,8.771903696
1715828904222664124,-0.055,,,,8.779598482
1715828904230358910,-0.043,,,,8.787293268
1715828904238053696,-0.038,,,,8.794988054
1715828904245748482,-0.041,,,,8.80268284
1715828904253443268,-0.041,,,,8.810377626
1715828904261138054,-0.031,,,,8.818072412
1715828904268832840,-0.019,,,,8.825767198
1715828904276527626,-0.016,,,,8.833461984
1715828904284222412,-0.014,,,,8.84115677
1715828904291917198,-0.009,,,,8.848851556
1715828904299611984,-0.007,,,,8.856546342
1715828904307306770,-0.004,,,,8.864241128
1715828904315001556,-0.004,,,,8.871935914
1715828904322696342,-0.007,,,,8.8796307
1715828904330391128,-0.009,,,,8.887325486
1715828904338085914,-0.009,,,,8.895020272
1715828904345780700,-0.009,,,,8.902715058
1715828904353475486,-0.016,,,,8.910409844
1715828904361170272,-0.016,,,,8.91810463
1715828904368865058,-0.009,,,,8.925799416
1715828904376559844,-0.009,,,,8.933494202
1715828904384254630,-0.012,,,,8.941188988
1715828904391949416,-0.004,,,,8.948883774
1715828904399644202,0.0,,,,8.95657856
1715828904407338988,0.0,,,,8.964273346
1715828904415033774,0.002,,,,8.971968132
1715828904422728560,0.004,,,,8.979662918
1715828904430423362,0.009,74.0,818.0,,8.98735772
1715828904438117730,0.012,,,,8.995052088
1715828904445812098,0.014,,,,9.002746456
1715828904453506466,0.016,,,,9.010440824
1715828904461200834,0.019,,,,9.018135192
1715828904468895202,0.014,,,,9.02582956
1715828904476589570,0.009,,,,9.033523928
1715828904484283938,0.014,,,,9.041218296
1715828904491978306,0.019,,,,9.048912664
1715828904499672674,0.016,,,,9.056607032
1715828904507367042,0.033,,,,9.0643014
1715828904515061410,0.067,,,,9.071995768
1715828904522755778,0.079,,,,9.079690136
1715828904530450146,0.05,,,,9.087384504
1715828904538144514,0.024,,,,9.095078872
1715828904545838882,0.033,,,,9.10277324
1715828904553533250,0.048,,,,9.110467608
1715828904561227618,0.045,,,,9.118161976
1715828904568921986,0.05,,,,9.125856344
1715828904576616354,0.058,,,,9.133550712
1715828904584310722,0.048,,,,9.14124508
1715828904592005090,0.045,,,,9.148939448
1715828904599699458,0.193,,,,9.156633816
1715828904607393826,0.729,,,,9.164328184
1715828904615088194,1.6,,,,9.172022552
1715828904622782562,2.385,,,,9.17971692
1715828904630476930,2.458,,,,9.187411288
1715828904638171298,1.128,,,,9.195105656
1715828904645865666,-0.389,,,,9.202800024
1715828904653560034,-0.306,,,,9.210494392
1715828904661254402,0.157,,,,9.21818876
1715828904668948770,-0.164,,,,9.225883128
1715828904676643138,-0.294,,,,9.233577496
1715828904684337506,-0.084,,,,9.241271864
1715828904692031874,-0.099,,,,9.248966232
1715828904699726242,-0.157,,,,9.2566606
1715828904707420610,-0.072,,,,9.264354968
1715828904715114978,-0.033,,,,9.272049336
1715828904722809346,-0.041,,,,9.279743704
1715828904730503714,-0.002,,,,9.287438072
1715828904738198082,0.029,,,,9.29513244
1715828904745892450,0.033,,,,9.302826808
1715828904753586818,0.05,,,,9.310521176
1715828904761281186,0.082,,,,9.318215544
1715828904768975554,0.108,,,,9.325909912
1715828904776669922,0.135,,,,9.33360428
1715828904784364290,0.166,,,,9.341298648
1715828904792058658,0.188,,,,9.348993016
1715828904799753026,0.215,,,,9.356687384
1715828904807447394,0.253,,,,9.364381752
1715828904815141762,0.285,,,,9.37207612
1715828904822836130,0.309,,,,9.379770488
1715828904830530498,0.328,,,,9.387464856
1715828904838224866,0.338,,,,9.395159224
1715828904845919234,0.345,,,,9.402853592
1715828904853613602,0.345,,,,9.41054796
1715828904861307970,0.323,,,,9.418242328
1715828904869002338,0.29,,,,9.425936696
1715828904876696706,0.246,,,,9.433631064
1715828904884391074,0.188,,,,9.441325432
1715828904892085442,0.116,,,,9.4490198
1715828904899779810,0.053,,,,9.456714168
1715828904907474178,0.014,,,,9.464408536
1715828904915168546,-0.016,,,,9.472102904
1715828904922862914,-0.038,,,,9.479797272
1715828904930557282,-0.05,,,,9.48749164
1715828904938251650,-0.045,,,,9.495186008
1715828904945946018,-0.033,,,,9.502880376
1715828904953640386,-0.021,,,,9.510574744
1715828904961334754,-0.009,,,,9.518269112
1715828904969029122,0.007,,,,9.52596348
1715828904976723490,0.019,,,,9.533657848
1715828904984417858,0.029,,,,9.541352216
1715828904992112238,0.036,,,,9.549046596
1715828904999807024,0.045,,,,9.556741382
1715828905007501810,0.06,,,,9.564436168
1715828905015196596,0.058,,,,9.572130954
1715828905022891382,0.05,,,,9.57982574
1715828905030586168,0.062,,,,9.587520526
1715828905038280954,0.074,,,,9.595215312
1715828905045975740,0.067,,,,9.602910098
1715828905053670526,0.06,,,,9.610604884
1715828905061365312,0.06,,,,9.61829967
1715828905069060098,0.07,,,,9.625994456
1715828905076754884,0.07,,,,9.633689242
1715828905084449670,0.065,,,,9.641384028
1715828905092144456,0.067,,,,9.649078814
1715828905099839242,0.06,,,,9.6567736
1715828905107534028,0.045,,,,9.664468386
1715828905115228814,0.048,,,,9.672163172
1715828905122923600,0.058,,,,9.679857958
1715828905130618386,0.062,,,,9.687552744
1715828905138313172,0.06,,,,9.69524753
1715828905146007958,0.067,,,,9.702942316
1715828905153702744,0.074,,,,9.710637102
1715828905161397530,0.079,,,,9.718331888
1715828905169092316,0.091,,,,9.726026674
1715828905176787102,0.101,,,,9.73372146
1715828905184481888,0.096,,,,9.741416246
1715828905192176674,0.099,,,,9.749111032
1715828905199871460,0.103,,,,9.756805818
1715828905207566246,0.113,,,,9.764500604
1715828905215261032,0.123,,,,9.77219539
1715828905222955818,0.13,,,,9.779890176
1715828905230650604,0.135,,,,9.787584962
1715828905238345390,0.13,,,,9.795279748
1715828905246040176,0.123,,,,9.802974534
1715828905253734962,0.12,,,,9.81066932
1715828905261429748,0.116,,,,9.818364106
1715828905269124534,0.123,,,,9.826058892
1715828905276819320,0.145,,,,9.833753678
1715828905284514106,0.159,,,,9.841448464
1715828905292208892,0.183,,,,9.84914325
1715828905299903678,0.205,,,,9.856838036
1715828905307598464,0.183,,,,9.864532822
1715828905315293250,0.147,,,,9.872227608
1715828905322988036,0.152,,,,9.879922394
1715828905330682822,0.171,,,,9.88761718
1715828905338377608,0.164,,,,9.895311966
1715828905346072394,0.161,,,,9.903006752
1715828905353767180,0.169,,,,9.910701538
1715828905361461966,0.169,,,,9.918396324
1715828905369156752,0.161,,,,9.92609111
1715828905376851538,0.227,,,,9.933785896
1715828905384546324,0.582,,,,9.941480682
1715828905392241110,1.319,,,,9.949175468
1715828905399935896,2.131,,,,9.956870254
1715828905407630682,2.511,,,,9.96456504
1715828905415325468,1.759,,,,9.972259826
1715828905423020254,0.178,,,,9.979954612
1715828905430715040,-0.367,,,,9.987649398
1715828905438409826,0.152,,,,9.995344184
1715828905446104612,0.12,,,,10.00303897
1715828905453799398,-0.186,,,,10.010733756
1715828905461494184,-0.055,,,,10.018428542
1715828905469188970,0.041,,,,10.026123328
1715828905476883756,-0.041,,,,10.033818114
1715828905484578542,-0.012,,,,10.0415129
1715828905492273328,0.048,,,,10.049207686
1715828905499968114,0.043,,,,10.056902472
1715828905507662900,0.062,,,,10.064597258
1715828905515357686,0.108,,,,10.072292044
1715828905523052472,0.123,,,,10.07998683
1715828905530747258,0.137,,,,10.087681616
1715828905538442044,0.169,,,,10.095376402
1715828905546136830,0.195,,,,10.103071188
1715828905553831632,0.215,74.0,806.0,,10.11076599
1715828905561526418,0.244,,,,10.118460776
1715828905569221204,0.273,,,,10.126155562
1715828905576915990,0.287,,,,10.133850348
1715828905584610776,0.302,,,,10.141545134
1715828905592305562,0.331,,,,10.14923992
1715828905600000348,0.355,,,,10.156934706
1715828905607695134,0.369,,,,10.164629492
1715828905615389920,0.369,,,,10.172324278
1715828905623084706,0.369,,,,10.180019064
1715828905630779492,0.372,,,,10.18771385
1715828905638474278,0.362,,,,10.195408636
1715828905646169064,0.335,,,,10.203103422
1715828905653863850,0.302,,,,10.210798208
1715828905661558636,0.253,,,,10.218492994
1715828905669253422,0.188,,,,10.22618778
1715828905676948208,0.118,,,,10.233882566
1715828905684642994,0.062,,,,10.241577352
1715828905692337780,0.021,,,,10.249272138
1715828905700032566,-0.014,,,,10.256966924
1715828905707727352,-0.038,,,,10.26466171
1715828905715422138,-0.045,,,,10.272356496
1715828905723116924,-0.053,,,,10.280051282
1715828905730811710,-0.058,,,,10.287746068
1715828905738506496,-0.05,,,,10.295440854
1715828905746201282,-0.038,,,,10.30313564
1715828905753896068,-0.043,,,,10.310830426
1715828905761590854,-0.055,,,,10.318525212
1715828905769285640,-0.048,,,,10.326219998
1715828905776980426,-0.038,,,,10.333914784
1715828905784675212,-0.038,,,,10.34160957
1715828905792369998,-0.036,,,,10.349304356
1715828905800064784,-0.031,,,,10.356999142
1715828905807759570,-0.036,,,,10.364693928
1715828905815454356,-0.045,,,,10.372388714
1715828905823149142,-0.053,,,,10.3800835
1715828905830843928,-0.053,,,,10.387778286
1715828905838538714,-0.058,,,,10.395473072
1715828905846233500,-0.067,,,,10.403167858
1715828905853928286,-0.072,,,,10.410862644
1715828905861623072,-0.07,,,,10.41855743
1715828905869317858,-0.062,,,,10.426252216
1715828905877012644,-0.067,,,,10.433947002
1715828905884707430,-0.072,,,,10.441641788
1715828905892402216,-0.072,,,,10.449336574
1715828905900097002,-0.072,,,,10.45703136
1715828905907791788,-0.072,,,,10.464726146
1715828905915486574,-0.074,,,,10.472420932
1715828905923181360,-0.079,,,,10.480115718
1715828905930876146,-0.082,,,,10.487810504
1715828905938570932,-0.082,,,,10.49550529
1715828905946265718,-0.087,,,,10.503200076
1715828905953960504,-0.084,,,,10.510894862
1715828905961655290,-0.079,,,,10.518589648
1715828905969350076,-0.077,,,,10.526284434
1715828905977044862,-0.079,,,,10.53397922
1715828905984739648,-0.079,,,,10.541674006
1715828905992434434,-0.079,,,,10.549368792
1715828906000129220,-0.087,,,,10.557063578
1715828906007824006,-0.082,,,,10.564758364
1715828906015518792,-0.077,,,,10.57245315
1715828906023213578,-0.084,,,,10.580147936
1715828906030908364,-0.087,,,,10.587842722
1715828906038603150,-0.084,,,,10.595537508
1715828906046297936,-0.089,,,,10.603232294
1715828906053992722,-0.087,,,,10.61092708
1715828906061687508,-0.079,,,,10.618621866
1715828906069382294,-0.077,,,,10.626316652
1715828906077077080,-0.087,,,,10.634011438
1715828906084771866,-0.087,,,,10.641706224
1715828906092466652,-0.072,,,,10.64940101
1715828906100161438,-0.062,,,,10.657095796
1715828906107856224,-0.06,,,,10.664790582
1715828906115551028,-0.036,74.0,765.0,,10.672485386
1715828906123245396,-0.002,,744.0,,10.680179754
1715828906130939764,-0.014,,,,10.687874122
1715828906138634132,-0.048,,,,10.69556849
1715828906146328500,-0.055,,,,10.703262858
1715828906154022868,-0.048,,,,10.710957226
1715828906161717236,-0.041,,,,10.718651594
1715828906169411604,-0.033,,,,10.726345962
1715828906177105972,-0.038,,,,10.73404033
1715828906184800340,-0.048,,,,10.741734698
1715828906192494708,-0.053,,,,10.749429066
1715828906200189076,-0.004,,,,10.757123434
1715828906207883444,0.28,,,,10.764817802
1715828906215577812,0.978,,,,10.77251217
1715828906223272180,1.887,,,,10.780206538
1715828906230966548,2.45,,,,10.787900906
1715828906238660916,1.878,,,,10.795595274
1715828906246355284,0.207,,,,10.803289642
1715828906254049652,-0.63,,,,10.81098401
1715828906261744020,-0.128,,,,10.818678378
1715828906269438388,-0.041,,,,10.826372746
1715828906277132756,-0.403,,,,10.834067114
1715828906284827124,-0.306,,,,10.841761482
1715828906292521492,-0.166,,,,10.84945585
1715828906300215860,-0.248,,,,10.857150218
1715828906307910228,-0.234,,,,10.864844586
1715828906315604596,-0.152,,,,10.872538954
1715828906323298964,-0.149,,,,10.880233322
1715828906330993332,-0.137,,,,10.88792769
1715828906338687700,-0.094,,,,10.895622058
1715828906346382068,-0.067,,,,10.903316426
1715828906354076436,-0.045,,,,10.911010794
1715828906361770804,-0.016,,,,10.918705162
1715828906369465172,0.016,,,,10.92639953
1715828906377159540,0.048,,,,10.934093898
1715828906384853908,0.074,,,,10.941788266
1715828906392548276,0.101,,,,10.949482634
1715828906400242644,0.132,,,,10.957177002
1715828906407937012,0.164,,,,10.96487137
1715828906415631380,0.2,,,,10.972565738
1715828906423325748,0.239,,,,10.980260106
1715828906431020116,0.265,,,,10.987954474
1715828906438714484,0.29,,,,10.995648842
1715828906446408852,0.309,,,,11.00334321
1715828906454103220,0.311,,,,11.011037578
1715828906461797588,0.304,,,,11.018731946
1715828906469491956,0.285,,,,11.026426314
1715828906477186324,0.241,,,,11.034120682
1715828906484880692,0.183,,,,11.04181505
1715828906492575060,0.113,,,,11.049509418
1715828906500269428,0.026,,,,11.057203786
1715828906507963796,-0.045,,,,11.064898154
1715828906515658164,-0.094,,,,11.072592522
1715828906523352532,-0.135,,,,11.08028689
1715828906531046900,-0.157,,,,11.087981258
1715828906538741268,-0.166,,,,11.095675626
1715828906546435636,-0.169,,,,11.103369994
1715828906554130004,-0.161,,,,11.111064362
1715828906561824372,-0.142,,,,11.11875873
1715828906569518740,-0.128,,,,11.126453098
1715828906577213108,-0.118,,,,11.134147466
1715828906584907476,-0.106,,,,11.141841834
1715828906592601844,-0.089,,,,11.149536202
1715828906600296212,-0.079,,,,11.15723057
1715828906607990580,-0.072,,,,11.164924938
1715828906615684948,-0.06,,,,11.172619306
1715828906623379316,-0.048,,,,11.180313674
1715828906631073684,-0.043,,,,11.188008042
1715828906638768052,-0.041,,,,11.19570241
1715828906646462420,-0.033,,,,11.203396778
1715828906654156788,-0.031,,,,11.211091146
1715828906661851156,-0.029,,,,11.218785514
1715828906669545524,-0.026,,,,11.226479882
1715828906677239904,-0.029,,,,11.234174262
1715828906684934690,-0.029,,,,11.241869048
1715828906692629476,-0.026,,,,11.249563834
1715828906700324262,-0.024,,,,11.25725862
1715828906708019048,-0.024,,,,11.264953406
1715828906715713834,-0.029,,,,11.272648192
1715828906723408620,-0.036,,,,11.280342978
1715828906731103406,-0.033,,,,11.288037764
1715828906738798192,-0.029,,,,11.29573255
1715828906746492978,-0.029,,,,11.303427336
1715828906754187764,-0.033,,,,11.311122122
1715828906761882550,-0.036,,,,11.318816908
1715828906769577336,-0.038,,,,11.326511694
1715828906777272122,-0.043,,,,11.33420648
1715828906784966908,-0.036,,,,11.341901266
1715828906792661694,-0.026,,,,11.349596052
1715828906800356480,-0.024,,,,11.357290838
1715828906808051266,-0.026,,,,11.364985624
1715828906815746052,-0.024,,,,11.37268041
1715828906823440838,-0.024,,,,11.380375196
1715828906831135624,-0.019,,,,11.388069982
1715828906838830410,-0.014,,,,11.395764768
1715828906846525196,-0.012,,,,11.403459554
1715828906854219982,-0.004,,,,11.41115434
1715828906861914768,0.0,,,,11.418849126
1715828906869609554,0.0,,,,11.426543912
1715828906877304340,-0.002,,,,11.434238698
1715828906884999126,-0.004,,,,11.441933484
1715828906892693912,-0.004,,,,11.44962827
1715828906900388698,-0.004,,,,11.457323056
1715828906908083484,0.007,,,,11.465017842
1715828906915778270,0.016,,,,11.472712628
1715828906923473056,0.031,,,,11.480407414
1715828906931167842,0.062,,,,11.4881022
1715828906938862628,0.079,,,,11.495796986
1715828906946557414,0.05,,,,11.503491772
1715828906954252200,0.019,,,,11.511186558
1715828906961946986,0.019,,,,11.518881344
1715828906969641772,0.033,,,,11.52657613
1715828906977336558,0.036,,,,11.534270916
1715828906985031344,0.041,,,,11.541965702
1715828906992726130,0.045,,,,11.549660488
1715828907000420916,0.038,,,,11.557355274
1715828907008115702,0.033,,,,11.56505006
1715828907015810488,0.125,,,,11.572744846
1715828907023505274,0.546,,,,11.580439632
1715828907031200060,1.355,,,,11.588134418
1715828907038894846,2.223,,,,11.595829204
1715828907046589632,2.607,,,,11.60352399
1715828907054284418,1.638,,,,11.611218776
1715828907061979204,-0.116,,,,11.618913562
1715828907069673990,-0.488,,,,11.626608348
1715828907077368776,0.099,,,,11.634303134
1715828907085063562,-0.06,,,,11.64199792
1715828907092758348,-0.343,,,,11.649692706
1715828907100453134,-0.147,,,,11.657387492
1715828907108147920,-0.087,,,,11.665082278
1715828907115842706,-0.176,,,,11.672777064
1715828907123537492,-0.113,,,,11.68047185
1715828907131232278,-0.045,,,,11.688166636
1715828907138927064,-0.062,,,,11.695861422
1715828907146621850,-0.038,,,,11.703556208
1715828907154316636,0.009,,,,11.711250994
1715828907162011422,0.024,,,,11.71894578
1715828907169706208,0.043,,,,11.726640566
1715828907177400994,0.074,,,,11.734335352
1715828907185095780,0.103,,,,11.742030138
1715828907192790566,0.128,,,,11.749724924
1715828907200485352,0.154,,,,11.75741971
1715828907208180138,0.183,,,,11.765114496
1715828907215874924,0.215,,,,11.772809282
1715828907223569710,0.246,,,,11.780504068
1715828907231264496,0.277,,,,11.788198854
1715828907238959298,0.306,74.0,780.0,,11.795893656
1715828907246654084,0.333,,,,11.803588442
1715828907254348870,0.355,,,,11.811283228
1715828907262043656,0.362,,,,11.818978014
1715828907269738442,0.36,,,,11.8266728
1715828907277433228,0.343,,,,11.834367586
1715828907285128014,0.306,,,,11.842062372
1715828907292822800,0.261,,,,11.849757158
1715828907300517586,0.203,,,,11.857451944
1715828907308212372,0.128,,,,11.86514673
1715828907315907158,0.048,,,,11.872841516
1715828907323601944,-0.019,,,,11.880536302
1715828907331296730,-0.062,,,,11.888231088
1715828907338991516,-0.091,,,,11.895925874
1715828907346686302,-0.106,,,,11.90362066
1715828907354381088,-0.111,,,,11.911315446
1715828907362075874,-0.103,,,,11.919010232
1715828907369770660,-0.091,,,,11.926705018
1715828907377465446,-0.084,,,,11.934399804
1715828907385160232,-0.074,,,,11.94209459
1715828907392855018,-0.058,,,,11.949789376
1715828907400549804,-0.043,,,,11.957484162
1715828907408244590,-0.031,,,,11.965178948
1715828907415939376,-0.024,,,,11.972873734
1715828907423634162,-0.012,,,,11.98056852
1715828907431328948,0.0,,,,11.988263306
1715828907439023734,0.007,,,,11.995958092
1715828907446718520,0.007,,,,12.003652878
1715828907454413306,0.009,,,,12.011347664
1715828907462108092,0.012,,,,12.01904245
1715828907469802878,0.014,,,,12.026737236
1715828907477497664,0.012,,,,12.034432022
1715828907485192450,0.014,,,,12.042126808
1715828907492887236,0.014,,,,12.049821594
1715828907500582022,0.012,,,,12.05751638
1715828907508276808,0.012,,,,12.065211166
1715828907515971594,0.012,,,,12.072905952
1715828907523666380,0.014,,,,12.080600738
1715828907531361166,0.016,,,,12.088295524
1715828907539055952,0.019,,,,12.09599031
1715828907546750738,0.021,,,,12.103685096
1715828907554445524,0.024,,,,12.111379882
1715828907562140310,0.021,,,,12.119074668
1715828907569835096,0.021,,,,12.126769454
1715828907577529882,0.024,,,,12.13446424
1715828907585224668,0.021,,,,12.142159026
1715828907592919454,0.021,,,,12.149853812
1715828907600614240,0.016,,,,12.157548598
1715828907608309026,0.021,,,,12.165243384
1715828907616003812,0.026,,,,12.17293817
1715828907623698598,0.026,,,,12.180632956
1715828907631393384,0.031,,,,12.188327742
1715828907639088170,0.033,,,,12.196022528
1715828907646782956,0.036,,,,12.203717314
1715828907654477742,0.036,,,,12.2114121
1715828907662172528,0.038,,,,12.219106886
1715828907669867314,0.045,,,,12.226801672
1715828907677562100,0.048,,,,12.234496458
1715828907685256886,0.048,,,,12.242191244
1715828907692951672,0.048,,,,12.24988603
1715828907700646458,0.043,,,,12.257580816
1715828907708341244,0.043,,,,12.265275602
1715828907716036030,0.048,,,,12.272970388
1715828907723730816,0.048,,,,12.280665174
1715828907731425602,0.043,,,,12.28835996
1715828907739120388,0.036,,,,12.296054746
1715828907746815174,0.038,,,,12.303749532
1715828907754509960,0.05,,,,12.311444318
1715828907762204746,0.062,,,,12.319139104
1715828907769899532,0.079,,,,12.32683389
1715828907777594318,0.101,,,,12.334528676
1715828907785289104,0.106,,,,12.342223462
1715828907792983890,0.077,,,,12.349918248
1715828907800678692,0.048,,,,12.35761305
1715828907808373129,0.053,,,,12.365307487
1715828907816067566,0.065,,,,12.373001924
1715828907823762003,0.067,,,,12.380696361
1715828907831456440,0.067,,,,12.388390798
1715828907839150877,0.07,,,,12.396085235
1715828907846845314,0.067,,,,12.403779672
1715828907854539751,0.067,,,,12.411474109
1715828907862234188,0.176,,,,12.419168546
1715828907869928625,0.613,,,,12.426862983
1715828907877623062,1.416,,,,12.43455742
1715828907885317499,2.274,,,,12.442251857
1715828907893011936,2.607,,,,12.449946294
1715828907900706373,1.534,,,,12.457640731
1715828907908400810,-0.174,,,,12.465335168
1715828907916095247,-0.435,,,,12.473029605
1715828907923789684,0.103,,,,12.480724042
1715828907931484121,-0.113,,,,12.488418479
1715828907939178558,-0.355,,,,12.496112916
1715828907946872995,-0.159,,,,12.503807353
1715828907954567432,-0.123,,,,12.51150179
1715828907962261869,-0.198,,,,12.519196227
1715828907969956306,-0.13,,,,12.526890664
1715828907977650743,-0.079,,,,12.534585101
1715828907985345180,-0.089,,,,12.542279538
1715828907993039617,-0.055,,,,12.549973975
1715828908000734054,-0.016,,,,12.557668412
1715828908008428491,-0.007,,,,12.565362849
1715828908016122928,0.007,,,,12.573057286
1715828908023817365,0.041,,,,12.580751723
1715828908031511802,0.074,,,,12.58844616
1715828908039206239,0.099,,,,12.596140597
1715828908046900676,0.128,,,,12.603835034
1715828908054595113,0.161,,,,12.611529471
1715828908062289550,0.193,,,,12.619223908
1715828908069983987,0.222,,,,12.626918345
1715828908077678424,0.256,,,,12.634612782
1715828908085372861,0.292,,,,12.642307219
1715828908093067298,0.321,,,,12.650001656
1715828908100761735,0.338,,,,12.657696093
1715828908108456172,0.35,,,,12.66539053
1715828908116150609,0.352,,,,12.673084967
1715828908123845046,0.343,,,,12.680779404
1715828908131539483,0.319,,,,12.688473841
1715828908139233920,0.28,,,,12.696168278
1715828908146928357,0.222,,,,12.703862715
1715828908154622794,0.145,,,,12.711557152
1715828908162317231,0.065,,,,12.719251589
1715828908170011668,0.004,,,,12.726946026
1715828908177706105,-0.038,,,,12.734640463
1715828908185400542,-0.074,,,,12.7423349
1715828908193094979,-0.096,,,,12.750029337
1715828908200789416,-0.099,,,,12.757723774
1715828908208483853,-0.091,,,,12.765418211
1715828908216178290,-0.089,,,,12.773112648
1715828908223872727,-0.089,,,,12.780807085
1715828908231567164,-0.074,,,,12.788501522
1715828908239261601,-0.062,,,,12.796195959
1715828908246956038,-0.055,,,,12.803890396
1715828908254650475,-0.043,,,,12.811584833
1715828908262344912,-0.029,,,,12.81927927
1715828908270039349,-0.016,,,,12.826973707
1715828908277733786,-0.016,,,,12.834668144
1715828908285428223,-0.019,,,,12.842362581
1715828908293122660,-0.016,,,,12.850057018
1715828908300817097,-0.016,,,,12.857751455
1715828908308511534,-0.016,,,,12.865445892
1715828908316205971,-0.019,,,,12.873140329
1715828908323900408,-0.016,,,,12.880834766
1715828908331594845,-0.016,,,,12.888529203
1715828908339289282,-0.019,,,,12.89622364
1715828908346983719,-0.019,,,,12.903918077
1715828908354678156,-0.021,,,,12.911612514
1715828908362372656,-0.021,75.0,824.0,,12.919307014
1715828908370067372,-0.016,,,,12.92700173
1715828908377762088,-0.016,,,,12.934696446
1715828908385456804,-0.021,,,,12.942391162
1715828908393151520,-0.026,,,,12.950085878
1715828908400846236,-0.029,,,,12.957780594
1715828908408540952,-0.021,,,,12.96547531
1715828908416235668,-0.012,,,,12.973170026
1715828908423930384,-0.007,,,,12.980864742
1715828908431625100,-0.007,,,,12.988559458
1715828908439319816,-0.014,,,,12.996254174
1715828908447014532,-0.014,,,,13.00394889
1715828908454709248,-0.012,,,,13.011643606
1715828908462403964,-0.009,,,,13.019338322
1715828908470098680,-0.004,,,,13.027033038
1715828908477793396,0.0,,,,13.034727754
1715828908485488112,0.0,,,,13.04242247
1715828908493182828,0.004,,,,13.050117186
1715828908500877544,0.016,,,,13.057811902
1715828908508572260,0.021,,,,13.065506618
1715828908516266976,0.016,,,,13.073201334
1715828908523961692,0.021,,,,13.08089605
1715828908531656408,0.031,,,,13.088590766
1715828908539351124,0.024,,,,13.096285482
1715828908547045840,0.019,,,,13.103980198
1715828908554740556,0.026,,,,13.111674914
1715828908562435272,0.033,,,,13.11936963
1715828908570129988,0.029,,,,13.127064346
1715828908577824704,0.031,,,,13.134759062
1715828908585519420,0.041,,,,13.142453778
1715828908593214136,0.048,,,,13.150148494
1715828908600908852,0.045,,,,13.15784321
1715828908608603568,0.045,,,,13.165537926
1715828908616298284,0.043,,,,13.173232642
1715828908623993000,0.038,,,,13.180927358
1715828908631687716,0.033,,,,13.188622074
1715828908639382432,0.031,,,,13.19631679
1715828908647077148,0.041,,,,13.204011506
1715828908654771864,0.05,,,,13.211706222
1715828908662466580,0.053,,,,13.219400938
1715828908670161296,0.077,,,,13.227095654
1715828908677856012,0.096,,,,13.23479037
1715828908685550728,0.067,,,,13.242485086
1715828908693245444,0.038,,,,13.250179802
1715828908700940160,0.038,,,,13.257874518
1715828908708634876,0.048,,,,13.265569234
1715828908716329592,0.048,,,,13.27326395
1715828908724024308,0.048,,,,13.280958666
1715828908731719024,0.055,,,,13.288653382
1715828908739413740,0.05,,,,13.296348098
1715828908747108456,0.055,,,,13.304042814
1715828908754803172,0.171,,,,13.31173753
1715828908762497888,0.623,,,,13.319432246
1715828908770192604,1.45,,,,13.327126962
1715828908777887320,2.317,,,,13.334821678
1715828908785582036,2.634,,,,13.342516394
1715828908793276752,1.51,,,,13.35021111
1715828908800971468,-0.244,,,,13.357905826
1715828908808666184,-0.471,,,,13.365600542
1715828908816360900,0.103,,,,13.373295258
1715828908824055616,-0.128,,,,13.380989974
1715828908831750332,-0.369,,,,13.38868469
1715828908839445048,-0.154,,,,13.396379406
1715828908847139764,-0.123,,,,13.404074122
1715828908854834480,-0.212,,,,13.411768838
1715828908862529196,-0.137,,,,13.419463554
1715828908870223912,-0.077,,,,13.42715827
1715828908877918628,-0.094,,,,13.434852986
1715828908885613344,-0.067,,,,13.442547702
1715828908893308060,-0.021,,,,13.450242418
1715828908901002776,-0.007,,,,13.457937134
1715828908908697492,0.014,,,,13.46563185
1715828908916392208,0.048,,,,13.473326566
1715828908924086962,0.07,,,,13.48102132
1715828908931781748,0.094,,,,13.488716106
1715828908939476534,0.118,,,,13.496410892
1715828908947171320,0.147,,,,13.504105678
1715828908954866106,0.181,,,,13.511800464
1715828908962560892,0.215,,,,13.51949525
1715828908970255678,0.246,,,,13.527190036
1715828908977950464,0.275,,,,13.534884822
1715828908985645250,0.304,,,,13.542579608
1715828908993340036,0.326,,,,13.550274394
1715828909001034822,0.328,,,,13.55796918
1715828909008729608,0.323,,,,13.565663966
1715828909016424394,0.316,,,,13.573358752
1715828909024119180,0.294,,,,13.581053538
1715828909031813966,0.253,,,,13.588748324
1715828909039508752,0.193,,,,13.59644311
1715828909047203538,0.123,,,,13.604137896
1715828909054898324,0.048,,,,13.611832682
1715828909062593110,-0.019,,,,13.619527468
1715828909070287896,-0.065,,,,13.627222254
1715828909077982682,-0.096,,,,13.63491704
1715828909085677468,-0.12,,,,13.642611826
1715828909093372254,-0.132,,,,13.650306612
1715828909101067040,-0.132,,,,13.658001398
1715828909108761826,-0.12,,,,13.665696184
1715828909116456612,-0.111,,,,13.67339097
1715828909124151398,-0.106,,,,13.681085756
1715828909131846184,-0.094,,,,13.688780542
1715828909139540970,-0.079,,,,13.696475328
1715828909147235756,-0.07,,,,13.704170114
1715828909154930542,-0.06,,,,13.7118649
1715828909162625328,-0.05,,,,13.719559686
1715828909170320114,-0.045,,,,13.727254472
1715828909178014900,-0.048,,,,13.734949258
1715828909185709686,-0.043,,,,13.742644044
1715828909193404472,-0.031,,,,13.75033883
1715828909201099258,-0.029,,,,13.758033616
1715828909208794044,-0.026,,,,13.765728402
1715828909216488830,-0.024,,,,13.773423188
1715828909224183616,-0.024,,,,13.781117974
1715828909231878402,-0.019,,,,13.78881276
1715828909239573188,-0.016,,,,13.796507546
1715828909247267974,-0.014,,,,13.804202332
1715828909254962760,-0.012,,,,13.811897118
1715828909262657546,-0.009,,,,13.819591904
1715828909270352332,-0.009,,,,13.82728669
1715828909278047118,-0.007,,,,13.834981476
1715828909285741904,-0.002,,,,13.842676262
1715828909293436690,-0.007,,,,13.850371048
1715828909301131476,-0.014,,,,13.858065834
1715828909308826262,-0.007,,,,13.86576062
1715828909316521048,0.0,,,,13.873455406
1715828909324215834,0.0,,,,13.881150192
1715828909331910620,0.004,,,,13.888844978
1715828909339605406,0.012,,,,13.896539764
1715828909347300192,0.016,,,,13.90423455
1715828909354994978,0.019,,,,13.911929336
1715828909362689764,0.019,,,,13.919624122
1715828909370384550,0.024,,,,13.927318908
1715828909378079336,0.031,,,,13.935013694
1715828909385774122,0.036,,,,13.94270848
1715828909393468908,0.038,,,,13.950403266
1715828909401163694,0.043,,,,13.958098052
1715828909408858480,0.048,,,,13.965792838
1715828909416553266,0.048,,,,13.973487624
1715828909424248052,0.048,,,,13.98118241
1715828909431942838,0.055,,,,13.988877196
1715828909439637624,0.06,,,,13.996571982
1715828909447332410,0.06,,,,14.004266768
1715828909455027196,0.06,,,,14.011961554
1715828909462721982,0.065,,,,14.01965634
1715828909470416768,0.072,,,,14.027351126
1715828909478111554,0.072,,,,14.035045912
1715828909485806358,0.067,75.0,813.0,,14.042740716
1715828909493501004,0.06,,,,14.050435362
1715828909501195650,0.058,,,,14.058130008
1715828909508890296,0.062,,,,14.065824654
1715828909516584942,0.07,,,,14.0735193
1715828909524279588,0.079,,,,14.081213946
1715828909531974234,0.108,,,,14.088908592
1715828909539668880,0.135,,,,14.096603238
1715828909547363526,0.12,,,,14.104297884
1715828909555058172,0.082,,,,14.11199253
1715828909562752818,0.072,,,,14.119687176
1715828909570447464,0.087,,,,14.127381822
1715828909578142110,0.091,,,,14.135076468
1715828909585836756,0.087,,,,14.142771114
1715828909593531402,0.089,,,,14.15046576
1715828909601226048,0.079,,,,14.158160406
1715828909608920694,0.067,,,,14.165855052
1715828909616615340,0.123,,,,14.173549698
1715828909624309986,0.43,,,,14.181244344
1715828909632004632,1.119,,,,14.18893899
1715828909639699278,2.003,,,,14.196633636
1715828909647393924,2.656,,,,14.204328282
1715828909655088570,2.199,,,,14.212022928
1715828909662783216,0.432,,,,14.219717574
1715828909670477862,-0.558,,,,14.22741222
1715828909678172508,-0.036,,,,14.235106866
1715828909685867154,0.079,,,,14.242801512
1715828909693561800,-0.321,,,,14.250496158
1715828909701256446,-0.222,,,,14.258190804
1715828909708951092,-0.062,,,,14.26588545
1715828909716645738,-0.159,,,,14.273580096
1715828909724340384,-0.149,,,,14.281274742
1715828909732035030,-0.058,,,,14.288969388
1715828909739729676,-0.055,,,,14.296664034
1715828909747424322,-0.048,,,,14.30435868
1715828909755118968,-0.002,,,,14.312053326
1715828909762813614,0.019,,,,14.319747972
1715828909770508260,0.033,,,,14.327442618
1715828909778202906,0.058,,,,14.335137264
1715828909785897552,0.082,,,,14.34283191
1715828909793592198,0.108,,,,14.350526556
1715828909801286844,0.13,,,,14.358221202
1715828909808981490,0.147,,,,14.365915848
1715828909816676136,0.176,,,,14.373610494
1715828909824370782,0.215,,,,14.38130514
1715828909832065428,0.248,,,,14.388999786
1715828909839760074,0.275,,,,14.396694432
1715828909847454720,0.304,,,,14.404389078
1715828909855149366,0.331,,,,14.412083724
1715828909862844012,0.348,,,,14.41977837
1715828909870538658,0.35,,,,14.427473016
1715828909878233304,0.343,,,,14.435167662
1715828909885927950,0.326,,,,14.442862308
1715828909893622596,0.294,,,,14.450556954
1715828909901317242,0.239,,,,14.4582516
1715828909909011888,0.161,,,,14.465946246
1715828909916706534,0.074,,,,14.473640892
1715828909924401180,0.0,,,,14.481335538
1715828909932095826,-0.05,,,,14.489030184
1715828909939790472,-0.089,,,,14.49672483
1715828909947485118,-0.113,,,,14.504419476
1715828909955179764,-0.125,,,,14.512114122
1715828909962874410,-0.132,,,,14.519808768
1715828909970569056,-0.12,,,,14.527503414
1715828909978263702,-0.101,,,,14.53519806
1715828909985958348,-0.094,,,,14.542892706
1715828909993652994,-0.089,,,,14.550587352
1715828910001347640,-0.07,,,,14.558281998
1715828910009042286,-0.058,,,,14.565976644
1715828910016736932,-0.055,,,,14.57367129
1715828910024431578,-0.045,,,,14.581365936
1715828910032126224,-0.031,,,,14.589060582
1715828910039820870,-0.026,,,,14.596755228
1715828910047515580,-0.024,75.0,846.0,,14.604449938
1715828910055210087,-0.019,,,,14.612144445
1715828910062904594,-0.012,,,,14.619838952
1715828910070599101,-0.007,,,,14.627533459
1715828910078293608,-0.009,,,,14.635227966
1715828910085988115,-0.009,,,,14.642922473
1715828910093682622,-0.002,,,,14.65061698
1715828910101377129,-0.002,,,,14.658311487
1715828910109071636,-0.012,,,,14.666005994
1715828910116766143,-0.016,,,,14.673700501
1715828910124460650,-0.009,,,,14.681395008
1715828910132155157,0.0,,,,14.689089515
1715828910139849664,-0.002,,,,14.696784022
1715828910147544171,-0.004,,,,14.704478529
1715828910155238678,0.0,,,,14.712173036
1715828910162933185,0.002,,,,14.719867543
1715828910170627692,0.002,,,,14.72756205
1715828910178322199,0.004,,,,14.735256557
1715828910186016706,0.007,,,,14.742951064
1715828910193711213,0.012,,,,14.750645571
1715828910201405720,0.016,,,,14.758340078
1715828910209100227,0.019,,,,14.766034585
1715828910216794734,0.024,,,,14.773729092
1715828910224489241,0.029,,,,14.781423599
1715828910232183748,0.029,,,,14.789118106
1715828910239878255,0.029,,,,14.796812613
1715828910247572762,0.036,,,,14.80450712
1715828910255267269,0.041,,,,14.812201627
1715828910262961776,0.041,,,,14.819896134
1715828910270656283,0.045,,,,14.827590641
1715828910278350790,0.05,,,,14.835285148
1715828910286045297,0.05,,,,14.842979655
1715828910293739804,0.05,,,,14.850674162
1715828910301434311,0.045,,,,14.858368669
1715828910309128818,0.045,,,,14.866063176
1715828910316823325,0.048,,,,14.873757683
1715828910324517832,0.048,,,,14.88145219
1715828910332212339,0.048,,,,14.889146697
1715828910339906846,0.053,,,,14.896841204
1715828910347601353,0.06,,,,14.904535711
1715828910355295860,0.058,,,,14.912230218
1715828910362990367,0.05,,,,14.919924725
1715828910370684874,0.053,,,,14.927619232
1715828910378379381,0.06,,,,14.935313739
1715828910386073888,0.067,,,,14.943008246
1715828910393768395,0.077,,,,14.950702753
1715828910401462902,0.099,,,,14.95839726
1715828910409157409,0.113,,,,14.966091767
1715828910416851916,0.091,,,,14.973786274
1715828910424546423,0.06,,,,14.981480781
1715828910432240930,0.06,,,,14.989175288
1715828910439935437,0.072,,,,14.996869795
1715828910447629944,0.074,,,,15.004564302
1715828910455324451,0.077,,,,15.012258809
1715828910463018958,0.082,,,,15.019953316
1715828910470713465,0.084,,,,15.027647823
1715828910478407972,0.079,,,,15.03534233
1715828910486102479,0.147,,,,15.043036837
1715828910493796986,0.478,,,,15.050731344
1715828910501491493,1.198,,,,15.058425851
1715828910509186000,2.0420000000000003,,,,15.066120358
1715828910516880507,2.504,,,,15.073814865
1715828910524575014,1.834,,,,15.081509372
1715828910532269521,0.181,,,,15.089203879
1715828910539964028,-0.526,,,,15.096898386
1715828910547658535,0.007,,,,15.104592893
1715828910555353042,0.031,,,,15.1122874
1715828910563047549,-0.321,,,,15.119981907
1715828910570742056,-0.203,,,,15.127676414
1715828910578436563,-0.084,,,,15.135370921
1715828910586131070,-0.176,,,,15.143065428
1715828910593825577,-0.149,,,,15.150759935
1715828910601520084,-0.07,,,,15.158454442
1715828910609214628,-0.074,,,,15.166148986
1715828910616909414,-0.072,,,,15.173843772
1715828910624604200,-0.031,,,,15.181538558
1715828910632298986,-0.004,,,,15.189233344
1715828910639993772,0.021,,,,15.19692813
1715828910647688558,0.048,,,,15.204622916
1715828910655383344,0.062,,,,15.212317702
1715828910663078130,0.082,,,,15.220012488
1715828910670772916,0.118,,,,15.227707274
1715828910678467702,0.147,,,,15.23540206
1715828910686162488,0.171,,,,15.243096846
1715828910693857274,0.21,,,,15.250791632
1715828910701552060,0.248,,,,15.258486418
1715828910709246846,0.273,,,,15.266181204
1715828910716941632,0.299,,,,15.27387599
1715828910724636418,0.328,,,,15.281570776
1715828910732331204,0.338,,,,15.289265562
1715828910740025990,0.338,,,,15.296960348
1715828910747720776,0.335,,,,15.304655134
1715828910755415562,0.319,,,,15.31234992
1715828910763110348,0.275,,,,15.320044706
1715828910770805134,0.215,,,,15.327739492
1715828910778499920,0.132,,,,15.335434278
1715828910786194706,0.05,,,,15.343129064
1715828910793889492,-0.021,,,,15.35082385
1715828910801584278,-0.089,,,,15.358518636
1715828910809279064,-0.149,,,,15.366213422
1715828910816973850,-0.186,,,,15.373908208
1715828910824668636,-0.19,,,,15.381602994
1715828910832363422,-0.188,,,,15.38929778
1715828910840058208,-0.188,,,,15.396992566
1715828910847752994,-0.174,,,,15.404687352
1715828910855447780,-0.152,,,,15.412382138
1715828910863142566,-0.135,,,,15.420076924
1715828910870837352,-0.123,,,,15.42777171
1715828910878532138,-0.113,,,,15.435466496
1715828910886226924,-0.101,,,,15.443161282
1715828910893921710,-0.084,,,,15.450856068
1715828910901616496,-0.077,,,,15.458550854
1715828910909311282,-0.072,,,,15.46624564
1715828910917006068,-0.067,,,,15.473940426
1715828910924700854,-0.062,,,,15.481635212
1715828910932395640,-0.06,,,,15.489329998
1715828910940090426,-0.058,,,,15.497024784
1715828910947785212,-0.055,,,,15.50471957
1715828910955479998,-0.05,,,,15.512414356
1715828910963174784,-0.05,,,,15.520109142
1715828910970869570,-0.048,,,,15.527803928
1715828910978564356,-0.048,,,,15.535498714
1715828910986259142,-0.045,,,,15.5431935
1715828910993953928,-0.041,,,,15.550888286
1715828911001648714,-0.036,,,,15.558583072
1715828911009343500,-0.031,,,,15.566277858
1715828911017038286,-0.031,,,,15.573972644
1715828911024733072,-0.031,,,,15.58166743
1715828911032427858,-0.026,,,,15.589362216
1715828911040122644,-0.024,,,,15.597057002
1715828911047817430,-0.021,,,,15.604751788
1715828911055512216,-0.014,,,,15.612446574
1715828911063207002,-0.009,,,,15.62014136
1715828911070901788,-0.012,,,,15.627836146
1715828911078596574,-0.009,,,,15.635530932
1715828911086291360,0.0,,,,15.643225718
1715828911093986146,0.004,,,,15.650920504
1715828911101680932,0.002,,,,15.65861529
1715828911109375718,0.009,,,,15.666310076
1715828911117070504,0.014,,,,15.674004862
1715828911124765290,0.014,,,,15.681699648
1715828911132460076,0.016,,,,15.689394434
1715828911140154862,0.019,,,,15.69708922
1715828911147849648,0.019,,,,15.704784006
1715828911155544434,0.016,,,,15.712478792
1715828911163239220,0.016,,,,15.720173578
1715828911170934022,0.019,74.0,893.0,,15.72786838
1715828911178628808,0.016,,,,15.735563166
1715828911186323594,0.016,,,,15.743257952
1715828911194018380,0.019,,,,15.750952738
1715828911201713166,0.026,,,,15.758647524
1715828911209407952,0.031,,,,15.76634231
1715828911217102738,0.041,,,,15.774037096
1715828911224797524,0.065,,,,15.781731882
1715828911232492310,0.077,,,,15.789426668
1715828911240187096,0.05,,,,15.797121454
1715828911247881882,0.024,,,,15.80481624
1715828911255576668,0.029,,,,15.812511026
1715828911263271454,0.041,,,,15.820205812
1715828911270966240,0.043,,,,15.827900598
1715828911278661026,0.043,,,,15.835595384
1715828911286355812,0.05,,,,15.84329017
1715828911294050598,0.048,,,,15.850984956
1715828911301745384,0.058,,,,15.858679742
1715828911309440170,0.21,,,,15.866374528
1715828911317134956,0.725,,,,15.874069314
1715828911324829742,1.554,,,,15.8817641
1715828911332524528,2.271,,,,15.889458886
1715828911340219314,2.31,,,,15.897153672
1715828911347914100,1.058,,,,15.904848458
1715828911355608886,-0.406,,,,15.912543244
1715828911363303672,-0.348,,,,15.92023803
1715828911370998458,0.132,,,,15.927932816
1715828911378693244,-0.164,,,,15.935627602
1715828911386388030,-0.304,,,,15.943322388
1715828911394082816,-0.101,,,,15.951017174
1715828911401777602,-0.118,,,,15.95871196
1715828911409472388,-0.174,,,,15.966406746
1715828911417167174,-0.087,,,,15.974101532
1715828911424861960,-0.05,,,,15.981796318
1715828911432556746,-0.062,,,,15.989491104
1715828911440251532,-0.029,,,,15.99718589
1715828911447946318,0.012,,,,16.004880676
1715828911455641104,0.029,,,,16.012575462
1715828911463335890,0.053,,,,16.020270248
1715828911471030676,0.087,,,,16.027965034
1715828911478725462,0.113,,,,16.03565982
1715828911486420248,0.14,,,,16.043354606
1715828911494115034,0.169,,,,16.051049392
1715828911501809820,0.195,,,,16.058744178
1715828911509504606,0.227,,,,16.066438964
1715828911517199392,0.263,,,,16.07413375
1715828911524894178,0.292,,,,16.081828536
1715828911532588964,0.321,,,,16.089523322
1715828911540283750,0.352,,,,16.097218108
1715828911547978536,0.369,,,,16.104912894
1715828911555673322,0.374,,,,16.11260768
1715828911563368108,0.369,,,,16.120302466
1715828911571062894,0.357,,,,16.127997252
1715828911578757680,0.316,,,,16.135692038
1715828911586452466,0.256,,,,16.143386824
1715828911594147252,0.183,,,,16.15108161
1715828911601842038,0.091,,,,16.158776396
1715828911609536824,0.007,,,,16.166471182
1715828911617231610,-0.053,,,,16.174165968
1715828911624926396,-0.101,,,,16.181860754
1715828911632621182,-0.135,,,,16.18955554
1715828911640315968,-0.159,,,,16.197250326
1715828911648010754,-0.164,,,,16.204945112
1715828911655705540,-0.154,,,,16.212639898
1715828911663400326,-0.142,,,,16.220334684
1715828911671095112,-0.13,,,,16.22802947
1715828911678789898,-0.116,,,,16.235724256
1715828911686484684,-0.096,,,,16.243419042
1715828911694179470,-0.079,,,,16.251113828
1715828911701874256,-0.07,,,,16.258808614
1715828911709569042,-0.058,,,,16.2665034
1715828911717263828,-0.045,,,,16.274198186
1715828911724958614,-0.038,,,,16.281892972
1715828911732653416,-0.031,,,,16.289587774
1715828911740348202,-0.026,,,,16.29728256
1715828911748042988,-0.019,,,,16.304977346
1715828911755737774,-0.019,,,,16.312672132
1715828911763432560,-0.029,,,,16.320366918
1715828911771127346,-0.029,,,,16.328061704
1715828911778822132,-0.021,,,,16.33575649
1715828911786516918,-0.019,,,,16.343451276
1715828911794211704,-0.021,,,,16.351146062
1715828911801906490,-0.019,,,,16.358840848
1715828911809601276,-0.014,,,,16.366535634
1715828911817296062,-0.019,,,,16.37423042
1715828911824990848,-0.021,,,,16.381925206
1715828911832685634,-0.014,,,,16.389619992
1715828911840380420,-0.007,,,,16.397314778
1715828911848075206,-0.004,,,,16.405009564
1715828911855769992,-0.004,,,,16.41270435
1715828911863464778,0.0,,,,16.420399136
1715828911871159564,0.007,,,,16.428093922
1715828911878854350,0.009,,,,16.435788708
1715828911886549136,0.009,,,,16.443483494
1715828911894243922,0.012,,,,16.45117828
1715828911901938708,0.014,,,,16.458873066
1715828911909633494,0.019,,,,16.466567852
1715828911917328280,0.024,,,,16.474262638
1715828911925023066,0.029,,,,16.481957424
1715828911932717852,0.033,,,,16.48965221
1715828911940412638,0.036,,,,16.497346996
1715828911948107424,0.036,,,,16.505041782
1715828911955802210,0.041,,,,16.512736568
1715828911963496996,0.048,,,,16.520431354
1715828911971191782,0.05,,,,16.52812614
1715828911978886568,0.05,,,,16.535820926
1715828911986581354,0.055,,,,16.543515712
1715828911994276140,0.06,,,,16.551210498
1715828912001970926,0.055,,,,16.558905284
1715828912009665712,0.053,,,,16.56660007
1715828912017360498,0.055,,,,16.574294856
1715828912025055284,0.058,,,,16.581989642
1715828912032750070,0.065,,,,16.589684428
1715828912040444856,0.072,,,,16.597379214
1715828912048139642,0.091,,,,16.605074
1715828912055834428,0.118,,,,16.612768786
1715828912063529214,0.123,,,,16.620463572
1715828912071224000,0.096,,,,16.628158358
1715828912078918786,0.072,,,,16.635853144
1715828912086613572,0.072,,,,16.64354793
1715828912094308358,0.084,,,,16.651242716
1715828912102003144,0.087,,,,16.658937502
1715828912109697930,0.091,,,,16.666632288
1715828912117392716,0.096,,,,16.674327074
1715828912125087502,0.087,,,,16.68202186
1715828912132782288,0.087,,,,16.689716646
1715828912140477074,0.232,,,,16.697411432
1715828912148171860,0.751,,,,16.705106218
1715828912155866646,1.595,,,,16.712801004
1715828912163561432,2.332,,,,16.72049579
1715828912171256218,2.349,,,,16.728190576
1715828912178951004,1.073,,,,16.735885362
1715828912186645790,-0.345,,,,16.743580148
1715828912194340576,-0.27,,,,16.751274934
1715828912202035362,0.166,,,,16.75896972
1715828912209730148,-0.128,,,,16.766664506
1715828912217424934,-0.258,,,,16.774359292
1715828912225119720,-0.06,,,,16.782054078
1715828912232814506,-0.072,,,,16.789748864
1715828912240509292,-0.128,,,,16.79744365
1715828912248204078,-0.048,,,,16.805138436
1715828912255898864,-0.009,,,,16.812833222
1715828912263593650,-0.019,,,,16.820528008
1715828912271288436,0.009,,,,16.828222794
1715828912278983222,0.043,,,,16.83591758
1715828912286678008,0.062,,,,16.843612366
1715828912294372810,0.089,73.0,865.0,,16.851307168
1715828912302067526,0.116,,868.0,,16.859001884
1715828912309762242,0.137,,,,16.8666966
1715828912317456958,0.164,,,,16.874391316
1715828912325151674,0.183,,,,16.882086032
1715828912332846390,0.198,,,,16.889780748
1715828912340541106,0.227,,,,16.897475464
1715828912348235822,0.268,,,,16.90517018
1715828912355930538,0.297,,,,16.912864896
1715828912363625254,0.316,,,,16.920559612
1715828912371319970,0.338,,,,16.928254328
1715828912379014686,0.36,,,,16.935949044
1715828912386709402,0.364,,,,16.94364376
1715828912394404118,0.355,,,,16.951338476
1715828912402098834,0.34,,,,16.959033192
1715828912409793550,0.319,,,,16.966727908
1715828912417488266,0.273,,,,16.974422624
1715828912425182982,0.203,,,,16.98211734
1715828912432877698,0.125,,,,16.989812056
1715828912440572414,0.048,,,,16.997506772
1715828912448267130,-0.016,,,,17.005201488
1715828912455961846,-0.067,,,,17.012896204
1715828912463656562,-0.099,,,,17.02059092
1715828912471351278,-0.118,,,,17.028285636
1715828912479045994,-0.128,,,,17.035980352
1715828912486740710,-0.128,,,,17.043675068
1715828912494435426,-0.12,,,,17.051369784
1715828912502130142,-0.111,,,,17.0590645
1715828912509824858,-0.096,,,,17.066759216
1715828912517519574,-0.084,,,,17.074453932
1715828912525214290,-0.067,,,,17.082148648
1715828912532909006,-0.055,,,,17.089843364
1715828912540603722,-0.048,,,,17.09753808
1715828912548298438,-0.041,,,,17.105232796
1715828912555993154,-0.031,,,,17.112927512
1715828912563687870,-0.021,,,,17.120622228
1715828912571382586,-0.016,,,,17.128316944
1715828912579077302,-0.014,,,,17.13601166
1715828912586772018,-0.014,,,,17.143706376
1715828912594466734,-0.014,,,,17.151401092
1715828912602161450,-0.016,,,,17.159095808
1715828912609856166,-0.014,,,,17.166790524
1715828912617550882,-0.014,,,,17.17448524
1715828912625245598,-0.019,,,,17.182179956
1715828912632940314,-0.021,,,,17.189874672
1715828912640635030,-0.019,,,,17.197569388
1715828912648329746,-0.012,,,,17.205264104
1715828912656024462,-0.009,,,,17.21295882
1715828912663719178,-0.009,,,,17.220653536
1715828912671413894,-0.004,,,,17.228348252
1715828912679108610,0.002,,,,17.236042968
1715828912686803326,0.002,,,,17.243737684
1715828912694498042,0.002,,,,17.2514324
1715828912702192758,0.009,,,,17.259127116
1715828912709887474,0.019,,,,17.266821832
1715828912717582190,0.021,,,,17.274516548
1715828912725276906,0.024,,,,17.282211264
1715828912732971622,0.029,,,,17.28990598
1715828912740666338,0.031,,,,17.297600696
1715828912748361054,0.038,,,,17.305295412
1715828912756055770,0.043,,,,17.312990128
1715828912763750486,0.045,,,,17.320684844
1715828912771445202,0.048,,,,17.32837956
1715828912779139918,0.045,,,,17.336074276
1715828912786834634,0.048,,,,17.343768992
1715828912794529350,0.06,,,,17.351463708
1715828912802224066,0.065,,,,17.359158424
1715828912809918782,0.062,,,,17.36685314
1715828912817613498,0.067,,,,17.374547856
1715828912825308214,0.07,,,,17.382242572
1715828912833002930,0.062,,,,17.389937288
1715828912840697646,0.053,,,,17.397632004
1715828912848392362,0.053,,,,17.40532672
1715828912856087120,0.062,,,,17.413021478
1715828912863781557,0.06,,,,17.420715915
1715828912871475994,0.045,,,,17.428410352
1715828912879170431,0.038,,,,17.436104789
1715828912886864868,0.048,,,,17.443799226
1715828912894559305,0.058,,,,17.451493663
1715828912902253742,0.062,,,,17.4591881
1715828912909948179,0.077,,,,17.466882537
1715828912917642616,0.103,,,,17.474576974
1715828912925337053,0.111,,,,17.482271411
1715828912933031490,0.079,,,,17.489965848
1715828912940725927,0.053,,,,17.497660285
1715828912948420364,0.06,,,,17.505354722
1715828912956114801,0.062,,,,17.513049159
1715828912963809238,0.055,,,,17.520743596
1715828912971503675,0.055,,,,17.528438033
1715828912979198112,0.062,,,,17.53613247
1715828912986892549,0.053,,,,17.543826907
1715828912994586986,0.053,,,,17.551521344
1715828913002281423,0.2,,,,17.559215781
1715828913009975860,0.727,,,,17.566910218
1715828913017670297,1.597,,,,17.574604655
1715828913025364734,2.38,,,,17.582299092
1715828913033059171,2.441,,,,17.589993529
1715828913040753608,1.155,,,,17.597687966
1715828913048448045,-0.364,,,,17.605382403
1715828913056142482,-0.362,,,,17.61307684
1715828913063836919,0.103,,,,17.620771277
1715828913071531356,-0.178,,,,17.628465714
1715828913079225793,-0.326,,,,17.636160151
1715828913086920230,-0.123,,,,17.643854588
1715828913094614667,-0.135,,,,17.651549025
1715828913102309104,-0.195,,,,17.659243462
1715828913110003541,-0.106,,,,17.666937899
1715828913117697978,-0.07,,,,17.674632336
1715828913125392415,-0.091,,,,17.682326773
1715828913133086852,-0.06,,,,17.69002121
1715828913140781289,-0.021,,,,17.697715647
1715828913148475726,-0.002,,,,17.705410084
1715828913156170163,0.026,,,,17.713104521
1715828913163864600,0.055,,,,17.720798958
1715828913171559037,0.077,,,,17.728493395
1715828913179253474,0.108,,,,17.736187832
1715828913186947911,0.147,,,,17.743882269
1715828913194642348,0.176,,,,17.751576706
1715828913202336785,0.203,,,,17.759271143
1715828913210031222,0.244,,,,17.76696558
1715828913217725659,0.28,,,,17.774660017
1715828913225420096,0.306,,,,17.782354454
1715828913233114533,0.34,,,,17.790048891
1715828913240808970,0.374,,,,17.797743328
1715828913248503407,0.391,,,,17.805437765
1715828913256197844,0.386,,,,17.813132202
1715828913263892281,0.372,,,,17.820826639
1715828913271586718,0.357,,,,17.828521076
1715828913279281155,0.311,,,,17.836215513
1715828913286975592,0.224,,,,17.84390995
1715828913294670029,0.125,,,,17.851604387
1715828913302364466,0.041,,,,17.859298824
1715828913310058903,-0.029,,,,17.866993261
1715828913317753340,-0.096,,,,17.874687698
1715828913325447777,-0.142,,,,17.882382135
1715828913333142214,-0.161,,,,17.890076572
1715828913340836651,-0.178,,,,17.897771009
1715828913348531088,-0.193,,,,17.905465446
1715828913356225525,-0.193,,,,17.913159883
1715828913363919962,-0.181,,,,17.92085432
1715828913371614399,-0.169,,,,17.928548757
1715828913379308836,-0.161,,,,17.936243194
1715828913387003273,-0.145,,,,17.943937631
1715828913394697710,-0.125,,,,17.951632068
1715828913402392147,-0.113,,,,17.959326505
1715828913410086584,-0.106,,,,17.967020942
1715828913417781082,-0.094,73.0,820.0,,17.97471544
1715828913425475868,-0.084,,,,17.982410226
1715828913433170654,-0.077,,,,17.990105012
1715828913440865440,-0.074,,,,17.997799798
1715828913448560226,-0.065,,,,18.005494584
1715828913456255012,-0.06,,,,18.01318937
1715828913463949798,-0.062,,,,18.020884156
1715828913471644584,-0.072,,,,18.028578942
1715828913479339370,-0.077,,,,18.036273728
1715828913487034156,-0.07,,,,18.043968514
1715828913494728942,-0.065,,,,18.0516633
1715828913502423728,-0.065,,,,18.059358086
1715828913510118514,-0.062,,,,18.067052872
1715828913517813300,-0.058,,,,18.074747658
1715828913525508086,-0.05,,,,18.082442444
1715828913533202872,-0.048,,,,18.09013723
1715828913540897658,-0.045,,,,18.097832016
1715828913548592444,-0.036,,,,18.105526802
1715828913556287230,-0.031,,,,18.113221588
1715828913563982016,-0.033,,,,18.120916374
1715828913571676802,-0.026,,,,18.12861116
1715828913579371588,-0.019,,,,18.136305946
1715828913587066374,-0.019,,,,18.144000732
1715828913594761160,-0.019,,,,18.151695518
1715828913602455946,-0.014,,,,18.159390304
1715828913610150732,-0.012,,,,18.16708509
1715828913617845518,-0.014,,,,18.174779876
1715828913625540304,-0.007,,,,18.182474662
1715828913633235090,0.0,,,,18.190169448
1715828913640929876,0.004,,,,18.197864234
1715828913648624662,0.004,,,,18.20555902
1715828913656319448,0.007,,,,18.213253806
1715828913664014234,0.014,,,,18.220948592
1715828913671709020,0.021,,,,18.228643378
1715828913679403806,0.021,,,,18.236338164
1715828913687098592,0.026,,,,18.24403295
1715828913694793378,0.031,,,,18.251727736
1715828913702488164,0.031,,,,18.259422522
1715828913710182950,0.031,,,,18.267117308
1715828913717877736,0.024,,,,18.274812094
1715828913725572522,0.026,,,,18.28250688
1715828913733267308,0.033,,,,18.290201666
1715828913740962094,0.038,,,,18.297896452
1715828913748656880,0.045,,,,18.305591238
1715828913756351666,0.067,,,,18.313286024
1715828913764046452,0.099,,,,18.32098081
1715828913771741238,0.099,,,,18.328675596
1715828913779436024,0.062,,,,18.336370382
1715828913787130810,0.045,,,,18.344065168
1715828913794825596,0.055,,,,18.351759954
1715828913802520382,0.062,,,,18.35945474
1715828913810215168,0.062,,,,18.367149526
1715828913817909954,0.067,,,,18.374844312
1715828913825604740,0.072,,,,18.382539098
1715828913833299526,0.058,,,,18.390233884
1715828913840994312,0.062,,,,18.39792867
1715828913848689098,0.248,,,,18.405623456
1715828913856383884,0.8310000000000001,,,,18.413318242
1715828913864078670,1.711,,,,18.421013028
1715828913871773456,2.475,,,,18.428707814
1715828913879468242,2.431,,,,18.4364026
1715828913887163028,0.937,,,,18.444097386
1715828913894857814,-0.509,,,,18.451792172
1715828913902552600,-0.27,,,,18.459486958
1715828913910247386,0.132,,,,18.467181744
1715828913917942172,-0.248,,,,18.47487653
1715828913925636958,-0.319,,,,18.482571316
1715828913933331744,-0.099,,,,18.490266102
1715828913941026530,-0.145,,,,18.497960888
1715828913948721316,-0.188,,,,18.505655674
1715828913956416102,-0.096,,,,18.51335046
1715828913964110888,-0.07,,,,18.521045246
1715828913971805674,-0.077,,,,18.528740032
1715828913979500476,-0.038,,,,18.536434834
1715828913987195262,-0.004,,,,18.54412962
1715828913994890048,0.012,,,,18.551824406
1715828914002584834,0.041,,,,18.559519192
1715828914010279620,0.072,,,,18.567213978
1715828914017974406,0.096,,,,18.574908764
1715828914025669192,0.125,,,,18.58260355
1715828914033363978,0.159,,,,18.590298336
1715828914041058764,0.19,,,,18.597993122
1715828914048753550,0.224,,,,18.605687908
1715828914056448336,0.268,,,,18.613382694
1715828914064143122,0.306,,,,18.62107748
1715828914071837908,0.328,,,,18.628772266
1715828914079532694,0.348,,,,18.636467052
1715828914087227480,0.377,,,,18.644161838
1715828914094922266,0.396,,,,18.651856624
1715828914102617052,0.386,,,,18.65955141
1715828914110311838,0.364,,,,18.667246196
1715828914118006624,0.335,,,,18.674940982
1715828914125701410,0.275,,,,18.682635768
1715828914133396196,0.188,,,,18.690330554
1715828914141090982,0.099,,,,18.69802534
1715828914148785768,0.024,,,,18.705720126
1715828914156480554,-0.041,,,,18.713414912
1715828914164175340,-0.094,,,,18.721109698
1715828914171870126,-0.123,,,,18.728804484
1715828914179564912,-0.135,,,,18.73649927
1715828914187259698,-0.145,,,,18.744194056
1715828914194954484,-0.14,,,,18.751888842
1715828914202649270,-0.13,,,,18.759583628
1715828914210344056,-0.123,,,,18.767278414
1715828914218038842,-0.116,,,,18.7749732
1715828914225733628,-0.103,,,,18.782667986
1715828914233428414,-0.089,,,,18.790362772
1715828914241123200,-0.082,,,,18.798057558
1715828914248817986,-0.074,,,,18.805752344
1715828914256512772,-0.062,,,,18.81344713
1715828914264207558,-0.048,,,,18.821141916
1715828914271902344,-0.038,,,,18.828836702
1715828914279597130,-0.031,,,,18.836531488
1715828914287291916,-0.024,,,,18.844226274
1715828914294986702,-0.019,,,,18.85192106
1715828914302681488,-0.021,,,,18.859615846
1715828914310376274,-0.019,,,,18.867310632
1715828914318071060,-0.014,,,,18.875005418
1715828914325765846,-0.009,,,,18.882700204
1715828914333460632,-0.009,,,,18.89039499
1715828914341155418,-0.012,,,,18.898089776
1715828914348850204,-0.016,,,,18.905784562
1715828914356544990,-0.021,,,,18.913479348
1715828914364239776,-0.016,,,,18.921174134
1715828914371934562,-0.009,,,,18.92886892
1715828914379629348,-0.007,,,,18.936563706
1715828914387324134,-0.004,,,,18.944258492
1715828914395018920,-0.007,,,,18.951953278
1715828914402713706,-0.004,,,,18.959648064
1715828914410408492,0.004,,,,18.96734285
1715828914418103278,0.012,,,,18.975037636
1715828914425798064,0.009,,,,18.982732422
1715828914433492850,0.009,,,,18.990427208
1715828914441187636,0.014,,,,18.998121994
1715828914448882422,0.021,,,,19.00581678
1715828914456577208,0.024,,,,19.013511566
1715828914464271994,0.026,,,,19.021206352
1715828914471966780,0.031,,,,19.028901138
1715828914479661566,0.036,,,,19.036595924
1715828914487356352,0.036,,,,19.04429071
1715828914495051138,0.036,,,,19.051985496
1715828914502745924,0.045,,,,19.059680282
1715828914510440710,0.048,,,,19.067375068
1715828914518135496,0.043,,,,19.075069854
1715828914525830282,0.043,,,,19.08276464
1715828914533525068,0.053,,,,19.090459426
1715828914541219870,0.058,73.0,831.0,,19.098154228
1715828914548914238,0.058,,,,19.105848596
1715828914556608606,0.058,,,,19.113542964
1715828914564302974,0.062,,,,19.121237332
1715828914571997342,0.065,,,,19.1289317
1715828914579691710,0.058,,,,19.136626068
1715828914587386078,0.05,,,,19.144320436
1715828914595080446,0.053,,,,19.152014804
1715828914602774814,0.058,,,,19.159709172
1715828914610469182,0.06,,,,19.16740354
1715828914618163550,0.06,,,,19.175097908
1715828914625857918,0.055,,,,19.182792276
1715828914633552286,0.048,,,,19.190486644
1715828914641246654,0.048,,,,19.198181012
1715828914648941022,0.055,,,,19.20587538
1715828914656635390,0.067,,,,19.213569748
1715828914664329758,0.082,,,,19.221264116
1715828914672024126,0.101,,,,19.228958484
1715828914679718494,0.111,,,,19.236652852
1715828914687412862,0.096,,,,19.24434722
1715828914695107230,0.07,,,,19.252041588
1715828914702801598,0.067,,,,19.259735956
1715828914710495966,0.079,,,,19.267430324
1715828914718190334,0.084,,,,19.275124692
1715828914725884702,0.087,,,,19.28281906
1715828914733579070,0.091,,,,19.290513428
1715828914741273438,0.084,,,,19.298207796
1715828914748967806,0.087,,,,19.305902164
1715828914756662174,0.2,,,,19.313596532
1715828914764356542,0.65,,,,19.3212909
1715828914772050910,1.469,,,,19.328985268
1715828914779745278,2.337,,,,19.336679636
1715828914787439646,2.68,,,,19.344374004
1715828914795134014,1.607,,,,19.352068372
1715828914802828382,-0.135,,,,19.35976274
1715828914810522750,-0.41,,,,19.367457108
1715828914818217118,0.142,,,,19.375151476
1715828914825911486,-0.074,,,,19.382845844
1715828914833605854,-0.319,,,,19.390540212
1715828914841300222,-0.123,,,,19.39823458
1715828914848994590,-0.101,,,,19.405928948
1715828914856688958,-0.188,,,,19.413623316
1715828914864383326,-0.111,,,,19.421317684
1715828914872077694,-0.05,,,,19.429012052
1715828914879772062,-0.067,,,,19.43670642
1715828914887466430,-0.038,,,,19.444400788
1715828914895160798,0.004,,,,19.452095156
1715828914902855166,0.014,,,,19.459789524
1715828914910549534,0.036,,,,19.467483892
1715828914918243902,0.07,,,,19.47517826
1715828914925938270,0.094,,,,19.482872628
1715828914933632638,0.118,,,,19.490566996
1715828914941327006,0.147,,,,19.498261364
1715828914949021374,0.174,,,,19.505955732
1715828914956715742,0.203,,,,19.5136501
1715828914964410110,0.236,,,,19.521344468
1715828914972104478,0.273,,,,19.529038836
1715828914979798846,0.304,,,,19.536733204
1715828914987493214,0.338,,,,19.544427572
1715828914995187582,0.364,,,,19.55212194
1715828915002881950,0.377,,,,19.559816308
1715828915010576318,0.384,,,,19.567510676
1715828915018270686,0.379,,,,19.575205044
1715828915025965054,0.355,,,,19.582899412
1715828915033659422,0.311,,,,19.59059378
1715828915041353790,0.246,,,,19.598288148
1715828915049048158,0.164,,,,19.605982516
1715828915056742526,0.079,,,,19.613676884
1715828915064436894,0.009,,,,19.621371252
1715828915072131262,-0.043,,,,19.62906562
1715828915079825630,-0.084,,,,19.636759988
1715828915087519998,-0.116,,,,19.644454356
1715828915095214366,-0.125,,,,19.652148724
1715828915102908746,-0.113,73.0,862.0,,19.659843104
1715828915110603532,-0.101,,,,19.66753789
1715828915118298318,-0.094,,,,19.675232676
1715828915125993104,-0.084,,,,19.682927462
1715828915133687890,-0.07,,,,19.690622248
1715828915141382676,-0.058,,,,19.698317034
1715828915149077462,-0.043,,,,19.70601182
1715828915156772248,-0.031,,,,19.713706606
1715828915164467034,-0.021,,,,19.721401392
1715828915172161820,-0.012,,,,19.729096178
1715828915179856606,-0.014,,,,19.736790964
1715828915187551392,-0.014,,,,19.74448575
1715828915195246178,-0.002,,,,19.752180536
1715828915202940964,0.004,,,,19.759875322
1715828915210635750,0.004,,,,19.767570108
1715828915218330536,0.007,,,,19.775264894
1715828915226025322,0.012,,,,19.78295968
1715828915233720108,0.014,,,,19.790654466
1715828915241414894,0.009,,,,19.798349252
1715828915249109680,0.009,,,,19.806044038
1715828915256804466,0.012,,,,19.813738824
1715828915264499252,0.016,,,,19.82143361
1715828915272194038,0.016,,,,19.829128396
1715828915279888824,0.019,,,,19.836823182
1715828915287583610,0.024,,,,19.844517968
1715828915295278396,0.026,,,,19.852212754
1715828915302973182,0.029,,,,19.85990754
1715828915310667968,0.033,,,,19.867602326
1715828915318362754,0.038,,,,19.875297112
1715828915326057540,0.036,,,,19.882991898
1715828915333752326,0.038,,,,19.890686684
1715828915341447112,0.041,,,,19.89838147
1715828915349141898,0.043,,,,19.906076256
1715828915356836684,0.033,,,,19.913771042
1715828915364531470,0.029,,,,19.921465828
1715828915372226256,0.038,,,,19.929160614
1715828915379921042,0.048,,,,19.9368554
1715828915387615828,0.048,,,,19.944550186
1715828915395310614,0.05,,,,19.952244972
1715828915403005400,0.053,,,,19.959939758
1715828915410700186,0.055,,,,19.967634544
1715828915418394972,0.058,,,,19.97532933
1715828915426089758,0.065,,,,19.983024116
1715828915433784544,0.067,,,,19.990718902
1715828915441479330,0.067,,,,19.998413688
1715828915449174116,0.07,,,,20.006108474
1715828915456868902,0.072,,,,20.01380326
1715828915464563688,0.074,,,,20.021498046
1715828915472258474,0.079,,,,20.029192832
1715828915479953260,0.079,,,,20.036887618
1715828915487648046,0.082,,,,20.044582404
1715828915495342832,0.084,,,,20.05227719
1715828915503037618,0.079,,,,20.059971976
1715828915510732404,0.077,,,,20.067666762
1715828915518427190,0.082,,,,20.075361548
1715828915526121976,0.087,,,,20.083056334
1715828915533816762,0.087,,,,20.09075112
1715828915541511548,0.084,,,,20.098445906
1715828915549206334,0.079,,,,20.106140692
1715828915556901120,0.079,,,,20.113835478
1715828915564595906,0.082,,,,20.121530264
1715828915572290692,0.074,,,,20.12922505
1715828915579985478,0.055,,,,20.136919836
1715828915587680264,0.053,,,,20.144614622
1715828915595375050,0.065,,,,20.152309408
1715828915603069836,0.074,,,,20.160004194
1715828915610764622,0.089,,,,20.16769898
1715828915618459408,0.116,,,,20.175393766
1715828915626154194,0.113,,,,20.183088552
1715828915633848980,0.072,,,,20.190783338
1715828915641543766,0.048,,,,20.198478124
1715828915649238552,0.062,,,,20.20617291
1715828915656933338,0.072,,,,20.213867696
1715828915664628140,0.067,,,,20.221562498
1715828915672322856,0.067,,,,20.229257214
1715828915680017572,0.06,,,,20.23695193
1715828915687712288,0.038,,,,20.244646646
1715828915695407004,0.067,,,,20.252341362
1715828915703101720,0.357,,,,20.260036078
1715828915710796436,1.077,,,,20.267730794
1715828915718491152,2.003,,,,20.27542551
1715828915726185868,2.658,,,,20.283120226
1715828915733880584,2.187,,,,20.290814942
1715828915741575300,0.413,,,,20.298509658
1715828915749270016,-0.609,,,,20.306204374
1715828915756964732,-0.111,,,,20.31389909
1715828915764659448,0.026,,,,20.321593806
1715828915772354164,-0.374,,,,20.329288522
1715828915780048880,-0.306,,,,20.336983238
1715828915787743596,-0.149,,,,20.344677954
1715828915795438312,-0.234,,,,20.35237267
1715828915803133028,-0.219,,,,20.360067386
1715828915810827744,-0.132,,,,20.367762102
1715828915818522460,-0.142,,,,20.375456818
1715828915826217176,-0.142,,,,20.383151534
1715828915833911892,-0.087,,,,20.39084625
1715828915841606608,-0.06,,,,20.398540966
1715828915849301324,-0.05,,,,20.406235682
1715828915856996040,-0.031,,,,20.413930398
1715828915864690756,-0.009,,,,20.421625114
1715828915872385472,0.012,,,,20.42931983
1715828915880080188,0.041,,,,20.437014546
1715828915887774904,0.077,,,,20.444709262
1715828915895469620,0.113,,,,20.452403978
1715828915903164336,0.147,,,,20.460098694
1715828915910859052,0.183,,,,20.46779341
1715828915918553768,0.224,,,,20.475488126
1715828915926248484,0.265,,,,20.483182842
1715828915933943200,0.304,,,,20.490877558
1715828915941637916,0.326,,,,20.498572274
1715828915949332632,0.338,,,,20.50626699
1715828915957027348,0.343,,,,20.513961706
1715828915964722064,0.333,,,,20.521656422
1715828915972416780,0.306,,,,20.529351138
1715828915980111496,0.258,,,,20.537045854
1715828915987806212,0.176,,,,20.54474057
1715828915995500928,0.082,,,,20.552435286
1715828916003195644,-0.002,,,,20.560130002
1715828916010890360,-0.072,,,,20.567824718
1715828916018585076,-0.123,,,,20.575519434
1715828916026279792,-0.154,,,,20.58321415
1715828916033974508,-0.171,,,,20.590908866
1715828916041669224,-0.169,,,,20.598603582
1715828916049363940,-0.157,,,,20.606298298
1715828916057058656,-0.159,,,,20.613993014
1715828916064753372,-0.154,,,,20.62168773
1715828916072448088,-0.137,,,,20.629382446
1715828916080142804,-0.128,,,,20.637077162
1715828916087837520,-0.116,,,,20.644771878
1715828916095532236,-0.101,,,,20.652466594
1715828916103226952,-0.094,,,,20.66016131
1715828916110921668,-0.087,,,,20.667856026
1715828916118616384,-0.072,,,,20.675550742
1715828916126311100,-0.06,,,,20.683245458
1715828916134005816,-0.058,,,,20.690940174
1715828916141700532,-0.058,,,,20.69863489
1715828916149395248,-0.05,,,,20.706329606
1715828916157089964,-0.045,,,,20.714024322
1715828916164784680,-0.041,,,,20.721719038
1715828916172479396,-0.036,,,,20.729413754
1715828916180174112,-0.036,,,,20.73710847
1715828916187868828,-0.033,,,,20.744803186
1715828916195563544,-0.033,,,,20.752497902
1715828916203258260,-0.029,,,,20.760192618
1715828916210952976,-0.021,,,,20.767887334
1715828916218647692,-0.021,,,,20.77558205
1715828916226342450,-0.021,73.0,846.0,,20.783276808
1715828916234036887,-0.016,,,,20.790971245
1715828916241731324,-0.014,,,,20.798665682
1715828916249425761,-0.009,,,,20.806360119
1715828916257120198,-0.004,,,,20.814054556
1715828916264814635,0.0,,,,20.821748993
1715828916272509072,0.004,,,,20.82944343
1715828916280203509,0.004,,,,20.837137867
1715828916287897946,0.002,,,,20.844832304
1715828916295592383,0.0,,,,20.852526741
1715828916303286820,0.007,,,,20.860221178
1715828916310981257,0.012,,,,20.867915615
1715828916318675694,0.004,,,,20.875610052
1715828916326370131,0.002,,,,20.883304489
1715828916334064568,0.014,,,,20.890998926
1715828916341759005,0.016,,,,20.898693363
1715828916349453442,0.019,,,,20.9063878
1715828916357147879,0.024,,,,20.914082237
1715828916364842316,0.024,,,,20.921776674
1715828916372536753,0.016,,,,20.929471111
1715828916380231190,0.012,,,,20.937165548
1715828916387925627,0.024,,,,20.944859985
1715828916395620064,0.031,,,,20.952554422
1715828916403314501,0.031,,,,20.960248859
1715828916411008938,0.036,,,,20.967943296
1715828916418703375,0.041,,,,20.975637733
1715828916426397812,0.041,,,,20.98333217
1715828916434092249,0.043,,,,20.991026607
1715828916441786686,0.048,,,,20.998721044
1715828916449481123,0.053,,,,21.006415481
1715828916457175560,0.055,,,,21.014109918
1715828916464869997,0.058,,,,21.021804355
1715828916472564434,0.053,,,,21.029498792
1715828916480258871,0.045,,,,21.037193229
1715828916487953308,0.048,,,,21.044887666
1715828916495647745,0.05,,,,21.052582103
1715828916503342182,0.053,,,,21.06027654
1715828916511036619,0.062,,,,21.067970977
1715828916518731056,0.079,,,,21.075665414
1715828916526425493,0.108,,,,21.083359851
1715828916534119930,0.118,,,,21.091054288
1715828916541814367,0.087,,,,21.098748725
1715828916549508804,0.065,,,,21.106443162
1715828916557203241,0.07,,,,21.114137599
1715828916564897678,0.074,,,,21.121832036
1715828916572592115,0.072,,,,21.129526473
1715828916580286552,0.077,,,,21.13722091
1715828916587980989,0.082,,,,21.144915347
1715828916595675426,0.072,,,,21.152609784
1715828916603369863,0.079,,,,21.160304221
1715828916611064300,0.219,,,,21.167998658
1715828916618758737,0.71,,,,21.175693095
1715828916626453174,1.546,,,,21.183387532
1715828916634147611,2.392,,,,21.191081969
1715828916641842048,2.646,,,,21.198776406
1715828916649536485,1.43,,,,21.206470843
1715828916657230922,-0.29,,,,21.21416528
1715828916664925359,-0.406,,,,21.221859717
1715828916672619796,0.14,,,,21.229554154
1715828916680314233,-0.147,,,,21.237248591
1715828916688008670,-0.35,,,,21.244943028
1715828916695703107,-0.128,,,,21.252637465
1715828916703397544,-0.118,,,,21.260331902
1715828916711091981,-0.195,,,,21.268026339
1715828916718786418,-0.12,,,,21.275720776
1715828916726480855,-0.074,,,,21.283415213
1715828916734175292,-0.089,,,,21.29110965
1715828916741869729,-0.062,,,,21.298804087
1715828916749564166,-0.026,,,,21.306498524
1715828916757258603,-0.012,,,,21.314192961
1715828916764953040,0.009,,,,21.321887398
1715828916772647477,0.043,,,,21.329581835
1715828916780341914,0.07,,,,21.337276272
1715828916788036412,0.096,,,,21.34497077
1715828916795731198,0.125,,,,21.352665556
1715828916803425984,0.154,,,,21.360360342
1715828916811120770,0.183,,,,21.368055128
1715828916818815556,0.217,,,,21.375749914
1715828916826510342,0.256,,,,21.3834447
1715828916834205128,0.29,,,,21.391139486
1715828916841899914,0.319,,,,21.398834272
1715828916849594700,0.348,,,,21.406529058
1715828916857289486,0.36,,,,21.414223844
1715828916864984272,0.357,,,,21.42191863
1715828916872679058,0.345,,,,21.429613416
1715828916880373844,0.316,,,,21.437308202
1715828916888068630,0.265,,,,21.445002988
1715828916895763416,0.198,,,,21.452697774
1715828916903458202,0.12,,,,21.46039256
1715828916911152988,0.041,,,,21.468087346
1715828916918847774,-0.029,,,,21.475782132
1715828916926542560,-0.082,,,,21.483476918
1715828916934237346,-0.116,,,,21.491171704
1715828916941932132,-0.135,,,,21.49886649
1715828916949626918,-0.142,,,,21.506561276
1715828916957321704,-0.137,,,,21.514256062
1715828916965016490,-0.125,,,,21.521950848
1715828916972711276,-0.111,,,,21.529645634
1715828916980406062,-0.103,,,,21.53734042
1715828916988100848,-0.089,,,,21.545035206
1715828916995795634,-0.07,,,,21.552729992
1715828917003490420,-0.058,,,,21.560424778
1715828917011185206,-0.048,,,,21.568119564
1715828917018879992,-0.041,,,,21.57581435
1715828917026574778,-0.031,,,,21.583509136
1715828917034269564,-0.021,,,,21.591203922
1715828917041964350,-0.014,,,,21.598898708
1715828917049659136,-0.009,,,,21.606593494
1715828917057353922,-0.012,,,,21.61428828
1715828917065048708,-0.012,,,,21.621983066
1715828917072743494,-0.012,,,,21.629677852
1715828917080438280,-0.009,,,,21.637372638
1715828917088133066,-0.004,,,,21.645067424
1715828917095827852,-0.002,,,,21.65276221
1715828917103522638,-0.002,,,,21.660456996
1715828917111217424,0.002,,,,21.668151782
1715828917118912210,0.004,,,,21.675846568
1715828917126606996,0.002,,,,21.683541354
1715828917134301782,0.004,,,,21.69123614
1715828917141996568,0.012,,,,21.698930926
1715828917149691354,0.016,,,,21.706625712
1715828917157386140,0.014,,,,21.714320498
1715828917165080926,0.016,,,,21.722015284
1715828917172775712,0.024,,,,21.72971007
1715828917180470498,0.031,,,,21.737404856
1715828917188165284,0.033,,,,21.745099642
1715828917195860070,0.033,,,,21.752794428
1715828917203554856,0.038,,,,21.760489214
1715828917211249642,0.038,,,,21.768184
1715828917218944428,0.038,,,,21.775878786
1715828917226639214,0.048,,,,21.783573572
1715828917234334000,0.055,,,,21.791268358
1715828917242028786,0.055,,,,21.798963144
1715828917249723572,0.058,,,,21.80665793
1715828917257418358,0.058,,,,21.814352716
1715828917265113144,0.062,,,,21.822047502
1715828917272807930,0.067,,,,21.829742288
1715828917280502716,0.067,,,,21.837437074
1715828917288197502,0.07,,,,21.84513186
1715828917295892288,0.07,,,,21.852826646
1715828917303587074,0.065,,,,21.860521432
1715828917311281860,0.062,,,,21.868216218
1715828917318976646,0.067,,,,21.875911004
1715828917326671432,0.072,,,,21.88360579
1715828917334366218,0.072,,,,21.891300576
1715828917342061004,0.074,,,,21.898995362
1715828917349755806,0.077,72.0,910.0,,21.906690164
1715828917357450592,0.079,,,,21.91438495
1715828917365145378,0.082,,,,21.922079736
1715828917372840164,0.089,,,,21.929774522
1715828917380534950,0.087,,,,21.937469308
1715828917388229736,0.079,,,,21.945164094
1715828917395924522,0.07,,,,21.95285888
1715828917403619308,0.065,,,,21.960553666
1715828917411314094,0.062,,,,21.968248452
1715828917419008880,0.062,,,,21.975943238
1715828917426703666,0.062,,,,21.983638024
1715828917434398452,0.062,,,,21.99133281
1715828917442093238,0.07,,,,21.999027596
1715828917449788024,0.084,,,,22.006722382
1715828917457482810,0.099,,,,22.014417168
1715828917465177596,0.128,,,,22.022111954
1715828917472872382,0.14,,,,22.02980674
1715828917480567168,0.103,,,,22.037501526
1715828917488261954,0.07,,,,22.045196312
1715828917495956740,0.077,,,,22.052891098
1715828917503651526,0.091,,,,22.060585884
1715828917511346312,0.091,,,,22.06828067
1715828917519041098,0.094,,,,22.075975456
1715828917526735884,0.096,,,,22.083670242
1715828917534430670,0.082,,,,22.091365028
1715828917542125456,0.089,,,,22.099059814
1715828917549820242,0.282,,,,22.1067546
1715828917557515028,0.867,,,,22.114449386
