HRV_ULF,HRV_VLF,HRV_LF,HRV_HF,HRV_VHF,HRV_TP,HRV_LFHF,HRV_LFn,HRV_HFn,HRV_LnHF,time
,,0.05332803389720672,0.030273614274438813,0.004489755618881188,0.08809140379052673,1.761535091706366,0.6053715981642873,0.34366139000834506,-3.497478761872473,0.0
,,0.05332803389720672,0.030273614274438813,0.004489755618881188,0.08809140379052673,1.761535091706366,0.6053715981642873,0.34366139000834506,-3.497478761872473,0.1
,,0.05332803389720672,0.030273614274438813,0.004489755618881188,0.08809140379052673,1.761535091706366,0.6053715981642873,0.34366139000834506,-3.497478761872473,0.2
,,0.05401885253763982,0.030179721122986582,0.0038137336445939547,0.08801230730522036,1.7686277245217745,0.6137647584934494,0.342903419385717,-3.5005850661428286,0.3
,,0.05401885253763982,0.030179721122986582,0.0038137336445939547,0.08801230730522036,1.7728833042110197,0.6137647584934494,0.342903419385717,-3.5005850661428286,0.4
,,0.054063014658740347,0.03126920952852038,0.004408040922489227,0.08974026510974994,1.7655616989697325,0.602438766952858,0.34844124307276086,-3.4651213867407504,0.5
,,0.054063014658740347,0.03126920952852038,0.004408040922489227,0.08974026510974994,1.7603319809402413,0.602438766952858,0.34844124307276086,-3.4651213867407504,0.6
,,0.054063014658740347,0.03126920952852038,0.004408040922489227,0.08974026510974994,1.7564096924181232,0.602438766952858,0.34844124307276086,-3.4651213867407504,0.7
,,0.054063014658740347,0.03126920952852038,0.004408040922489227,0.08974026510974994,1.7533590235675867,0.602438766952858,0.34844124307276086,-3.4651213867407504,0.8
,,0.05480259088968166,0.03109043130559829,0.004100021747941423,0.08999304394322137,1.7542914732031456,0.6089647431445684,0.3454759383982382,-3.470855182199779,0.9
,,0.05480259088968166,0.03109043130559829,0.004100021747941423,0.08999304394322137,1.7550543865413302,0.6089647431445684,0.3454759383982382,-3.470855182199779,1.0
,,0.05480259088968166,0.03109043130559829,0.004100021747941423,0.08999304394322137,1.7556901476564837,0.6089647431445684,0.3454759383982382,-3.470855182199779,1.1
,,0.05428876210416323,0.03189502323701808,0.004287595123254152,0.09047138046443547,1.7515684147896349,0.6000655878739939,0.3525426833688704,-3.4453052927411227,1.2
,,0.05428876210416323,0.03189502323701808,0.004287595123254152,0.09047138046443547,1.7480355009037645,0.6000655878739939,0.3525426833688704,-3.4453052927411227,1.3
,,0.05428876210416323,0.03189502323701808,0.004287595123254152,0.09047138046443547,1.7449736422026767,0.6000655878739939,0.3525426833688704,-3.4453052927411227,1.4
,,0.05428876210416323,0.03189502323701808,0.004287595123254152,0.09047138046443547,1.742294515839225,0.6000655878739939,0.3525426833688704,-3.4453052927411227,1.5
,,0.05546079685038138,0.031847724837704545,0.003997930067167553,0.09130645175525348,1.7422440560959842,0.6074137783718043,0.3488003774702824,-3.446789333182518,1.6
,,0.05546079685038138,0.031847724837704545,0.003997930067167553,0.09130645175525348,1.7421992029908813,0.6074137783718043,0.3488003774702824,-3.446789333182518,1.7
,,0.053683186445585604,0.03192233866236459,0.004106813413667956,0.08971233852161815,1.7390140278859194,0.5983924544855049,0.35582996930430255,-3.4444492427195725,1.8
,,0.053683186445585604,0.03192233866236459,0.004106813413667956,0.08971233852161815,1.7361473702914538,0.5983924544855049,0.35582996930430255,-3.4444492427195725,1.9
,,0.053683186445585604,0.03192233866236459,0.004106813413667956,0.08971233852161815,1.7335537277059847,0.5983924544855049,0.35582996930430255,-3.4444492427195725,2.0
,,0.053683186445585604,0.03192233866236459,0.004106813413667956,0.08971233852161815,1.7311958708101038,0.5983924544855049,0.35582996930430255,-3.4444492427195725,2.1
,,0.054527890605356,0.03152863386505519,0.003802343938559043,0.08985886840897023,1.7311209214739274,0.6068170184069747,0.3508683608340189,-3.4568591344623285,2.2
,,0.054527890605356,0.03152863386505519,0.003802343938559043,0.08985886840897023,1.7310522179157652,0.6068170184069747,0.3508683608340189,-3.4568591344623285,2.3
,,0.05280127972603915,0.03157798305229331,0.003924520008568719,0.08830378278690118,1.7286937925903019,0.5979503715425383,0.3576062322097659,-3.455295140076063,2.4
,,0.05280127972603915,0.03157798305229331,0.003924520008568719,0.08830378278690118,1.7265167845975662,0.5979503715425383,0.3576062322097659,-3.455295140076063,2.5
,,0.05280127972603915,0.03157798305229331,0.003924520008568719,0.08830378278690118,1.7245010364561446,0.5979503715425383,0.3576062322097659,-3.455295140076063,2.6
,,0.05280127972603915,0.03157798305229331,0.003924520008568719,0.08830378278690118,1.722629270324824,0.5979503715425383,0.3576062322097659,-3.455295140076063,2.7
,,0.05350559908418854,0.030852532145622235,0.0035932735930930054,0.08795140482290377,1.723029532722795,0.6083541154564359,0.35079066909443846,-3.4785364527244327,2.8
,,0.05350559908418854,0.030852532145622235,0.0035932735930930054,0.08795140482290377,1.723403110960901,0.6083541154564359,0.35079066909443846,-3.4785364527244327,2.9
,,0.05350559908418854,0.030852532145622235,0.0035932735930930054,0.08795140482290377,1.7237525873771935,0.6083541154564359,0.35079066909443846,-3.4785364527244327,3.0
,,0.05192372085984279,0.03088330674345404,0.0037280243738493767,0.08653505197714621,1.7224255567089308,0.6000310818967991,0.35688782797068497,-3.4775394758975313,3.1
,,0.05192372085984279,0.03088330674345404,0.0037280243738493767,0.08653505197714621,1.7211789521417749,0.6000310818967991,0.35688782797068497,-3.4775394758975313,3.2
,,0.05192372085984279,0.03088330674345404,0.0037280243738493767,0.08653505197714621,1.72000567725504,0.6000310818967991,0.35688782797068497,-3.4775394758975313,3.3
,,0.05244941191674142,0.030011973641035923,0.0034252617841650066,0.08588664734194236,1.7207945498929529,0.6106817944345114,0.349437014598423,-3.506158855579864,3.4
,,0.05244941191674142,0.030011973641035923,0.0034252617841650066,0.08588664734194236,1.7215395962732039,0.6106817944345114,0.349437014598423,-3.506158855579864,3.5
,,0.05244941191674142,0.030011973641035923,0.0034252617841650066,0.08588664734194236,1.7222443698761438,0.6106817944345114,0.349437014598423,-3.506158855579864,3.6
,,0.05084132317217949,0.030052149796768245,0.0035932832502927068,0.08448675621924044,1.7214424107692925,0.6017667791653389,0.35570249281181865,-3.504821079901986,3.7
,,0.05084132317217949,0.030052149796768245,0.0035932832502927068,0.08448675621924044,1.720681577770485,0.6017667791653389,0.35570249281181865,-3.504821079901986,3.8
,,0.05084132317217949,0.030052149796768245,0.0035932832502927068,0.08448675621924044,1.7199587864216177,0.6017667791653389,0.35570249281181865,-3.504821079901986,3.9
,,0.051422388974175254,0.028952111134410374,0.003271804813203438,0.08364630492178907,1.7213285429250487,0.6147598393289003,0.3461254046007312,-3.542112154153513,4.0
,,0.051422388974175254,0.028952111134410374,0.003271804813203438,0.08364630492178907,1.7226330729283164,0.6147598393289003,0.3461254046007312,-3.542112154153513,4.1
,,0.051422388974175254,0.028952111134410374,0.003271804813203438,0.08364630492178907,1.723876927117478,0.6147598393289003,0.3461254046007312,-3.542112154153513,4.2
,,0.049874533323516046,0.02900502597505338,0.0034643545397568466,0.08234391383832627,1.7237777579993159,0.6056857270768002,0.35224249884456227,-3.5402861545274176,4.3
,,0.049874533323516046,0.02900502597505338,0.0034643545397568466,0.08234391383832627,1.7236829963975164,0.6056857270768002,0.35224249884456227,-3.5402861545274176,4.4
,,0.049874533323516046,0.02900502597505338,0.0034643545397568466,0.08234391383832627,1.7235923548653604,0.6056857270768002,0.35224249884456227,-3.5402861545274176,4.5
,,0.05047110749624836,0.02778516025896763,0.0031577915024518345,0.08141405925766783,1.7255686261655558,0.6199311022745109,0.3412820895102431,-3.5832532044436856,4.6
,,0.05047110749624836,0.02778516025896763,0.0031577915024518345,0.08141405925766783,1.727462552828243,0.6199311022745109,0.3412820895102431,-3.5832532044436856,4.7
,,0.05047110749624836,0.02778516025896763,0.0031577915024518345,0.08141405925766783,1.729279176361841,0.6199311022745109,0.3412820895102431,-3.5832532044436856,4.8
,,0.04899531337944349,0.027847832829118412,0.0033672818498273727,0.08021042805838928,1.7298814752670302,0.6108347077237549,0.34718469285373404,-3.5810001314672304,4.9
,,0.04899531337944349,0.027847832829118412,0.0033672818498273727,0.08021042805838928,1.73046015460731,0.6108347077237549,0.34718469285373404,-3.5810001314672304,5.0
,,0.04899531337944349,0.027847832829118412,0.0033672818498273727,0.08021042805838928,1.7310165770498867,0.6108347077237549,0.34718469285373404,-3.5810001314672304,5.1
,,0.04960586461968715,0.026571435658140907,0.003085756320009683,0.07926305659783774,1.7335801676763727,0.6258384012538872,0.33523102437189845,-3.627918487620057,5.2
,,0.04960586461968715,0.026571435658140907,0.003085756320009683,0.07926305659783774,1.7360488105018776,0.6258384012538872,0.33523102437189845,-3.627918487620057,5.3
,,0.04960586461968715,0.026571435658140907,0.003085756320009683,0.07926305659783774,1.7384276844973643,0.6258384012538872,0.33523102437189845,-3.627918487620057,5.4
,,0.04818304545560828,0.026625540138757377,0.0033082610620489873,0.07811684665641463,1.7396996032706638,0.6168073535729657,0.3408424850514751,-3.6258843682566386,5.5
,,0.04818304545560828,0.026625540138757377,0.0033082610620489873,0.07811684665641463,1.7409268933150757,0.6168073535729657,0.3408424850514751,-3.6258843682566386,5.6
,,0.04818304545560828,0.026625540138757377,0.0033082610620489873,0.07811684665641463,1.7421118630131285,0.6168073535729657,0.3408424850514751,-3.6258843682566386,5.7
,,0.04881205764531309,0.025336012243497786,0.0030512940150709653,0.07719936390388184,1.745238577526567,0.6322857492205147,0.3281893912369893,-3.6755284865008178,5.8
,,0.04881205764531309,0.025336012243497786,0.0030512940150709653,0.07719936390388184,1.7482610682228912,0.6322857492205147,0.3281893912369893,-3.6755284865008178,5.9
,,0.04881205764531309,0.025336012243497786,0.0030512940150709653,0.07719936390388184,1.7511844608635978,0.6322857492205147,0.3281893912369893,-3.6755284865008178,6.0
,,0.04732764545107004,0.02541218102878443,0.0032968814437646992,0.07603670792361916,1.752978259566522,0.6224315431779592,0.3342093802155614,-3.672526651851279,6.1
,,0.04732764545107004,0.02541218102878443,0.0032968814437646992,0.07603670792361916,1.7547151122788769,0.6224315431779592,0.3342093802155614,-3.672526651851279,6.2
,,0.04732764545107004,0.02541218102878443,0.0032968814437646992,0.07603670792361916,1.7563976883439707,0.6224315431779592,0.3342093802155614,-3.672526651851279,6.3
,,0.04807829629129082,0.024124983596361404,0.0030615490020647748,0.075264828889717,1.7600359408752058,0.6387883557370244,0.32053462357180035,-3.7245073117008873,6.4
,,0.04807829629129082,0.024124983596361404,0.0030615490020647748,0.075264828889717,1.763563943329737,0.6387883557370244,0.32053462357180035,-3.7245073117008873,6.5
,,0.04807829629129082,0.024124983596361404,0.0030615490020647748,0.075264828889717,1.7669866322781627,0.6387883557370244,0.32053462357180035,-3.7245073117008873,6.6
,,0.04473036275537786,0.02084448246187584,0.0019754479794398417,0.06755029319669355,1.772559020208167,0.6621786618324748,0.3085772315033584,-3.870665995883916,6.7
,,0.04473036275537786,0.02084448246187584,0.0019754479794398417,0.06755029319669355,1.7779698896474467,0.6621786618324748,0.3085772315033584,-3.870665995883916,6.8
,,0.04473036275537786,0.02084448246187584,0.0019754479794398417,0.06755029319669355,1.7832261628170325,0.6621786618324748,0.3085772315033584,-3.870665995883916,6.9
,,0.047514071219644766,0.022939787213460915,0.0031009756655682058,0.07355483409867389,1.7872828592689427,0.6459680291835692,0.3118732778689592,-3.7748824431102923,7.0
,,0.047514071219644766,0.022939787213460915,0.0031009756655682058,0.07355483409867389,1.7912268697082996,0.6459680291835692,0.3118732778689592,-3.7748824431102923,7.1
,,0.047514071219644766,0.022939787213460915,0.0031009756655682058,0.07355483409867389,1.7950628250671261,0.6459680291835692,0.3118732778689592,-3.7748824431102923,7.2
,,0.04599671312854228,0.023103075178141683,0.0033805997762712476,0.07248038808295522,1.7977097417576278,0.6346090900603091,0.31874933053200216,-3.7677895457198036,7.3
,,0.04599671312854228,0.023103075178141683,0.0033805997762712476,0.07248038808295522,1.8002860740030489,0.6346090900603091,0.31874933053200216,-3.7677895457198036,7.4
,,0.04599671312854228,0.023103075178141683,0.0033805997762712476,0.07248038808295522,1.8027946080314856,0.6346090900603091,0.31874933053200216,-3.7677895457198036,7.5
,,0.04716873322281749,0.0218933508050101,0.003177952012570509,0.07224003604039811,1.8073619192147785,0.6529444863017478,0.30306395186135965,-3.821572304469999,7.6
,,0.04716873322281749,0.0218933508050101,0.003177952012570509,0.07224003604039811,1.8118121198549098,0.6529444863017478,0.30306395186135965,-3.821572304469999,7.7
,,0.04716873322281749,0.0218933508050101,0.003177952012570509,0.07224003604039811,1.8161496571876963,0.6529444863017478,0.30306395186135965,-3.821572304469999,7.8
,,0.04403535506794205,0.01792526483976761,0.0023010931905782066,0.06426171309828788,1.8241553906990429,0.68525025158589,0.27894159641139715,-4.021544117723168,7.9
,,0.04403535506794205,0.01792526483976761,0.0023010931905782066,0.06426171309828788,1.8319634517780108,0.68525025158589,0.27894159641139715,-4.021544117723168,8.0
,,0.04403535506794205,0.01792526483976761,0.0023010931905782066,0.06426171309828788,1.8395810723428574,0.68525025158589,0.27894159641139715,-4.021544117723168,8.1
,,0.04712897851304258,0.02104873389487315,0.003279910559566321,0.07145762296748205,1.84439384274124,0.6595374510916685,0.294562469625553,-3.8609148681746452,8.2
,,0.04712897851304258,0.02104873389487315,0.003279910559566321,0.07145762296748205,1.8490920233682326,0.6595374510916685,0.294562469625553,-3.8609148681746452,8.3
,,0.04712897851304258,0.02104873389487315,0.003279910559566321,0.07145762296748205,1.8536796585687076,0.6595374510916685,0.294562469625553,-3.8609148681746452,8.4
,,0.04571905451275737,0.021246208725415713,0.0035537115030197354,0.07051897474119283,1.8571469746255131,0.6483227341371304,0.3012835737245197,-3.851576812450803,8.5
,,0.04571905451275737,0.021246208725415713,0.0035537115030197354,0.07051897474119283,1.8605345822672197,0.6483227341371304,0.3012835737245197,-3.851576812450803,8.6
,,0.04571905451275737,0.021246208725415713,0.0035537115030197354,0.07051897474119283,1.8638451988261602,0.6483227341371304,0.3012835737245197,-3.851576812450803,8.7
,,0.04736560961951443,0.02045818659105921,0.0034037058529519833,0.07122750206352561,1.8689170492595863,0.6649904636171363,0.28722313710809605,-3.8893721542997364,8.8
,,0.04736560961951443,0.02045818659105921,0.0034037058529519833,0.07122750206352561,1.873876191905603,0.6649904636171363,0.28722313710809605,-3.8893721542997364,8.9
,,0.04736560961951443,0.02045818659105921,0.0034037058529519833,0.07122750206352561,1.880028467413322,0.6649904636171363,0.28722313710809605,-3.8893721542997364,9.0
,,0.04584539941971434,0.02073191597382472,0.0036971479224132803,0.07027446331595234,1.8850263449345144,0.6523763719630913,0.29501350840083274,-3.8760809316329503,9.1
,,0.04584539941971434,0.02073191597382472,0.0036971479224132803,0.07027446331595234,1.890024222455707,0.6523763719630913,0.29501350840083274,-3.8760809316329503,9.2
,,0.04584539941971434,0.02073191597382472,0.0036971479224132803,0.07027446331595234,1.8947068718517701,0.6523763719630913,0.29501350840083274,-3.8760809316329503,9.3
,,0.04770585312201085,0.020182597951712553,0.003562696594935209,0.07145114766865861,1.9010825005492393,0.6676709147239714,0.2824670926953559,-3.902934533407609,9.4
,,0.04770585312201085,0.020182597951712553,0.003562696594935209,0.07145114766865861,1.9081353731378716,0.6676709147239714,0.2824670926953559,-3.902934533407609,9.5
,,0.04770585312201085,0.020182597951712553,0.003562696594935209,0.07145114766865861,1.9151882457265048,0.6676709147239714,0.2824670926953559,-3.902934533407609,9.6
,,0.04770585312201085,0.020182597951712553,0.003562696594935209,0.07145114766865861,1.922241118315137,0.6676709147239714,0.2824670926953559,-3.902934533407609,9.7
,,0.04611426146359697,0.020472307494873852,0.003856336168408246,0.07044290512687906,1.9280585107626769,0.654633158307962,0.29062270299613446,-3.888682159972024,9.8
,,0.04611426146359697,0.020472307494873852,0.003856336168408246,0.07044290512687906,1.9335011271306626,0.654633158307962,0.29062270299613446,-3.888682159972024,9.9
,,0.04611426146359697,0.020472307494873852,0.003856336168408246,0.07044290512687906,1.9389437434986485,0.654633158307962,0.29062270299613446,-3.888682159972024,10.0
,,0.048287649151539574,0.020145444800078533,0.0037428627397513544,0.07217595669136946,1.9459911627527129,0.6690267973588723,0.2791157294418995,-3.90477708065811,10.1
,,0.048287649151539574,0.020145444800078533,0.0037428627397513544,0.07217595669136946,1.9537116475571743,0.6690267973588723,0.2791157294418995,-3.90477708065811,10.2
,,0.048287649151539574,0.020145444800078533,0.0037428627397513544,0.07217595669136946,1.961432132361636,0.6690267973588723,0.2791157294418995,-3.90477708065811,10.3
,,0.045537249104438265,0.013464497046591669,0.0031928293831896075,0.06219457553421954,1.9800978673918002,0.7321739671554413,0.21648989370758684,-4.307698906064426,10.4
,,0.045537249104438265,0.013464497046591669,0.0031928293831896075,0.06219457553421954,1.998763602421965,0.7321739671554413,0.21648989370758684,-4.307698906064426,10.5
,,0.045537249104438265,0.013464497046591669,0.0031928293831896075,0.06219457553421954,2.0169923476763887,0.7321739671554413,0.21648989370758684,-4.307698906064426,10.6
,,0.04310419339595263,0.020427735091075632,0.003936630285817367,0.06746855877284563,2.0210884050832707,0.6388782297999963,0.30277414343252984,-3.8908617382132875,10.7
,,0.04310419339595263,0.020427735091075632,0.003936630285817367,0.06746855877284563,2.025848416092458,0.6388782297999963,0.30277414343252984,-3.8908617382132875,10.8
,,0.04310419339595263,0.020427735091075632,0.003936630285817367,0.06746855877284563,2.030608427101646,0.6388782297999963,0.30277414343252984,-3.8908617382132875,10.9
,,0.04310419339595263,0.020427735091075632,0.003936630285817367,0.06746855877284563,2.0353684381108335,0.6388782297999963,0.30277414343252984,-3.8908617382132875,11.0
,,0.04733017092712582,0.02069082830389856,0.0041965168145637706,0.07221751604558815,2.0420997086449315,0.6553835346157308,0.2865070614009658,-3.8780647540048285,11.1
,,0.04733017092712582,0.02069082830389856,0.0041965168145637706,0.07221751604558815,2.048299966289236,0.6553835346157308,0.2865070614009658,-3.8780647540048285,11.2
,,0.04886035251556273,0.012577680966304055,0.003418402513458385,0.06485643599532517,2.0722467981400805,0.7533616635839281,0.19393111528994053,-4.375831387604192,11.3
,,0.04886035251556273,0.012577680966304055,0.003418402513458385,0.06485643599532517,2.0968311905609127,0.7533616635839281,0.19393111528994053,-4.375831387604192,11.4
,,0.04886035251556273,0.012577680966304055,0.003418402513458385,0.06485643599532517,2.121415582981745,0.7533616635839281,0.19393111528994053,-4.375831387604192,11.5
,,0.04886035251556273,0.012577680966304055,0.003418402513458385,0.06485643599532517,2.145999975402577,0.7533616635839281,0.19393111528994053,-4.375831387604192,11.6
,,0.04732539523999222,0.012342862672293134,0.003689889904704128,0.06335814781698948,2.1700237543823935,0.7469504218572173,0.1948109769235299,-4.394677304240829,11.7
,,0.04732539523999222,0.012342862672293134,0.003689889904704128,0.06335814781698948,2.193357030083468,0.7469504218572173,0.1948109769235299,-4.394677304240829,11.8
,,0.04993769844821842,0.021337227407139434,0.004213150299370554,0.07548807615472841,2.2000922026414664,0.6615309462366055,0.2826569240339942,-3.847301966238347,11.9
,,0.04993769844821842,0.021337227407139434,0.004213150299370554,0.07548807615472841,2.2068273751994645,0.6615309462366055,0.2826569240339942,-3.847301966238347,12.0
,,0.04993769844821842,0.021337227407139434,0.004213150299370554,0.07548807615472841,2.2141508730227204,0.6615309462366055,0.2826569240339942,-3.847301966238347,12.1
,,0.04993769844821842,0.021337227407139434,0.004213150299370554,0.07548807615472841,2.2214743708459763,0.6615309462366055,0.2826569240339942,-3.847301966238347,12.2
,,0.04993769844821842,0.021337227407139434,0.004213150299370554,0.07548807615472841,2.2287978686692322,0.6615309462366055,0.2826569240339942,-3.847301966238347,12.3
,,0.04915971073043382,0.0218900749538205,0.0045204704590061755,0.0755702561432605,2.234332726471367,0.6505166614393959,0.28966522109337456,-3.8217219433408247,12.4
,,0.04338981232877948,0.012044337183875849,0.0038327599993670815,0.05926690951202241,2.2549426270883344,0.7321085692848177,0.20322195442690716,-4.419160672750225,12.5
,,0.04338981232877948,0.012044337183875849,0.0038327599993670815,0.05926690951202241,2.2755525277053024,0.7321085692848177,0.20322195442690716,-4.419160672750225,12.6
,,0.04338981232877948,0.012044337183875849,0.0038327599993670815,0.05926690951202241,2.296782942719672,0.7321085692848177,0.20322195442690716,-4.419160672750225,12.7
,,0.04338981232877948,0.012044337183875849,0.0038327599993670815,0.05926690951202241,2.3180133577340416,0.7321085692848177,0.20322195442690716,-4.419160672750225,12.8
,,0.05006357907859495,0.01206749842951159,0.0041293442109476145,0.06626042171905415,2.3453117966432537,0.7555578093188989,0.18212227022457067,-4.41723952057162,12.9
,,0.05032168590660076,0.02279713460877848,0.0046641864840331684,0.0777830069994124,2.350103464368519,0.646949608247736,0.29308631137069174,-3.781120425973089,13.0
,,0.05072488637157086,0.02270931385276691,0.004365714863281239,0.07779991508761902,2.355187255637009,0.6519915389938923,0.2918938128298914,-3.784980136761576,13.1
,,0.05072488637157086,0.02270931385276691,0.004365714863281239,0.07779991508761902,2.3602710469054995,0.6519915389938923,0.2918938128298914,-3.784980136761576,13.2
,,0.05072488637157086,0.02270931385276691,0.004365714863281239,0.07779991508761902,2.3659837861422552,0.6519915389938923,0.2918938128298914,-3.784980136761576,13.3
,,0.05072488637157086,0.02270931385276691,0.004365714863281239,0.07779991508761902,2.3716965253790114,0.6519915389938923,0.2918938128298914,-3.784980136761576,13.4
,,0.05072488637157086,0.02270931385276691,0.004365714863281239,0.07779991508761902,2.377409264615767,0.6519915389938923,0.2918938128298914,-3.784980136761576,13.5
,,0.05072488637157086,0.02270931385276691,0.004365714863281239,0.07779991508761902,2.3820446302963436,0.6519915389938923,0.2918938128298914,-3.784980136761576,13.6
,,0.05124335463059628,0.023581812259717738,0.004402276488926703,0.07922744337924072,2.3860060318727565,0.6467879366661873,0.2976470179258198,-3.7472795310281297,13.7
,,0.05124335463059628,0.023581812259717738,0.004402276488926703,0.07922744337924072,2.38996743344917,0.6467879366661873,0.2976470179258198,-3.7472795310281297,13.8
,,0.05124335463059628,0.023581812259717738,0.004402276488926703,0.07922744337924072,2.394563090407286,0.6467879366661873,0.2976470179258198,-3.7472795310281297,13.9
,,0.05124335463059628,0.023581812259717738,0.004402276488926703,0.07922744337924072,2.3991587473654015,0.6467879366661873,0.2976470179258198,-3.7472795310281297,14.0
,,0.05124335463059628,0.023581812259717738,0.004402276488926703,0.07922744337924072,2.4037544043235175,0.6467879366661873,0.2976470179258198,-3.7472795310281297,14.1
,,0.05124335463059628,0.023581812259717738,0.004402276488926703,0.07922744337924072,2.4071556972968295,0.6467879366661873,0.2976470179258198,-3.7472795310281297,14.2
,,0.05124335463059628,0.023581812259717738,0.004402276488926703,0.07922744337924072,2.4105569902701416,0.6467879366661873,0.2976470179258198,-3.7472795310281297,14.3
,,0.05206081986534149,0.012325442557725219,0.0042136188999438405,0.06859988132301055,2.436745468763531,0.7589053925648507,0.1796714851398858,-4.3960896523775315,14.4
,,0.05206081986534149,0.012325442557725219,0.0042136188999438405,0.06859988132301055,2.4635698555286036,0.7589053925648507,0.1796714851398858,-4.3960896523775315,14.5
,,0.05206081986534149,0.012325442557725219,0.0042136188999438405,0.06859988132301055,2.4903942422936765,0.7589053925648507,0.1796714851398858,-4.3960896523775315,14.6
,,0.05206081986534149,0.012325442557725219,0.0042136188999438405,0.06859988132301055,2.517218629058749,0.7589053925648507,0.1796714851398858,-4.3960896523775315,14.7
,,0.05206081986534149,0.012325442557725219,0.0042136188999438405,0.06859988132301055,2.542743761562668,0.7589053925648507,0.1796714851398858,-4.3960896523775315,14.8
,,0.05206081986534149,0.012325442557725219,0.0042136188999438405,0.06859988132301055,2.5682688940665863,0.7589053925648507,0.1796714851398858,-4.3960896523775315,14.9
,,0.05241268220170135,0.025464363536346873,0.0044353840040827425,0.08231242974213097,2.569732091181486,0.6367529468623416,0.30936231157459243,-3.670475312621891,15.0
,,0.05241268220170135,0.025464363536346873,0.0044353840040827425,0.08231242974213097,2.5719084887281762,0.6367529468623416,0.30936231157459243,-3.670475312621891,15.1
,,0.05241268220170135,0.025464363536346873,0.0044353840040827425,0.08231242974213097,2.5740848862748664,0.6367529468623416,0.30936231157459243,-3.670475312621891,15.2
,,0.05241268220170135,0.025464363536346873,0.0044353840040827425,0.08231242974213097,2.576261283821556,0.6367529468623416,0.30936231157459243,-3.670475312621891,15.3
,,0.05241268220170135,0.025464363536346873,0.0044353840040827425,0.08231242974213097,2.5769878577856975,0.6367529468623416,0.30936231157459243,-3.670475312621891,15.4
,,0.05241268220170135,0.025464363536346873,0.0044353840040827425,0.08231242974213097,2.5777144317498393,0.6367529468623416,0.30936231157459243,-3.670475312621891,15.5
,,0.05300895137464369,0.026092803184917822,0.003928539307851765,0.08303029386741327,2.5781441026785723,0.6384290468643999,0.3142564234035357,-3.6460957427182272,15.6
,,0.05310417750935904,0.026469556417104252,0.004435195161742005,0.08400892908820531,2.5765921805472067,0.632125395308899,0.31508027425647217,-3.6317600208320036,15.7
,,0.05310417750935904,0.026469556417104252,0.004435195161742005,0.08400892908820531,2.5750402584158416,0.632125395308899,0.31508027425647217,-3.6317600208320036,15.8
,,0.05310417750935904,0.026469556417104252,0.004435195161742005,0.08400892908820531,2.5734883362844765,0.632125395308899,0.31508027425647217,-3.6317600208320036,15.9
,,0.05310417750935904,0.026469556417104252,0.004435195161742005,0.08400892908820531,2.5727659408266206,0.632125395308899,0.31508027425647217,-3.6317600208320036,16.0
,,0.05310417750935904,0.026469556417104252,0.004435195161742005,0.08400892908820531,2.5720435453687642,0.632125395308899,0.31508027425647217,-3.6317600208320036,16.1
,,0.05310417750935904,0.026469556417104252,0.004435195161742005,0.08400892908820531,2.571321149910908,0.632125395308899,0.31508027425647217,-3.6317600208320036,16.2
,,0.05388421165860454,0.027489631534098165,0.004455173941893392,0.08582901713459609,2.5709792640148765,0.6278087930810617,0.3202836575768919,-3.593946380528928,16.3
,,0.05388421165860454,0.027489631534098165,0.004455173941893392,0.08582901713459609,2.5706373781188447,0.6278087930810617,0.3202836575768919,-3.593946380528928,16.4
,,0.05388421165860454,0.027489631534098165,0.004455173941893392,0.08582901713459609,2.5702954922228134,0.6278087930810617,0.3202836575768919,-3.593946380528928,16.5
,,0.05388421165860454,0.027489631534098165,0.004455173941893392,0.08582901713459609,2.5681364628936616,0.6278087930810617,0.3202836575768919,-3.593946380528928,16.6
,,0.05388421165860454,0.027489631534098165,0.004455173941893392,0.08582901713459609,2.5659774335645102,0.6278087930810617,0.3202836575768919,-3.593946380528928,16.7
,,0.05388421165860454,0.027489631534098165,0.004455173941893392,0.08582901713459609,2.5638184042353585,0.6278087930810617,0.3202836575768919,-3.593946380528928,16.8
,,0.04440601292452052,0.028478493309045713,0.004507115832713015,0.07739162206627925,2.5538481158506148,0.5737832046793204,0.36797902083840983,-3.558606097312319,16.9
,,0.04440601292452052,0.028478493309045713,0.004507115832713015,0.07739162206627925,2.543877827465871,0.5737832046793204,0.36797902083840983,-3.558606097312319,17.0
,,0.04440601292452052,0.028478493309045713,0.004507115832713015,0.07739162206627925,2.5339075390811274,0.5737832046793204,0.36797902083840983,-3.558606097312319,17.1
,,0.04440601292452052,0.028478493309045713,0.004507115832713015,0.07739162206627925,2.526354665392904,0.5737832046793204,0.36797902083840983,-3.558606097312319,17.2
,,0.04440601292452052,0.028478493309045713,0.004507115832713015,0.07739162206627925,2.5188017917046803,0.5737832046793204,0.36797902083840983,-3.558606097312319,17.3
,,0.04440601292452052,0.028478493309045713,0.004507115832713015,0.07739162206627925,2.5112489180164568,0.5737832046793204,0.36797902083840983,-3.558606097312319,17.4
,,0.05546492015525123,0.029287803976917104,0.004039138675631458,0.0887918628077998,2.5083813639221275,0.6246621976533078,0.3298478379749046,-3.5305840961353465,17.5
,,0.05578984960917038,0.029486127479206897,0.004585142369984584,0.08986111945836187,2.505494722355624,0.620845254827047,0.32812998165318447,-3.5238353811830336,17.6
,,0.05578984960917038,0.029486127479206897,0.004585142369984584,0.08986111945836187,2.5026080807891207,0.620845254827047,0.32812998165318447,-3.5238353811830336,17.7
,,0.05578984960917038,0.029486127479206897,0.004585142369984584,0.08986111945836187,2.4979062053565384,0.620845254827047,0.32812998165318447,-3.5238353811830336,17.8
,,0.05578984960917038,0.029486127479206897,0.004585142369984584,0.08986111945836187,2.4932043299239557,0.620845254827047,0.32812998165318447,-3.5238353811830336,17.9
,,0.05578984960917038,0.029486127479206897,0.004585142369984584,0.08986111945836187,2.488502454491374,0.620845254827047,0.32812998165318447,-3.5238353811830336,18.0
,,0.05690127190888482,0.030516242268069076,0.004650370489653209,0.0920678846666071,2.484649992603467,0.6180360514954117,0.3314537135133862,-3.4894962037350368,18.1
,,0.05561682932456871,0.016041489416261823,0.005127045078068181,0.07678536381889872,2.498602407792108,0.7243155017894188,0.20891337383119393,-4.13257682447923,18.2
,,0.05561682932456871,0.016041489416261823,0.005127045078068181,0.07678536381889872,2.512554822980749,0.7243155017894188,0.20891337383119393,-4.13257682447923,18.3
,,0.05561682932456871,0.016041489416261823,0.005127045078068181,0.07678536381889872,2.524814258867984,0.7243155017894188,0.20891337383119393,-4.13257682447923,18.4
,,0.05561682932456871,0.016041489416261823,0.005127045078068181,0.07678536381889872,2.5370736947552195,0.7243155017894188,0.20891337383119393,-4.13257682447923,18.5
,,0.05561682932456871,0.016041489416261823,0.005127045078068181,0.07678536381889872,2.549333130642454,0.7243155017894188,0.20891337383119393,-4.13257682447923,18.6
,,0.05782464468492458,0.03160717680867747,0.0042414993633445525,0.0936733208569466,2.543397198563573,0.6173011072515684,0.3374191981188159,-3.454371069977142,18.7
,,0.05782464468492458,0.03160717680867747,0.0042414993633445525,0.0936733208569466,2.538696746625784,0.6173011072515684,0.3374191981188159,-3.454371069977142,18.8
,,0.05514631180854483,0.016669552937094947,0.005307598307946242,0.07712346305358603,2.5504266001021785,0.7150393618895032,0.2161411362650145,-4.0941714009896755,18.9
,,0.05514631180854483,0.016669552937094947,0.005307598307946242,0.07712346305358603,2.562156453578573,0.7150393618895032,0.2161411362650145,-4.0941714009896755,19.0
,,0.05514631180854483,0.016669552937094947,0.005307598307946242,0.07712346305358603,2.5722815041688887,0.7150393618895032,0.2161411362650145,-4.0941714009896755,19.1
,,0.05911459671017691,0.03288995624461987,0.0043990983776379675,0.09640365133243475,2.5656192118981744,0.613198731512029,0.3411691962911589,-3.4145879491371836,19.2
,,0.05911459671017691,0.03288995624461987,0.0043990983776379675,0.09640365133243475,2.55895691962746,0.613198731512029,0.3411691962911589,-3.4145879491371836,19.3
,,0.05911459671017691,0.03288995624461987,0.0043990983776379675,0.09640365133243475,2.541349377131043,0.613198731512029,0.3411691962911589,-3.4145879491371836,19.4
,,0.05959235127409684,0.0330562919678106,0.005056949084064845,0.09770559232597228,2.5238019314107802,0.609917506822748,0.3383254855825024,-3.409543353563024,19.5
,,0.05959235127409684,0.0330562919678106,0.005056949084064845,0.09770559232597228,2.5062544856905173,0.609917506822748,0.3383254855825024,-3.409543353563024,19.6
,,0.05959235127409684,0.0330562919678106,0.005056949084064845,0.09770559232597228,2.5028397278177965,0.609917506822748,0.3383254855825024,-3.409543353563024,19.7
,,0.05959235127409684,0.0330562919678106,0.005056949084064845,0.09770559232597228,2.4994249699450757,0.609917506822748,0.3383254855825024,-3.409543353563024,19.8
,,0.06019257627539854,0.03419017568477211,0.004579527433716536,0.09896227939388719,2.4955409778589215,0.6082375693452002,0.3454869460786087,-3.3758169368600077,19.9
,,0.06019257627539854,0.03419017568477211,0.004579527433716536,0.09896227939388719,2.4916569857727677,0.6082375693452002,0.3454869460786087,-3.3758169368600077,20.0
,,0.06019257627539854,0.03419017568477211,0.004579527433716536,0.09896227939388719,2.4858017341617034,0.6082375693452002,0.3454869460786087,-3.3758169368600077,20.1
,,0.05341849256177804,0.018308731734192816,0.005839503654101302,0.07756672795007215,2.492803466892061,0.6886779160797172,0.23603846930320058,-4.000377188986774,20.2
,,0.05341849256177804,0.018308731734192816,0.005839503654101302,0.07756672795007215,2.4820586254158776,0.6886779160797172,0.23603846930320058,-4.000377188986774,20.3
,,0.05341849256177804,0.018308731734192816,0.005839503654101302,0.07756672795007215,2.471313783939695,0.6886779160797172,0.23603846930320058,-4.000377188986774,20.4
,,0.05341849256177804,0.018308731734192816,0.005839503654101302,0.07756672795007215,2.4605689424635115,0.6886779160797172,0.23603846930320058,-4.000377188986774,20.5
,,0.05603169427840631,0.03263725573869038,0.004445576166123259,0.09311452618321994,2.4364813284684486,0.6017503022906829,0.3505065973752643,-3.4223008290541297,20.6
,,0.05603169427840631,0.03263725573869038,0.004445576166123259,0.09311452618321994,2.412954327914401,0.6017503022906829,0.3505065973752643,-3.4223008290541297,20.7
,,0.052356091789785814,0.019594342137425717,0.006261102081298888,0.07821153600851043,2.4000406478799836,0.6694164884332254,0.2505300769862594,-3.932514420875719,20.8
,,0.052356091789785814,0.019594342137425717,0.006261102081298888,0.07821153600851043,2.403725070988642,0.6694164884332254,0.2505300769862594,-3.932514420875719,20.9
,,0.052356091789785814,0.019594342137425717,0.006261102081298888,0.07821153600851043,2.407409494097301,0.6694164884332254,0.2505300769862594,-3.932514420875719,21.0
,,0.052356091789785814,0.019594342137425717,0.006261102081298888,0.07821153600851043,2.4110939172059593,0.6694164884332254,0.2505300769862594,-3.932514420875719,21.1
,,0.052957275333922506,0.02071818397762984,0.005983315225147468,0.07965877453669981,2.4134903024966676,0.6648015318077033,0.26008665207477816,-3.876743511299264,21.2
,,0.052957275333922506,0.02071818397762984,0.005983315225147468,0.07965877453669981,2.415886687787376,0.6648015318077033,0.26008665207477816,-3.876743511299264,21.3
,,0.052957275333922506,0.02071818397762984,0.005983315225147468,0.07965877453669981,2.41933472850377,0.6648015318077033,0.26008665207477816,-3.876743511299264,21.4
,,0.05127963951818046,0.021445603803415137,0.006820772356892377,0.07954601567848797,2.405875194926599,0.6446537778264646,0.2695999745618281,-3.842235605503152,21.5
,,0.05127963951818046,0.021445603803415137,0.006820772356892377,0.07954601567848797,2.392415661349428,0.6446537778264646,0.2695999745618281,-3.842235605503152,21.6
,,0.05127963951818046,0.021445603803415137,0.006820772356892377,0.07954601567848797,2.3789561277722573,0.6446537778264646,0.2695999745618281,-3.842235605503152,21.7
,,0.05127963951818046,0.021445603803415137,0.006820772356892377,0.07954601567848797,2.3654965941950863,0.6446537778264646,0.2695999745618281,-3.842235605503152,21.8
,,0.04794615819133202,0.030231527517788476,0.004320704575963197,0.0824983902850837,2.337022550038674,0.5811768935811713,0.36644990785056025,-3.498869941603369,21.9
,,0.04794615819133202,0.030231527517788476,0.004320704575963197,0.0824983902850837,2.3301180672968025,0.5811768935811713,0.36644990785056025,-3.498869941603369,22.0
,,0.047094997890272904,0.030043256220200418,0.004911383429123382,0.0820496375395967,2.3227171006633722,0.5739817908098024,0.36615952393088524,-3.5051170618154868,22.1
,,0.047094997890272904,0.030043256220200418,0.004911383429123382,0.0820496375395967,2.3153161340299415,0.5739817908098024,0.36615952393088524,-3.5051170618154868,22.2
,,0.047094997890272904,0.030043256220200418,0.004911383429123382,0.0820496375395967,2.3079151673965117,0.5739817908098024,0.36615952393088524,-3.5051170618154868,22.3
,,0.047094997890272904,0.030043256220200418,0.004911383429123382,0.0820496375395967,2.3005142007630814,0.5739817908098024,0.36615952393088524,-3.5051170618154868,22.4
,,0.04435941686445458,0.02960172196765352,0.004336612943979572,0.07829775177608767,2.2923462202503546,0.566547772550502,0.37806605293479145,-3.5199227447613084,22.5
,,0.04435941686445458,0.02960172196765352,0.004336612943979572,0.07829775177608767,2.284178239737628,0.566547772550502,0.37806605293479145,-3.5199227447613084,22.6
,,0.04435941686445458,0.02960172196765352,0.004336612943979572,0.07829775177608767,2.276684223329064,0.566547772550502,0.37806605293479145,-3.5199227447613084,22.7
,,0.04935975883638898,0.027739816519640758,0.008496781807072432,0.08559635716310217,2.272310665379381,0.576657237203856,0.3240770686862653,-3.584886478405691,22.8
,,0.04935975883638898,0.027739816519640758,0.008496781807072432,0.08559635716310217,2.2679371074296975,0.576657237203856,0.3240770686862653,-3.584886478405691,22.9
,,0.04935975883638898,0.027739816519640758,0.008496781807072432,0.08559635716310217,2.263563549480014,0.576657237203856,0.3240770686862653,-3.584886478405691,23.0
,,0.04935975883638898,0.027739816519640758,0.008496781807072432,0.08559635716310217,2.2591899915303304,0.576657237203856,0.3240770686862653,-3.584886478405691,23.1
,,0.04027832966509585,0.028819543832935633,0.004341116031153257,0.07343898952918473,2.250574452014268,0.5484597476533797,0.39242838194938284,-3.546701516678441,23.2
,,0.04027832966509585,0.028819543832935633,0.004341116031153257,0.07343898952918473,2.2419589124982062,0.5484597476533797,0.39242838194938284,-3.546701516678441,23.3
,,0.04857297060078722,0.03265527441705248,0.00969048281980468,0.09091872783764439,2.2115544287462874,0.5342460432082272,0.35916994434156335,-3.421748892139553,23.4
,,0.04857297060078722,0.03265527441705248,0.00969048281980468,0.09091872783764439,2.181149944994369,0.5342460432082272,0.35916994434156335,-3.421748892139553,23.5
,,0.04857297060078722,0.03265527441705248,0.00969048281980468,0.09091872783764439,2.1507454612424506,0.5342460432082272,0.35916994434156335,-3.421748892139553,23.6
,,0.04857297060078722,0.03265527441705248,0.00969048281980468,0.09091872783764439,2.120340977490532,0.5342460432082272,0.35916994434156335,-3.421748892139553,23.7
,,0.03705966655373221,0.028835554056620832,0.004646445390677593,0.07054166600103064,2.0876893933130654,0.525358538501072,0.40877336319501634,-3.5461461373734786,23.8
,,0.03705966655373221,0.028835554056620832,0.004646445390677593,0.07054166600103064,2.0550378091355985,0.525358538501072,0.40877336319501634,-3.5461461373734786,23.9
,,0.03705966655373221,0.028835554056620832,0.004646445390677593,0.07054166600103064,2.046448160347151,0.525358538501072,0.40877336319501634,-3.5461461373734786,24.0
,,0.036395289062950434,0.02914684819501753,0.005073764339362261,0.07061590159733022,2.0374527291624744,0.5153979236926777,0.4127519090702863,-3.5354084957014886,24.1
,,0.036395289062950434,0.02914684819501753,0.005073764339362261,0.07061590159733022,2.0284572979777975,0.5153979236926777,0.4127519090702863,-3.5354084957014886,24.2
,,0.036395289062950434,0.02914684819501753,0.005073764339362261,0.07061590159733022,2.019461866793121,0.5153979236926777,0.4127519090702863,-3.5354084957014886,24.3
,,0.03414616866676628,0.029104027392728396,0.004785774752237938,0.0680359708117326,2.0096281970492162,0.5018840513241839,0.427774117801072,-3.5368787160053157,24.4
,,0.03414616866676628,0.029104027392728396,0.004785774752237938,0.0680359708117326,1.9997945273053113,0.5018840513241839,0.427774117801072,-3.5368787160053157,24.5
,,0.03414616866676628,0.029104027392728396,0.004785774752237938,0.0680359708117326,1.990257760596815,0.5018840513241839,0.427774117801072,-3.5368787160053157,24.6
,,0.03367020950682774,0.029628169825371357,0.005233880502301931,0.06853225983450102,1.9805931999415018,0.4913045270670796,0.4323244249776763,-3.5190296869259825,24.7
,,0.03367020950682774,0.029628169825371357,0.005233880502301931,0.06853225983450102,1.9709286392861884,0.4913045270670796,0.4323244249776763,-3.5190296869259825,24.8
,,0.03367020950682774,0.029628169825371357,0.005233880502301931,0.06853225983450102,1.9612640786308753,0.4913045270670796,0.4323244249776763,-3.5190296869259825,24.9
,,0.031358709106251784,0.0295836299424794,0.00490639856141939,0.06584873761015057,1.9507503681271932,0.4762233908250026,0.4492664706440642,-3.520534113120328,25.0
,,0.031358709106251784,0.0295836299424794,0.00490639856141939,0.06584873761015057,1.9402366576235115,0.4762233908250026,0.4492664706440642,-3.520534113120328,25.1
,,0.031358709106251784,0.0295836299424794,0.00490639856141939,0.06584873761015057,1.9297229471198298,0.4762233908250026,0.4492664706440642,-3.520534113120328,25.2
,,0.03081227341148267,0.03010921340388111,0.005370041116030654,0.06629152793139442,1.9193138959913707,0.46479956599236194,0.45419398742839884,-3.502924060912062,25.3
,,0.03081227341148267,0.03010921340388111,0.005370041116030654,0.06629152793139442,1.9089048448629125,0.46479956599236194,0.45419398742839884,-3.502924060912062,25.4
,,0.03081227341148267,0.03010921340388111,0.005370041116030654,0.06629152793139442,1.8984957937344538,0.46479956599236194,0.45419398742839884,-3.502924060912062,25.5
,,0.028815941286100207,0.030235112855697417,0.005063206468203606,0.06411426061000122,1.8873057627121022,0.44944667554358714,0.47158171314824493,-3.4987513526461855,25.6
,,0.028815941286100207,0.030235112855697417,0.005063206468203606,0.06411426061000122,1.876115731689751,0.44944667554358714,0.47158171314824493,-3.4987513526461855,25.7
,,0.028815941286100207,0.030235112855697417,0.005063206468203606,0.06411426061000122,1.8649257006673998,0.44944667554358714,0.47158171314824493,-3.4987513526461855,25.8
,,0.028815941286100207,0.030235112855697417,0.005063206468203606,0.06411426061000122,1.8581899201567473,0.44944667554358714,0.47158171314824493,-3.4987513526461855,25.9
,,0.028272538075062095,0.03073417190869336,0.005518753055110587,0.06452546303886604,1.8510857341165907,0.4381609483070662,0.4763107533251028,-3.48238015192762,26.0
,,0.028272538075062095,0.03073417190869336,0.005518753055110587,0.06452546303886604,1.843981548076434,0.4381609483070662,0.4763107533251028,-3.48238015192762,26.1
,,0.028272538075062095,0.03073417190869336,0.005518753055110587,0.06452546303886604,1.836877362036278,0.4381609483070662,0.4763107533251028,-3.48238015192762,26.2
,,0.03106985768627815,0.05010612766464503,0.011190796089111586,0.09236678144003477,1.8264417910950699,0.3363748005710142,0.5424691310390014,-2.993611969694865,26.3
,,0.03106985768627815,0.05010612766464503,0.011190796089111586,0.09236678144003477,1.8160062201538618,0.3363748005710142,0.5424691310390014,-2.993611969694865,26.4
,,0.03106985768627815,0.05010612766464503,0.011190796089111586,0.09236678144003477,1.8018539093515888,0.3363748005710142,0.5424691310390014,-2.993611969694865,26.5
,,0.02600690997749338,0.03142295176604085,0.00565588863298144,0.06308575037651568,1.7900269035740421,0.4122469784741551,0.4980990410433221,-3.4602167051172006,26.6
,,0.02600690997749338,0.03142295176604085,0.00565588863298144,0.06308575037651568,1.778199897796496,0.4122469784741551,0.4980990410433221,-3.4602167051172006,26.7
,,0.02600690997749338,0.03142295176604085,0.00565588863298144,0.06308575037651568,1.7663728920189492,0.4122469784741551,0.4980990410433221,-3.4602167051172006,26.8
,,0.02561529438229972,0.04789526439201174,0.010078422580059854,0.08358898135437132,1.7512923124454118,0.3064434327020323,0.5729853817569825,-3.0387386439200768,26.9
,,0.02561529438229972,0.04789526439201174,0.010078422580059854,0.08358898135437132,1.7362117328718742,0.3064434327020323,0.5729853817569825,-3.0387386439200768,27.0
,,0.02561529438229972,0.04789526439201174,0.010078422580059854,0.08358898135437132,1.721436137740188,0.3064434327020323,0.5729853817569825,-3.0387386439200768,27.1
,,0.023978640229860928,0.03204364378435767,0.005787714173236871,0.06180999818745547,1.691227809659416,0.3879411249477672,0.5184216910535524,-3.440656437144754,27.2
,,0.023978640229860928,0.03204364378435767,0.005787714173236871,0.06180999818745547,1.6610194815786445,0.3879411249477672,0.5184216910535524,-3.440656437144754,27.3
,,0.023978640229860928,0.03204364378435767,0.005787714173236871,0.06180999818745547,1.6308111534978729,0.3879411249477672,0.5184216910535524,-3.440656437144754,27.4
,,0.022848906012539666,0.032636936473084174,0.00545451929283871,0.06094036177846255,1.600067064959616,0.37493879828942683,0.5355553449408413,-3.4223106113461927,27.5
,,0.022848906012539666,0.032636936473084174,0.00545451929283871,0.06094036177846255,1.5693229764213592,0.37493879828942683,0.5355553449408413,-3.4223106113461927,27.6
,,0.022848906012539666,0.032636936473084174,0.00545451929283871,0.06094036177846255,1.5567742558492192,0.37493879828942683,0.5355553449408413,-3.4223106113461927,27.7
,,0.02218625354434913,0.03254106686066049,0.005877235601484644,0.06060455600649426,1.5440221905887657,0.36608227180101277,0.5369409332389705,-3.425252391598997,27.8
,,0.02218625354434913,0.03254106686066049,0.005877235601484644,0.06060455600649426,1.514839819914129,0.36608227180101277,0.5369409332389705,-3.425252391598997,27.9
,,0.02218625354434913,0.03254106686066049,0.005877235601484644,0.06060455600649426,1.4856574492394925,0.36608227180101277,0.5369409332389705,-3.425252391598997,28.0
,,0.02130724464298585,0.03321136117736037,0.005511441957562003,0.06003004777790822,1.456028106185128,0.35494298991424716,0.5532456229292316,-3.404863257460815,28.1
,,0.02130724464298585,0.03321136117736037,0.005511441957562003,0.06003004777790822,1.4431861059917934,0.35494298991424716,0.5532456229292316,-3.404863257460815,28.2
,,0.02130724464298585,0.03321136117736037,0.005511441957562003,0.06003004777790822,1.4303441057984583,0.35494298991424716,0.5532456229292316,-3.404863257460815,28.3
,,0.02130724464298585,0.03321136117736037,0.005511441957562003,0.06003004777790822,1.417502105605124,0.35494298991424716,0.5532456229292316,-3.404863257460815,28.4
,,0.020642071864116717,0.032798281052275405,0.005910701176441591,0.05935105409283371,1.4044644476502304,0.347796213220232,0.5526149712686502,-3.417379171908154,28.5
,,0.020642071864116717,0.032798281052275405,0.005910701176441591,0.05935105409283371,1.3914267896953367,0.347796213220232,0.5526149712686502,-3.417379171908154,28.6
,,0.019900612112117425,0.03334179183681316,0.005175012165424977,0.058417416114355566,1.3780280479960147,0.3406623133272583,0.5707508831192503,-3.4009436587481416,28.7
,,0.019900612112117425,0.03334179183681316,0.005175012165424977,0.058417416114355566,1.364629306296693,0.3406623133272583,0.5707508831192503,-3.4009436587481416,28.8
,,0.019900612112117425,0.03334179183681316,0.005175012165424977,0.058417416114355566,1.3516997988108042,0.3406623133272583,0.5707508831192503,-3.4009436587481416,28.9
,,0.019900612112117425,0.03334179183681316,0.005175012165424977,0.058417416114355566,1.3387702913249158,0.3406623133272583,0.5707508831192503,-3.4009436587481416,29.0
,,0.01926798848853719,0.032578365632299724,0.005812964166927054,0.057659318287763967,1.3257804302938982,0.3341695507459043,0.5650147556325387,-3.4241068418209903,29.1
,,0.01926798848853719,0.032578365632299724,0.005812964166927054,0.057659318287763967,1.2999335849214588,0.3341695507459043,0.5650147556325387,-3.4241068418209903,29.2
,,0.01926798848853719,0.032578365632299724,0.005812964166927054,0.057659318287763967,1.2740867395490196,0.3341695507459043,0.5650147556325387,-3.4241068418209903,29.3
,,0.018763322876481595,0.03301274348427816,0.005082078499056643,0.0568581448598164,1.2479835716396719,0.3300023756093787,0.5806159093947049,-3.4108616258683826,29.4
,,0.018763322876481595,0.03301274348427816,0.005082078499056643,0.0568581448598164,1.2218804037303241,0.3300023756093787,0.5806159093947049,-3.4108616258683826,29.5
,,0.018763322876481595,0.03301274348427816,0.005082078499056643,0.0568581448598164,1.2091200083398561,0.3300023756093787,0.5806159093947049,-3.4108616258683826,29.6
,,0.01817952307787223,0.03196927928611105,0.005687089391966486,0.05583589175594977,1.196362834734847,0.32558847913331757,0.5725578705869682,-3.4429798596080023,29.7
,,0.01817952307787223,0.03196927928611105,0.005687089391966486,0.05583589175594977,1.1729923406102079,0.32558847913331757,0.5725578705869682,-3.4429798596080023,29.8
,,0.01817952307787223,0.03196927928611105,0.005687089391966486,0.05583589175594977,1.1496218464855688,0.32558847913331757,0.5725578705869682,-3.4429798596080023,29.9
,,0.01817952307787223,0.03196927928611105,0.005687089391966486,0.05583589175594977,1.1262513523609294,0.32558847913331757,0.5725578705869682,-3.4429798596080023,30.0
,,0.01736251864185353,0.03145335296552004,0.004808709625788717,0.053624581233162286,1.102695885966328,0.3237790998564717,0.5865472930923104,-3.45924968894225,30.1
,,0.01736251864185353,0.03145335296552004,0.004808709625788717,0.053624581233162286,1.0804284573896772,0.3237790998564717,0.5865472930923104,-3.45924968894225,30.2
,,0.01668496740399298,0.029895490677741273,0.005307478483932844,0.05188793656566709,1.0582288212775395,0.32155773592725584,0.5761549341995292,-3.510047623412458,30.3
,,0.01668496740399298,0.029895490677741273,0.005307478483932844,0.05188793656566709,1.0360291851654022,0.32155773592725584,0.5761549341995292,-3.510047623412458,30.4
,,0.01668496740399298,0.029895490677741273,0.005307478483932844,0.05188793656566709,1.0156620805319967,0.32155773592725584,0.5761549341995292,-3.510047623412458,30.5
,,0.01668496740399298,0.029895490677741273,0.005307478483932844,0.05188793656566709,0.9952949758985911,0.32155773592725584,0.5761549341995292,-3.510047623412458,30.6
,,0.01668496740399298,0.029895490677741273,0.005307478483932844,0.05188793656566709,0.9749278712651854,0.32155773592725584,0.5761549341995292,-3.510047623412458,30.7
,,0.01581011487400534,0.028923669914432678,0.004394214501804043,0.049127999290242065,0.9544330473992902,0.32181475131118537,0.5887410505678291,-3.5430949909032456,30.8
,,0.015295421063666381,0.027418541810987268,0.004845621880843125,0.04755958475549677,0.9430095373221994,0.3216054375222145,0.5765092767724035,-3.5965357860218266,30.9
,,0.015295421063666381,0.027418541810987268,0.004845621880843125,0.04755958475549677,0.931586027245109,0.3216054375222145,0.5765092767724035,-3.5965357860218266,31.0
,,0.015295421063666381,0.027418541810987268,0.004845621880843125,0.04755958475549677,0.9203668775163523,0.3216054375222145,0.5765092767724035,-3.5965357860218266,31.1
,,0.015295421063666381,0.027418541810987268,0.004845621880843125,0.04755958475549677,0.9091477277875958,0.3216054375222145,0.5765092767724035,-3.5965357860218266,31.2
,,0.015295421063666381,0.027418541810987268,0.004845621880843125,0.04755958475549677,0.8979285780588392,0.3216054375222145,0.5765092767724035,-3.5965357860218266,31.3
,,0.015295421063666381,0.027418541810987268,0.004845621880843125,0.04755958475549677,0.8867094283300827,0.3216054375222145,0.5765092767724035,-3.5965357860218266,31.4
,,0.01181798180597722,0.03353074132951658,0.004800150889238757,0.05014887402473255,0.8739750991848565,0.23565796911310108,0.6686240116374258,-3.3952926093086075,31.5
,,0.01181798180597722,0.03353074132951658,0.004800150889238757,0.05014887402473255,0.8612407700396304,0.23565796911310108,0.6686240116374258,-3.3952926093086075,31.6
,,0.01181798180597722,0.03353074132951658,0.004800150889238757,0.05014887402473255,0.8485064408944044,0.23565796911310108,0.6686240116374258,-3.3952926093086075,31.7
,,0.01181798180597722,0.03353074132951658,0.004800150889238757,0.05014887402473255,0.8326516532902979,0.23565796911310108,0.6686240116374258,-3.3952926093086075,31.8
,,0.01181798180597722,0.03353074132951658,0.004800150889238757,0.05014887402473255,0.8167968656861916,0.23565796911310108,0.6686240116374258,-3.3952926093086075,31.9
,,0.01181798180597722,0.03353074132951658,0.004800150889238757,0.05014887402473255,0.8009420780820853,0.23565796911310108,0.6686240116374258,-3.3952926093086075,32.0
,,0.011849250701934008,0.03281286406574161,0.004496089155876739,0.04915820392355236,0.7851835556632878,0.24104319841223637,0.667495177748358,-3.4169346433549603,32.1
,,0.011849250701934008,0.03281286406574161,0.004496089155876739,0.04915820392355236,0.7736670148108687,0.24104319841223637,0.667495177748358,-3.4169346433549603,32.2
,,0.011849250701934008,0.03281286406574161,0.004496089155876739,0.04915820392355236,0.7621504739584498,0.24104319841223637,0.667495177748358,-3.4169346433549603,32.3
,,0.011849250701934008,0.03281286406574161,0.004496089155876739,0.04915820392355236,0.7496356918218101,0.24104319841223637,0.667495177748358,-3.4169346433549603,32.4
,,0.011849250701934008,0.03281286406574161,0.004496089155876739,0.04915820392355236,0.7371209096851702,0.24104319841223637,0.667495177748358,-3.4169346433549603,32.5
,,0.011849250701934008,0.03281286406574161,0.004496089155876739,0.04915820392355236,0.7246061275485305,0.24104319841223637,0.667495177748358,-3.4169346433549603,32.6
,,0.014659061298257768,0.023737910126135735,0.004785745361261362,0.043182716785654864,0.7149404784672397,0.33946593427691546,0.5497085846627737,-3.7406819254306614,32.7
,,0.014638951827060428,0.023592370070477084,0.0043606795035885815,0.042592001401126095,0.707554787441119,0.343701900485789,0.5539155074749158,-3.746831921322392,32.8
,,0.014638951827060428,0.023592370070477084,0.0043606795035885815,0.042592001401126095,0.7001690964149982,0.343701900485789,0.5539155074749158,-3.746831921322392,32.9
,,0.014638951827060428,0.023592370070477084,0.0043606795035885815,0.042592001401126095,0.6927834053888775,0.343701900485789,0.5539155074749158,-3.746831921322392,33.0
,,0.014638951827060428,0.023592370070477084,0.0043606795035885815,0.042592001401126095,0.6858034967589854,0.343701900485789,0.5539155074749158,-3.746831921322392,33.1
,,0.014638951827060428,0.023592370070477084,0.0043606795035885815,0.042592001401126095,0.6788235881290935,0.343701900485789,0.5539155074749158,-3.746831921322392,33.2
,,0.015072772036320129,0.02312557692572347,0.004740967501921671,0.04293931646396527,0.672191280726982,0.35102496447443965,0.5385641605434144,-3.7668160477554546,33.3
,,0.015271180260545575,0.023219858647508626,0.004381657004260529,0.042872695912314726,0.6664627483873887,0.3561982734134312,0.5416001525772717,-3.7627473902628488,33.4
,,0.015271180260545575,0.023219858647508626,0.004381657004260529,0.042872695912314726,0.6607342160477955,0.3561982734134312,0.5416001525772717,-3.7627473902628488,33.5
,,0.015271180260545575,0.023219858647508626,0.004381657004260529,0.042872695912314726,0.6550056837082023,0.3561982734134312,0.5416001525772717,-3.7627473902628488,33.6
,,0.015271180260545575,0.023219858647508626,0.004381657004260529,0.042872695912314726,0.649686261612811,0.3561982734134312,0.5416001525772717,-3.7627473902628488,33.7
,,0.015271180260545575,0.023219858647508626,0.004381657004260529,0.042872695912314726,0.6443668395174196,0.3561982734134312,0.5416001525772717,-3.7627473902628488,33.8
,,0.015271180260545575,0.023219858647508626,0.004381657004260529,0.042872695912314726,0.6390474174220282,0.3561982734134312,0.5416001525772717,-3.7627473902628488,33.9
,,0.021185377662170646,0.031060527053596,0.004188085106441192,0.05643398982220784,0.6348481449552119,0.3754010256746689,0.550386870597852,-3.471817492519668,34.0
,,0.011891959436999826,0.02986191145764826,0.0036349769832860926,0.04538884787793418,0.6274951406735553,0.262001791034249,0.657912964390657,-3.5111714749330196,34.1
,,0.011891959436999826,0.02986191145764826,0.0036349769832860926,0.04538884787793418,0.6201421363918987,0.262001791034249,0.657912964390657,-3.5111714749330196,34.2
,,0.011891959436999826,0.02986191145764826,0.0036349769832860926,0.04538884787793418,0.6131963737369547,0.262001791034249,0.657912964390657,-3.5111714749330196,34.3
,,0.011891959436999826,0.02986191145764826,0.0036349769832860926,0.04538884787793418,0.6062506110820105,0.262001791034249,0.657912964390657,-3.5111714749330196,34.4
,,0.011891959436999826,0.02986191145764826,0.0036349769832860926,0.04538884787793418,0.5993048484270664,0.262001791034249,0.657912964390657,-3.5111714749330196,34.5
,,0.021170163828594168,0.02879289149982903,0.0037584264032332715,0.053721481731656466,0.596884787022768,0.39407259714728277,0.5359660711454695,-3.5476267452286305,34.6
,,0.015891744218191242,0.021191100421684633,0.004252506883110801,0.04133535152298668,0.5946277120346708,0.38445891065795845,0.5126628815506798,-3.85417397687123,34.7
,,0.015891744218191242,0.021191100421684633,0.004252506883110801,0.04133535152298668,0.5923706370465734,0.38445891065795845,0.5126628815506798,-3.85417397687123,34.8
,,0.015891744218191242,0.021191100421684633,0.004252506883110801,0.04133535152298668,0.5901135620584762,0.38445891065795845,0.5126628815506798,-3.85417397687123,34.9
,,0.015891744218191242,0.021191100421684633,0.004252506883110801,0.04133535152298668,0.588224892599883,0.38445891065795845,0.5126628815506798,-3.85417397687123,35.0
,,0.015891744218191242,0.021191100421684633,0.004252506883110801,0.04133535152298668,0.5863362231412896,0.38445891065795845,0.5126628815506798,-3.85417397687123,35.1
,,0.016120404949196226,0.020330603334891777,0.004535798403200675,0.04098680668728868,0.5849251966881666,0.393307170089825,0.4960279899335741,-3.895627974709351,35.2
,,0.015942237333233418,0.020024641944283494,0.004121495995591482,0.04008837527310839,0.5868813073233774,0.3976773123037391,0.49951243491068065,-3.910791666622852,35.3
,,0.015942237333233418,0.020024641944283494,0.004121495995591482,0.04008837527310839,0.5888374179585882,0.3976773123037391,0.49951243491068065,-3.910791666622852,35.4
,,0.015942237333233418,0.020024641944283494,0.004121495995591482,0.04008837527310839,0.5907935285937991,0.3976773123037391,0.49951243491068065,-3.910791666622852,35.5
,,0.015942237333233418,0.020024641944283494,0.004121495995591482,0.04008837527310839,0.5904434216764575,0.3976773123037391,0.49951243491068065,-3.910791666622852,35.6
,,0.015942237333233418,0.020024641944283494,0.004121495995591482,0.04008837527310839,0.590093314759116,0.3976773123037391,0.49951243491068065,-3.910791666622852,35.7
,,0.016144820905803547,0.019304171408932872,0.004379054341618163,0.03982804665635458,0.5901899578398594,0.40536311120414026,0.48468787775342437,-3.9474340712472706,35.8
,,0.015883143456730302,0.019013126608490822,0.00397004122913547,0.038866311294356595,0.5935295005179544,0.40866094382968987,0.4891929790942506,-3.9626256642282702,35.9
,,0.015883143456730302,0.019013126608490822,0.00397004122913547,0.038866311294356595,0.5968690431960493,0.40866094382968987,0.4891929790942506,-3.9626256642282702,36.0
,,0.015883143456730302,0.019013126608490822,0.00397004122913547,0.038866311294356595,0.6002085858741444,0.40866094382968987,0.4891929790942506,-3.9626256642282702,36.1
,,0.015883143456730302,0.019013126608490822,0.00397004122913547,0.038866311294356595,0.6011759844247767,0.40866094382968987,0.4891929790942506,-3.9626256642282702,36.2
,,0.015883143456730302,0.019013126608490822,0.00397004122913547,0.038866311294356595,0.6021433829754091,0.40866094382968987,0.4891929790942506,-3.9626256642282702,36.3
,,0.016060277854102814,0.018415639942599652,0.004219936175462086,0.038695853972164546,0.6035188051665419,0.41503872393294655,0.4759073144075525,-3.9945549785295538,36.4
,,0.015718846842456943,0.01820746359532848,0.003828832431234485,0.0377551428690199,0.6053324207206904,0.41633657425132115,0.4822512169664883,-4.005923681306937,36.5
,,0.015718846842456943,0.01820746359532848,0.003828832431234485,0.0377551428690199,0.607146036274839,0.41633657425132115,0.4822512169664883,-4.005923681306937,36.6
,,0.015718846842456943,0.01820746359532848,0.003828832431234485,0.0377551428690199,0.6089596518289875,0.41633657425132115,0.4822512169664883,-4.005923681306937,36.7
,,0.015718846842456943,0.01820746359532848,0.003828832431234485,0.0377551428690199,0.6109766120714494,0.41633657425132115,0.4822512169664883,-4.005923681306937,36.8
,,0.015718846842456943,0.01820746359532848,0.003828832431234485,0.0377551428690199,0.6129935723139112,0.41633657425132115,0.4822512169664883,-4.005923681306937,36.9
,,0.020028325584555338,0.02291897593513592,0.0024427733338159762,0.04539007485350723,0.61512782558398,0.4412490098153644,0.5049336448354634,-3.7757900681016694,37.0
,,0.01939959288701288,0.022619495815513892,0.002094494452590458,0.04411358315511723,0.6175287621006647,0.43976461442267817,0.5127558043964969,-3.7889430978655665,37.1
,,0.01939959288701288,0.022619495815513892,0.002094494452590458,0.04411358315511723,0.6199296986173495,0.43976461442267817,0.5127558043964969,-3.7889430978655665,37.2
,,0.01939959288701288,0.022619495815513892,0.002094494452590458,0.04411358315511723,0.6223306351340341,0.43976461442267817,0.5127558043964969,-3.7889430978655665,37.3
,,0.01939959288701288,0.022619495815513892,0.002094494452590458,0.04411358315511723,0.6247315716507187,0.43976461442267817,0.5127558043964969,-3.7889430978655665,37.4
,,0.01939959288701288,0.022619495815513892,0.002094494452590458,0.04411358315511723,0.6272680691528079,0.43976461442267817,0.5127558043964969,-3.7889430978655665,37.5
,,0.015559012534855888,0.01733106942054199,0.003958643909466396,0.036848725864864276,0.6302501597305272,0.42224017709365635,0.4703302221113535,-4.055254467952441,37.6
,,0.015559012534855888,0.01733106942054199,0.003958643909466396,0.036848725864864276,0.6335933340526749,0.42224017709365635,0.4703302221113535,-4.055254467952441,37.7
,,0.015108648887589737,0.01738578310785543,0.0036341669933197505,0.036128598988764915,0.6366172928929043,0.4181908324839318,0.48121941050805683,-4.052102469506298,37.8
,,0.015108648887589737,0.01738578310785543,0.0036341669933197505,0.036128598988764915,0.6396412517331336,0.4181908324839318,0.48121941050805683,-4.052102469506298,37.9
,,0.015108648887589737,0.01738578310785543,0.0036341669933197505,0.036128598988764915,0.6426652105733628,0.4181908324839318,0.48121941050805683,-4.052102469506298,38.0
,,0.015108648887589737,0.01738578310785543,0.0036341669933197505,0.036128598988764915,0.6457495229587209,0.4181908324839318,0.48121941050805683,-4.052102469506298,38.1
,,0.01509472311788647,0.01707655394520192,0.0038595141480197433,0.03603079121110814,0.648999625720153,0.41893954061249794,0.47394335153920497,-4.070048870626529,38.2
,,0.01509472311788647,0.01707655394520192,0.0038595141480197433,0.03603079121110814,0.6522497284815851,0.41893954061249794,0.47394335153920497,-4.070048870626529,38.3
,,0.014605786906447834,0.017253784983151593,0.003571669143669613,0.035431241033269036,0.6553404005060681,0.41222905211627703,0.48696530180669445,-4.059723740260529,38.4
,,0.014605786906447834,0.017253784983151593,0.003571669143669613,0.035431241033269036,0.6584310725305511,0.41222905211627703,0.48696530180669445,-4.059723740260529,38.5
,,0.014605786906447834,0.017253784983151593,0.003571669143669613,0.035431241033269036,0.6615217445550341,0.41222905211627703,0.48696530180669445,-4.059723740260529,38.6
,,0.014605786906447834,0.017253784983151593,0.003571669143669613,0.035431241033269036,0.6646091947940584,0.41222905211627703,0.48696530180669445,-4.059723740260529,38.7
,,0.014573313621923274,0.017052359032195288,0.0038256559757317734,0.03545132862985033,0.6677865896615821,0.4110794767125432,0.4810076149822225,-4.071466725163878,38.8
,,0.014573313621923274,0.017052359032195288,0.0038256559757317734,0.03545132862985033,0.6709639845291058,0.4110794767125432,0.4810076149822225,-4.071466725163878,38.9
,,0.014573313621923274,0.017052359032195288,0.0038256559757317734,0.03545132862985033,0.6741413793966294,0.4110794767125432,0.4810076149822225,-4.071466725163878,39.0
,,0.014119757341808634,0.017395090351112977,0.0036062929647478815,0.03512114065766949,0.6770269441475675,0.4020301470113348,0.49528830856222117,-4.051567276306468,39.1
,,0.014119757341808634,0.017395090351112977,0.0036062929647478815,0.03512114065766949,0.6799125088985054,0.4020301470113348,0.49528830856222117,-4.051567276306468,39.2
,,0.014119757341808634,0.017395090351112977,0.0036062929647478815,0.03512114065766949,0.68273028118493,0.4020301470113348,0.49528830856222117,-4.051567276306468,39.3
,,0.014078577994107394,0.017314176707522517,0.003863604545215752,0.03525635924684566,0.6855637753423232,0.39932024448517,0.49109372259053075,-4.056229650192207,39.4
,,0.014078577994107394,0.017314176707522517,0.003863604545215752,0.03525635924684566,0.6883972694997162,0.39932024448517,0.49109372259053075,-4.056229650192207,39.5
,,0.014078577994107394,0.017314176707522517,0.003863604545215752,0.03525635924684566,0.6912307636571093,0.39932024448517,0.49109372259053075,-4.056229650192207,39.6
,,0.014078577994107394,0.017314176707522517,0.003863604545215752,0.03525635924684566,0.6940642578145024,0.39932024448517,0.49109372259053075,-4.056229650192207,39.7
,,0.01364993156974788,0.017802209608876452,0.003576848922342887,0.035028990100967224,0.6965102556098522,0.38967528125713724,0.5082136127123145,-4.028432694058113,39.8
,,0.01364993156974788,0.017802209608876452,0.003576848922342887,0.035028990100967224,0.6988314263007968,0.38967528125713724,0.5082136127123145,-4.028432694058113,39.9
,,0.013481108442996707,0.017651924077114557,0.003924294636566893,0.035057327156678156,0.7011188638369524,0.3845446740062914,0.5035159696637626,-4.036910488676622,40.0
,,0.013481108442996707,0.017651924077114557,0.003924294636566893,0.035057327156678156,0.703406301373108,0.3845446740062914,0.5035159696637626,-4.036910488676622,40.1
,,0.013481108442996707,0.017651924077114557,0.003924294636566893,0.035057327156678156,0.7056937389092636,0.3845446740062914,0.5035159696637626,-4.036910488676622,40.2
,,0.013481108442996707,0.017651924077114557,0.003924294636566893,0.035057327156678156,0.7079811764454191,0.3845446740062914,0.5035159696637626,-4.036910488676622,40.3
,,0.01305660032748005,0.01821662677107352,0.003641165145441767,0.03491439224399533,0.7097466352545756,0.37396040682121734,0.5217512206361393,-4.005420543090105,40.4
,,0.01305660032748005,0.01821662677107352,0.003641165145441767,0.03491439224399533,0.713794287359498,0.37396040682121734,0.5217512206361393,-4.005420543090105,40.5
,,0.014360299407417973,0.02236958240801982,0.0014803244142181614,0.03821020622965596,0.7170110026688492,0.37582365614851254,0.5854347467682127,-3.80005317115457,40.6
,,0.014360299407417973,0.02236958240801982,0.0014803244142181614,0.03821020622965596,0.7202277179782004,0.37582365614851254,0.5854347467682127,-3.80005317115457,40.7
,,0.014360299407417973,0.02236958240801982,0.0014803244142181614,0.03821020622965596,0.7234444332875518,0.37582365614851254,0.5854347467682127,-3.80005317115457,40.8
,,0.014360299407417973,0.02236958240801982,0.0014803244142181614,0.03821020622965596,0.726661148596903,0.37582365614851254,0.5854347467682127,-3.80005317115457,40.9
,,0.013689687336211356,0.02309469022053699,0.0012490692350213613,0.03803344679176971,0.7293312737340595,0.3599381200226573,0.6072205431965896,-3.7681525484591964,41.0
,,0.013689687336211356,0.02309469022053699,0.0012490692350213613,0.03803344679176971,0.7319051336859071,0.3599381200226573,0.6072205431965896,-3.7681525484591964,41.1
,,0.012385568963696011,0.018717078125589072,0.004241933634711673,0.03534458072399676,0.7352452397208684,0.35042342305356544,0.529560055380183,-3.9783189031496873,41.2
,,0.012385568963696011,0.018717078125589072,0.004241933634711673,0.03534458072399676,0.7385853457558299,0.35042342305356544,0.529560055380183,-3.9783189031496873,41.3
,,0.012385568963696011,0.018717078125589072,0.004241933634711673,0.03534458072399676,0.7419254517907912,0.35042342305356544,0.529560055380183,-3.9783189031496873,41.4
,,0.012385568963696011,0.018717078125589072,0.004241933634711673,0.03534458072399676,0.7452655578257527,0.35042342305356544,0.529560055380183,-3.9783189031496873,41.5
,,0.012385568963696011,0.018717078125589072,0.004241933634711673,0.03534458072399676,0.748605663860714,0.35042342305356544,0.529560055380183,-3.9783189031496873,41.6
,,0.012134057218808577,0.019432744459828656,0.003976799363009261,0.0355436010416465,0.7486820522654011,0.3413851400310025,0.5467297597972495,-3.940795776991585,41.7
,,0.0068668600078130755,0.01929839807562269,0.004477244648932415,0.030642502732368182,0.7457412768537125,0.22409592544669982,0.6297918366582202,-3.9477331877791655,41.8
,,0.0068668600078130755,0.01929839807562269,0.004477244648932415,0.030642502732368182,0.7428005014420239,0.22409592544669982,0.6297918366582202,-3.9477331877791655,41.9
,,0.0068668600078130755,0.01929839807562269,0.004477244648932415,0.030642502732368182,0.7398597260303356,0.22409592544669982,0.6297918366582202,-3.9477331877791655,42.0
,,0.0068668600078130755,0.01929839807562269,0.004477244648932415,0.030642502732368182,0.736918950618647,0.22409592544669982,0.6297918366582202,-3.9477331877791655,42.1
,,0.0068668600078130755,0.01929839807562269,0.004477244648932415,0.030642502732368182,0.7339781752069584,0.22409592544669982,0.6297918366582202,-3.9477331877791655,42.2
,,0.011783478775764957,0.020043177688190566,0.004211138795130886,0.03603779525908641,0.7332684578027021,0.32697557359017193,0.5561710294454534,-3.9098664480609564,42.3
,,0.011591932120421611,0.019882037081595017,0.00478040846213695,0.036254377664153584,0.7324391007133226,0.31973882513733237,0.548403761492597,-3.917938614110178,42.4
,,0.011591932120421611,0.019882037081595017,0.00478040846213695,0.036254377664153584,0.7316097436239429,0.31973882513733237,0.548403761492597,-3.917938614110178,42.5
,,0.011591932120421611,0.019882037081595017,0.00478040846213695,0.036254377664153584,0.7307803865345635,0.31973882513733237,0.548403761492597,-3.917938614110178,42.6
,,0.011591932120421611,0.019882037081595017,0.00478040846213695,0.036254377664153584,0.729951029445184,0.31973882513733237,0.548403761492597,-3.917938614110178,42.7
,,0.011591932120421611,0.019882037081595017,0.00478040846213695,0.036254377664153584,0.7291216723558043,0.31973882513733237,0.548403761492597,-3.917938614110178,42.8
,,0.011591932120421611,0.019882037081595017,0.00478040846213695,0.036254377664153584,0.7282923152664247,0.31973882513733237,0.548403761492597,-3.917938614110178,42.9
,,0.011541952938004599,0.0206047466580566,0.004500408418285843,0.03664710801434704,0.7269377858554493,0.31494853382389737,0.562247548974124,-3.8822338094352706,43.0
,,0.011422830504452244,0.020498647953871792,0.005144894807428363,0.0370663732657524,0.7287046337170417,0.30817232704572173,0.5530254553609535,-3.887396348482469,43.1
,,0.011422830504452244,0.020498647953871792,0.005144894807428363,0.0370663732657524,0.7304714815786342,0.30817232704572173,0.5530254553609535,-3.887396348482469,43.2
,,0.011422830504452244,0.020498647953871792,0.005144894807428363,0.0370663732657524,0.7322383294402266,0.30817232704572173,0.5530254553609535,-3.887396348482469,43.3
,,0.011422830504452244,0.020498647953871792,0.005144894807428363,0.0370663732657524,0.734005177301819,0.30817232704572173,0.5530254553609535,-3.887396348482469,43.4
,,0.011422830504452244,0.020498647953871792,0.005144894807428363,0.0370663732657524,0.7357720251634116,0.30817232704572173,0.5530254553609535,-3.887396348482469,43.5
,,0.011524797298818418,0.02121827100599802,0.004866457802973082,0.03760952610778952,0.7336375561726759,0.30643293047054515,0.5641727828525706,-3.85289262856937,43.6
,,0.011391296971501808,0.021021477471459403,0.005559384376714909,0.037972158819676124,0.7313260352289876,0.29999076496012,0.5536023793455391,-3.86221062716145,43.7
,,0.011391296971501808,0.021021477471459403,0.005559384376714909,0.037972158819676124,0.7290145142852994,0.29999076496012,0.5536023793455391,-3.86221062716145,43.8
,,0.011391296971501808,0.021021477471459403,0.005559384376714909,0.037972158819676124,0.726702993341611,0.29999076496012,0.5536023793455391,-3.86221062716145,43.9
,,0.011391296971501808,0.021021477471459403,0.005559384376714909,0.037972158819676124,0.7243914723979228,0.29999076496012,0.5536023793455391,-3.86221062716145,44.0
,,0.011391296971501808,0.021021477471459403,0.005559384376714909,0.037972158819676124,0.7220799514542345,0.29999076496012,0.5536023793455391,-3.86221062716145,44.1
,,0.011630844013013954,0.021723886822411574,0.005264500482029949,0.038619231317455475,0.7192186290906093,0.3011671547112575,0.5625147389350708,-3.8293428486181944,44.2
,,0.011515837748301755,0.021471658316955813,0.0059992886312999075,0.038986784696557475,0.7163319224320995,0.29537798097309115,0.5507419625412648,-3.8410214312779445,44.3
,,0.011515837748301755,0.021471658316955813,0.0059992886312999075,0.038986784696557475,0.7134452157735901,0.29537798097309115,0.5507419625412648,-3.8410214312779445,44.4
,,0.011515837748301755,0.021471658316955813,0.0059992886312999075,0.038986784696557475,0.7105585091150806,0.29537798097309115,0.5507419625412648,-3.8410214312779445,44.5
,,0.011515837748301755,0.021471658316955813,0.0059992886312999075,0.038986784696557475,0.707671802456571,0.29537798097309115,0.5507419625412648,-3.8410214312779445,44.6
,,0.011515837748301755,0.021471658316955813,0.0059992886312999075,0.038986784696557475,0.7047850957980615,0.29537798097309115,0.5507419625412648,-3.8410214312779445,44.7
,,0.008841235004544652,0.022148090141205164,0.0056861934522681,0.03667551859801792,0.6999278600823876,0.24106639367391156,0.603893032405604,-3.8100040100818404,44.8
,,0.009816617615729217,0.023396724966939092,0.0016362628606523897,0.0348496054433207,0.6953077991737958,0.28168518670017473,0.6713626931872001,-3.7551592250914276,44.9
,,0.009816617615729217,0.023396724966939092,0.0016362628606523897,0.0348496054433207,0.6906877382652038,0.28168518670017473,0.6713626931872001,-3.7551592250914276,45.0
,,0.009816617615729217,0.023396724966939092,0.0016362628606523897,0.0348496054433207,0.6860676773566118,0.28168518670017473,0.6713626931872001,-3.7551592250914276,45.1
,,0.009816617615729217,0.023396724966939092,0.0016362628606523897,0.0348496054433207,0.6814476164480199,0.28168518670017473,0.6713626931872001,-3.7551592250914276,45.2
,,0.009816617615729217,0.023396724966939092,0.0016362628606523897,0.0348496054433207,0.6768275555394279,0.28168518670017473,0.6713626931872001,-3.7551592250914276,45.3
,,0.011000532030718033,0.02020248193964636,0.006414321093051975,0.037617335063416364,0.6731877109236544,0.29243251846982316,0.5370524495046883,-3.9019498138233444,45.4
,,0.006513868297695994,0.020840437398705152,0.0015577769416908558,0.028912082638092,0.6670681579251583,0.22529917264119526,0.7208210373350149,-3.870860073895672,45.5
,,0.006513868297695994,0.020840437398705152,0.0015577769416908558,0.028912082638092,0.6609486049266619,0.22529917264119526,0.7208210373350149,-3.870860073895672,45.6
,,0.006513868297695994,0.020840437398705152,0.0015577769416908558,0.028912082638092,0.6548290519281657,0.22529917264119526,0.7208210373350149,-3.870860073895672,45.7
,,0.006513868297695994,0.020840437398705152,0.0015577769416908558,0.028912082638092,0.6487094989296694,0.22529917264119526,0.7208210373350149,-3.870860073895672,45.8
,,0.006513868297695994,0.020840437398705152,0.0015577769416908558,0.028912082638092,0.6425899459311731,0.22529917264119526,0.7208210373350149,-3.870860073895672,45.9
,,0.006513868297695994,0.020840437398705152,0.0015577769416908558,0.028912082638092,0.6363530999050699,0.22529917264119526,0.7208210373350149,-3.870860073895672,46.0
,,0.0107458387136817,0.01851360167800291,0.006297279909947523,0.03555672030163213,0.6332728797102619,0.30221681365782327,0.520677990572519,-3.9892495912059753,46.1
,,0.0107458387136817,0.01851360167800291,0.006297279909947523,0.03555672030163213,0.630192659515454,0.30221681365782327,0.520677990572519,-3.9892495912059753,46.2
,,0.0107458387136817,0.01851360167800291,0.006297279909947523,0.03555672030163213,0.627112439320646,0.30221681365782327,0.520677990572519,-3.9892495912059753,46.3
,,0.0107458387136817,0.01851360167800291,0.006297279909947523,0.03555672030163213,0.6240322191258381,0.30221681365782327,0.520677990572519,-3.9892495912059753,46.4
,,0.0107458387136817,0.01851360167800291,0.006297279909947523,0.03555672030163213,0.6209519989310299,0.30221681365782327,0.520677990572519,-3.9892495912059753,46.5
,,0.0107458387136817,0.01851360167800291,0.006297279909947523,0.03555672030163213,0.6174261856605916,0.30221681365782327,0.520677990572519,-3.9892495912059753,46.6
,,0.009043108189026207,0.019171444967253187,0.001738921448179513,0.029953474604458907,0.6126922317797093,0.3019051481820423,0.6400407705755546,-3.9543333482783845,46.7
,,0.010734300682912815,0.01748380447800506,0.006397228323067624,0.0346153334839855,0.6098581606793902,0.3101024777900508,0.5050884310010706,-4.046480284953398,46.8
,,0.010734300682912815,0.01748380447800506,0.006397228323067624,0.0346153334839855,0.6070240895790711,0.3101024777900508,0.5050884310010706,-4.046480284953398,46.9
,,0.010734300682912815,0.01748380447800506,0.006397228323067624,0.0346153334839855,0.6041900184787521,0.3101024777900508,0.5050884310010706,-4.046480284953398,47.0
,,0.010734300682912815,0.01748380447800506,0.006397228323067624,0.0346153334839855,0.601355947378433,0.3101024777900508,0.5050884310010706,-4.046480284953398,47.1
,,0.010734300682912815,0.01748380447800506,0.006397228323067624,0.0346153334839855,0.5983560859020399,0.3101024777900508,0.5050884310010706,-4.046480284953398,47.2
,,0.010535353311544031,0.016867084991890654,0.006564277759997716,0.0339667160634324,0.5954745955030053,0.31016696732970583,0.496576853658493,-4.082391189773638,47.3
,,0.010883388922893117,0.016577683757441772,0.006527946646124808,0.033989019326459695,0.5933632830246377,0.3202030873076894,0.48773645388869497,-4.099697840032769,47.4
,,0.010883388922893117,0.016577683757441772,0.006527946646124808,0.033989019326459695,0.59125197054627,0.3202030873076894,0.48773645388869497,-4.099697840032769,47.5
,,0.010883388922893117,0.016577683757441772,0.006527946646124808,0.033989019326459695,0.5891406580679023,0.3202030873076894,0.48773645388869497,-4.099697840032769,47.6
,,0.010883388922893117,0.016577683757441772,0.006527946646124808,0.033989019326459695,0.5870293455895346,0.3202030873076894,0.48773645388869497,-4.099697840032769,47.7
,,0.010883388922893117,0.016577683757441772,0.006527946646124808,0.033989019326459695,0.5848280884826677,0.3202030873076894,0.48773645388869497,-4.099697840032769,47.8
,,0.009827369773685075,0.017290857886845326,0.0018721548993082967,0.0289903825598387,0.5816473645397555,0.33898724010973363,0.596434277855957,-4.057577363002212,47.9
,,0.009827369773685075,0.017290857886845326,0.0018721548993082967,0.0289903825598387,0.5784666405968433,0.33898724010973363,0.596434277855957,-4.057577363002212,48.0
,,0.011187361018371905,0.015763947363629245,0.006696082101945157,0.033647390483946306,0.577332983253171,0.3324882214479476,0.4685043070769625,-4.150029758678727,48.1
,,0.011187361018371905,0.015763947363629245,0.006696082101945157,0.033647390483946306,0.5761993259094987,0.3324882214479476,0.4685043070769625,-4.150029758678727,48.2
,,0.011187361018371905,0.015763947363629245,0.006696082101945157,0.033647390483946306,0.5750656685658264,0.3324882214479476,0.4685043070769625,-4.150029758678727,48.3
,,0.011187361018371905,0.015763947363629245,0.006696082101945157,0.033647390483946306,0.5739162893511854,0.3324882214479476,0.4685043070769625,-4.150029758678727,48.4
,,0.010663992351737955,0.016764399899125433,0.001996347568579578,0.029424739819442967,0.5719494570080015,0.36241585880366955,0.5697382543395687,-4.08849769456738,48.5
,,0.010663992351737955,0.016764399899125433,0.001996347568579578,0.029424739819442967,0.5699826246648176,0.36241585880366955,0.5697382543395687,-4.08849769456738,48.6
,,0.011629391583134183,0.015111182553479551,0.006899094071897245,0.03363966820851098,0.5694988929012018,0.3457047052619829,0.44920724127880546,-4.192320242789687,48.7
,,0.011629391583134183,0.015111182553479551,0.006899094071897245,0.03363966820851098,0.5695303767321191,0.3457047052619829,0.44920724127880546,-4.192320242789687,48.8
,,0.011629391583134183,0.015111182553479551,0.006899094071897245,0.03363966820851098,0.5695618605630364,0.3457047052619829,0.44920724127880546,-4.192320242789687,48.9
,,0.011629391583134183,0.015111182553479551,0.006899094071897245,0.03363966820851098,0.5696270775487428,0.3457047052619829,0.44920724127880546,-4.192320242789687,49.0
,,0.011629391583134183,0.015111182553479551,0.006899094071897245,0.03363966820851098,0.569692294534449,0.3457047052619829,0.44920724127880546,-4.192320242789687,49.1
,,0.011619846897942253,0.014788355454776601,0.007052244798672904,0.03346044715139176,0.5699370065909471,0.34727111820616946,0.44196526686767523,-4.213915201492774,49.2
,,0.011619846897942253,0.014788355454776601,0.007052244798672904,0.03346044715139176,0.5701817186474452,0.34727111820616946,0.44196526686767523,-4.213915201492774,49.3
,,0.012165345404362971,0.01598443748988934,0.002059608189354579,0.03020939108360689,0.5706743132532799,0.40270078171037643,0.5291214723809275,-4.136139686961932,49.4
,,0.012165345404362971,0.01598443748988934,0.002059608189354579,0.03020939108360689,0.5711669078591146,0.40270078171037643,0.5291214723809275,-4.136139686961932,49.5
,,0.012165345404362971,0.01598443748988934,0.002059608189354579,0.03020939108360689,0.5724904392605207,0.40270078171037643,0.5291214723809275,-4.136139686961932,49.6
,,0.012165345404362971,0.01598443748988934,0.002059608189354579,0.03020939108360689,0.5738139706619266,0.40270078171037643,0.5291214723809275,-4.136139686961932,49.7
,,0.012750105435523027,0.016006120009921767,0.0023049581162439756,0.03106118356168877,0.5755319748031519,0.41048356738244696,0.515309404682953,-4.134784129256959,49.8
,,0.012750105435523027,0.016006120009921767,0.0023049581162439756,0.03106118356168877,0.5772499789443772,0.41048356738244696,0.515309404682953,-4.134784129256959,49.9
,,0.012750105435523027,0.016006120009921767,0.0023049581162439756,0.03106118356168877,0.5795145732577972,0.41048356738244696,0.515309404682953,-4.134784129256959,50.0
,,0.012704732271764083,0.014078659034435146,0.007290085585510231,0.03407347689170946,0.5829550984752978,0.3728628079882073,0.4131852783670772,-4.26309517181936,50.1
,,0.012704732271764083,0.014078659034435146,0.007290085585510231,0.03407347689170946,0.5856293776096846,0.3728628079882073,0.4131852783670772,-4.26309517181936,50.2
,,0.012704732271764083,0.014078659034435146,0.007290085585510231,0.03407347689170946,0.5883036567440714,0.3728628079882073,0.4131852783670772,-4.26309517181936,50.3
,,0.013599418377723797,0.015346572628447026,0.0024345303026269225,0.031380521308797746,0.5907973000608321,0.433371333888934,0.48904772732837004,-4.1768631114143595,50.4
,,0.013599418377723797,0.015346572628447026,0.0024345303026269225,0.031380521308797746,0.5932909433775928,0.433371333888934,0.48904772732837004,-4.1768631114143595,50.5
,,0.013599418377723797,0.015346572628447026,0.0024345303026269225,0.031380521308797746,0.5957845866943535,0.433371333888934,0.48904772732837004,-4.1768631114143595,50.6
,,0.01323600777173809,0.01368684253242399,0.007449756886549442,0.03437260719071152,0.599591784164206,0.3850743034504186,0.398190409487546,-4.291320306719899,50.7
,,0.01323600777173809,0.01368684253242399,0.007449756886549442,0.03437260719071152,0.6063832878208123,0.3850743034504186,0.398190409487546,-4.291320306719899,50.8
,,0.01323600777173809,0.01368684253242399,0.007449756886549442,0.03437260719071152,0.6131747914774185,0.3850743034504186,0.398190409487546,-4.291320306719899,50.9
,,0.013311411983814666,0.01364124672234692,0.00751108544915283,0.03446374415531442,0.6200636291251971,0.3862439299637734,0.39581441473309553,-4.294657228812131,51.0
,,0.013311411983814666,0.01364124672234692,0.00751108544915283,0.03446374415531442,0.6269524667729757,0.3862439299637734,0.39581441473309553,-4.294657228812131,51.1
,,0.013311411983814666,0.01364124672234692,0.00751108544915283,0.03446374415531442,0.6338413044207543,0.3862439299637734,0.39581441473309553,-4.294657228812131,51.2
,,0.013311411983814666,0.01364124672234692,0.00751108544915283,0.03446374415531442,0.6381514828333203,0.3862439299637734,0.39581441473309553,-4.294657228812131,51.3
,,0.014983390987064572,0.014704754599386641,0.0025092235923322927,0.032197369178783505,0.6429949638710952,0.46536072260642636,0.4567067115867453,-4.2195843953584315,51.4
,,0.01374309029411008,0.013358405162818632,0.007568357063834327,0.03466985252076304,0.6479478727689466,0.39639886803324687,0.38530320124144074,-4.3156094920398065,51.5
,,0.015095053501948931,0.014266877433647953,0.0027502139406680682,0.03211214487626495,0.6532257997994718,0.47007303810173506,0.44428291814892223,-4.249814691785082,51.6
,,0.01374309029411008,0.013358405162818632,0.007568357063834327,0.03466985252076304,0.6581787086973233,0.39639886803324687,0.38530320124144074,-4.3156094920398065,51.7
,,0.01374309029411008,0.013358405162818632,0.007568357063834327,0.03466985252076304,0.6631316175951748,0.39639886803324687,0.38530320124144074,-4.3156094920398065,51.8
,,0.01374309029411008,0.013358405162818632,0.007568357063834327,0.03466985252076304,0.6680845264930262,0.39639886803324687,0.38530320124144074,-4.3156094920398065,51.9
,,0.013998212740116527,0.013038119917587984,0.006790440780056287,0.0338267734377608,0.6737898316233213,0.4138205130877287,0.385437882261438,-4.339877910977372,52.0
,,0.013990122762096147,0.013104280134625406,0.007541650007136419,0.034636052903857975,0.6794604037502474,0.40391792912805724,0.3783421907513535,-4.334816374304946,52.1
,,0.013990122762096147,0.013104280134625406,0.007541650007136419,0.034636052903857975,0.6851309758771732,0.40391792912805724,0.3783421907513535,-4.334816374304946,52.2
,,0.013990122762096147,0.013104280134625406,0.007541650007136419,0.034636052903857975,0.6908015480040993,0.40391792912805724,0.3783421907513535,-4.334816374304946,52.3
,,0.013990122762096147,0.013104280134625406,0.007541650007136419,0.034636052903857975,0.6964721201310253,0.40391792912805724,0.3783421907513535,-4.334816374304946,52.4
,,0.013990122762096147,0.013104280134625406,0.007541650007136419,0.034636052903857975,0.7021426922579512,0.40391792912805724,0.3783421907513535,-4.334816374304946,52.5
,,0.014069231674493865,0.012741681640137358,0.006702121302698489,0.03351303461732971,0.7083764160884976,0.41981371830823744,0.3802007721959201,-4.362876640677876,52.6
,,0.014069231674493865,0.012741681640137358,0.006702121302698489,0.03351303461732971,0.7146242054557953,0.41981371830823744,0.3802007721959201,-4.362876640677876,52.7
,,0.014057949943010413,0.012924393022602256,0.00744874878981473,0.0344310917554274,0.7206888529922476,0.40829230867459926,0.3753698289443574,-4.348638821191162,52.8
,,0.014057949943010413,0.012924393022602256,0.00744874878981473,0.0344310917554274,0.7267535005287,0.40829230867459926,0.3753698289443574,-4.348638821191162,52.9
,,0.014057949943010413,0.012924393022602256,0.00744874878981473,0.0344310917554274,0.7328181480651523,0.40829230867459926,0.3753698289443574,-4.348638821191162,53.0
,,0.014057949943010413,0.012924393022602256,0.00744874878981473,0.0344310917554274,0.7388827956016045,0.40829230867459926,0.3753698289443574,-4.348638821191162,53.1
,,0.014057949943010413,0.012924393022602256,0.00744874878981473,0.0344310917554274,0.7450196015525237,0.40829230867459926,0.3753698289443574,-4.348638821191162,53.2
,,0.013958498989094202,0.01253779690941868,0.006553749490436149,0.03305004538894903,0.7514305590814117,0.4223443213110235,0.379357933154638,-4.379007444266121,53.3
,,0.013915691429115118,0.012800807946963788,0.00729765310330006,0.034014152479378966,0.757550197057894,0.40911474826696,0.37633770104147857,-4.358246989192057,53.4
,,0.013915691429115118,0.012800807946963788,0.00729765310330006,0.034014152479378966,0.7636698350343764,0.40911474826696,0.37633770104147857,-4.358246989192057,53.5
,,0.013915691429115118,0.012800807946963788,0.00729765310330006,0.034014152479378966,0.7697894730108586,0.40911474826696,0.37633770104147857,-4.358246989192057,53.6
,,0.013915691429115118,0.012800807946963788,0.00729765310330006,0.034014152479378966,0.7759091109873409,0.40911474826696,0.37633770104147857,-4.358246989192057,53.7
,,0.013915691429115118,0.012800807946963788,0.00729765310330006,0.034014152479378966,0.7835525280229025,0.40911474826696,0.37633770104147857,-4.358246989192057,53.8
,,0.01365294435966675,0.012399478589791835,0.006357196205333979,0.03240961915479257,0.7911249491766911,0.4212621041444056,0.38258637136617707,-4.390100856465574,53.9
,,0.013503224409425143,0.01264272426460531,0.007075151114789692,0.033221099788820145,0.7983304000388287,0.4064653035348747,0.38056308626061647,-4.370673386223011,54.0
,,0.013503224409425143,0.01264272426460531,0.007075151114789692,0.033221099788820145,0.8055358509009661,0.4064653035348747,0.38056308626061647,-4.370673386223011,54.1
,,0.013503224409425143,0.01264272426460531,0.007075151114789692,0.033221099788820145,0.8127413017631038,0.4064653035348747,0.38056308626061647,-4.370673386223011,54.2
,,0.013503224409425143,0.01264272426460531,0.007075151114789692,0.033221099788820145,0.8199467526252413,0.4064653035348747,0.38056308626061647,-4.370673386223011,54.3
,,0.013503224409425143,0.01264272426460531,0.007075151114789692,0.033221099788820145,0.8257639635540599,0.4064653035348747,0.38056308626061647,-4.370673386223011,54.4
,,0.013063319973573498,0.012203661741512975,0.006083707493674765,0.03135068920876124,0.8341848918819121,0.41668366161222486,0.38926294922098714,-4.406019229529784,54.5
,,0.01279742946441281,0.012429720430641009,0.006767290056340007,0.031994439951393824,0.8421518246848305,0.3999891694886597,0.3884962652737265,-4.387664865213581,54.6
,,0.01279742946441281,0.012429720430641009,0.006767290056340007,0.031994439951393824,0.8501187574877485,0.3999891694886597,0.3884962652737265,-4.387664865213581,54.7
,,0.01279742946441281,0.012429720430641009,0.006767290056340007,0.031994439951393824,0.8580856902906666,0.3999891694886597,0.3884962652737265,-4.387664865213581,54.8
,,0.01279742946441281,0.012429720430641009,0.006767290056340007,0.031994439951393824,0.866052623093585,0.3999891694886597,0.3884962652737265,-4.387664865213581,54.9
,,0.01279742946441281,0.012429720430641009,0.006767290056340007,0.031994439951393824,0.8740195558965032,0.3999891694886597,0.3884962652737265,-4.387664865213581,55.0
,,0.01279742946441281,0.012429720430641009,0.006767290056340007,0.031994439951393824,0.879010152001238,0.3999891694886597,0.3884962652737265,-4.387664865213581,55.1
,,0.007795533589599374,0.011991720529921856,0.005766170480999535,0.025553424600520763,0.8797840067022964,0.30506805688347954,0.46928036916341426,-4.423538823163051,55.2
,,0.012006171842896079,0.012284305509346555,0.006493808794693512,0.030784286146936148,0.8841943313352277,0.3900097532094637,0.3990446765831264,-4.399432806202688,55.3
,,0.012006171842896079,0.012284305509346555,0.006493808794693512,0.030784286146936148,0.8886046559681592,0.3900097532094637,0.3990446765831264,-4.399432806202688,55.4
,,0.012006171842896079,0.012284305509346555,0.006493808794693512,0.030784286146936148,0.8930149806010905,0.3900097532094637,0.3990446765831264,-4.399432806202688,55.5
,,0.012006171842896079,0.012284305509346555,0.006493808794693512,0.030784286146936148,0.897425305234022,0.3900097532094637,0.3990446765831264,-4.399432806202688,55.6
,,0.012006171842896079,0.012284305509346555,0.006493808794693512,0.030784286146936148,0.9030437704773974,0.3900097532094637,0.3990446765831264,-4.399432806202688,55.7
,,0.007373719203553289,0.011874353656307561,0.0055031920001100115,0.02475126485997086,0.9031217901697488,0.29791282365849847,0.479747347195635,-4.433374359485262,55.8
,,0.011116901570521585,0.012101454541489726,0.006239884891072462,0.029458241003083772,0.9065071786588093,0.377378322397384,0.4108003101822309,-4.414429623563616,55.9
,,0.011116901570521585,0.012101454541489726,0.006239884891072462,0.029458241003083772,0.9098925671478696,0.377378322397384,0.4108003101822309,-4.414429623563616,56.0
,,0.011116901570521585,0.012101454541489726,0.006239884891072462,0.029458241003083772,0.9132779556369301,0.377378322397384,0.4108003101822309,-4.414429623563616,56.1
,,0.011116901570521585,0.012101454541489726,0.006239884891072462,0.029458241003083772,0.9166633441259907,0.377378322397384,0.4108003101822309,-4.414429623563616,56.2
,,0.011116901570521585,0.012101454541489726,0.006239884891072462,0.029458241003083772,0.9199303615376926,0.377378322397384,0.4108003101822309,-4.414429623563616,56.3
,,0.010418401497920497,0.008899821271580993,0.0034934832619145256,0.022811706031416017,0.9256428282175864,0.45671294744778823,0.3901427301984456,-4.721724084290518,56.4
,,0.010132896436089129,0.011839718105851988,0.0059879411423469945,0.027960555684288114,0.9278576161620735,0.3623996801244945,0.42344359101936896,-4.4362954584370735,56.5
,,0.010132896436089129,0.011839718105851988,0.0059879411423469945,0.027960555684288114,0.9300724041065607,0.3623996801244945,0.42344359101936896,-4.4362954584370735,56.6
,,0.010132896436089129,0.011839718105851988,0.0059879411423469945,0.027960555684288114,0.9322871920510478,0.3623996801244945,0.42344359101936896,-4.4362954584370735,56.7
,,0.010132896436089129,0.011839718105851988,0.0059879411423469945,0.027960555684288114,0.934501979995535,0.3623996801244945,0.42344359101936896,-4.4362954584370735,56.8
,,0.010132896436089129,0.011839718105851988,0.0059879411423469945,0.027960555684288114,0.9376962347760672,0.3623996801244945,0.42344359101936896,-4.4362954584370735,56.9
,,0.010132896436089129,0.011839718105851988,0.0059879411423469945,0.027960555684288114,0.9408904895565995,0.3623996801244945,0.42344359101936896,-4.4362954584370735,57.0
,,0.009165272980531035,0.011597136634739123,0.0058089397966935045,0.026571349411963662,0.9417863188786698,0.3449306558892489,0.43645267897149215,-4.456997053173112,57.1
,,0.009165272980531035,0.011597136634739123,0.0058089397966935045,0.026571349411963662,0.9426821482007401,0.3449306558892489,0.43645267897149215,-4.456997053173112,57.2
,,0.009165272980531035,0.011597136634739123,0.0058089397966935045,0.026571349411963662,0.9435779775228105,0.3449306558892489,0.43645267897149215,-4.456997053173112,57.3
,,0.009165272980531035,0.011597136634739123,0.0058089397966935045,0.026571349411963662,0.9444738068448809,0.3449306558892489,0.43645267897149215,-4.456997053173112,57.4
,,0.009165272980531035,0.011597136634739123,0.0058089397966935045,0.026571349411963662,0.946187089295494,0.3449306558892489,0.43645267897149215,-4.456997053173112,57.5
,,0.009165272980531035,0.011597136634739123,0.0058089397966935045,0.026571349411963662,0.9479003717461073,0.3449306558892489,0.43645267897149215,-4.456997053173112,57.6
,,0.008373017264447459,0.011449562021073816,0.0057710257855174436,0.025593605071038715,0.9474748984669555,0.3271527102651991,0.447360267898716,-4.469803801148094,57.7
,,0.008373017264447459,0.011449562021073816,0.0057710257855174436,0.025593605071038715,0.9470494251878037,0.3271527102651991,0.447360267898716,-4.469803801148094,57.8
,,0.008373017264447459,0.011449562021073816,0.0057710257855174436,0.025593605071038715,0.9466239519086519,0.3271527102651991,0.447360267898716,-4.469803801148094,57.9
,,0.008373017264447459,0.011449562021073816,0.0057710257855174436,0.025593605071038715,0.9461984786295,0.3271527102651991,0.447360267898716,-4.469803801148094,58.0
,,0.008373017264447459,0.011449562021073816,0.0057710257855174436,0.025593605071038715,0.9457730053503483,0.3271527102651991,0.447360267898716,-4.469803801148094,58.1
,,0.008373017264447459,0.011449562021073816,0.0057710257855174436,0.025593605071038715,0.9451680370004046,0.3271527102651991,0.447360267898716,-4.469803801148094,58.2
,,0.007664711905236467,0.01127728232687774,0.00579089598702952,0.024732890219143724,0.9439893311962961,0.3098995643988196,0.45596297994113566,-4.484964990408436,58.3
,,0.007664711905236467,0.01127728232687774,0.00579089598702952,0.024732890219143724,0.9430847215698501,0.3098995643988196,0.45596297994113566,-4.484964990408436,58.4
,,0.007664711905236467,0.01127728232687774,0.00579089598702952,0.024732890219143724,0.9421801119434041,0.3098995643988196,0.45596297994113566,-4.484964990408436,58.5
,,0.007664711905236467,0.01127728232687774,0.00579089598702952,0.024732890219143724,0.9412755023169582,0.3098995643988196,0.45596297994113566,-4.484964990408436,58.6
,,0.007664711905236467,0.01127728232687774,0.00579089598702952,0.024732890219143724,0.9403708926905122,0.3098995643988196,0.45596297994113566,-4.484964990408436,58.7
,,0.007664711905236467,0.01127728232687774,0.00579089598702952,0.024732890219143724,0.9390718103242469,0.3098995643988196,0.45596297994113566,-4.484964990408436,58.8
,,0.006975705812299552,0.011022714558082763,0.0058397575851847055,0.023838177955567023,0.9372526033135196,0.2926274745201526,0.46239752797501815,-4.507797175457103,58.9
,,0.006975705812299552,0.011022714558082763,0.0058397575851847055,0.023838177955567023,0.9354333963027922,0.2926274745201526,0.46239752797501815,-4.507797175457103,59.0
,,0.006975705812299552,0.011022714558082763,0.0058397575851847055,0.023838177955567023,0.9324382583879842,0.2926274745201526,0.46239752797501815,-4.507797175457103,59.1
,,0.006975705812299552,0.011022714558082763,0.0058397575851847055,0.023838177955567023,0.9294431204731762,0.2926274745201526,0.46239752797501815,-4.507797175457103,59.2
,,0.006975705812299552,0.011022714558082763,0.0058397575851847055,0.023838177955567023,0.9264479825583684,0.2926274745201526,0.46239752797501815,-4.507797175457103,59.3
,,0.006975705812299552,0.011022714558082763,0.0058397575851847055,0.023838177955567023,0.9236334804611863,0.2926274745201526,0.46239752797501815,-4.507797175457103,59.4
,,0.006375582521807942,0.010743199305770583,0.0059555713336579465,0.023074353161236474,0.9203812517869363,0.2763060128818058,0.465590486142793,-4.533482347317667,59.5
,,0.006375582521807942,0.010743199305770583,0.0059555713336579465,0.023074353161236474,0.9171290231126861,0.2763060128818058,0.465590486142793,-4.533482347317667,59.6
,,0.006375582521807942,0.010743199305770583,0.0059555713336579465,0.023074353161236474,0.9129778248602697,0.2763060128818058,0.465590486142793,-4.533482347317667,59.7
,,0.006375582521807942,0.010743199305770583,0.0059555713336579465,0.023074353161236474,0.9088266266078531,0.2763060128818058,0.465590486142793,-4.533482347317667,59.8
,,0.006375582521807942,0.010743199305770583,0.0059555713336579465,0.023074353161236474,0.9046754283554366,0.2763060128818058,0.465590486142793,-4.533482347317667,59.9
,,0.006375582521807942,0.010743199305770583,0.0059555713336579465,0.023074353161236474,0.9004268961118476,0.2763060128818058,0.465590486142793,-4.533482347317667,60.0
,,0.0061086139763004725,0.010628623022789448,0.00631309089669012,0.023050327895780043,0.8959703585389355,0.26501202082330516,0.46110506847650057,-4.5442046319154805,60.1
,,0.00589834207466935,0.010485802343650982,0.006159817062335822,0.022543961480656155,0.8913779883777637,0.2616373382171728,0.46512687455788654,-4.557733094556372,60.2
,,0.00589834207466935,0.010485802343650982,0.006159817062335822,0.022543961480656155,0.8867856182165922,0.2616373382171728,0.46512687455788654,-4.557733094556372,60.3
,,0.00589834207466935,0.010485802343650982,0.006159817062335822,0.022543961480656155,0.8817140486120446,0.2616373382171728,0.46512687455788654,-4.557733094556372,60.4
,,0.00589834207466935,0.010485802343650982,0.006159817062335822,0.022543961480656155,0.8765330511474204,0.2616373382171728,0.46512687455788654,-4.557733094556372,60.5
,,0.00589834207466935,0.010485802343650982,0.006159817062335822,0.022543961480656155,0.8710270355501226,0.2616373382171728,0.46512687455788654,-4.557733094556372,60.6
,,0.0056612602092153295,0.010317183046461072,0.006522475431254572,0.022500918686930972,0.8656928607741624,0.25160129183985336,0.45852274700470425,-4.573944516803486,60.7
,,0.005217924673491567,0.005695716054805566,0.004803435248353528,0.01571707597665066,0.8644408237689978,0.3319908029485467,0.36239031123010035,-5.16804095604381,60.8
,,0.005217924673491567,0.005695716054805566,0.004803435248353528,0.01571707597665066,0.8631887867638331,0.3319908029485467,0.36239031123010035,-5.16804095604381,60.9
,,0.005217924673491567,0.005695716054805566,0.004803435248353528,0.01571707597665066,0.8614385260676144,0.3319908029485467,0.36239031123010035,-5.16804095604381,61.0
,,0.005217924673491567,0.005695716054805566,0.004803435248353528,0.01571707597665066,0.859755352917037,0.3319908029485467,0.36239031123010035,-5.16804095604381,61.1
,,0.005217924673491567,0.005695716054805566,0.004803435248353528,0.01571707597665066,0.8580721797664594,0.3319908029485467,0.36239031123010035,-5.16804095604381,61.2
,,0.005291178420590381,0.009985338408391452,0.006822595103601382,0.022099111932583217,0.8520976827011518,0.2394294592801713,0.4518434242449779,-4.6066374210120085,61.3
,,0.005291178420590381,0.009985338408391452,0.006822595103601382,0.022099111932583217,0.8461231856358444,0.2394294592801713,0.4518434242449779,-4.6066374210120085,61.4
,,0.005298165404685439,0.010039331325213948,0.006781752887924511,0.022119249617823897,0.8401247564994552,0.23952735722174448,0.4538730516935874,-4.601244768010812,61.5
,,0.005298165404685439,0.010039331325213948,0.006781752887924511,0.022119249617823897,0.8337197711550205,0.23952735722174448,0.4538730516935874,-4.601244768010812,61.6
,,0.005298165404685439,0.010039331325213948,0.006781752887924511,0.022119249617823897,0.8273147858105859,0.23952735722174448,0.4538730516935874,-4.601244768010812,61.7
,,0.005298165404685439,0.010039331325213948,0.006781752887924511,0.022119249617823897,0.821092942296997,0.23952735722174448,0.4538730516935874,-4.601244768010812,61.8
,,0.005124872939597219,0.009848235580305209,0.007285747024917073,0.022258855544819503,0.8147893656640908,0.23023973219458607,0.4424412369483782,-4.620462968746662,61.9
,,0.005124872939597219,0.009848235580305209,0.007285747024917073,0.022258855544819503,0.8084857890311847,0.23023973219458607,0.4424412369483782,-4.620462968746662,62.0
,,0.00520732348548177,0.009949575856664707,0.007303270848266488,0.022460170190412965,0.8022153959432713,0.23184701813633166,0.4429875540707899,-4.610225356191096,62.1
,,0.00520732348548177,0.009949575856664707,0.007303270848266488,0.022460170190412965,0.7959450028553576,0.23184701813633166,0.4429875540707899,-4.610225356191096,62.2
,,0.00520732348548177,0.009949575856664707,0.007303270848266488,0.022460170190412965,0.7893900902970771,0.23184701813633166,0.4429875540707899,-4.610225356191096,62.3
,,0.00520732348548177,0.009949575856664707,0.007303270848266488,0.022460170190412965,0.7831264972912021,0.23184701813633166,0.4429875540707899,-4.610225356191096,62.4
,,0.00520732348548177,0.009949575856664707,0.007303270848266488,0.022460170190412965,0.7768629042853269,0.23184701813633166,0.4429875540707899,-4.610225356191096,62.5
,,0.005041194868354438,0.009695670027393383,0.007829499287820715,0.022566364183568537,0.7705612168784584,0.22339419976325348,0.42965140279235514,-4.6360758820625145,62.6
,,0.005191976375134872,0.009813371742311758,0.007882757523880716,0.022888105641327344,0.7643609594809121,0.22684168172310895,0.4287542139176641,-4.624009359838832,62.7
,,0.005191976375134872,0.009813371742311758,0.007882757523880716,0.022888105641327344,0.7581607020833658,0.22684168172310895,0.4287542139176641,-4.624009359838832,62.8
,,0.005191976375134872,0.009813371742311758,0.007882757523880716,0.022888105641327344,0.7518049399591503,0.22684168172310895,0.4287542139176641,-4.624009359838832,62.9
,,0.005191976375134872,0.009813371742311758,0.007882757523880716,0.022888105641327344,0.7458161481265857,0.22684168172310895,0.4287542139176641,-4.624009359838832,63.0
,,0.005191976375134872,0.009813371742311758,0.007882757523880716,0.022888105641327344,0.7398273562940212,0.22684168172310895,0.4287542139176641,-4.624009359838832,63.1
,,0.005063700182731015,0.009560221611838416,0.00838601273939929,0.02300993453396872,0.7338451407320529,0.22006582310156775,0.41548234731937256,-4.65014437103286,63.2
,,0.005295732437744227,0.009711939478270058,0.008508983162677841,0.023516655078692127,0.7280364490902311,0.22519071781354494,0.41298132943531635,-4.634399276328763,63.3
,,0.005295732437744227,0.009711939478270058,0.008508983162677841,0.023516655078692127,0.7222277574484097,0.22519071781354494,0.41298132943531635,-4.634399276328763,63.4
,,0.005295732437744227,0.009711939478270058,0.008508983162677841,0.023516655078692127,0.7163926238847464,0.22519071781354494,0.41298132943531635,-4.634399276328763,63.5
,,0.005295732437744227,0.009711939478270058,0.008508983162677841,0.023516655078692127,0.7110114858460174,0.22519071781354494,0.41298132943531635,-4.634399276328763,63.6
,,0.005295732437744227,0.009711939478270058,0.008508983162677841,0.023516655078692127,0.7056303478072881,0.22519071781354494,0.41298132943531635,-4.634399276328763,63.7
,,0.005180169386694663,0.009428468272831904,0.008990696543625873,0.02359933420315244,0.7002951796548381,0.2195048954390708,0.3995226387180208,-4.664021626831128,63.8
,,0.0055012957756150095,0.009628930981628802,0.009182379471196751,0.024312606228440562,0.6952034775339413,0.2262733877201395,0.3960468446350687,-4.642983068510734,63.9
,,0.0055012957756150095,0.009628930981628802,0.009182379471196751,0.024312606228440562,0.6901117754130446,0.2262733877201395,0.3960468446350687,-4.642983068510734,64.0
,,0.0055012957756150095,0.009628930981628802,0.009182379471196751,0.024312606228440562,0.6850200732921479,0.2262733877201395,0.3960468446350687,-4.642983068510734,64.1
,,0.0055012957756150095,0.009628930981628802,0.009182379471196751,0.024312606228440562,0.6841451125749276,0.2262733877201395,0.3960468446350687,-4.642983068510734,64.2
,,0.0055012957756150095,0.009628930981628802,0.009182379471196751,0.024312606228440562,0.6796336819258344,0.2262733877201395,0.3960468446350687,-4.642983068510734,64.3
,,0.004943560938200002,0.00533958578558762,0.006436941960074998,0.01672008868386262,0.6790611671874368,0.2956659519976874,0.31935152298211894,-5.232607197260624,64.4
,,0.005828694700699553,0.009590196018891585,0.009937843624769594,0.025356734344360733,0.6749546979815798,0.22986771961807606,0.3782110065377728,-4.647013950369553,64.5
,,0.005828694700699553,0.009590196018891585,0.009937843624769594,0.025356734344360733,0.670848228775723,0.22986771961807606,0.3782110065377728,-4.647013950369553,64.6
,,0.005828694700699553,0.009590196018891585,0.009937843624769594,0.025356734344360733,0.6667417595698661,0.22986771961807606,0.3782110065377728,-4.647013950369553,64.7
,,0.005828694700699553,0.009590196018891585,0.009937843624769594,0.025356734344360733,0.6665950686163883,0.22986771961807606,0.3782110065377728,-4.647013950369553,64.8
,,0.005771209347527631,0.009355419475501352,0.010405930617974202,0.025532559441003185,0.6632422054527018,0.22603332661822945,0.3664113461526822,-4.671799480549825,64.9
,,0.005771209347527631,0.009355419475501352,0.010405930617974202,0.025532559441003185,0.6598893422890152,0.22603332661822945,0.3664113461526822,-4.671799480549825,65.0
,,0.00629006582957981,0.009639280142643305,0.010731893427974466,0.02666123940019758,0.6569327135952642,0.2359254847519653,0.3615465882119445,-4.641908847147582,65.1
,,0.00629006582957981,0.009639280142643305,0.010731893427974466,0.02666123940019758,0.653976084901513,0.2359254847519653,0.3615465882119445,-4.641908847147582,65.2
,,0.00629006582957981,0.009639280142643305,0.010731893427974466,0.02666123940019758,0.651019456207762,0.2359254847519653,0.3615465882119445,-4.641908847147582,65.3
,,0.00629006582957981,0.009639280142643305,0.010731893427974466,0.02666123940019758,0.6452629535990096,0.2359254847519653,0.3615465882119445,-4.641908847147582,65.4
,,0.006247442379068347,0.00943710281520515,0.011189733847551476,0.026874279041824968,0.6431092778044428,0.2324692085449187,0.35115743200098504,-4.663106251098704,65.5
,,0.006247442379068347,0.00943710281520515,0.011189733847551476,0.026874279041824968,0.640955602009876,0.2324692085449187,0.35115743200098504,-4.663106251098704,65.6
,,0.0068916858923352906,0.009799040854819623,0.011617857264599402,0.028308584011754317,0.6392607437405566,0.24344862637685155,0.3461508654318724,-4.625470770052565,65.7
,,0.0068916858923352906,0.009799040854819623,0.011617857264599402,0.028308584011754317,0.637565885471237,0.24344862637685155,0.3461508654318724,-4.625470770052565,65.8
,,0.0068916858923352906,0.009799040854819623,0.011617857264599402,0.028308584011754317,0.6358710272019175,0.24344862637685155,0.3461508654318724,-4.625470770052565,65.9
,,0.0068916858923352906,0.009799040854819623,0.011617857264599402,0.028308584011754317,0.634176168932598,0.24344862637685155,0.3461508654318724,-4.625470770052565,66.0
,,0.005913977014390879,0.006154194374127505,0.007536672743065326,0.01960484413158371,0.6360724141300569,0.30165896625841415,0.31391192568641757,-5.090621417574988,66.1
,,0.005913977014390879,0.006154194374127505,0.007536672743065326,0.01960484413158371,0.6379686593275158,0.30165896625841415,0.31391192568641757,-5.090621417574988,66.2
,,0.007621233137853444,0.010100836230697383,0.012627692445550903,0.030349761814101733,0.6375709954191334,0.251113441500299,0.33281434933713794,-4.595137063443697,66.3
,,0.007621233137853444,0.010100836230697383,0.012627692445550903,0.030349761814101733,0.6371733315107511,0.251113441500299,0.33281434933713794,-4.595137063443697,66.4
,,0.007621233137853444,0.010100836230697383,0.012627692445550903,0.030349761814101733,0.6367756676023688,0.251113441500299,0.33281434933713794,-4.595137063443697,66.5
,,0.007621233137853444,0.010100836230697383,0.012627692445550903,0.030349761814101733,0.6363780036939863,0.251113441500299,0.33281434933713794,-4.595137063443697,66.6
,,0.007576784872517454,0.010022567519077857,0.013080804597815266,0.030680156989410574,0.6366521880108841,0.2469604335835903,0.32667914712878426,-4.602915976720206,66.7
,,0.007576784872517454,0.010022567519077857,0.013080804597815266,0.030680156989410574,0.6369263723277817,0.2469604335835903,0.32667914712878426,-4.602915976720206,66.8
,,0.007576784872517454,0.010022567519077857,0.013080804597815266,0.030680156989410574,0.6372005566446792,0.2469604335835903,0.32667914712878426,-4.602915976720206,66.9
,,0.008407703323594345,0.010520764763196605,0.013646116956691564,0.03257458504348251,0.6379545276528135,0.2581062295151646,0.3229746364889332,-4.554404378193458,67.0
,,0.008407703323594345,0.010520764763196605,0.013646116956691564,0.03257458504348251,0.6387084986609476,0.2581062295151646,0.3229746364889332,-4.554404378193458,67.1
,,0.008407703323594345,0.010520764763196605,0.013646116956691564,0.03257458504348251,0.6394624696690816,0.2581062295151646,0.3229746364889332,-4.554404378193458,67.2
,,0.008407703323594345,0.010520764763196605,0.013646116956691564,0.03257458504348251,0.6407901781313806,0.2581062295151646,0.3229746364889332,-4.554404378193458,67.3
,,0.008327527229312171,0.010538452599183753,0.014045351945524559,0.03291133177402048,0.6420184503360952,0.2530291781107973,0.32020741887760945,-4.552724558868545,67.4
,,0.008327527229312171,0.010538452599183753,0.014045351945524559,0.03291133177402048,0.6432467225408098,0.2530291781107973,0.32020741887760945,-4.552724558868545,67.5
,,0.009300071442078069,0.011174186418891514,0.014721927481773926,0.035196185342743505,0.6449425254930573,0.2642352104784415,0.3174828837294814,-4.494148944811433,67.6
,,0.009300071442078069,0.011174186418891514,0.014721927481773926,0.035196185342743505,0.6466383284453049,0.2642352104784415,0.3174828837294814,-4.494148944811433,67.7
,,0.009300071442078069,0.011174186418891514,0.014721927481773926,0.035196185342743505,0.6483341313975524,0.2642352104784415,0.3174828837294814,-4.494148944811433,67.8
,,0.009300071442078069,0.011174186418891514,0.014721927481773926,0.035196185342743505,0.6505500589942621,0.2642352104784415,0.3174828837294814,-4.494148944811433,67.9
,,0.00919260856562993,0.011297912143985754,0.015091710395429708,0.035582231105045395,0.6525590284508515,0.2583482901477322,0.3175155630525867,-4.483137336354146,68.0
,,0.00919260856562993,0.011297912143985754,0.015091710395429708,0.035582231105045395,0.6545679979074408,0.2583482901477322,0.3175155630525867,-4.483137336354146,68.1
,,0.01034338921215568,0.012179663095250438,0.01592780196363873,0.038450854271044846,0.6569722885696698,0.2690028455348182,0.3167592326920614,-4.407987677571414,68.2
,,0.01034338921215568,0.012179663095250438,0.01592780196363873,0.038450854271044846,0.6593765792318991,0.2690028455348182,0.3167592326920614,-4.407987677571414,68.3
,,0.01034338921215568,0.012179663095250438,0.01592780196363873,0.038450854271044846,0.661780869894128,0.2690028455348182,0.3167592326920614,-4.407987677571414,68.4
,,0.01034338921215568,0.012179663095250438,0.01592780196363873,0.038450854271044846,0.6646228871334254,0.2690028455348182,0.3167592326920614,-4.407987677571414,68.5
,,0.010140971226129161,0.0124093626330199,0.016265949667736607,0.03881628352688567,0.6671090021818021,0.2612555944235395,0.3196947648124193,-4.389304040228794,68.6
,,0.010140971226129161,0.0124093626330199,0.016265949667736607,0.03881628352688567,0.6695951172301788,0.2612555944235395,0.3196947648124193,-4.389304040228794,68.7
,,0.010071704698587109,0.011483363929077145,0.010649859843121747,0.032204928470786,0.6727464096105982,0.3127379931218738,0.3565716328012971,-4.466855905833274,68.8
,,0.010071704698587109,0.011483363929077145,0.010649859843121747,0.032204928470786,0.6758977019910174,0.3127379931218738,0.3565716328012971,-4.466855905833274,68.9
,,0.010071704698587109,0.011483363929077145,0.010649859843121747,0.032204928470786,0.6790489943714366,0.3127379931218738,0.3565716328012971,-4.466855905833274,69.0
,,0.010071704698587109,0.011483363929077145,0.010649859843121747,0.032204928470786,0.6824082920811793,0.3127379931218738,0.3565716328012971,-4.466855905833274,69.1
,,0.011233621787971215,0.013875594678618477,0.01755440172839545,0.04266361819498514,0.6851537169368389,0.2633068235476489,0.3252324876714154,-4.27762376054784,69.2
,,0.011233621787971215,0.013875594678618477,0.01755440172839545,0.04266361819498514,0.6878991417924987,0.2633068235476489,0.3252324876714154,-4.27762376054784,69.3
,,0.012836301294312374,0.015522387795881207,0.018845340913092173,0.047204030003285755,0.6908374370888077,0.271932317927492,0.3288360717252474,-4.1654719232338,69.4
,,0.012836301294312374,0.015522387795881207,0.018845340913092173,0.047204030003285755,0.6937757323851167,0.271932317927492,0.3288360717252474,-4.1654719232338,69.5
,,0.012836301294312374,0.015522387795881207,0.018845340913092173,0.047204030003285755,0.6967140276814259,0.271932317927492,0.3288360717252474,-4.1654719232338,69.6
,,0.012845624604008751,0.016316899043339755,0.01965424797449741,0.04881677162184592,0.6993644435973464,0.26313957636355095,0.3342478107675151,-4.115553957099567,69.7
,,0.012845624604008751,0.016316899043339755,0.01965424797449741,0.04881677162184592,0.6979327217424713,0.26313957636355095,0.3342478107675151,-4.115553957099567,69.8
,,0.012845624604008751,0.016316899043339755,0.01965424797449741,0.04881677162184592,0.6965009998875964,0.26313957636355095,0.3342478107675151,-4.115553957099567,69.9
,,0.012845624604008751,0.016316899043339755,0.01965424797449741,0.04881677162184592,0.6950692780327213,0.26313957636355095,0.3342478107675151,-4.115553957099567,70.0
,,0.012732110541221562,0.016462401705962627,0.01268081037919198,0.041875322626376166,0.693483628094772,0.30404805844294414,0.39312895217178323,-4.106676182714914,70.1
,,0.012732110541221562,0.016462401705962627,0.01268081037919198,0.041875322626376166,0.6918979781568227,0.30404805844294414,0.39312895217178323,-4.106676182714914,70.2
,,0.014470576497455812,0.01922676441552454,0.021839901290471427,0.05553724220345178,0.6943727777187345,0.26055626681002947,0.3461958796061636,-3.9514519906612753,70.3
,,0.014470576497455812,0.01922676441552454,0.021839901290471427,0.05553724220345178,0.6968475772806464,0.26055626681002947,0.3461958796061636,-3.9514519906612753,70.4
,,0.014470576497455812,0.01922676441552454,0.021839901290471427,0.05553724220345178,0.69934630891364,0.26055626681002947,0.3461958796061636,-3.9514519906612753,70.5
,,0.014470576497455812,0.01922676441552454,0.021839901290471427,0.05553724220345178,0.7018450405466337,0.26055626681002947,0.3461958796061636,-3.9514519906612753,70.6
,,0.01661731982934983,0.0220750835571345,0.02182421425285964,0.060516617639343975,0.704345293381717,0.27459102107098476,0.36477722017931674,-3.813305747351621,70.7
,,0.016478532141020734,0.02322532811623986,0.024693731508672517,0.06439759176593311,0.7063649167445791,0.2558873971703088,0.3606552276156119,-3.7625118666644903,70.8
,,0.016478532141020734,0.02322532811623986,0.024693731508672517,0.06439759176593311,0.7084662732267583,0.2558873971703088,0.3606552276156119,-3.7625118666644903,70.9
,,0.016478532141020734,0.02322532811623986,0.024693731508672517,0.06439759176593311,0.7105676297089374,0.2558873971703088,0.3606552276156119,-3.7625118666644903,71.0
,,0.016478532141020734,0.02322532811623986,0.024693731508672517,0.06439759176593311,0.7126358026461241,0.2558873971703088,0.3606552276156119,-3.7625118666644903,71.1
,,0.016478532141020734,0.02322532811623986,0.024693731508672517,0.06439759176593311,0.7147039755833108,0.2558873971703088,0.3606552276156119,-3.7625118666644903,71.2
,,0.016478532141020734,0.02322532811623986,0.024693731508672517,0.06439759176593311,0.7167721485204974,0.2558873971703088,0.3606552276156119,-3.7625118666644903,71.3
,,0.016487474103697254,0.025839127758145987,0.016724754382065152,0.05905135624390839,0.7180467071657644,0.2792056804859256,0.43757043701788806,-3.6558653561271717,71.4
,,0.016487474103697254,0.025839127758145987,0.016724754382065152,0.05905135624390839,0.7193212658110314,0.2792056804859256,0.43757043701788806,-3.6558653561271717,71.5
,,0.016487474103697254,0.025839127758145987,0.016724754382065152,0.05905135624390839,0.7206339188572921,0.2792056804859256,0.43757043701788806,-3.6558653561271717,71.6
,,0.016487474103697254,0.025839127758145987,0.016724754382065152,0.05905135624390839,0.7218451418942305,0.2792056804859256,0.43757043701788806,-3.6558653561271717,71.7
,,0.016487474103697254,0.025839127758145987,0.016724754382065152,0.05905135624390839,0.7230563649311688,0.2792056804859256,0.43757043701788806,-3.6558653561271717,71.8
,,0.016487474103697254,0.025839127758145987,0.016724754382065152,0.05905135624390839,0.7242675879681072,0.2792056804859256,0.43757043701788806,-3.6558653561271717,71.9
,,0.015265279907864245,0.032183517829582266,0.019753825926355197,0.0672026236638017,0.7236592345952376,0.22715303474210635,0.4789026986593342,-3.4363008261277654,72.0
,,0.015265279907864245,0.032183517829582266,0.019753825926355197,0.0672026236638017,0.7230508812223682,0.22715303474210635,0.4789026986593342,-3.4363008261277654,72.1
