time,ecg,hr,rr,marker,norm_time
1716268584100935682,-0.7000000000000001,,,,0.0
1716268584108630050,-0.6980000000000001,,,,0.007694368
1716268584116324418,-0.7030000000000001,,,,0.015388736
1716268584124018786,-0.6880000000000001,,,,0.023083104
1716268584131713154,-0.6910000000000001,,,,0.030777472
1716268584139407522,-0.6930000000000001,,,,0.03847184
1716268584147101890,-0.6980000000000001,,,,0.046166208
1716268584154796258,-0.6960000000000001,,,,0.053860576
1716268584162490626,-0.674,,,,0.061554944
1716268584170184994,-0.681,,,,0.069249312
1716268584177879362,-0.679,,,,0.07694368
1716268584185573730,-0.647,,,,0.084638048
1716268584193268098,-0.623,,,,0.092332416
1716268584200962466,-0.599,,,,0.100026784
1716268584208656834,-0.603,,,,0.107721152
1716268584216351202,-0.608,,,,0.11541552
1716268584224045570,-0.594,,,,0.123109888
1716268584231739938,-0.606,,,,0.130804256
1716268584239434306,-0.599,,,,0.138498624
1716268584247128674,-0.582,,,,0.146192992
1716268584254823042,-0.5740000000000001,,,,0.15388736
1716268584262517410,-0.552,,,,0.161581728
1716268584270211778,-0.54,,,,0.169276096
1716268584277906146,-0.521,,,,0.176970464
1716268584285600514,-0.504,,,,0.184664832
1716268584293294882,-0.458,,,,0.1923592
1716268584300989250,-0.252,,,,0.200053568
1716268584308683618,0.029,,,,0.207747936
1716268584316377986,0.133,,,,0.215442304
1716268584324072354,-0.118,,,,0.223136672
1716268584331766722,-0.5690000000000001,,,,0.23083104
1716268584339461090,-0.7030000000000001,,,,0.238525408
1716268584347155458,-0.497,,,,0.246219776
1716268584354849826,-0.402,,,,0.253914144
1716268584362544194,-0.448,,,,0.261608512
1716268584370238562,-0.441,,,,0.26930288
1716268584377932930,-0.39,,,,0.276997248
1716268584385627298,-0.383,,,,0.284691616
1716268584393321666,-0.388,,,,0.292385984
1716268584401016034,-0.349,,,,0.300080352
1716268584408710402,-0.341,,,,0.30777472
1716268584416404770,-0.344,,,,0.315469088
1716268584424099138,-0.32,,,,0.323163456
1716268584431793506,-0.31,,,,0.330857824
1716268584439487874,-0.291,,,,0.338552192
1716268584447182242,-0.276,,,,0.34624656
1716268584454876610,-0.271,,,,0.353940928
1716268584462570978,-0.244,,,,0.361635296
1716268584470265346,-0.23,,,,0.369329664
1716268584477959714,-0.218,,,,0.377024032
1716268584485654082,-0.203,,,,0.3847184
1716268584493348450,-0.201,,,,0.392412768
1716268584501042818,-0.174,,,,0.400107136
1716268584508737186,-0.164,,,,0.407801504
1716268584516431554,-0.155,,,,0.415495872
1716268584524125922,-0.135,,722.0,,0.42319024
1716268584531820290,-0.143,,,,0.430884608
1716268584539514658,-0.133,,,,0.438578976
1716268584547209026,-0.133,,,,0.446273344
1716268584554903394,-0.147,,,,0.453967712
1716268584562597762,-0.13,,,,0.46166208
1716268584570292130,-0.128,,,,0.469356448
1716268584577986498,-0.128,,,,0.477050816
1716268584585680866,-0.116,,,,0.484745184
1716268584593375234,-0.121,,,,0.492439552
1716268584601069602,-0.111,,,,0.50013392
1716268584608763970,-0.111,,,,0.507828288
1716268584616458338,-0.113,,,,0.515522656
1716268584624152706,-0.099,,,,0.523217024
1716268584631847074,-0.101,,,,0.530911392
1716268584639541442,-0.089,,,,0.53860576
1716268584647235810,-0.075,,,,0.546300128
1716268584654930178,-0.077,,,,0.553994496
1716268584662624558,-0.063,85.0,,,0.561688876
1716268584670318926,-0.06,,,,0.569383244
1716268584678013294,-0.043,,,,0.577077612
1716268584685707662,-0.024,,,,0.58477198
1716268584693402030,-0.031,,,,0.592466348
1716268584701096398,-0.014,,,,0.600160716
1716268584708790766,-0.012,,,,0.607855084
1716268584716485134,-0.026,,,,0.615549452
1716268584724179502,-0.024,,,,0.62324382
1716268584731873870,-0.021,,,,0.630938188
1716268584739568238,-0.007,,,,0.638632556
1716268584747262606,-0.002,,,,0.646326924
1716268584754956974,-0.007,,,,0.654021292
1716268584762651342,0.014,,,,0.66171566
1716268584770345710,0.012,,,,0.669410028
1716268584778040078,0.009,,,,0.677104396
1716268584785734446,0.019,,,,0.684798764
1716268584793428814,0.012,,,,0.692493132
1716268584801123182,0.024,,,,0.7001875
1716268584808817550,0.036,,,,0.707881868
1716268584816511918,0.046,,,,0.715576236
1716268584824206286,0.058,,,,0.723270604
1716268584831900654,0.053,,,,0.730964972
1716268584839595022,0.06,,,,0.73865934
1716268584847289390,0.058,,,,0.746353708
1716268584854983758,0.05,,,,0.754048076
1716268584862678126,0.082,,,,0.761742444
1716268584870372494,0.097,,,,0.769436812
1716268584878066862,0.101,,,,0.77713118
1716268584885761230,0.109,,,,0.784825548
1716268584893455598,0.094,,,,0.792519916
1716268584901149966,0.092,,,,0.800214284
1716268584908844334,0.087,,,,0.807908652
1716268584916538702,0.087,,,,0.81560302
1716268584924233070,0.101,,,,0.823297388
1716268584931927438,0.097,,,,0.830991756
1716268584939621806,0.111,,,,0.838686124
1716268584947316174,0.118,,,,0.846380492
1716268584955010542,0.106,,,,0.85407486
1716268584962704910,0.118,,,,0.861769228
1716268584970399278,0.174,,,,0.869463596
1716268584978093646,0.363,,,,0.877157964
1716268584985788014,0.623,,,,0.884852332
1716268584993482382,0.712,,,,0.8925467
1716268585001176750,0.487,,,,0.900241068
1716268585008871118,0.067,,,,0.907935436
1716268585016565486,-0.087,,,,0.915629804
1716268585024259854,0.118,,,,0.923324172
1716268585031954222,0.218,,,,0.93101854
1716268585039648590,0.155,,,,0.938712908
1716268585047342958,0.157,,,,0.946407276
1716268585055037326,0.201,,,,0.954101644
1716268585062731694,0.215,,,,0.961796012
1716268585070426062,0.208,,,,0.96949038
1716268585078120430,0.225,,,,0.977184748
1716268585085814798,0.24,,,,0.984879116
1716268585093509166,0.237,,,,0.992573484
1716268585101203534,0.264,,,,1.000267852
1716268585108897902,0.274,,,,1.00796222
1716268585116592270,0.281,,,,1.015656588
1716268585124286638,0.295,,,,1.023350956
1716268585131981006,0.286,,,,1.031045324
1716268585139675374,0.295,,,,1.038739692
1716268585147369742,0.312,,,,1.04643406
1716268585155064110,0.315,,,,1.054128428
1716268585162758478,0.334,,,,1.061822796
1716268585170452846,0.332,,,,1.069517164
1716268585178147214,0.339,,,,1.077211532
1716268585185841582,0.363,,,,1.0849059
1716268585193535950,0.366,,,,1.092600268
1716268585201230318,0.375,,,,1.100294636
1716268585208924686,0.38,,,,1.107989004
1716268585216619054,0.385,,,,1.115683372
1716268585224313434,0.39,85.0,,,1.123377752
1716268585232007802,0.378,,,,1.13107212
1716268585239702170,0.39,,715.0,,1.138766488
1716268585247396538,0.39,,,,1.146460856
1716268585255090906,0.378,,,,1.154155224
1716268585262785274,0.392,,,,1.161849592
1716268585270479642,0.385,,,,1.16954396
1716268585278174010,0.38,,,,1.177238328
1716268585285868378,0.385,,,,1.184932696
1716268585293562746,0.373,,,,1.192627064
1716268585301257114,0.39,,,,1.200321432
1716268585308951482,0.404,,,,1.2080158
1716268585316645850,0.407,,,,1.215710168
1716268585324340218,0.429,,,,1.223404536
1716268585332034586,0.438,,,,1.231098904
1716268585339728954,0.46,,,,1.238793272
1716268585347423322,0.475,,,,1.24648764
1716268585355117690,0.48,,,,1.254182008
1716268585362812058,0.509,,,,1.261876376
1716268585370506426,0.514,,,,1.269570744
1716268585378200794,0.523,,,,1.277265112
1716268585385895162,0.55,,,,1.28495948
1716268585393589530,0.562,,,,1.292653848
1716268585401283898,0.586,,,,1.300348216
1716268585408978266,0.594,,,,1.308042584
1716268585416672634,0.599,,,,1.315736952
1716268585424367002,0.632,,,,1.32343132
1716268585432061370,0.647,,,,1.331125688
1716268585439755738,0.666,,,,1.338820056
1716268585447450106,0.683,,,,1.346514424
1716268585455144474,0.6910000000000001,,,,1.354208792
1716268585462838842,0.715,,,,1.36190316
1716268585470533210,0.717,,,,1.369597528
1716268585478227578,0.727,,,,1.377291896
1716268585485921946,0.746,,,,1.384986264
1716268585493616314,0.746,,,,1.392680632
1716268585501310682,0.763,,,,1.400375
1716268585509005050,0.771,,,,1.408069368
1716268585516699418,0.773,,,,1.415763736
1716268585524393786,0.79,,,,1.423458104
1716268585532088154,0.785,,,,1.431152472
1716268585539782522,0.8,,,,1.43884684
1716268585547476890,0.8260000000000001,,,,1.446541208
1716268585555171258,0.836,,,,1.454235576
1716268585562865626,0.841,,,,1.461929944
1716268585570559994,0.8240000000000001,,,,1.469624312
1716268585578254362,0.8310000000000001,,,,1.47731868
1716268585585948730,0.843,,,,1.485013048
1716268585593643098,0.8290000000000001,,,,1.492707416
1716268585601337466,0.841,,,,1.500401784
1716268585609031834,0.846,,,,1.508096152
1716268585616726202,0.843,,,,1.51579052
1716268585624420570,0.865,,,,1.523484888
1716268585632114938,0.863,,,,1.531179256
1716268585639809306,0.863,,,,1.538873624
1716268585647503674,0.868,,,,1.546567992
1716268585655198042,0.953,,,,1.55426236
1716268585662892410,1.178,,,,1.561956728
1716268585670586778,1.37,,,,1.569651096
1716268585678281146,1.353,,,,1.577345464
1716268585685975514,1.025,,,,1.585039832
1716268585693669882,0.647,,,,1.5927342
1716268585701364250,0.657,,,,1.600428568
1716268585709058618,0.848,,,,1.608122936
1716268585716752986,0.853,,,,1.615817304
1716268585724447354,0.795,,,,1.623511672
1716268585732141722,0.8170000000000001,,,,1.63120604
1716268585739836090,0.843,,,,1.638900408
1716268585747530458,0.8220000000000001,,,,1.646594776
1716268585755224826,0.809,,,,1.654289144
1716268585762919194,0.8310000000000001,,,,1.661983512
1716268585770613562,0.812,,,,1.66967788
1716268585778307930,0.8,,,,1.677372248
1716268585786002310,0.807,,,,1.685066628
1716268585793696678,0.795,,,,1.692760996
1716268585801391046,0.797,,,,1.700455364
1716268585809085414,0.78,,,,1.708149732
1716268585816779782,0.763,,,,1.7158441
1716268585824474150,0.766,,,,1.723538468
1716268585832168518,0.744,,,,1.731232836
1716268585839862886,0.737,,,,1.738927204
1716268585847557254,0.722,,,,1.746621572
1716268585855251622,0.7000000000000001,,,,1.75431594
1716268585862945990,0.71,,,,1.762010308
1716268585870640358,0.6880000000000001,,,,1.769704676
1716268585878334726,0.662,,,,1.777399044
1716268585886029094,0.662,,,,1.785093412
1716268585893723462,0.649,,,,1.79278778
1716268585901417830,0.645,,,,1.800482148
1716268585909112198,0.613,,,,1.808176516
1716268585916806566,0.582,,,,1.815870884
1716268585924500934,0.577,,,,1.823565252
1716268585932195302,0.557,,,,1.83125962
1716268585939889670,0.552,,,,1.838953988
1716268585947584038,0.54,,,,1.846648356
1716268585955278406,0.516,,720.0,,1.854342724
1716268585962972774,0.504,,,,1.862037092
1716268585970667142,0.465,,,,1.86973146
1716268585978361510,0.446,,,,1.877425828
1716268585986055878,0.448,,,,1.885120196
1716268585993750246,0.429,,,,1.892814564
1716268586001444614,0.431,,,,1.900508932
1716268586009138982,0.421,,,,1.9082033
1716268586016833350,0.409,,,,1.915897668
1716268586024527718,0.419,,,,1.923592036
1716268586032222086,0.407,,,,1.931286404
1716268586039916454,0.407,,,,1.938980772
1716268586047610822,0.409,,,,1.94667514
1716268586055305190,0.392,,,,1.954369508
1716268586062999558,0.395,,,,1.962063876
1716268586070693926,0.39,,,,1.969758244
1716268586078388294,0.39,,,,1.977452612
1716268586086082662,0.392,,,,1.98514698
1716268586093777030,0.373,,,,1.992841348
1716268586101471398,0.371,,,,2.000535716
1716268586109165766,0.361,,,,2.008230084
1716268586116860134,0.354,,,,2.015924452
1716268586124554502,0.356,,,,2.02361882
1716268586132248870,0.344,,,,2.031313188
1716268586139943238,0.341,,,,2.039007556
1716268586147637606,0.337,,,,2.046701924
1716268586155331974,0.322,,,,2.054396292
1716268586163026342,0.332,,,,2.06209066
1716268586170720710,0.329,,,,2.069785028
1716268586178415078,0.317,,,,2.077479396
1716268586186109446,0.312,,,,2.085173764
1716268586193803814,0.303,,,,2.092868132
1716268586201498182,0.295,,,,2.1005625
1716268586209192550,0.269,,,,2.108256868
1716268586216886918,0.252,,,,2.115951236
1716268586224581286,0.252,,,,2.123645604
1716268586232275654,0.235,,,,2.131339972
1716268586239970022,0.225,,,,2.13903434
1716268586247664390,0.22,,,,2.146728708
1716268586255358758,0.206,,,,2.154423076
1716268586263053126,0.189,,,,2.162117444
1716268586270747494,0.143,,,,2.169811812
1716268586278441862,0.092,,,,2.17750618
1716268586286136230,0.053,,,,2.185200548
1716268586293830598,0.016,,,,2.192894916
1716268586301524966,-0.014,,,,2.200589284
1716268586309219334,-0.046,,,,2.208283652
1716268586316913702,-0.072,,,,2.21597802
1716268586324608070,-0.104,,,,2.223672388
1716268586332302438,-0.152,,,,2.231366756
1716268586339996806,-0.177,,,,2.239061124
1716268586347691186,-0.201,85.0,,,2.246755504
1716268586355385136,-0.196,,,,2.254449454
1716268586363079086,-0.058,,,,2.262143404
1716268586370773036,0.162,,,,2.269837354
1716268586378466986,0.278,,,,2.277531304
1716268586386160936,0.101,,,,2.285225254
1716268586393854886,-0.337,,,,2.292919204
1716268586401548836,-0.603,,,,2.300613154
1716268586409242786,-0.48,,,,2.308307104
1716268586416936736,-0.361,,,,2.316001054
1716268586424630686,-0.436,,,,2.323695004
1716268586432324636,-0.465,,,,2.331388954
1716268586440018586,-0.424,,,,2.339082904
1716268586447712536,-0.451,,,,2.346776854
1716268586455406486,-0.482,,,,2.354470804
1716268586463100436,-0.472,,,,2.362164754
1716268586470794386,-0.463,,,,2.369858704
1716268586478488336,-0.48,,,,2.377552654
1716268586486182286,-0.516,,,,2.385246604
1716268586493876236,-0.54,,,,2.392940554
1716268586501570186,-0.535,,,,2.400634504
1716268586509264136,-0.545,,,,2.408328454
1716268586516958086,-0.5740000000000001,,,,2.416022404
1716268586524652036,-0.594,,,,2.423716354
1716268586532345986,-0.599,,,,2.431410304
1716268586540039936,-0.599,,,,2.439104254
1716268586547733886,-0.591,,,,2.446798204
1716268586555427836,-0.594,,,,2.454492154
1716268586563121786,-0.603,,,,2.462186104
1716268586570815736,-0.613,,,,2.469880054
1716268586578509686,-0.63,,,,2.477574004
1716268586586203636,-0.64,,,,2.485267954
1716268586593897586,-0.642,,,,2.492961904
1716268586601591536,-0.654,,,,2.500655854
1716268586609285486,-0.671,,,,2.508349804
1716268586616979436,-0.683,,,,2.516043754
1716268586624673386,-0.7000000000000001,,,,2.523737704
1716268586632367336,-0.734,,,,2.531431654
1716268586640061286,-0.751,,,,2.539125604
1716268586647755236,-0.771,,,,2.546819554
1716268586655449186,-0.8290000000000001,,,,2.554513504
1716268586663143136,-0.865,,,,2.562207454
1716268586670837086,-0.887,,715.0,,2.569901404
1716268586678531036,-0.95,,,,2.577595354
1716268586686224986,-0.977,,,,2.585289304
1716268586693918936,-0.955,,,,2.592983254
1716268586701612886,-0.955,,,,2.600677204
1716268586709306836,-0.965,,,,2.608371154
1716268586717000786,-0.948,,,,2.616065104
1716268586724694736,-0.938,,,,2.623759054
1716268586732388686,-0.943,,,,2.631453004
1716268586740082636,-0.931,,,,2.639146954
1716268586747776586,-0.899,,,,2.646840904
1716268586755470536,-0.897,,,,2.654534854
1716268586763164486,-0.909,,,,2.662228804
1716268586770858436,-0.885,,,,2.669922754
1716268586778552386,-0.851,,,,2.677616704
1716268586786246336,-0.856,,,,2.685310654
1716268586793940286,-0.86,,,,2.693004604
1716268586801634236,-0.834,,,,2.700698554
1716268586809328186,-0.807,,,,2.708392504
1716268586817022136,-0.788,,,,2.716086454
1716268586824716086,-0.763,,,,2.723780404
1716268586832410036,-0.749,,,,2.731474354
1716268586840103986,-0.737,,,,2.739168304
1716268586847797936,-0.727,,,,2.746862254
1716268586855491886,-0.72,,,,2.754556204
1716268586863185836,-0.705,,,,2.762250154
1716268586870879786,-0.679,,,,2.769944104
1716268586878573736,-0.657,,,,2.777638054
1716268586886267686,-0.642,,,,2.785332004
1716268586893961636,-0.625,,,,2.793025954
1716268586901655586,-0.599,,,,2.800719904
1716268586909349546,-0.5720000000000001,,,,2.808413864
1716268586917043914,-0.557,,,,2.816108232
1716268586924738282,-0.535,,,,2.8238026
1716268586932432650,-0.499,,,,2.831496968
1716268586940127018,-0.472,,,,2.839191336
1716268586947821386,-0.458,,,,2.846885704
1716268586955515754,-0.443,,,,2.854580072
1716268586963210122,-0.424,,,,2.86227444
1716268586970904490,-0.404,,,,2.869968808
1716268586978598858,-0.373,,,,2.877663176
1716268586986293226,-0.344,,,,2.885357544
1716268586993987594,-0.341,,,,2.893051912
1716268587001681962,-0.329,,,,2.90074628
1716268587009376330,-0.293,,,,2.908440648
1716268587017070698,-0.266,,,,2.916135016
1716268587024765066,-0.242,,,,2.923829384
1716268587032459434,-0.206,,,,2.931523752
1716268587040153802,-0.152,,,,2.93921812
1716268587047848170,-0.021,,,,2.946912488
1716268587055542538,0.23,,,,2.954606856
1716268587063236906,0.465,,,,2.962301224
1716268587070931274,0.395,,,,2.969995592
1716268587078625642,-0.021,,,,2.97768996
1716268587086320010,-0.329,,,,2.985384328
1716268587094014378,-0.23,,,,2.993078696
1716268587101708746,-0.048,,,,3.000773064
1716268587109403114,-0.048,,,,3.008467432
1716268587117097482,-0.072,,,,3.0161618
1716268587124791850,-0.043,,,,3.023856168
1716268587132486218,-0.046,,,,3.031550536
1716268587140180586,-0.055,,,,3.039244904
1716268587147874954,-0.038,,,,3.046939272
1716268587155569322,-0.021,,,,3.05463364
1716268587163263690,-0.021,,,,3.062328008
1716268587170958058,-0.019,,,,3.070022376
1716268587178652426,-0.002,,,,3.077716744
1716268587186346794,0.0,,,,3.085411112
1716268587194041162,0.0,,,,3.09310548
1716268587201735530,0.014,,,,3.100799848
1716268587209429898,0.024,,,,3.108494216
1716268587217124266,0.014,,,,3.116188584
1716268587224818634,0.016,,,,3.123882952
1716268587232513002,0.026,,,,3.13157732
1716268587240207370,0.031,,,,3.139271688
1716268587247901738,0.043,,,,3.146966056
1716268587255596106,0.046,,,,3.154660424
1716268587263290474,0.043,,,,3.162354792
1716268587270984842,0.043,,,,3.17004916
1716268587278679210,0.05,,,,3.177743528
1716268587286373578,0.058,,,,3.185437896
1716268587294067946,0.05,,,,3.193132264
1716268587301762314,0.043,,,,3.200826632
1716268587309456682,0.046,,,,3.208521
1716268587317151050,0.048,,,,3.216215368
1716268587324845418,0.048,,,,3.223909736
1716268587332539786,0.055,,,,3.231604104
1716268587340234154,0.05,,,,3.239298472
1716268587347928522,0.021,,,,3.24699284
1716268587355622890,0.0,,687.0,,3.254687208
1716268587363317258,0.014,,,,3.262381576
1716268587371011626,0.031,,,,3.270075944
1716268587378705994,0.026,,,,3.277770312
1716268587386400362,0.021,,,,3.28546468
1716268587394094730,0.029,,,,3.293159048
1716268587401789098,0.038,,,,3.300853416
1716268587409483466,0.05,,,,3.308547784
1716268587417177834,0.055,,,,3.316242152
1716268587424872202,0.043,,,,3.32393652
1716268587432566570,0.033,,,,3.331630888
1716268587440260938,0.036,,,,3.339325256
1716268587447955306,0.043,,,,3.347019624
1716268587455649674,0.05,,,,3.354713992
1716268587463344042,0.055,,,,3.36240836
1716268587471038422,0.05,85.0,,,3.37010274
1716268587478732790,0.038,,,,3.377797108
1716268587486427158,0.026,,,,3.385491476
1716268587494121526,0.029,,,,3.393185844
1716268587501815894,0.038,,,,3.400880212
1716268587509510262,0.031,,,,3.40857458
1716268587517204630,0.029,,,,3.416268948
1716268587524898998,0.036,,,,3.423963316
1716268587532593366,0.029,,,,3.431657684
1716268587540287734,0.021,,,,3.439352052
1716268587547982102,0.043,,,,3.44704642
1716268587555676470,0.06,,,,3.454740788
1716268587563370838,0.021,,,,3.462435156
1716268587571065206,-0.016,,,,3.470129524
1716268587578759574,0.012,,,,3.477823892
1716268587586453942,0.043,,,,3.48551826
1716268587594148310,0.029,,,,3.493212628
1716268587601842678,0.019,,,,3.500906996
1716268587609537046,0.041,,,,3.508601364
1716268587617231414,0.043,,,,3.516295732
1716268587624925782,0.033,,,,3.5239901
1716268587632620150,0.043,,,,3.531684468
1716268587640314518,0.046,,,,3.539378836
1716268587648008886,0.046,,,,3.547073204
1716268587655703254,0.058,,,,3.554767572
1716268587663397622,0.067,,,,3.56246194
1716268587671091990,0.065,,,,3.570156308
1716268587678786358,0.067,,,,3.577850676
1716268587686480726,0.082,,,,3.585545044
1716268587694175094,0.099,,,,3.593239412
1716268587701869462,0.111,,,,3.60093378
1716268587709563830,0.106,,,,3.608628148
1716268587717258198,0.089,,,,3.616322516
1716268587724952566,0.077,,,,3.624016884
1716268587732646934,0.084,,,,3.631711252
1716268587740341302,0.089,,,,3.63940562
1716268587748035670,0.077,,,,3.647099988
1716268587755730038,0.07,,,,3.654794356
1716268587763424406,0.087,,,,3.662488724
1716268587771118774,0.097,,,,3.670183092
1716268587778813142,0.089,,,,3.67787746
1716268587786507510,0.084,,,,3.685571828
1716268587794201878,0.101,,,,3.693266196
1716268587801896246,0.162,,,,3.700960564
1716268587809590614,0.332,,,,3.708654932
1716268587817284982,0.555,,,,3.7163493
1716268587824979350,0.596,,,,3.724043668
1716268587832673718,0.317,,,,3.731738036
1716268587840368086,-0.041,,,,3.739432404
1716268587848062454,-0.099,,,,3.747126772
1716268587855756822,0.063,,,,3.75482114
1716268587863451190,0.106,,,,3.762515508
1716268587871145558,0.036,,,,3.770209876
1716268587878839926,0.043,,,,3.777904244
1716268587886534294,0.084,,,,3.785598612
1716268587894228662,0.067,,,,3.79329298
1716268587901923030,0.05,,,,3.800987348
1716268587909617398,0.072,,,,3.808681716
1716268587917311766,0.099,,,,3.816376084
1716268587925006134,0.092,,,,3.824070452
1716268587932700502,0.07,,,,3.83176482
1716268587940394870,0.075,,,,3.839459188
1716268587948089238,0.092,,,,3.847153556
1716268587955783606,0.097,,,,3.854847924
1716268587963477974,0.111,,,,3.862542292
1716268587971172342,0.118,,,,3.87023666
1716268587978866710,0.099,,,,3.877931028
1716268587986561078,0.094,,,,3.885625396
1716268587994255446,0.113,,,,3.893319764
1716268588001949814,0.126,,,,3.901014132
1716268588009644182,0.126,,,,3.9087085
1716268588017338550,0.128,,,,3.916402868
1716268588025032918,0.135,,,,3.924097236
1716268588032727298,0.135,,677.0,,3.931791616
1716268588040421248,0.135,,,,3.939485566
1716268588048115198,0.126,,,,3.947179516
1716268588055809148,0.116,,,,3.954873466
1716268588063503098,0.116,,,,3.962567416
1716268588071197048,0.121,,,,3.970261366
1716268588078890998,0.116,,,,3.977955316
1716268588086584948,0.094,,,,3.985649266
1716268588094278898,0.084,,,,3.993343216
1716268588101972848,0.087,,,,4.001037166
1716268588109666798,0.072,,,,4.008731116
1716268588117360748,0.063,,,,4.016425066
1716268588125054698,0.077,,,,4.024119016
1716268588132748648,0.08,,,,4.031812966
1716268588140442598,0.08,,,,4.039506916
1716268588148136548,0.082,,,,4.047200866
1716268588155830498,0.072,,,,4.054894816
1716268588163524448,0.07,,,,4.062588766
1716268588171218398,0.08,,,,4.070282716
1716268588178912348,0.082,,,,4.077976666
1716268588186606298,0.084,,,,4.085670616
1716268588194300248,0.087,,,,4.093364566
1716268588201994198,0.089,,,,4.101058516
1716268588209688148,0.101,,,,4.108752466
1716268588217382098,0.106,,,,4.116446416
1716268588225076048,0.097,,,,4.124140366
1716268588232769998,0.104,,,,4.131834316
1716268588240463948,0.121,,,,4.139528266
1716268588248157898,0.106,,,,4.147222216
1716268588255851848,0.084,,,,4.154916166
1716268588263545798,0.087,,,,4.162610116
1716268588271239748,0.099,,,,4.170304066
1716268588278933698,0.097,,,,4.177998016
1716268588286627648,0.097,,,,4.185691966
1716268588294321598,0.101,,,,4.193385916
1716268588302015548,0.106,,,,4.201079866
1716268588309709498,0.109,,,,4.208773816
1716268588317403448,0.113,,,,4.216467766
1716268588325097398,0.109,,,,4.224161716
1716268588332791348,0.097,,,,4.231855666
1716268588340485298,0.097,,,,4.239549616
1716268588348179248,0.109,,,,4.247243566
1716268588355873198,0.104,,,,4.254937516
1716268588363567148,0.089,,,,4.262631466
1716268588371261098,0.082,,,,4.270325416
1716268588378955048,0.089,,,,4.278019366
1716268588386648998,0.089,,,,4.285713316
1716268588394342948,0.082,,,,4.293407266
1716268588402036898,0.087,,,,4.301101216
1716268588409730848,0.089,,,,4.308795166
1716268588417424798,0.087,,,,4.316489116
1716268588425118748,0.092,,,,4.324183066
1716268588432812698,0.092,,,,4.331877016
1716268588440506648,0.082,,,,4.339570966
1716268588448200598,0.07,,,,4.347264916
1716268588455894548,0.072,,,,4.354958866
1716268588463588498,0.087,,,,4.362652816
1716268588471282448,0.084,,,,4.370346766
1716268588478976398,0.08,,,,4.378040716
1716268588486670348,0.087,,,,4.385734666
1716268588494364298,0.092,,,,4.393428616
1716268588502058248,0.099,,,,4.401122566
1716268588509752198,0.101,,,,4.408816516
1716268588517446148,0.082,,,,4.416510466
1716268588525140098,0.063,,,,4.424204416
1716268588532834048,0.06,,,,4.431898366
1716268588540527998,0.063,,,,4.439592316
1716268588548221948,0.05,,,,4.447286266
1716268588555915898,0.038,,,,4.454980216
1716268588563609848,0.038,,,,4.462674166
1716268588571303798,0.041,,,,4.470368116
1716268588578997748,0.041,,,,4.478062066
1716268588586691698,0.036,,,,4.485756016
1716268588594385656,0.014,85.0,,,4.493449974
1716268588602080024,0.012,,,,4.501144342
1716268588609774392,0.116,,,,4.50883871
1716268588617468760,0.339,,,,4.516533078
1716268588625163128,0.521,,,,4.524227446
1716268588632857496,0.451,,,,4.531921814
1716268588640551864,0.087,,,,4.539616182
1716268588648246232,-0.237,,,,4.54731055
1716268588655940600,-0.206,,,,4.555004918
1716268588663634968,-0.053,,,,4.562699286
1716268588671329336,-0.063,,,,4.570393654
1716268588679023704,-0.109,,,,4.578088022
1716268588686718072,-0.077,,,,4.58578239
1716268588694412440,-0.065,,,,4.593476758
1716268588702106808,-0.077,,,,4.601171126
1716268588709801176,-0.067,,,,4.608865494
1716268588717495544,-0.058,,682.0,,4.616559862
1716268588725189912,-0.063,,,,4.62425423
1716268588732884280,-0.065,,,,4.631948598
1716268588740578648,-0.048,,,,4.639642966
1716268588748273016,-0.036,,,,4.647337334
1716268588755967384,-0.041,,,,4.655031702
1716268588763661752,-0.041,,,,4.66272607
1716268588771356120,-0.036,,,,4.670420438
1716268588779050488,-0.033,,,,4.678114806
1716268588786744856,-0.026,,,,4.685809174
1716268588794439224,-0.012,,,,4.693503542
1716268588802133592,-0.004,,,,4.70119791
1716268588809827960,-0.016,,,,4.708892278
1716268588817522328,-0.019,,,,4.716586646
1716268588825216696,0.002,,,,4.724281014
1716268588832911064,0.016,,,,4.731975382
1716268588840605432,0.019,,,,4.73966975
1716268588848299800,0.024,,,,4.747364118
1716268588855994168,0.026,,,,4.755058486
1716268588863688536,0.021,,,,4.762752854
1716268588871382904,0.004,,,,4.770447222
1716268588879077272,-0.007,,,,4.77814159
1716268588886771640,-0.007,,,,4.785835958
1716268588894466008,-0.012,,,,4.793530326
1716268588902160376,-0.016,,,,4.801224694
1716268588909854744,-0.026,,,,4.808919062
1716268588917549112,-0.041,,,,4.81661343
1716268588925243480,-0.048,,,,4.824307798
1716268588932937848,-0.046,,,,4.832002166
1716268588940632216,-0.046,,,,4.839696534
1716268588948326584,-0.05,,,,4.847390902
1716268588956020952,-0.048,,,,4.85508527
1716268588963715320,-0.041,,,,4.862779638
1716268588971409688,-0.038,,,,4.870474006
1716268588979104056,-0.036,,,,4.878168374
1716268588986798424,-0.029,,,,4.885862742
1716268588994492792,-0.024,,,,4.89355711
1716268589002187160,-0.014,,,,4.901251478
1716268589009881528,-0.004,,,,4.908945846
1716268589017575896,0.0,,,,4.916640214
1716268589025270264,0.004,,,,4.924334582
1716268589032964632,0.004,,,,4.93202895
1716268589040659000,0.007,,,,4.939723318
1716268589048353368,0.014,,,,4.947417686
1716268589056047736,0.016,,,,4.955112054
1716268589063742104,0.021,,,,4.962806422
1716268589071436472,0.019,,,,4.97050079
1716268589079130840,0.024,,,,4.978195158
1716268589086825208,0.031,,,,4.985889526
1716268589094519576,0.031,,,,4.993583894
1716268589102213944,0.033,,,,5.001278262
1716268589109908312,0.043,,,,5.00897263
1716268589117602680,0.048,,,,5.016666998
1716268589125297048,0.053,,,,5.024361366
1716268589132991416,0.055,,,,5.032055734
1716268589140685784,0.058,,,,5.039750102
1716268589148380152,0.065,,,,5.04744447
1716268589156074532,0.065,86.0,,,5.05513885
1716268589163768900,0.063,,,,5.062833218
1716268589171463268,0.063,,,,5.070527586
1716268589179157636,0.072,,,,5.078221954
1716268589186852004,0.075,,,,5.085916322
1716268589194546372,0.072,,,,5.09361069
1716268589202240740,0.082,,,,5.101305058
1716268589209935108,0.08,,,,5.108999426
1716268589217629476,0.067,,,,5.116693794
1716268589225323844,0.07,,,,5.124388162
1716268589233018212,0.075,,,,5.13208253
1716268589240712580,0.077,,,,5.139776898
1716268589248406948,0.08,,,,5.147471266
1716268589256101316,0.097,,,,5.155165634
1716268589263795684,0.121,,,,5.162860002
1716268589271490052,0.121,,,,5.17055437
1716268589279184420,0.104,,,,5.178248738
1716268589286878788,0.101,,,,5.185943106
1716268589294573156,0.111,,,,5.193637474
1716268589302267524,0.116,,,,5.201331842
1716268589309961892,0.113,,,,5.20902621
1716268589317656260,0.126,,,,5.216720578
1716268589325350628,0.15,,,,5.224414946
1716268589333044996,0.164,,,,5.232109314
1716268589340739364,0.181,,,,5.239803682
1716268589348433732,0.201,,,,5.24749805
1716268589356128100,0.215,,,,5.255192418
1716268589363822468,0.242,,,,5.262886786
1716268589371516836,0.356,,,,5.270581154
1716268589379211204,0.599,,,,5.278275522
1716268589386905572,0.839,,,,5.28596989
1716268589394599940,0.839,,,,5.293664258
1716268589402294308,0.506,,,,5.301358626
1716268589409988676,0.16,,,,5.309052994
1716268589417683044,0.196,,,,5.316747362
1716268589425377412,0.402,,705.0,,5.32444173
1716268589433071780,0.426,,,,5.332136098
1716268589440766148,0.417,,,,5.339830466
1716268589448460516,0.492,,,,5.347524834
1716268589456154884,0.54,,,,5.355219202
1716268589463849252,0.56,,,,5.36291357
1716268589471543620,0.606,,,,5.370607938
1716268589479237988,0.662,,,,5.378302306
1716268589486932356,0.7000000000000001,,,,5.385996674
1716268589494626724,0.737,,,,5.393691042
1716268589502321092,0.8,,,,5.40138541
1716268589510015460,0.863,,,,5.409079778
1716268589517709828,0.916,,,,5.416774146
1716268589525404196,0.97,,,,5.424468514
1716268589533098564,1.008,,,,5.432162882
1716268589540792932,1.028,,,,5.43985725
1716268589548487300,1.069,,,,5.447551618
1716268589556181668,1.13,,,,5.455245986
1716268589563876036,1.176,,,,5.462940354
1716268589571570404,1.217,,,,5.470634722
1716268589579264772,1.268,,,,5.47832909
1716268589586959140,1.324,,,,5.486023458
1716268589594653508,1.382,,,,5.493717826
1716268589602347876,1.452,,,,5.501412194
1716268589610042244,1.525,,,,5.509106562
1716268589617736612,1.593,,,,5.51680093
1716268589625430980,1.656,,,,5.524495298
1716268589633125348,1.704,,,,5.532189666
1716268589640819716,1.763,,,,5.539884034
1716268589648514084,1.821,,,,5.547578402
1716268589656208452,1.862,,,,5.55527277
1716268589663902820,1.894,,,,5.562967138
1716268589671597188,1.92,,,,5.570661506
1716268589679291556,1.947,,,,5.578355874
1716268589686985924,1.964,,,,5.586050242
1716268589694680292,1.976,,,,5.59374461
1716268589702374660,1.995,,,,5.601438978
1716268589710069028,2.008,,,,5.609133346
1716268589717763408,2.024,,,,5.616827726
1716268589725457776,2.039,,,,5.624522094
1716268589733152144,2.058,,,,5.632216462
1716268589740846512,2.088,,,,5.63991083
1716268589748540880,2.09,,,,5.647605198
1716268589756235248,2.083,,,,5.655299566
1716268589763929616,2.112,,,,5.662993934
1716268589771623984,2.153,,,,5.670688302
1716268589779318352,2.204,,,,5.67838267
1716268589787012720,2.25,,,,5.686077038
1716268589794707088,2.294,,,,5.693771406
1716268589802401456,2.352,,,,5.701465774
1716268589810095824,2.403,,,,5.709160142
1716268589817790192,2.449,,,,5.71685451
1716268589825484560,2.497,,,,5.724548878
1716268589833178928,2.536,,,,5.732243246
1716268589840873296,2.585,,,,5.739937614
1716268589848567664,2.631,,,,5.747631982
1716268589856262032,2.682,,,,5.75532635
1716268589863956400,2.757,,,,5.763020718
1716268589871650768,2.832,,,,5.770715086
1716268589879345136,2.9,,,,5.778409454
1716268589887039504,2.961,,,,5.786103822
1716268589894733872,3.021,,,,5.79379819
1716268589902428240,3.079,,,,5.801492558
1716268589910122608,3.109,,,,5.809186926
1716268589917816976,3.152,,,,5.816881294
1716268589925511344,3.1910000000000003,,,,5.824575662
1716268589933205712,3.1910000000000003,,,,5.83227003
1716268589940900080,3.198,,,,5.839964398
1716268589948594448,3.189,,,,5.847658766
1716268589956288816,3.152,,,,5.855353134
1716268589963983184,3.125,,,,5.863047502
1716268589971677552,3.072,,,,5.87074187
1716268589979371920,3.014,,,,5.878436238
1716268589987066288,2.968,,,,5.886130606
1716268589994760656,2.91,,,,5.893824974
1716268590002455024,2.859,,,,5.901519342
1716268590010149392,2.8080000000000003,,,,5.90921371
1716268590017843760,2.776,,,,5.916908078
1716268590025538128,2.759,,,,5.924602446
1716268590033232496,2.718,,,,5.932296814
1716268590040926864,2.684,,,,5.939991182
1716268590048621232,2.636,,,,5.94768555
1716268590056315600,2.575,,,,5.955379918
1716268590064009968,2.57,,,,5.963074286
1716268590071704336,2.568,,,,5.970768654
1716268590079398704,2.551,,,,5.978463022
1716268590087093072,2.529,,,,5.98615739
1716268590094787440,2.48,,,,5.993851758
1716268590102481808,2.512,,,,6.001546126
1716268590110176176,2.633,,687.0,,6.009240494
1716268590117870544,2.716,,,,6.016934862
1716268590125564912,2.793,,,,6.02462923
1716268590133259280,2.944,,,,6.032323598
1716268590140953648,3.128,,,,6.040017966
1716268590148648016,3.363,,,,6.047712334
1716268590156342384,3.695,,,,6.055406702
1716268590164036752,3.94,,,,6.06310107
1716268590171731120,3.848,,,,6.070795438
1716268590179425488,3.567,,,,6.078489806
1716268590187119856,3.528,,,,6.086184174
1716268590194814224,3.746,,,,6.093878542
1716268590202508592,3.863,,,,6.10157291
1716268590210202960,3.831,,,,6.109267278
1716268590217897328,3.78,,,,6.116961646
1716268590225591696,3.695,,,,6.124656014
1716268590233286064,3.647,,,,6.132350382
1716268590240980432,3.7,,,,6.14004475
1716268590248674800,3.749,,,,6.147739118
1716268590256369168,3.746,,,,6.155433486
1716268590264063536,3.756,,,,6.163127854
1716268590271757904,3.785,,,,6.170822222
1716268590279452284,3.805,85.0,,,6.178516602
1716268590287146652,3.8,,,,6.18621097
1716268590294841020,3.79,,,,6.193905338
1716268590302535388,3.773,,,,6.201599706
1716268590310229756,3.717,,,,6.209294074
1716268590317924124,3.683,,,,6.216988442
1716268590325618492,3.691,,,,6.22468281
1716268590333312860,3.664,,,,6.232377178
1716268590341007228,3.589,,,,6.240071546
1716268590348701596,3.535,,,,6.247765914
1716268590356395964,3.523,,,,6.255460282
1716268590364090332,3.492,,,,6.26315465
1716268590371784700,3.438,,,,6.270849018
1716268590379479068,3.424,,,,6.278543386
1716268590387173436,3.378,,,,6.286237754
1716268590394867804,3.293,,,,6.293932122
1716268590402562172,3.249,,,,6.30162649
1716268590410256540,3.235,,,,6.309320858
1716268590417950908,3.215,,,,6.317015226
1716268590425645276,3.1910000000000003,,,,6.324709594
1716268590433339644,3.164,,,,6.332403962
1716268590441034012,3.152,,,,6.34009833
1716268590448728380,3.13,,,,6.347792698
1716268590456422748,3.109,,,,6.355487066
1716268590464117116,3.096,,,,6.363181434
1716268590471811484,3.0700000000000003,,,,6.370875802
1716268590479505852,3.0500000000000003,,,,6.37857017
1716268590487200220,3.043,,,,6.386264538
1716268590494894588,3.0580000000000003,,,,6.393958906
1716268590502588956,3.0580000000000003,,,,6.401653274
1716268590510283324,3.007,,,,6.409347642
1716268590517977692,2.978,,,,6.41704201
1716268590525672060,2.963,,,,6.424736378
1716268590533366428,2.915,,,,6.432430746
1716268590541060796,2.876,,,,6.440125114
1716268590548755164,2.83,,,,6.447819482
1716268590556449532,2.764,,,,6.45551385
1716268590564143900,2.706,,,,6.463208218
1716268590571838268,2.631,,,,6.470902586
1716268590579532636,2.563,,,,6.478596954
1716268590587227004,2.512,,,,6.486291322
1716268590594921372,2.466,,,,6.49398569
1716268590602615740,2.4170000000000003,,,,6.501680058
1716268590610310108,2.352,,,,6.509374426
1716268590618004476,2.2960000000000003,,,,6.517068794
1716268590625698844,2.243,,,,6.524763162
1716268590633393212,2.168,,,,6.53245753
1716268590641087580,2.09,,,,6.540151898
1716268590648781948,1.971,,,,6.547846266
1716268590656476316,1.84,,,,6.555540634
1716268590664170684,1.726,,,,6.563235002
1716268590671865052,1.566,,,,6.57092937
1716268590679559420,1.362,,,,6.578623738
1716268590687253788,1.139,,,,6.586318106
1716268590694948156,0.921,,,,6.594012474
1716268590702642524,0.737,,,,6.601706842
1716268590710336892,0.535,,,,6.60940121
1716268590718031260,0.337,,,,6.617095578
1716268590725725628,0.186,,,,6.624789946
1716268590733419996,0.058,,,,6.632484314
1716268590741114364,-0.05,,,,6.640178682
1716268590748808732,-0.189,,,,6.64787305
1716268590756503100,-0.373,,,,6.655567418
1716268590764197468,-0.514,,,,6.663261786
1716268590771891836,-0.606,,,,6.670956154
1716268590779586204,-0.727,,,,6.678650522
1716268590787280572,-0.928,,,,6.68634489
1716268590794974940,-1.217,,,,6.694039258
1716268590802669308,-1.583,,,,6.701733626
1716268590810363676,-2.054,,,,6.709427994
1716268590818058044,-2.58,,,,6.717122362
1716268590825752412,-3.0580000000000003,,,,6.72481673
1716268590833446780,-3.528,,,,6.732511098
1716268590841141162,-3.999,,,,6.74020548
1716268590848835390,-4.418,,,,6.747899708
1716268590856529618,-4.787,,,,6.755593936
1716268590864223846,-5.066,,757.0,,6.763288164
1716268590871918074,-5.281,,,,6.770982392
1716268590879612302,-5.4750000000000005,,,,6.77867662
1716268590887306530,-5.555,,,,6.786370848
1716268590895000758,-5.441,,,,6.794065076
1716268590902694986,-5.26,,,,6.801759304
1716268590910389214,-5.269,,,,6.809453532
1716268590918083442,-5.507,,,,6.81714776
1716268590925777670,-5.679,,,,6.824841988
1716268590933471898,-5.606,,,,6.832536216
1716268590941166126,-5.446,,,,6.840230444
1716268590948860354,-5.357,,,,6.847924672
1716268590956554582,-5.281,,,,6.8556189
1716268590964248810,-5.16,,,,6.863313128
1716268590971943038,-5.041,,,,6.871007356
1716268590979637266,-4.949,,,,6.878701584
1716268590987331494,-4.855,,,,6.886395812
1716268590995025722,-4.75,,,,6.89409004
1716268591002719950,-4.639,,,,6.901784268
1716268591010414178,-4.537,,,,6.909478496
1716268591018108406,-4.437,,,,6.917172724
1716268591025802634,-4.336,,,,6.924866952
1716268591033496862,-4.258,,,,6.93256118
1716268591041191090,-4.195,,,,6.940255408
1716268591048885318,-4.134,,,,6.947949636
1716268591056579546,-4.081,,,,6.955643864
1716268591064273774,-4.035,,,,6.963338092
1716268591071968002,-3.994,,,,6.97103232
1716268591079662230,-3.94,,,,6.978726548
1716268591087356458,-3.875,,,,6.986420776
1716268591095050686,-3.819,,,,6.994115004
1716268591102744914,-3.763,,,,7.001809232
1716268591110439142,-3.698,,,,7.00950346
1716268591118133370,-3.637,,,,7.017197688
1716268591125827598,-3.608,,,,7.024891916
1716268591133521826,-3.584,,,,7.032586144
1716268591141216054,-3.521,,,,7.040280372
1716268591148910282,-3.448,,,,7.0479746
1716268591156604510,-3.395,,,,7.055668828
1716268591164298738,-3.339,,,,7.063363056
1716268591171992966,-3.281,,,,7.071057284
1716268591179687194,-3.218,,,,7.078751512
1716268591187381422,-3.152,,,,7.08644574
1716268591195075650,-3.094,,,,7.094139968
1716268591202769878,-3.043,,,,7.101834196
1716268591210464106,-2.995,,,,7.109528424
1716268591218158334,-2.965,,,,7.117222652
1716268591225852562,-2.946,,,,7.12491688
1716268591233546790,-2.931,,,,7.132611108
1716268591241241018,-2.919,,,,7.140305336
1716268591248935246,-2.922,,,,7.147999564
1716268591256629474,-2.9290000000000003,,,,7.155693792
1716268591264323702,-2.934,,,,7.16338802
1716268591272017930,-2.936,,,,7.171082248
1716268591279712158,-2.946,,,,7.178776476
1716268591287406386,-2.973,,,,7.186470704
1716268591295100614,-2.992,,,,7.194164932
1716268591302794842,-2.997,,,,7.20185916
1716268591310489070,-3.024,,,,7.209553388
1716268591318183298,-3.055,,,,7.217247616
1716268591325877526,-3.067,,,,7.224941844
1716268591333571754,-3.082,,,,7.232636072
1716268591341265982,-3.101,,,,7.2403303
1716268591348960210,-3.116,,,,7.248024528
1716268591356654438,-3.118,,,,7.255718756
1716268591364348666,-3.113,,,,7.263412984
1716268591372042894,-3.109,,,,7.271107212
1716268591379737122,-3.099,,,,7.27880144
1716268591387431350,-3.067,,,,7.286495668
1716268591395125578,-3.043,,,,7.294189896
1716268591402819866,-3.024,84.0,,,7.301884184
1716268591410513955,-2.973,,,,7.309578273
1716268591418208044,-2.915,,,,7.317272362
1716268591425902133,-2.881,,,,7.324966451
1716268591433596222,-2.847,,,,7.33266054
1716268591441290311,-2.793,,,,7.340354629
1716268591448984400,-2.745,,,,7.348048718
1716268591456678489,-2.704,,,,7.355742807
1716268591464372578,-2.655,,,,7.363436896
1716268591472066667,-2.604,,,,7.371130985
1716268591479760756,-2.543,,,,7.378825074
1716268591487454845,-2.478,,,,7.386519163
1716268591495148934,-2.422,,,,7.394213252
1716268591502843023,-2.354,,,,7.401907341
1716268591510537112,-2.2840000000000003,,,,7.40960143
1716268591518231201,-2.24,,,,7.417295519
1716268591525925290,-2.197,,,,7.424989608
1716268591533619379,-2.141,,,,7.432683697
1716268591541313468,-2.092,,,,7.440377786
1716268591549007557,-2.056,,,,7.448071875
1716268591556701646,-2.01,,,,7.455765964
1716268591564395735,-1.959,,,,7.463460053
1716268591572089824,-1.911,,,,7.471154142
1716268591579783913,-1.852,,,,7.478848231
1716268591587478002,-1.804,,,,7.48654232
1716268591595172091,-1.765,,,,7.494236409
1716268591602866180,-1.666,,,,7.501930498
1716268591610560269,-1.44,,,,7.509624587
1716268591618254358,-1.159,,,,7.517318676
1716268591625948447,-1.008,,,,7.525012765
1716268591633642536,-1.171,,,,7.532706854
1716268591641336625,-1.52,,,,7.540400943
1716268591649030714,-1.653,,,,7.548095032
1716268591656724803,-1.493,,,,7.555789121
1716268591664418892,-1.35,,,,7.56348321
1716268591672112981,-1.338,,806.0,,7.571177299
1716268591679807070,-1.319,,,,7.578871388
1716268591687501159,-1.27,,,,7.586565477
1716268591695195248,-1.236,,,,7.594259566
1716268591702889337,-1.21,,,,7.601953655
1716268591710583426,-1.173,,,,7.609647744
1716268591718277515,-1.142,,,,7.617341833
1716268591725971604,-1.11,,,,7.625035922
1716268591733665693,-1.079,,,,7.632730011
1716268591741359782,-1.037,,,,7.6404241
1716268591749053871,-0.996,,,,7.648118189
1716268591756747960,-0.955,,,,7.655812278
1716268591764442049,-0.909,,,,7.663506367
1716268591772136138,-0.868,,,,7.671200456
1716268591779830227,-0.8290000000000001,,,,7.678894545
1716268591787524316,-0.802,,,,7.686588634
1716268591795218405,-0.79,,,,7.694282723
1716268591802912494,-0.773,,,,7.701976812
1716268591810606583,-0.739,,,,7.709670901
1716268591818300672,-0.712,,,,7.71736499
1716268591825994761,-0.6930000000000001,,,,7.725059079
1716268591833688850,-0.664,,,,7.732753168
1716268591841382939,-0.63,,,,7.740447257
1716268591849077028,-0.608,,,,7.748141346
1716268591856771117,-0.596,,,,7.755835435
1716268591864465206,-0.596,,,,7.763529524
1716268591872159295,-0.594,,,,7.771223613
1716268591879853384,-0.579,,,,7.778917702
1716268591887547473,-0.5650000000000001,,,,7.786611791
1716268591895241562,-0.5670000000000001,,,,7.79430588
1716268591902935651,-0.5670000000000001,,,,7.801999969
1716268591910629740,-0.552,,,,7.809694058
1716268591918323829,-0.543,,,,7.817388147
1716268591926017918,-0.528,,,,7.825082236
1716268591933712007,-0.506,,,,7.832776325
1716268591941406096,-0.485,,,,7.840470414
1716268591949100185,-0.463,,,,7.848164503
1716268591956794274,-0.438,,,,7.855858592
1716268591964488396,-0.417,,,,7.863552714
1716268591972182764,-0.402,,,,7.871247082
1716268591979877132,-0.395,,,,7.87894145
1716268591987571500,-0.38,,,,7.886635818
1716268591995265868,-0.356,,,,7.894330186
1716268592002960236,-0.344,,,,7.902024554
1716268592010654604,-0.341,,,,7.909718922
1716268592018348972,-0.332,,,,7.91741329
1716268592026043340,-0.32,,,,7.925107658
1716268592033737708,-0.32,,,,7.932802026
1716268592041432076,-0.32,,,,7.940496394
1716268592049126444,-0.31,,,,7.948190762
1716268592056820812,-0.298,,,,7.95588513
1716268592064515180,-0.293,,,,7.963579498
1716268592072209548,-0.293,,,,7.971273866
1716268592079903916,-0.288,,,,7.978968234
1716268592087598284,-0.278,,,,7.986662602
1716268592095292652,-0.278,,,,7.99435697
1716268592102987020,-0.281,,,,8.002051338
1716268592110681388,-0.276,,,,8.009745706
1716268592118375756,-0.276,,,,8.017440074
1716268592126070124,-0.278,,,,8.025134442
1716268592133764492,-0.276,,,,8.03282881
1716268592141458860,-0.269,,,,8.040523178
1716268592149153228,-0.261,,,,8.048217546
1716268592156847596,-0.257,,,,8.055911914
1716268592164541964,-0.247,,,,8.063606282
1716268592172236332,-0.237,,,,8.07130065
1716268592179930700,-0.235,,,,8.078995018
1716268592187625068,-0.23,,,,8.086689386
1716268592195319436,-0.218,,,,8.094383754
1716268592203013804,-0.196,,,,8.102078122
1716268592210708172,-0.174,,,,8.10977249
1716268592218402540,-0.169,,,,8.117466858
1716268592226096908,-0.169,,,,8.125161226
1716268592233791276,-0.172,,,,8.132855594
1716268592241485644,-0.177,,,,8.140549962
1716268592249180012,-0.174,,,,8.14824433
1716268592256874380,-0.167,,,,8.155938698
1716268592264568748,-0.157,,,,8.163633066
1716268592272263116,-0.147,,,,8.171327434
1716268592279957484,-0.14,,,,8.179021802
1716268592287651852,-0.13,,,,8.18671617
1716268592295346220,-0.116,,,,8.194410538
1716268592303040588,-0.109,,,,8.202104906
1716268592310734956,-0.087,,,,8.209799274
1716268592318429324,0.029,,,,8.217493642
1716268592326123692,0.247,,,,8.22518801
1716268592333818060,0.424,,,,8.232882378
1716268592341512428,0.368,,,,8.240576746
1716268592349206796,0.048,,,,8.248271114
1716268592356901164,-0.225,,,,8.255965482
1716268592364595532,-0.201,,,,8.26365985
1716268592372289900,-0.075,,,,8.271354218
1716268592379984268,-0.077,,,,8.279048586
1716268592387678636,-0.116,,,,8.286742954
1716268592395373004,-0.104,,,,8.294437322
1716268592403067372,-0.094,,,,8.30213169
1716268592410761740,-0.099,,,,8.309826058
1716268592418456108,-0.087,,,,8.317520426
1716268592426150476,-0.07,,,,8.325214794
1716268592433844844,-0.07,,763.0,,8.332909162
1716268592441539212,-0.08,,,,8.34060353
1716268592449233580,-0.075,,,,8.348297898
1716268592456927948,-0.06,,,,8.355992266
1716268592464622316,-0.053,,,,8.363686634
1716268592472316684,-0.041,,,,8.371381002
1716268592480011052,-0.029,,,,8.37907537
1716268592487705420,-0.029,,,,8.386769738
1716268592495399788,-0.036,,,,8.394464106
1716268592503094156,-0.029,,,,8.402158474
1716268592510788524,-0.019,,,,8.409852842
1716268592518482892,-0.024,,,,8.41754721
1716268592526177272,-0.026,83.0,,,8.42524159
1716268592533871640,-0.016,,,,8.432935958
1716268592541566008,-0.007,,,,8.440630326
1716268592549260376,0.0,,,,8.448324694
1716268592556954744,-0.002,,,,8.456019062
1716268592564649112,-0.004,,,,8.46371343
1716268592572343480,-0.009,,,,8.471407798
1716268592580037848,-0.016,,,,8.479102166
1716268592587732216,-0.016,,,,8.486796534
1716268592595426584,-0.014,,,,8.494490902
1716268592603120952,-0.021,,,,8.50218527
1716268592610815320,-0.036,,,,8.509879638
1716268592618509688,-0.043,,,,8.517574006
1716268592626204056,-0.043,,,,8.525268374
1716268592633898424,-0.05,,,,8.532962742
1716268592641592792,-0.058,,,,8.54065711
1716268592649287160,-0.055,,,,8.548351478
1716268592656981528,-0.055,,,,8.556045846
1716268592664675896,-0.058,,,,8.563740214
1716268592672370264,-0.05,,,,8.571434582
1716268592680064632,-0.046,,,,8.57912895
1716268592687759000,-0.038,,,,8.586823318
1716268592695453368,-0.038,,,,8.594517686
1716268592703147736,-0.046,,,,8.602212054
1716268592710842104,-0.048,,,,8.609906422
1716268592718536472,-0.041,,,,8.61760079
1716268592726230840,-0.043,,,,8.625295158
1716268592733925208,-0.046,,,,8.632989526
1716268592741619576,-0.031,,,,8.640683894
1716268592749313944,-0.019,,,,8.648378262
1716268592757008312,-0.021,,,,8.65607263
1716268592764702680,-0.029,,,,8.663766998
1716268592772397048,-0.043,,,,8.671461366
1716268592780091416,-0.046,,,,8.679155734
1716268592787785784,-0.041,,,,8.686850102
1716268592795480152,-0.043,,,,8.69454447
1716268592803174520,-0.041,,,,8.702238838
1716268592810868888,-0.041,,,,8.709933206
1716268592818563256,-0.048,,,,8.717627574
1716268592826257624,-0.041,,,,8.725321942
1716268592833951992,-0.031,,,,8.73301631
1716268592841646360,-0.033,,,,8.740710678
1716268592849340728,-0.033,,,,8.748405046
1716268592857035096,-0.033,,,,8.756099414
1716268592864729464,-0.038,,,,8.763793782
1716268592872423832,-0.033,,,,8.77148815
1716268592880118200,-0.031,,,,8.779182518
1716268592887812568,-0.031,,,,8.786876886
1716268592895506936,-0.029,,,,8.794571254
1716268592903201304,-0.033,,,,8.802265622
1716268592910895672,-0.036,,,,8.80995999
1716268592918590040,-0.043,,,,8.817654358
1716268592926284408,-0.063,,,,8.825348726
1716268592933978776,-0.082,,,,8.833043094
1716268592941673144,-0.075,,,,8.840737462
1716268592949367512,-0.055,,,,8.84843183
1716268592957061880,-0.043,,,,8.856126198
1716268592964756248,-0.038,,,,8.863820566
1716268592972450616,-0.046,,,,8.871514934
1716268592980144984,-0.06,,,,8.879209302
1716268592987839352,-0.065,,,,8.88690367
1716268592995533720,-0.072,,,,8.894598038
1716268593003228088,-0.084,,,,8.902292406
1716268593010922456,-0.084,,,,8.909986774
1716268593018616824,-0.092,,,,8.917681142
1716268593026311192,-0.099,,,,8.92537551
1716268593034005560,-0.097,,,,8.933069878
1716268593041699928,-0.089,,,,8.940764246
1716268593049394296,-0.087,,,,8.948458614
1716268593057088664,-0.087,,,,8.956152982
1716268593064783032,-0.009,,,,8.96384735
1716268593072477400,0.201,,,,8.971541718
1716268593080171768,0.426,,,,8.979236086
1716268593087866148,0.446,,,,8.986930466
1716268593095560098,0.15,,,,8.994624416
1716268593103254048,-0.227,,,,9.002318366
1716268593110947998,-0.303,,,,9.010012316
1716268593118641948,-0.162,,,,9.017706266
1716268593126335898,-0.126,,,,9.025400216
1716268593134029848,-0.162,,,,9.033094166
1716268593141723798,-0.15,,,,9.040788116
1716268593149417748,-0.135,,,,9.048482066
1716268593157111698,-0.15,,,,9.056176016
1716268593164805648,-0.147,,,,9.063869966
1716268593172499598,-0.138,,,,9.071563916
1716268593180193548,-0.143,,,,9.079257866
1716268593187887498,-0.138,,,,9.086951816
1716268593195581448,-0.121,,,,9.094645766
1716268593203275398,-0.128,,,,9.102339716
1716268593210969348,-0.135,,772.0,,9.110033666
1716268593218663298,-0.13,,,,9.117727616
1716268593226357248,-0.123,,,,9.125421566
1716268593234051198,-0.121,,,,9.133115516
1716268593241745148,-0.118,,,,9.140809466
1716268593249439098,-0.121,,,,9.148503416
1716268593257133048,-0.123,,,,9.156197366
1716268593264826998,-0.118,,,,9.163891316
1716268593272520948,-0.121,,,,9.171585266
1716268593280214898,-0.13,,,,9.179279216
1716268593287908848,-0.135,,,,9.186973166
1716268593295602798,-0.145,,,,9.194667116
1716268593303296748,-0.162,,,,9.202361066
1716268593310990698,-0.167,,,,9.210055016
1716268593318684648,-0.177,,,,9.217748966
1716268593326378598,-0.203,,,,9.225442916
1716268593334072548,-0.223,,,,9.233136866
1716268593341766498,-0.23,,,,9.240830816
1716268593349460448,-0.247,,,,9.248524766
1716268593357154398,-0.276,,,,9.256218716
1716268593364848348,-0.286,,,,9.263912666
1716268593372542298,-0.283,,,,9.271606616
1716268593380236248,-0.298,,,,9.279300566
1716268593387930198,-0.31,,,,9.286994516
1716268593395624148,-0.31,,,,9.294688466
1716268593403318098,-0.307,,,,9.302382416
1716268593411012048,-0.303,,,,9.310076366
1716268593418705998,-0.312,,,,9.317770316
1716268593426399948,-0.317,,,,9.325464266
1716268593434093898,-0.312,,,,9.333158216
1716268593441787848,-0.317,,,,9.340852166
1716268593449481798,-0.324,,,,9.348546116
1716268593457175748,-0.324,,,,9.356240066
1716268593464869698,-0.322,,,,9.363934016
1716268593472563648,-0.334,,,,9.371627966
1716268593480257598,-0.351,,,,9.379321916
1716268593487951548,-0.351,,,,9.387015866
1716268593495645498,-0.356,,,,9.394709816
1716268593503339448,-0.373,,,,9.402403766
1716268593511033398,-0.378,,,,9.410097716
1716268593518727348,-0.378,,,,9.417791666
1716268593526421298,-0.383,,,,9.425485616
1716268593534115248,-0.39,,,,9.433179566
1716268593541809198,-0.402,,,,9.440873516
1716268593549503148,-0.407,,,,9.448567466
1716268593557197098,-0.407,,,,9.456261416
1716268593564891048,-0.407,,,,9.463955366
1716268593572584998,-0.404,,,,9.471649316
1716268593580278948,-0.395,,,,9.479343266
1716268593587972898,-0.388,,,,9.487037216
1716268593595666848,-0.383,,,,9.494731166
1716268593603360798,-0.375,,,,9.502425116
1716268593611054748,-0.358,,,,9.510119066
1716268593618748698,-0.351,,,,9.517813016
1716268593626442648,-0.349,,,,9.525506966
1716268593634136598,-0.337,,,,9.533200916
1716268593641830548,-0.322,,,,9.540894866
1716268593649524508,-0.312,82.0,,,9.548588826
1716268593657218876,-0.307,,,,9.556283194
1716268593664913244,-0.298,,,,9.563977562
1716268593672607612,-0.291,,,,9.57167193
1716268593680301980,-0.286,,,,9.579366298
1716268593687996348,-0.271,,,,9.587060666
1716268593695690716,-0.249,,,,9.594755034
1716268593703385084,-0.237,,,,9.602449402
1716268593711079452,-0.237,,,,9.61014377
1716268593718773820,-0.24,,,,9.617838138
1716268593726468188,-0.235,,,,9.625532506
1716268593734162556,-0.23,,,,9.633226874
1716268593741856924,-0.235,,,,9.640921242
1716268593749551292,-0.235,,,,9.64861561
1716268593757245660,-0.223,,,,9.656309978
1716268593764940028,-0.215,,,,9.664004346
1716268593772634396,-0.213,,,,9.671698714
1716268593780328764,-0.208,,,,9.679393082
1716268593788023132,-0.201,,,,9.68708745
1716268593795717500,-0.189,,,,9.694781818
1716268593803411868,-0.097,,,,9.702476186
1716268593811106236,0.135,,,,9.710170554
1716268593818800604,0.39,,,,9.717864922
1716268593826494972,0.431,,,,9.72555929
1716268593834189340,0.113,,,,9.733253658
1716268593841883708,-0.298,,,,9.740948026
1716268593849578076,-0.361,,,,9.748642394
1716268593857272444,-0.191,,,,9.756336762
1716268593864966812,-0.162,,,,9.76403113
1716268593872661180,-0.213,,,,9.771725498
1716268593880355548,-0.184,,,,9.779419866
1716268593888049916,-0.15,,,,9.787114234
1716268593895744284,-0.16,,,,9.794808602
1716268593903438652,-0.152,,,,9.80250297
1716268593911133020,-0.133,,,,9.810197338
1716268593918827388,-0.135,,,,9.817891706
1716268593926521756,-0.138,,,,9.825586074
1716268593934216124,-0.123,,,,9.833280442
1716268593941910492,-0.118,,,,9.84097481
1716268593949604860,-0.118,,743.0,,9.848669178
1716268593957299228,-0.116,,,,9.856363546
1716268593964993596,-0.111,,,,9.864057914
1716268593972687964,-0.099,,,,9.871752282
1716268593980382332,-0.092,,,,9.87944665
1716268593988076700,-0.087,,,,9.887141018
1716268593995771068,-0.08,,,,9.894835386
1716268594003465436,-0.067,,,,9.902529754
1716268594011159804,-0.053,,,,9.910224122
1716268594018854172,-0.041,,,,9.91791849
1716268594026548540,-0.029,,,,9.925612858
1716268594034242908,-0.019,,,,9.933307226
1716268594041937276,-0.029,,,,9.941001594
1716268594049631644,-0.033,,,,9.948695962
1716268594057326012,-0.021,,,,9.95639033
1716268594065020380,-0.014,,,,9.964084698
1716268594072714748,-0.009,,,,9.971779066
1716268594080409116,-0.019,,,,9.979473434
1716268594088103484,-0.031,,,,9.987167802
1716268594095797852,-0.029,,,,9.99486217
1716268594103492220,-0.021,,,,10.002556538
1716268594111186588,-0.024,,,,10.010250906
1716268594118880956,-0.026,,,,10.017945274
1716268594126575324,-0.033,,,,10.025639642
1716268594134269692,-0.043,,,,10.03333401
1716268594141964060,-0.036,,,,10.041028378
1716268594149658428,-0.019,,,,10.048722746
1716268594157352796,-0.009,,,,10.056417114
1716268594165047164,-0.004,,,,10.064111482
1716268594172741532,0.0,,,,10.07180585
1716268594180435900,0.0,,,,10.079500218
1716268594188130268,0.012,,,,10.087194586
1716268594195824636,0.026,,,,10.094888954
1716268594203519004,0.026,,,,10.102583322
1716268594211213384,0.024,82.0,,,10.110277702
1716268594218907752,0.019,,,,10.11797207
1716268594226602120,0.021,,,,10.125666438
1716268594234296488,0.033,,,,10.133360806
1716268594241990856,0.038,,,,10.141055174
1716268594249685224,0.036,,,,10.148749542
1716268594257379592,0.031,,,,10.15644391
1716268594265073960,0.024,,,,10.164138278
1716268594272768328,0.024,,,,10.171832646
1716268594280462696,0.026,,,,10.179527014
1716268594288157064,0.026,,,,10.187221382
1716268594295851432,0.033,,,,10.19491575
1716268594303545800,0.041,,,,10.202610118
1716268594311240168,0.033,,,,10.210304486
1716268594318934536,0.021,,,,10.217998854
1716268594326628904,0.019,,,,10.225693222
1716268594334323272,0.019,,,,10.23338759
1716268594342017640,0.012,,,,10.241081958
1716268594349712008,0.019,,,,10.248776326
1716268594357406376,0.021,,,,10.256470694
1716268594365100744,0.014,,,,10.264165062
1716268594372795112,0.016,,,,10.27185943
1716268594380489480,0.024,,,,10.279553798
1716268594388183848,0.029,,,,10.287248166
1716268594395878216,0.036,,,,10.294942534
1716268594403572584,0.041,,,,10.302636902
1716268594411266952,0.036,,,,10.31033127
1716268594418961320,0.031,,,,10.318025638
1716268594426655688,0.026,,,,10.325720006
1716268594434350056,0.026,,,,10.333414374
1716268594442044424,0.026,,,,10.341108742
1716268594449738792,0.029,,,,10.34880311
1716268594457433160,0.031,,,,10.356497478
1716268594465127528,0.029,,,,10.364191846
1716268594472821896,0.046,,,,10.371886214
1716268594480516264,0.072,,,,10.379580582
1716268594488210632,0.08,,,,10.38727495
1716268594495905000,0.07,,,,10.394969318
1716268594503599368,0.055,,,,10.402663686
1716268594511293736,0.05,,,,10.410358054
1716268594518988104,0.055,,,,10.418052422
1716268594526682472,0.05,,,,10.42574679
1716268594534376840,0.038,,,,10.433441158
1716268594542071208,0.041,,,,10.441135526
1716268594549765576,0.048,,,,10.448829894
1716268594557459944,0.038,,,,10.456524262
1716268594565154312,0.029,,,,10.46421863
1716268594572848680,0.038,,,,10.471912998
1716268594580543048,0.043,,,,10.479607366
1716268594588237416,0.109,,,,10.487301734
1716268594595931784,0.307,,,,10.494996102
1716268594603626152,0.543,,,,10.50269047
1716268594611320520,0.623,,,,10.510384838
1716268594619014888,0.397,,,,10.518079206
1716268594626709256,-0.007,,,,10.525773574
1716268594634403624,-0.16,,,,10.533467942
1716268594642097992,-0.014,,,,10.54116231
1716268594649792360,0.055,,,,10.548856678
1716268594657486728,-0.002,,,,10.556551046
1716268594665181096,0.0,,,,10.564245414
1716268594672875464,0.031,,719.0,,10.571939782
1716268594680569832,0.019,,,,10.57963415
1716268594688264200,0.019,,,,10.587328518
1716268594695958568,0.026,,,,10.595022886
1716268594703652936,0.019,,,,10.602717254
1716268594711347304,0.024,,,,10.610411622
1716268594719041672,0.041,,,,10.61810599
1716268594726736040,0.043,,,,10.625800358
1716268594734430408,0.038,,,,10.633494726
1716268594742124776,0.043,,,,10.641189094
1716268594749819144,0.058,,,,10.648883462
1716268594757513512,0.065,,,,10.65657783
1716268594765207880,0.063,,,,10.664272198
1716268594772902260,0.06,,,,10.671966578
1716268594780596628,0.065,,,,10.679660946
1716268594788290996,0.077,,,,10.687355314
1716268594795985364,0.082,,,,10.695049682
1716268594803679732,0.082,,,,10.70274405
1716268594811374100,0.084,,,,10.710438418
1716268594819068468,0.087,,,,10.718132786
1716268594826762836,0.087,,,,10.725827154
1716268594834457204,0.092,,,,10.733521522
1716268594842151572,0.094,,,,10.74121589
1716268594849845940,0.094,,,,10.748910258
1716268594857540308,0.094,,,,10.756604626
1716268594865234676,0.089,,,,10.764298994
1716268594872929044,0.08,,,,10.771993362
1716268594880623412,0.07,,,,10.77968773
1716268594888317780,0.07,,,,10.787382098
1716268594896012148,0.063,,,,10.795076466
1716268594903706516,0.053,,,,10.802770834
1716268594911400884,0.05,,,,10.810465202
1716268594919095252,0.038,,,,10.81815957
1716268594926789620,0.026,,,,10.825853938
1716268594934483988,0.031,,,,10.833548306
1716268594942178356,0.036,,,,10.841242674
1716268594949872724,0.026,,,,10.848937042
1716268594957567092,0.026,,,,10.85663141
1716268594965261460,0.038,,,,10.864325778
1716268594972955828,0.046,,,,10.872020146
1716268594980650196,0.046,,,,10.879714514
1716268594988344564,0.048,,,,10.887408882
1716268594996038932,0.053,,,,10.89510325
1716268595003733300,0.05,,,,10.902797618
1716268595011427668,0.048,,,,10.910491986
1716268595019122036,0.053,,,,10.918186354
1716268595026816404,0.058,,,,10.925880722
1716268595034510772,0.058,,,,10.93357509
1716268595042205140,0.06,,,,10.941269458
1716268595049899508,0.063,,,,10.948963826
1716268595057593876,0.063,,,,10.956658194
1716268595065288244,0.063,,,,10.964352562
1716268595072982612,0.065,,,,10.97204693
1716268595080676980,0.063,,,,10.979741298
1716268595088371348,0.065,,,,10.987435666
1716268595096065716,0.067,,,,10.995130034
1716268595103760084,0.065,,,,11.002824402
1716268595111454452,0.07,,,,11.01051877
1716268595119148820,0.075,,,,11.018213138
1716268595126843188,0.075,,,,11.025907506
1716268595134537556,0.077,,,,11.033601874
1716268595142231924,0.077,,,,11.041296242
1716268595149926292,0.082,,,,11.04899061
1716268595157620660,0.087,,,,11.056684978
1716268595165315028,0.092,,,,11.064379346
1716268595173009396,0.094,,,,11.072073714
1716268595180703764,0.089,,,,11.079768082
1716268595188398132,0.092,,,,11.08746245
1716268595196092500,0.094,,,,11.095156818
1716268595203786868,0.092,,,,11.102851186
1716268595211481236,0.097,,,,11.110545554
1716268595219175604,0.099,,,,11.118239922
1716268595226869972,0.094,,,,11.12593429
1716268595234564340,0.084,,,,11.133628658
1716268595242258708,0.084,,,,11.141323026
1716268595249953076,0.089,,,,11.149017394
1716268595257647444,0.092,,,,11.156711762
1716268595265341812,0.089,,,,11.16440613
1716268595273036180,0.087,,,,11.172100498
1716268595280730548,0.089,,,,11.179794866
1716268595288424916,0.104,,,,11.187489234
1716268595296119284,0.126,,,,11.195183602
1716268595303813652,0.123,,,,11.20287797
1716268595311508020,0.106,,,,11.210572338
1716268595319202388,0.099,,,,11.218266706
1716268595326896756,0.097,,,,11.225961074
1716268595334591136,0.084,82.0,,,11.233655454
1716268595342285504,0.075,,,,11.241349822
1716268595349979872,0.08,,,,11.24904419
1716268595357674240,0.084,,,,11.256738558
1716268595365368608,0.084,,,,11.264432926
1716268595373062976,0.084,,,,11.272127294
1716268595380757344,0.084,,711.0,,11.279821662
1716268595388451712,0.084,,,,11.28751603
1716268595396146080,0.094,,,,11.295210398
1716268595403840448,0.201,,,,11.302904766
1716268595411534816,0.431,,,,11.310599134
1716268595419229184,0.62,,,,11.318293502
1716268595426923552,0.562,,,,11.32598787
1716268595434617920,0.206,,,,11.333682238
1716268595442312288,-0.123,,,,11.341376606
1716268595450006656,-0.097,,,,11.349070974
1716268595457701024,0.043,,,,11.356765342
1716268595465395392,0.019,,,,11.36445971
1716268595473089760,-0.016,,,,11.372154078
1716268595480784128,0.014,,,,11.379848446
1716268595488478496,0.016,,,,11.387542814
1716268595496172864,0.009,,,,11.395237182
1716268595503867232,0.029,,,,11.40293155
1716268595511561600,0.038,,,,11.410625918
1716268595519255968,0.036,,,,11.418320286
1716268595526950336,0.046,,,,11.426014654
1716268595534644704,0.055,,,,11.433709022
1716268595542339072,0.058,,,,11.44140339
1716268595550033440,0.063,,,,11.449097758
1716268595557727808,0.063,,,,11.456792126
1716268595565422176,0.06,,,,11.464486494
1716268595573116544,0.06,,,,11.472180862
1716268595580810912,0.063,,,,11.47987523
1716268595588505280,0.075,,,,11.487569598
1716268595596199648,0.084,,,,11.495263966
1716268595603894016,0.082,,,,11.502958334
1716268595611588384,0.089,,,,11.510652702
1716268595619282752,0.101,,,,11.51834707
1716268595626977120,0.109,,,,11.526041438
1716268595634671488,0.113,,,,11.533735806
1716268595642365856,0.113,,,,11.541430174
1716268595650060224,0.109,,,,11.549124542
1716268595657754592,0.099,,,,11.55681891
1716268595665448960,0.092,,,,11.564513278
1716268595673143328,0.092,,,,11.572207646
1716268595680837696,0.092,,,,11.579902014
1716268595688532064,0.089,,,,11.587596382
1716268595696226432,0.082,,,,11.59529075
1716268595703920800,0.07,,,,11.602985118
1716268595711615168,0.063,,,,11.610679486
1716268595719309536,0.06,,,,11.618373854
1716268595727003904,0.06,,,,11.626068222
1716268595734698272,0.055,,,,11.63376259
1716268595742392640,0.048,,,,11.641456958
1716268595750087008,0.048,,,,11.649151326
1716268595757781376,0.053,,,,11.656845694
1716268595765475744,0.055,,,,11.664540062
1716268595773170112,0.058,,,,11.67223443
1716268595780864480,0.058,,,,11.679928798
1716268595788558848,0.053,,,,11.687623166
1716268595796253216,0.05,,,,11.695317534
1716268595803947584,0.055,,,,11.703011902
1716268595811641952,0.048,,,,11.71070627
1716268595819336320,0.038,,,,11.718400638
1716268595827030688,0.043,,,,11.726095006
1716268595834725056,0.048,,,,11.733789374
1716268595842419424,0.041,,,,11.741483742
1716268595850113792,0.038,,,,11.74917811
1716268595857808160,0.043,,,,11.756872478
1716268595865502528,0.043,,,,11.764566846
1716268595873196896,0.036,,,,11.772261214
1716268595880891264,0.036,,,,11.779955582
1716268595888585632,0.038,,,,11.78764995
1716268595896280012,0.033,,,,11.79534433
1716268595903974380,0.033,,,,11.803038698
1716268595911668748,0.043,,,,11.810733066
1716268595919363116,0.038,,,,11.818427434
1716268595927057484,0.024,,,,11.826121802
1716268595934751852,0.016,,,,11.83381617
1716268595942446220,0.004,,,,11.841510538
1716268595950140588,-0.004,,,,11.849204906
1716268595957834956,-0.002,,,,11.856899274
1716268595965529324,0.002,,,,11.864593642
1716268595973223692,0.0,,,,11.87228801
1716268595980918060,0.002,,,,11.879982378
1716268595988612428,0.0,,,,11.887676746
1716268595996306796,-0.014,,,,11.895371114
1716268596004001164,-0.012,,,,11.903065482
1716268596011695532,-0.007,,,,11.91075985
1716268596019389900,-0.031,,,,11.918454218
1716268596027084268,-0.012,,,,11.926148586
1716268596034778636,0.033,,,,11.933842954
1716268596042473004,0.031,,,,11.941537322
1716268596050167372,0.014,,,,11.94923169
1716268596057861740,0.009,,,,11.956926058
1716268596065556108,-0.004,,,,11.964620426
1716268596073250476,-0.004,,,,11.972314794
1716268596080944844,0.016,,,,11.980009162
1716268596088639212,0.031,,,,11.98770353
1716268596096333580,0.029,,,,11.995397898
1716268596104027948,0.026,,,,12.003092266
1716268596111722316,0.019,,,,12.010786634
1716268596119416684,0.012,,,,12.018481002
1716268596127111052,0.004,,748.0,,12.02617537
1716268596134805420,-0.002,,,,12.033869738
1716268596142499788,-0.004,,,,12.041564106
1716268596150194156,0.002,,,,12.049258474
1716268596157888524,0.009,,,,12.056952842
1716268596165582892,0.012,,,,12.06464721
1716268596173277260,0.019,,,,12.072341578
1716268596180971628,0.024,,,,12.080035946
1716268596188665996,0.036,,,,12.087730314
1716268596196360364,0.145,,,,12.095424682
1716268596204054732,0.395,,,,12.10311905
1716268596211749100,0.642,,,,12.110813418
1716268596219443468,0.637,,,,12.118507786
1716268596227137836,0.266,,,,12.126202154
1716268596234832204,-0.126,,,,12.133896522
1716268596242526572,-0.135,,,,12.14159089
1716268596250220940,0.031,,,,12.149285258
1716268596257915308,0.043,,,,12.156979626
1716268596265609676,-0.004,,,,12.164673994
1716268596273304044,0.016,,,,12.172368362
1716268596280998412,0.038,,,,12.18006273
1716268596288692780,0.029,,,,12.187757098
1716268596296387148,0.038,,,,12.195451466
1716268596304081516,0.05,,,,12.203145834
1716268596311775884,0.05,,,,12.210840202
1716268596319470252,0.063,,,,12.21853457
1716268596327164620,0.08,,,,12.226228938
1716268596334858988,0.08,,,,12.233923306
1716268596342553356,0.08,,,,12.241617674
1716268596350247724,0.092,,,,12.249312042
1716268596357942092,0.106,,,,12.25700641
1716268596365636460,0.113,,,,12.264700778
1716268596373330828,0.121,,,,12.272395146
1716268596381025196,0.133,,,,12.280089514
1716268596388719564,0.133,,,,12.287783882
1716268596396413932,0.138,,,,12.29547825
1716268596404108300,0.162,,,,12.303172618
1716268596411802668,0.172,,,,12.310866986
1716268596419497036,0.167,,,,12.318561354
1716268596427191404,0.172,,,,12.326255722
1716268596434885772,0.177,,,,12.33395009
1716268596442580140,0.169,,,,12.341644458
1716268596450274508,0.157,,,,12.349338826
1716268596457968888,0.16,82.0,,,12.357033206
1716268596465662838,0.16,,,,12.364727156
1716268596473356788,0.147,,,,12.372421106
1716268596481050738,0.147,,,,12.380115056
1716268596488744688,0.143,,,,12.387809006
1716268596496438638,0.13,,,,12.395502956
1716268596504132588,0.121,,,,12.403196906
1716268596511826538,0.106,,,,12.410890856
1716268596519520488,0.101,,,,12.418584806
1716268596527214438,0.104,,,,12.426278756
1716268596534908388,0.101,,,,12.433972706
1716268596542602338,0.104,,,,12.441666656
1716268596550296288,0.111,,,,12.449360606
1716268596557990238,0.116,,,,12.457054556
1716268596565684188,0.113,,,,12.464748506
1716268596573378138,0.111,,,,12.472442456
1716268596581072088,0.123,,,,12.480136406
1716268596588766038,0.13,,,,12.487830356
1716268596596459988,0.13,,,,12.495524306
1716268596604153938,0.135,,,,12.503218256
1716268596611847888,0.143,,,,12.510912206
1716268596619541838,0.138,,,,12.518606156
1716268596627235788,0.133,,,,12.526300106
1716268596634929738,0.143,,,,12.533994056
1716268596642623688,0.155,,,,12.541688006
1716268596650317638,0.14,,,,12.549381956
1716268596658011588,0.116,,,,12.557075906
1716268596665705538,0.123,,,,12.564769856
1716268596673399488,0.13,,,,12.572463806
1716268596681093438,0.116,,,,12.580157756
1716268596688787388,0.111,,,,12.587851706
1716268596696481338,0.121,,,,12.595545656
1716268596704175288,0.13,,,,12.603239606
1716268596711869238,0.118,,,,12.610933556
1716268596719563188,0.094,,,,12.618627506
1716268596727257138,0.094,,,,12.626321456
1716268596734951088,0.106,,,,12.634015406
1716268596742645038,0.106,,,,12.641709356
1716268596750338988,0.099,,,,12.649403306
1716268596758032938,0.104,,,,12.657097256
1716268596765726888,0.109,,,,12.664791206
1716268596773420838,0.094,,,,12.672485156
1716268596781114788,0.084,,,,12.680179106
1716268596788808738,0.094,,,,12.687873056
1716268596796502688,0.097,,,,12.695567006
1716268596804196638,0.084,,,,12.703260956
1716268596811890588,0.084,,,,12.710954906
1716268596819584538,0.094,,,,12.718648856
1716268596827278488,0.104,,,,12.726342806
1716268596834972438,0.116,,,,12.734036756
1716268596842666388,0.113,,,,12.741730706
1716268596850360338,0.101,,,,12.749424656
1716268596858054288,0.089,,,,12.757118606
1716268596865748238,0.087,,738.0,,12.764812556
1716268596873442188,0.08,,,,12.772506506
1716268596881136138,0.07,,,,12.780200456
1716268596888830088,0.07,,,,12.787894406
1716268596896524038,0.072,,,,12.795588356
1716268596904217988,0.077,,,,12.803282306
1716268596911911938,0.089,,,,12.810976256
1716268596919605888,0.084,,,,12.818670206
1716268596927299838,0.084,,,,12.826364156
1716268596934993788,0.179,,,,12.834058106
1716268596942687738,0.4,,,,12.841752056
1716268596950381688,0.615,,,,12.849446006
1716268596958075638,0.64,,,,12.857139956
1716268596965769588,0.349,,,,12.864833906
1716268596973463538,-0.041,,,,12.872527856
1716268596981157488,-0.109,,,,12.880221806
1716268596988851438,0.058,,,,12.887915756
1716268596996545388,0.077,,,,12.895609706
1716268597004239338,0.016,,,,12.903303656
1716268597011933288,0.053,,,,12.910997606
1716268597019627248,0.084,,,,12.918691566
1716268597027321616,0.075,,,,12.926385934
1716268597035015984,0.087,,,,12.934080302
1716268597042710352,0.089,,,,12.94177467
1716268597050404720,0.072,,,,12.949469038
1716268597058099088,0.087,,,,12.957163406
1716268597065793456,0.111,,,,12.964857774
1716268597073487824,0.111,,,,12.972552142
1716268597081182192,0.109,,,,12.98024651
1716268597088876560,0.118,,,,12.987940878
1716268597096570928,0.135,,,,12.995635246
1716268597104265296,0.143,,,,13.003329614
1716268597111959664,0.14,,,,13.011023982
1716268597119654032,0.147,,,,13.01871835
1716268597127348400,0.167,,,,13.026412718
1716268597135042768,0.172,,,,13.034107086
1716268597142737136,0.172,,,,13.041801454
1716268597150431504,0.181,,,,13.049495822
1716268597158125872,0.184,,,,13.05719019
1716268597165820240,0.186,,,,13.064884558
1716268597173514608,0.189,,,,13.072578926
1716268597181208976,0.194,,,,13.080273294
1716268597188903344,0.191,,,,13.087967662
1716268597196597712,0.189,,,,13.09566203
1716268597204292080,0.194,,,,13.103356398
1716268597211986448,0.194,,,,13.111050766
1716268597219680816,0.177,,,,13.118745134
1716268597227375184,0.16,,,,13.126439502
1716268597235069552,0.164,,,,13.13413387
1716268597242763920,0.174,,,,13.141828238
1716268597250458288,0.164,,,,13.149522606
1716268597258152656,0.15,,,,13.157216974
1716268597265847024,0.15,,,,13.164911342
1716268597273541392,0.147,,,,13.17260571
1716268597281235760,0.147,,,,13.180300078
1716268597288930128,0.152,,,,13.187994446
1716268597296624496,0.157,,,,13.195688814
1716268597304318864,0.16,,,,13.203383182
1716268597312013232,0.155,,,,13.21107755
1716268597319707600,0.143,,,,13.218771918
1716268597327401968,0.147,,,,13.226466286
1716268597335096336,0.16,,,,13.234160654
1716268597342790704,0.16,,,,13.241855022
1716268597350485072,0.16,,,,13.24954939
1716268597358179440,0.167,,,,13.257243758
1716268597365873808,0.174,,,,13.264938126
1716268597373568176,0.169,,,,13.272632494
1716268597381262544,0.167,,,,13.280326862
1716268597388956912,0.164,,,,13.28802123
1716268597396651280,0.167,,,,13.295715598
1716268597404345648,0.174,,,,13.303409966
1716268597412040016,0.172,,,,13.311104334
1716268597419734384,0.169,,,,13.318798702
1716268597427428752,0.172,,,,13.32649307
1716268597435123120,0.164,,,,13.334187438
1716268597442817488,0.162,,,,13.341881806
1716268597450511856,0.162,,,,13.349576174
1716268597458206224,0.157,,,,13.357270542
1716268597465900592,0.162,,,,13.36496491
1716268597473594960,0.169,,,,13.372659278
1716268597481289328,0.167,,,,13.380353646
1716268597488983696,0.169,,,,13.388048014
1716268597496678064,0.169,,,,13.395742382
1716268597504372432,0.164,,,,13.40343675
1716268597512066800,0.167,,,,13.411131118
1716268597519761168,0.179,,,,13.418825486
1716268597527455536,0.184,,,,13.426519854
1716268597535149904,0.179,,,,13.434214222
1716268597542844272,0.177,,,,13.44190859
1716268597550538640,0.177,,,,13.449602958
1716268597558233008,0.181,,,,13.457297326
1716268597565927376,0.196,,,,13.464991694
1716268597573621744,0.218,,,,13.472686062
1716268597581316124,0.225,82.0,,,13.480380442
1716268597589010492,0.218,,,,13.48807481
1716268597596704860,0.213,,,,13.495769178
1716268597604399228,0.21,,,,13.503463546
1716268597612093596,0.201,,,,13.511157914
1716268597619787964,0.191,,,,13.518852282
1716268597627482332,0.198,,,,13.52654665
1716268597635176700,0.21,,,,13.534241018
1716268597642871068,0.203,,,,13.541935386
1716268597650565436,0.203,,786.0,,13.549629754
1716268597658259804,0.215,,,,13.557324122
1716268597665954172,0.218,,,,13.56501849
1716268597673648540,0.225,,,,13.572712858
1716268597681342908,0.332,,,,13.580407226
1716268597689037276,0.543,,,,13.588101594
1716268597696731644,0.744,,,,13.595795962
1716268597704426012,0.759,,,,13.60349033
1716268597712120380,0.477,,,,13.611184698
1716268597719814748,0.118,,,,13.618879066
1716268597727509116,0.063,,,,13.626573434
1716268597735203484,0.213,,,,13.634267802
1716268597742897852,0.235,,,,13.64196217
1716268597750592220,0.181,,,,13.649656538
1716268597758286588,0.208,,,,13.657350906
1716268597765980956,0.235,,,,13.665045274
1716268597773675324,0.23,,,,13.672739642
1716268597781369692,0.24,,,,13.68043401
1716268597789064060,0.254,,,,13.688128378
1716268597796758428,0.257,,,,13.695822746
1716268597804452796,0.261,,,,13.703517114
1716268597812147164,0.254,,,,13.711211482
1716268597819841532,0.235,,,,13.71890585
1716268597827535900,0.249,,,,13.726600218
1716268597835230268,0.283,,,,13.734294586
1716268597842924636,0.31,,,,13.741988954
1716268597850619004,0.31,,,,13.749683322
1716268597858313372,0.291,,,,13.75737769
1716268597866007740,0.286,,,,13.765072058
1716268597873702108,0.303,,,,13.772766426
1716268597881396476,0.31,,,,13.780460794
1716268597889090844,0.305,,,,13.788155162
1716268597896785212,0.307,,,,13.79584953
1716268597904479580,0.32,,,,13.803543898
1716268597912173948,0.317,,,,13.811238266
1716268597919868316,0.307,,,,13.818932634
1716268597927562684,0.3,,,,13.826627002
1716268597935257052,0.305,,,,13.83432137
1716268597942951420,0.307,,,,13.842015738
1716268597950645788,0.298,,,,13.849710106
1716268597958340156,0.286,,,,13.857404474
1716268597966034524,0.276,,,,13.865098842
1716268597973728892,0.269,,,,13.87279321
1716268597981423260,0.254,,,,13.880487578
1716268597989117628,0.24,,,,13.888181946
1716268597996811996,0.247,,,,13.895876314
1716268598004506364,0.244,,,,13.903570682
1716268598012200732,0.225,,,,13.91126505
1716268598019895100,0.23,,,,13.918959418
1716268598027589468,0.242,,,,13.926653786
1716268598035283836,0.247,,,,13.934348154
1716268598042978204,0.257,,,,13.942042522
1716268598050672572,0.252,,,,13.94973689
1716268598058366940,0.244,,,,13.957431258
1716268598066061308,0.252,,,,13.965125626
1716268598073755676,0.254,,,,13.972819994
1716268598081450044,0.247,,,,13.980514362
1716268598089144412,0.244,,,,13.98820873
1716268598096838780,0.242,,,,13.995903098
1716268598104533148,0.232,,,,14.003597466
1716268598112227516,0.227,,,,14.011291834
1716268598119921884,0.23,,,,14.018986202
1716268598127616252,0.225,,,,14.02668057
1716268598135310620,0.215,,,,14.034374938
1716268598143005000,0.218,81.0,,,14.042069318
1716268598150699368,0.218,,,,14.049763686
1716268598158393736,0.218,,,,14.057458054
1716268598166088104,0.223,,,,14.065152422
1716268598173782472,0.22,,,,14.07284679
1716268598181476840,0.213,,,,14.080541158
1716268598189171208,0.22,,,,14.088235526
1716268598196865576,0.244,,,,14.095929894
1716268598204559944,0.244,,,,14.103624262
1716268598212254312,0.215,,,,14.11131863
1716268598219948680,0.201,,,,14.119012998
1716268598227643048,0.21,,,,14.126707366
1716268598235337416,0.22,,,,14.134401734
1716268598243031784,0.227,,,,14.142096102
1716268598250726152,0.232,,,,14.14979047
1716268598258420520,0.237,,,,14.157484838
1716268598266114888,0.237,,,,14.165179206
1716268598273809256,0.227,,,,14.172873574
1716268598281503624,0.227,,,,14.180567942
1716268598289197992,0.235,,,,14.18826231
1716268598296892360,0.235,,,,14.195956678
1716268598304586728,0.232,,,,14.203651046
1716268598312281096,0.242,,,,14.211345414
1716268598319975464,0.271,,,,14.219039782
1716268598327669832,0.298,,,,14.22673415
1716268598335364200,0.286,,,,14.234428518
1716268598343058568,0.249,,,,14.242122886
1716268598350752936,0.232,,,,14.249817254
1716268598358447304,0.244,,,,14.257511622
1716268598366141672,0.252,,,,14.26520599
1716268598373836040,0.24,,,,14.272900358
1716268598381530408,0.23,,,,14.280594726
1716268598389224776,0.23,,,,14.288289094
1716268598396919144,0.24,,,,14.295983462
1716268598404613512,0.24,,,,14.30367783
1716268598412307880,0.232,,,,14.311372198
1716268598420002248,0.232,,,,14.319066566
1716268598427696616,0.288,,,,14.326760934
1716268598435390984,0.482,,,,14.334455302
1716268598443085352,0.737,,,,14.34214967
1716268598450779720,0.8220000000000001,,,,14.349844038
1716268598458474088,0.5740000000000001,,,,14.357538406
1716268598466168456,0.15,,812.0,,14.365232774
1716268598473862824,-0.007,,,,14.372927142
1716268598481557192,0.155,,,,14.38062151
1716268598489251560,0.235,,,,14.388315878
1716268598496945928,0.181,,,,14.396010246
1716268598504640296,0.191,,,,14.403704614
1716268598512334664,0.218,,,,14.411398982
1716268598520029032,0.198,,,,14.41909335
1716268598527723400,0.194,,,,14.426787718
1716268598535417768,0.213,,,,14.434482086
1716268598543112136,0.215,,,,14.442176454
1716268598550806504,0.198,,,,14.449870822
1716268598558500872,0.198,,,,14.45756519
1716268598566195240,0.21,,,,14.465259558
1716268598573889608,0.208,,,,14.472953926
1716268598581583976,0.181,,,,14.480648294
1716268598589278344,0.155,,,,14.488342662
1716268598596972712,0.164,,,,14.49603703
1716268598604667080,0.181,,,,14.503731398
1716268598612361448,0.172,,,,14.511425766
1716268598620055816,0.177,,,,14.519120134
1716268598627750184,0.181,,,,14.526814502
1716268598635444552,0.162,,,,14.53450887
1716268598643138920,0.157,,,,14.542203238
1716268598650833288,0.162,,,,14.549897606
1716268598658527656,0.152,,,,14.557591974
1716268598666222024,0.128,,,,14.565286342
1716268598673916392,0.104,,,,14.57298071
1716268598681610760,0.104,,,,14.580675078
1716268598689305128,0.106,,,,14.588369446
1716268598696999496,0.092,,,,14.596063814
1716268598704693876,0.063,,,,14.603758194
1716268598712387965,0.026,,,,14.611452283
1716268598720082054,0.016,,,,14.619146372
1716268598727776143,0.016,,,,14.626840461
1716268598735470232,0.002,,,,14.63453455
1716268598743164321,-0.012,,,,14.642228639
1716268598750858410,-0.026,,,,14.649922728
1716268598758552499,-0.048,,,,14.657616817
1716268598766246588,-0.08,,,,14.665310906
1716268598773940677,-0.099,,,,14.673004995
1716268598781634766,-0.082,,,,14.680699084
1716268598789328855,-0.075,,,,14.688393173
1716268598797022944,-0.087,,,,14.696087262
1716268598804717033,-0.097,,,,14.703781351
1716268598812411122,-0.109,,,,14.71147544
1716268598820105211,-0.111,,,,14.719169529
1716268598827799300,-0.121,,,,14.726863618
1716268598835493389,-0.157,,,,14.734557707
1716268598843187478,-0.179,,,,14.742251796
1716268598850881567,-0.189,,,,14.749945885
1716268598858575656,-0.203,,,,14.757639974
1716268598866269745,-0.227,,,,14.765334063
1716268598873963834,-0.259,,,,14.773028152
1716268598881657923,-0.288,,,,14.780722241
1716268598889352012,-0.324,,,,14.78841633
1716268598897046101,-0.356,,,,14.796110419
1716268598904740190,-0.388,,,,14.803804508
1716268598912434279,-0.426,,,,14.811498597
1716268598920128368,-0.451,,,,14.819192686
1716268598927822457,-0.477,,,,14.826886775
1716268598935516546,-0.511,,,,14.834580864
1716268598943210635,-0.523,,,,14.842274953
1716268598950904724,-0.521,,,,14.849969042
1716268598958598813,-0.523,,,,14.857663131
1716268598966292902,-0.528,,,,14.86535722
1716268598973986991,-0.528,,,,14.873051309
1716268598981681080,-0.516,,,,14.880745398
1716268598989375169,-0.504,,,,14.888439487
1716268598997069258,-0.492,,,,14.896133576
1716268599004763347,-0.475,,,,14.903827665
1716268599012457436,-0.468,,,,14.911521754
1716268599020151525,-0.451,,,,14.919215843
1716268599027845614,-0.414,,,,14.926909932
1716268599035539703,-0.395,,,,14.934604021
1716268599043233792,-0.392,,,,14.94229811
1716268599050927881,-0.385,,,,14.949992199
1716268599058621970,-0.373,,,,14.957686288
1716268599066316059,-0.361,,,,14.965380377
1716268599074010148,-0.351,,,,14.973074466
1716268599081704237,-0.341,,,,14.980768555
1716268599089398326,-0.327,,,,14.988462644
1716268599097092415,-0.3,,,,14.996156733
1716268599104786504,-0.283,,,,15.003850822
1716268599112480593,-0.281,,,,15.011544911
1716268599120174682,-0.266,,,,15.019239
1716268599127868771,-0.232,,,,15.026933089
1716268599135562860,-0.104,,,,15.034627178
1716268599143256949,0.16,,,,15.042321267
1716268599150951038,0.417,,,,15.050015356
1716268599158645127,0.409,,,,15.057709445
1716268599166339216,0.026,,,,15.065403534
1716268599174033305,-0.361,,,,15.073097623
1716268599181727394,-0.334,,,,15.080791712
1716268599189421483,-0.15,,,,15.088485801
1716268599197115572,-0.15,,,,15.09617989
1716268599204809661,-0.194,,,,15.103873979
1716268599212503750,-0.155,,,,15.111568068
1716268599220197839,-0.121,,,,15.119262157
1716268599227891928,-0.113,,,,15.126956246
1716268599235586017,-0.089,,,,15.134650335
1716268599243280106,-0.07,,,,15.142344424
1716268599250974195,-0.055,,,,15.150038513
1716268599258668284,-0.031,,793.0,,15.157732602
1716268599266362408,-0.014,80.0,,,15.165426726
1716268599274056636,0.012,,,,15.173120954
1716268599281750864,0.067,,,,15.180815182
1716268599289445092,0.116,,,,15.18850941
1716268599297139320,0.15,,,,15.196203638
1716268599304833548,0.191,,,,15.203897866
1716268599312527776,0.232,,,,15.211592094
1716268599320222004,0.266,,,,15.219286322
1716268599327916232,0.303,,,,15.22698055
1716268599335610460,0.341,,,,15.234674778
1716268599343304688,0.378,,,,15.242369006
1716268599350998916,0.412,,,,15.250063234
1716268599358693144,0.443,,,,15.257757462
1716268599366387372,0.472,,,,15.26545169
1716268599374081600,0.497,,,,15.273145918
1716268599381775828,0.516,,,,15.280840146
1716268599389470056,0.526,,,,15.288534374
1716268599397164284,0.518,,,,15.296228602
1716268599404858512,0.523,,,,15.30392283
1716268599412552740,0.54,,,,15.311617058
1716268599420246968,0.545,,,,15.319311286
1716268599427941196,0.55,,,,15.327005514
1716268599435635424,0.56,,,,15.334699742
1716268599443329652,0.557,,,,15.34239397
1716268599451023880,0.552,,,,15.350088198
1716268599458718108,0.5650000000000001,,,,15.357782426
1716268599466412336,0.5670000000000001,,,,15.365476654
1716268599474106564,0.557,,,,15.373170882
1716268599481800792,0.56,,,,15.38086511
1716268599489495020,0.579,,,,15.388559338
1716268599497189248,0.596,,,,15.396253566
1716268599504883476,0.594,,,,15.403947794
1716268599512577704,0.5720000000000001,,,,15.411642022
1716268599520271932,0.5670000000000001,,,,15.41933625
1716268599527966160,0.5740000000000001,,,,15.427030478
1716268599535660388,0.5720000000000001,,,,15.434724706
1716268599543354616,0.5740000000000001,,,,15.442418934
1716268599551048844,0.584,,,,15.450113162
1716268599558743072,0.584,,,,15.45780739
1716268599566437300,0.577,,,,15.465501618
1716268599574131528,0.577,,,,15.473195846
1716268599581825756,0.586,,,,15.480890074
1716268599589519984,0.591,,,,15.488584302
1716268599597214212,0.586,,,,15.49627853
1716268599604908440,0.594,,,,15.503972758
1716268599612602668,0.611,,,,15.511666986
1716268599620296896,0.615,,,,15.519361214
1716268599627991124,0.623,,,,15.527055442
1716268599635685352,0.645,,,,15.53474967
1716268599643379580,0.652,,,,15.542443898
1716268599651073808,0.647,,,,15.550138126
1716268599658768036,0.681,,,,15.557832354
1716268599666462264,0.6910000000000001,,,,15.565526582
1716268599674156492,0.657,,,,15.57322081
1716268599681850720,0.666,,,,15.580915038
1716268599689544948,0.708,,,,15.588609266
1716268599697239176,0.72,,,,15.596303494
1716268599704933404,0.732,,,,15.603997722
1716268599712627632,0.749,,,,15.61169195
1716268599720321860,0.749,,,,15.619386178
1716268599728016088,0.754,,,,15.627080406
1716268599735710316,0.78,,,,15.634774634
1716268599743404544,0.79,,,,15.642468862
1716268599751098772,0.778,,,,15.65016309
1716268599758793000,0.766,,,,15.657857318
1716268599766487228,0.766,,,,15.665551546
1716268599774181456,0.761,,,,15.673245774
1716268599781875684,0.759,,,,15.680940002
1716268599789569912,0.766,,,,15.68863423
1716268599797264140,0.771,,,,15.696328458
1716268599804958368,0.759,,,,15.704022686
1716268599812652596,0.749,,,,15.711716914
1716268599820346824,0.756,,,,15.719411142
1716268599828041110,0.768,,,,15.727105428
1716268599835735478,0.8260000000000001,,,,15.734799796
1716268599843429846,1.018,,,,15.742494164
1716268599851124214,1.268,,,,15.750188532
1716268599858818582,1.341,,,,15.7578829
1716268599866512950,1.076,,,,15.765577268
1716268599874207318,0.654,,,,15.773271636
1716268599881901686,0.514,,,,15.780966004
1716268599889596054,0.669,,,,15.788660372
1716268599897290422,0.727,,,,15.79635474
1716268599904984790,0.657,,,,15.804049108
1716268599912679158,0.654,,,,15.811743476
1716268599920373526,0.676,,,,15.819437844
1716268599928067894,0.654,,,,15.827132212
1716268599935762262,0.642,,,,15.83482658
1716268599943456630,0.652,,,,15.842520948
1716268599951150998,0.649,,,,15.850215316
1716268599958845366,0.63,,,,15.857909684
1716268599966539734,0.611,,,,15.865604052
1716268599974234102,0.601,,,,15.87329842
1716268599981928470,0.591,,,,15.880992788
1716268599989622838,0.582,,,,15.888687156
1716268599997317206,0.5690000000000001,,739.0,,15.896381524
1716268600005011574,0.557,,,,15.904075892
1716268600012705942,0.552,,,,15.91177026
1716268600020400310,0.545,,,,15.919464628
1716268600028094678,0.535,,,,15.927158996
1716268600035789046,0.531,,,,15.934853364
1716268600043483414,0.526,,,,15.942547732
1716268600051177782,0.518,,,,15.9502421
1716268600058872150,0.516,,,,15.957936468
1716268600066566518,0.514,,,,15.965630836
1716268600074260886,0.499,,,,15.973325204
1716268600081955254,0.475,,,,15.981019572
1716268600089649622,0.46,,,,15.98871394
1716268600097343990,0.448,,,,15.996408308
1716268600105038358,0.434,,,,16.004102676
1716268600112732726,0.419,,,,16.011797044
1716268600120427094,0.414,,,,16.019491412
1716268600128121462,0.407,,,,16.02718578
1716268600135815830,0.385,,,,16.034880148
1716268600143510198,0.366,,,,16.042574516
1716268600151204566,0.351,,,,16.050268884
1716268600158898934,0.327,,,,16.057963252
1716268600166593302,0.312,,,,16.06565762
1716268600174287670,0.3,,,,16.073351988
1716268600181982038,0.286,,,,16.081046356
1716268600189676406,0.271,,,,16.088740724
1716268600197370774,0.259,,,,16.096435092
1716268600205065142,0.24,,,,16.10412946
1716268600212759510,0.225,,,,16.111823828
1716268600220453878,0.201,,,,16.119518196
1716268600228148246,0.169,,,,16.127212564
1716268600235842614,0.147,,,,16.134906932
1716268600243536982,0.126,,,,16.1426013
1716268600251231350,0.092,,,,16.150295668
1716268600258925718,0.063,,,,16.157990036
1716268600266620086,0.043,,,,16.165684404
1716268600274314454,0.021,,,,16.173378772
1716268600282008822,-0.002,,,,16.18107314
1716268600289703190,-0.026,,,,16.188767508
1716268600297397558,-0.048,,,,16.196461876
1716268600305091926,-0.075,,,,16.204156244
1716268600312786294,-0.106,,,,16.211850612
1716268600320480662,-0.14,,,,16.21954498
1716268600328175030,-0.164,,,,16.227239348
1716268600335869398,-0.189,,,,16.234933716
1716268600343563766,-0.223,,,,16.242628084
1716268600351258134,-0.254,,,,16.250322452
1716268600358952502,-0.274,,,,16.25801682
1716268600366646870,-0.298,,,,16.265711188
1716268600374341238,-0.324,,,,16.273405556
1716268600382035606,-0.341,,,,16.281099924
1716268600389729986,-0.368,80.0,,,16.288794304
1716268600397424354,-0.412,,,,16.296488672
1716268600405118722,-0.448,,,,16.30418304
1716268600412813090,-0.487,,,,16.311877408
1716268600420507458,-0.538,,,,16.319571776
1716268600428201826,-0.579,,,,16.327266144
1716268600435896194,-0.611,,,,16.334960512
1716268600443590562,-0.654,,,,16.34265488
1716268600451284930,-0.712,,,,16.350349248
1716268600458979298,-0.771,,,,16.358043616
1716268600466673666,-0.834,,,,16.365737984
1716268600474368034,-0.909,,,,16.373432352
1716268600482062402,-0.967,,,,16.38112672
1716268600489756770,-1.008,,,,16.388821088
1716268600497451138,-1.047,,,,16.396515456
1716268600505145506,-1.064,,,,16.404209824
1716268600512839874,-1.081,,,,16.411904192
1716268600520534242,-1.125,,,,16.41959856
1716268600528228610,-1.164,,,,16.427292928
1716268600535922978,-1.173,,,,16.434987296
1716268600543617346,-1.101,,,,16.442681664
1716268600551311714,-0.897,,,,16.450376032
1716268600559006082,-0.669,,,,16.4580704
1716268600566700450,-0.683,,,,16.465764768
1716268600574394818,-1.071,,,,16.473459136
1716268600582089186,-1.484,,,,16.481153504
1716268600589783554,-1.506,,,,16.488847872
1716268600597477922,-1.333,,,,16.49654224
1716268600605172290,-1.302,,,,16.504236608
1716268600612866658,-1.336,,,,16.511930976
1716268600620561026,-1.304,,,,16.519625344
1716268600628255394,-1.263,,,,16.527319712
1716268600635949762,-1.253,,,,16.53501408
1716268600643644130,-1.234,,,,16.542708448
1716268600651338498,-1.205,,,,16.550402816
1716268600659032866,-1.173,,,,16.558097184
1716268600666727234,-1.139,,,,16.565791552
1716268600674421602,-1.122,,,,16.57348592
1716268600682115970,-1.103,,,,16.581180288
1716268600689810338,-1.069,,,,16.588874656
1716268600697504706,-1.03,,,,16.596569024
1716268600705199074,-0.994,,,,16.604263392
1716268600712893442,-0.972,,,,16.61195776
1716268600720587810,-0.972,,,,16.619652128
1716268600728282178,-0.957,,,,16.627346496
1716268600735976546,-0.923,,,,16.635040864
1716268600743670914,-0.892,,747.0,,16.642735232
1716268600751365282,-0.863,,,,16.6504296
1716268600759059650,-0.8240000000000001,,,,16.658123968
1716268600766754018,-0.795,,,,16.665818336
1716268600774448386,-0.78,,,,16.673512704
1716268600782142754,-0.756,,,,16.681207072
1716268600789837122,-0.727,,,,16.68890144
1716268600797531490,-0.71,,,,16.696595808
1716268600805225858,-0.6910000000000001,,,,16.704290176
1716268600812920226,-0.662,,,,16.711984544
1716268600820614594,-0.649,,,,16.719678912
1716268600828308962,-0.645,,,,16.72737328
1716268600836003330,-0.63,,,,16.735067648
1716268600843697698,-0.608,,,,16.742762016
1716268600851392066,-0.582,,,,16.750456384
1716268600859086434,-0.557,,,,16.758150752
1716268600866780802,-0.54,,,,16.76584512
1716268600874475170,-0.511,,,,16.773539488
1716268600882169538,-0.48,,,,16.781233856
1716268600889863906,-0.468,,,,16.788928224
1716268600897558274,-0.451,,,,16.796622592
1716268600905252642,-0.421,,,,16.80431696
1716268600912947010,-0.404,,,,16.812011328
1716268600920641378,-0.395,,,,16.819705696
1716268600928335746,-0.38,,,,16.827400064
1716268600936030114,-0.366,,,,16.835094432
1716268600943724482,-0.356,,,,16.8427888
1716268600951418864,-0.351,,,,16.850483182
1716268600959113232,-0.339,,,,16.85817755
1716268600966807600,-0.322,,,,16.865871918
1716268600974501968,-0.327,,,,16.873566286
1716268600982196336,-0.351,,,,16.881260654
1716268600989890704,-0.363,,,,16.888955022
1716268600997585072,-0.346,,,,16.89664939
1716268601005279440,-0.337,,,,16.904343758
1716268601012973808,-0.341,,,,16.912038126
1716268601020668176,-0.332,,,,16.919732494
1716268601028362544,-0.327,,,,16.927426862
1716268601036056912,-0.337,,,,16.93512123
1716268601043751280,-0.339,,,,16.942815598
1716268601051445648,-0.324,,,,16.950509966
1716268601059140016,-0.312,,,,16.958204334
1716268601066834384,-0.307,,,,16.965898702
1716268601074528752,-0.3,,,,16.97359307
1716268601082223120,-0.295,,,,16.981287438
1716268601089917488,-0.298,,,,16.988981806
1716268601097611856,-0.295,,,,16.996676174
1716268601105306224,-0.283,,,,17.004370542
1716268601113000592,-0.266,,,,17.01206491
1716268601120694960,-0.249,,,,17.019759278
1716268601128389328,-0.23,,,,17.027453646
1716268601136083696,-0.218,,,,17.035148014
1716268601143778064,-0.223,,,,17.042842382
1716268601151472432,-0.232,,,,17.05053675
1716268601159166800,-0.235,,,,17.058231118
1716268601166861168,-0.235,,,,17.065925486
1716268601174555536,-0.23,,,,17.073619854
1716268601182249904,-0.225,,,,17.081314222
1716268601189944272,-0.227,,,,17.08900859
1716268601197638640,-0.225,,,,17.096702958
1716268601205333008,-0.213,,,,17.104397326
1716268601213027376,-0.206,,,,17.112091694
1716268601220721744,-0.198,,,,17.119786062
1716268601228416112,-0.157,,,,17.12748043
1716268601236110480,0.014,,,,17.135174798
1716268601243804848,0.31,,,,17.142869166
1716268601251499216,0.511,,,,17.150563534
1716268601259193584,0.356,,,,17.158257902
1716268601266887952,-0.123,,,,17.16595227
1716268601274582320,-0.424,,,,17.173646638
1716268601282276688,-0.281,,,,17.181341006
1716268601289971056,-0.126,,,,17.189035374
1716268601297665424,-0.184,,,,17.196729742
1716268601305359792,-0.218,,,,17.20442411
1716268601313054160,-0.164,,,,17.212118478
1716268601320748528,-0.145,,,,17.219812846
1716268601328442896,-0.169,,,,17.227507214
1716268601336137264,-0.181,,,,17.235201582
1716268601343831632,-0.177,,,,17.24289595
1716268601351526000,-0.172,,,,17.250590318
1716268601359220368,-0.155,,,,17.258284686
1716268601366914736,-0.128,,,,17.265979054
1716268601374609104,-0.106,,,,17.273673422
1716268601382303472,-0.092,,,,17.28136779
1716268601389997840,-0.075,,,,17.289062158
1716268601397692208,-0.058,,,,17.296756526
1716268601405386576,-0.033,,,,17.304450894
1716268601413080944,-0.009,,,,17.312145262
1716268601420775312,-0.002,,,,17.31983963
1716268601428469680,0.002,,,,17.327533998
1716268601436164048,0.016,,,,17.335228366
1716268601443858416,0.038,,,,17.342922734
1716268601451552784,0.05,,,,17.350617102
1716268601459247152,0.058,,,,17.35831147
1716268601466941520,0.06,,,,17.366005838
1716268601474635888,0.05,,,,17.373700206
1716268601482330256,0.043,,,,17.381394574
1716268601490024624,0.041,,748.0,,17.389088942
1716268601497718992,0.046,,,,17.39678331
1716268601505413360,0.058,,,,17.404477678
1716268601513107740,0.067,81.0,,,17.412172058
1716268601520801899,0.072,,,,17.419866217
1716268601528496058,0.08,,,,17.427560376
1716268601536190217,0.094,,,,17.435254535
1716268601543884376,0.106,,,,17.442948694
1716268601551578535,0.113,,,,17.450642853
1716268601559272694,0.121,,,,17.458337012
1716268601566966853,0.128,,,,17.466031171
1716268601574661012,0.135,,,,17.47372533
1716268601582355171,0.147,,,,17.481419489
1716268601590049330,0.14,,,,17.489113648
1716268601597743489,0.121,,,,17.496807807
1716268601605437648,0.118,,,,17.504501966
1716268601613131807,0.13,,,,17.512196125
1716268601620825966,0.15,,,,17.519890284
1716268601628520125,0.157,,,,17.527584443
1716268601636214284,0.145,,,,17.535278602
1716268601643908443,0.138,,,,17.542972761
1716268601651602602,0.145,,,,17.55066692
1716268601659296761,0.147,,,,17.558361079
1716268601666990920,0.133,,,,17.566055238
1716268601674685079,0.113,,,,17.573749397
1716268601682379238,0.121,,,,17.581443556
1716268601690073397,0.13,,,,17.589137715
1716268601697767556,0.121,,,,17.596831874
1716268601705461715,0.118,,,,17.604526033
1716268601713155874,0.121,,,,17.612220192
1716268601720850033,0.111,,,,17.619914351
1716268601728544192,0.109,,,,17.62760851
1716268601736238351,0.118,,,,17.635302669
1716268601743932510,0.133,,,,17.642996828
1716268601751626669,0.135,,,,17.650690987
1716268601759320828,0.135,,,,17.658385146
1716268601767014987,0.143,,,,17.666079305
1716268601774709146,0.157,,,,17.673773464
1716268601782403305,0.169,,,,17.681467623
1716268601790097464,0.172,,,,17.689161782
1716268601797791623,0.181,,,,17.696855941
1716268601805485782,0.198,,,,17.7045501
1716268601813179941,0.203,,,,17.712244259
1716268601820874100,0.21,,,,17.719938418
1716268601828568259,0.232,,,,17.727632577
1716268601836262418,0.257,,,,17.735326736
1716268601843956577,0.269,,,,17.743020895
1716268601851650736,0.266,,,,17.750715054
1716268601859344895,0.266,,,,17.758409213
1716268601867039054,0.271,,,,17.766103372
1716268601874733213,0.274,,,,17.773797531
1716268601882427372,0.278,,,,17.78149169
1716268601890121531,0.295,,,,17.789185849
1716268601897815690,0.317,,,,17.796880008
1716268601905509849,0.337,,,,17.804574167
1716268601913204008,0.356,,,,17.812268326
1716268601920898167,0.38,,,,17.819962485
1716268601928592326,0.39,,,,17.827656644
1716268601936286485,0.438,,,,17.835350803
1716268601943980644,0.63,,,,17.843044962
1716268601951674803,0.911,,,,17.850739121
1716268601959368962,1.069,,,,17.85843328
1716268601967063121,0.88,,,,17.866127439
1716268601974757280,0.407,,,,17.873821598
1716268601982451439,0.143,,,,17.881515757
1716268601990145598,0.281,,,,17.889209916
1716268601997839757,0.397,,,,17.896904075
1716268602005533916,0.337,,,,17.904598234
1716268602013228075,0.305,,,,17.912292393
1716268602020922234,0.312,,,,17.919986552
1716268602028616393,0.293,,,,17.927680711
1716268602036310552,0.298,,,,17.93537487
1716268602044004711,0.322,,,,17.943069029
1716268602051698870,0.327,,,,17.950763188
1716268602059393029,0.332,,,,17.958457347
1716268602067087188,0.339,,,,17.966151506
1716268602074781358,0.344,,,,17.973845676
1716268602082475517,0.351,,,,17.981539835
1716268602090169676,0.358,,,,17.989233994
1716268602097863835,0.363,,,,17.996928153
1716268602105557994,0.373,,,,18.004622312
1716268602113252153,0.383,,,,18.012316471
1716268602120946312,0.395,,,,18.02001063
1716268602128640471,0.407,,,,18.027704789
1716268602136334630,0.414,,,,18.035398948
1716268602144028789,0.419,,,,18.043093107
1716268602151722948,0.431,,,,18.050787266
1716268602159417107,0.448,,,,18.058481425
1716268602167111266,0.465,,,,18.066175584
1716268602174805425,0.475,,,,18.073869743
1716268602182499584,0.482,,,,18.081563902
1716268602190193743,0.487,,,,18.089258061
1716268602197887902,0.494,,705.0,,18.09695222
1716268602205582061,0.499,,,,18.104646379
1716268602213276220,0.492,,,,18.112340538
1716268602220970379,0.482,,,,18.120034697
1716268602228664538,0.472,,,,18.127728856
1716268602236358697,0.463,,,,18.135423015
1716268602244052856,0.465,,,,18.143117174
1716268602251747015,0.472,,,,18.150811333
1716268602259441174,0.465,,,,18.158505492
1716268602267135333,0.46,,,,18.166199651
1716268602274829492,0.472,,,,18.17389381
1716268602282523651,0.487,,,,18.181587969
1716268602290217810,0.494,,,,18.189282128
1716268602297911969,0.499,,,,18.196976287
1716268602305606128,0.514,,,,18.204670446
1716268602313300287,0.528,,,,18.212364605
1716268602320994446,0.55,,,,18.220058764
1716268602328688605,0.5670000000000001,,,,18.227752923
1716268602336382764,0.579,,,,18.235447082
1716268602344076923,0.599,,,,18.243141241
1716268602351771082,0.615,,,,18.2508354
1716268602359465241,0.623,,,,18.258529559
1716268602367159400,0.632,,,,18.266223718
1716268602374853559,0.637,,,,18.273917877
1716268602382547718,0.647,,,,18.281612036
1716268602390241877,0.654,,,,18.289306195
1716268602397936036,0.652,,,,18.297000354
1716268602405630195,0.654,,,,18.304694513
1716268602413324354,0.666,,,,18.312388672
1716268602421018513,0.683,,,,18.320082831
1716268602428712672,0.6960000000000001,,,,18.32777699
1716268602436406831,0.71,,,,18.335471149
1716268602444100990,0.722,,,,18.343165308
1716268602451795149,0.717,,,,18.350859467
1716268602459489308,0.727,,,,18.358553626
1716268602467183467,0.742,,,,18.366247785
1716268602474877626,0.742,,,,18.373941944
1716268602482571785,0.749,,,,18.381636103
1716268602490265944,0.759,,,,18.389330262
1716268602497960103,0.759,,,,18.397024421
1716268602505654262,0.768,,,,18.40471858
1716268602513348421,0.788,,,,18.412412739
1716268602521042580,0.807,,,,18.420106898
1716268602528736739,0.8190000000000001,,,,18.427801057
1716268602536430898,0.8290000000000001,,,,18.435495216
1716268602544125057,0.843,,,,18.443189375
1716268602551819216,0.851,,,,18.450883534
1716268602559513375,0.858,,,,18.458577693
1716268602567207534,0.873,,,,18.466271852
1716268602574901693,0.89,,,,18.473966011
1716268602582595852,0.894,,,,18.48166017
1716268602590290011,0.887,,,,18.489354329
1716268602597984170,0.87,,,,18.497048488
1716268602605678329,0.858,,,,18.504742647
1716268602613372488,0.853,,,,18.512436806
1716268602621066647,0.839,,,,18.520130965
1716268602628760806,0.8220000000000001,,,,18.527825124
1716268602636454974,0.8170000000000001,81.0,,,18.535519292
1716268602644149342,0.8240000000000001,,,,18.54321366
1716268602651843710,0.8190000000000001,,,,18.550908028
1716268602659538078,0.807,,,,18.558602396
1716268602667232446,0.797,,,,18.566296764
1716268602674926814,0.797,,,,18.573991132
1716268602682621182,0.88,,,,18.5816855
1716268602690315550,1.086,,,,18.589379868
1716268602698009918,1.302,,,,18.597074236
1716268602705704286,1.307,,,,18.604768604
1716268602713398654,0.97,,,,18.612462972
1716268602721093022,0.5650000000000001,,,,18.62015734
1716268602728787390,0.514,,,,18.627851708
1716268602736481758,0.679,,,,18.635546076
1716268602744176126,0.6960000000000001,,,,18.643240444
1716268602751870494,0.623,,,,18.650934812
1716268602759564862,0.632,,,,18.65862918
1716268602767259230,0.645,,,,18.666323548
1716268602774953598,0.62,,,,18.674017916
1716268602782647966,0.62,,,,18.681712284
1716268602790342334,0.63,,,,18.689406652
1716268602798036702,0.62,,,,18.69710102
1716268602805731070,0.611,,,,18.704795388
1716268602813425438,0.608,,,,18.712489756
1716268602821119806,0.615,,,,18.720184124
1716268602828814174,0.608,,,,18.727878492
1716268602836508542,0.591,,,,18.73557286
1716268602844202910,0.586,,,,18.743267228
1716268602851897278,0.591,,,,18.750961596
1716268602859591646,0.591,,,,18.758655964
1716268602867286014,0.589,,,,18.766350332
1716268602874980382,0.594,,,,18.7740447
1716268602882674750,0.603,,,,18.781739068
1716268602890369118,0.608,,,,18.789433436
1716268602898063486,0.611,,702.0,,18.797127804
1716268602905757854,0.611,,,,18.804822172
1716268602913452222,0.611,,,,18.81251654
1716268602921146590,0.615,,,,18.820210908
1716268602928840958,0.608,,,,18.827905276
1716268602936535326,0.599,,,,18.835599644
1716268602944229694,0.591,,,,18.843294012
1716268602951924062,0.577,,,,18.85098838
1716268602959618430,0.5690000000000001,,,,18.858682748
1716268602967312798,0.5690000000000001,,,,18.866377116
1716268602975007166,0.5670000000000001,,,,18.874071484
1716268602982701534,0.56,,,,18.881765852
1716268602990395902,0.543,,,,18.88946022
1716268602998090270,0.526,,,,18.897154588
1716268603005784638,0.528,,,,18.904848956
1716268603013479006,0.523,,,,18.912543324
1716268603021173374,0.514,,,,18.920237692
1716268603028867742,0.509,,,,18.92793206
1716268603036562110,0.506,,,,18.935626428
1716268603044256478,0.506,,,,18.943320796
1716268603051950846,0.506,,,,18.951015164
1716268603059645214,0.514,,,,18.958709532
1716268603067339582,0.514,,,,18.9664039
1716268603075033950,0.504,,,,18.974098268
1716268603082728318,0.494,,,,18.981792636
1716268603090422686,0.485,,,,18.989487004
1716268603098117054,0.48,,,,18.997181372
1716268603105811422,0.475,,,,19.00487574
1716268603113505790,0.468,,,,19.012570108
1716268603121200158,0.468,,,,19.020264476
1716268603128894526,0.463,,,,19.027958844
1716268603136588894,0.453,,,,19.035653212
1716268603144283262,0.453,,,,19.04334758
1716268603151977630,0.453,,,,19.051041948
1716268603159671998,0.443,,,,19.058736316
1716268603167366366,0.426,,,,19.066430684
1716268603175060734,0.412,,,,19.074125052
1716268603182755102,0.412,,,,19.08181942
1716268603190449470,0.407,,,,19.089513788
1716268603198143850,0.395,81.0,,,19.097208168
1716268603205837800,0.388,,,,19.104902118
1716268603213531750,0.385,,,,19.112596068
1716268603221225700,0.38,,,,19.120290018
1716268603228919650,0.366,,,,19.127983968
1716268603236613600,0.354,,,,19.135677918
1716268603244307550,0.361,,,,19.143371868
1716268603252001500,0.358,,,,19.151065818
1716268603259695450,0.349,,,,19.158759768
1716268603267389400,0.341,,,,19.166453718
1716268603275083350,0.334,,,,19.174147668
1716268603282777300,0.332,,,,19.181841618
1716268603290471250,0.322,,,,19.189535568
1716268603298165200,0.315,,,,19.197229518
1716268603305859150,0.32,,,,19.204923468
1716268603313553100,0.327,,,,19.212617418
1716268603321247050,0.337,,,,19.220311368
1716268603328941000,0.332,,,,19.228005318
1716268603336634950,0.312,,,,19.235699268
1716268603344328900,0.288,,,,19.243393218
1716268603352022850,0.266,,,,19.251087168
1716268603359716800,0.252,,,,19.258781118
1716268603367410750,0.235,,,,19.266475068
1716268603375104700,0.218,,,,19.274169018
1716268603382798650,0.21,,,,19.281862968
1716268603390492600,0.201,,,,19.289556918
1716268603398186550,0.194,,,,19.297250868
1716268603405880500,0.181,,,,19.304944818
1716268603413574450,0.157,,,,19.312638768
1716268603421268400,0.15,,,,19.320332718
1716268603428962350,0.24,,,,19.328026668
1716268603436656300,0.446,,,,19.335720618
1716268603444350250,0.63,,,,19.343414568
1716268603452044200,0.543,,,,19.351108518
1716268603459738150,0.113,,,,19.358802468
1716268603467432100,-0.271,,,,19.366496418
1716268603475126050,-0.281,,,,19.374190368
1716268603482820000,-0.167,,,,19.381884318
1716268603490513950,-0.196,,,,19.389578268
1716268603498207900,-0.271,,,,19.397272218
1716268603505901850,-0.307,,,,19.404966168
1716268603513595800,-0.341,,,,19.412660118
1716268603521289750,-0.373,,,,19.420354068
1716268603528983700,-0.397,,,,19.428048018
1716268603536677650,-0.438,,,,19.435741968
1716268603544371600,-0.514,,,,19.443435918
1716268603552065550,-0.599,,,,19.451129868
1716268603559759500,-0.654,,,,19.458823818
1716268603567453450,-0.6980000000000001,,,,19.466517768
1716268603575147400,-0.742,,,,19.474211718
1716268603582841350,-0.768,,,,19.481905668
1716268603590535300,-0.809,,,,19.489599618
1716268603598229250,-0.899,,,,19.497293568
1716268603605923200,-0.984,,706.0,,19.504987518
1716268603613617150,-1.018,,,,19.512681468
1716268603621311100,-1.037,,,,19.520375418
1716268603629005050,-1.064,,,,19.528069368
1716268603636699000,-1.103,,,,19.535763318
1716268603644392950,-1.156,,,,19.543457268
1716268603652086900,-1.205,,,,19.551151218
1716268603659780850,-1.244,,,,19.558845168
1716268603667474800,-1.304,,,,19.566539118
1716268603675168750,-1.372,,,,19.574233068
1716268603682862700,-1.425,,,,19.581927018
1716268603690556650,-1.484,,,,19.589620968
1716268603698250600,-1.547,,,,19.597314918
1716268603705944550,-1.598,,,,19.605008868
1716268603713638500,-1.658,,,,19.612702818
1716268603721332450,-1.729,,,,19.620396768
1716268603729026400,-1.789,,,,19.628090718
1716268603736720350,-1.835,,,,19.635784668
1716268603744414300,-1.874,,,,19.643478618
1716268603752108250,-1.911,,,,19.651172568
1716268603759802210,-1.942,,,,19.658866528
1716268603767496578,-1.969,,,,19.666560896
1716268603775190946,-1.983,,,,19.674255264
1716268603782885314,-1.983,,,,19.681949632
1716268603790579682,-1.995,,,,19.689644
1716268603798274050,-2.008,,,,19.697338368
1716268603805968418,-1.995,,,,19.705032736
1716268603813662786,-1.981,,,,19.712727104
1716268603821357154,-1.969,,,,19.720421472
1716268603829051522,-1.954,,,,19.72811584
1716268603836745890,-1.937,,,,19.735810208
1716268603844440258,-1.93,,,,19.743504576
1716268603852134626,-1.908,,,,19.751198944
1716268603859828994,-1.86,,,,19.758893312
1716268603867523362,-1.823,,,,19.76658768
1716268603875217730,-1.83,,,,19.774282048
1716268603882912098,-1.828,,,,19.781976416
1716268603890606466,-1.789,,,,19.789670784
1716268603898300834,-1.748,,,,19.797365152
1716268603905995202,-1.719,,,,19.80505952
1716268603913689570,-1.692,,,,19.812753888
1716268603921383938,-1.653,,,,19.820448256
1716268603929078306,-1.615,,,,19.828142624
1716268603936772674,-1.578,,,,19.835836992
1716268603944467042,-1.535,,,,19.84353136
1716268603952161410,-1.481,,,,19.851225728
1716268603959855778,-1.44,,,,19.858920096
1716268603967550146,-1.406,,,,19.866614464
1716268603975244514,-1.36,,,,19.874308832
1716268603982938882,-1.309,,,,19.8820032
1716268603990633250,-1.263,,,,19.889697568
1716268603998327618,-1.224,,,,19.897391936
1716268604006021986,-1.193,,,,19.905086304
1716268604013716354,-1.164,,,,19.912780672
1716268604021410722,-1.113,,,,19.92047504
1716268604029105090,-1.05,,,,19.928169408
1716268604036799458,-1.001,,,,19.935863776
1716268604044493826,-0.955,,,,19.943558144
1716268604052188194,-0.919,,,,19.951252512
1716268604059882562,-0.894,,,,19.95894688
1716268604067576930,-0.868,,,,19.966641248
1716268604075271298,-0.834,,,,19.974335616
1716268604082965666,-0.8,,,,19.982029984
1716268604090660034,-0.771,,,,19.989724352
1716268604098354402,-0.742,,,,19.99741872
1716268604106048770,-0.7030000000000001,,,,20.005113088
1716268604113743138,-0.666,,,,20.012807456
1716268604121437506,-0.632,,,,20.020501824
1716268604129131874,-0.608,,,,20.028196192
1716268604136826242,-0.579,,,,20.03589056
1716268604144520610,-0.455,,,,20.043584928
1716268604152214978,-0.169,,,,20.051279296
1716268604159909346,0.143,,,,20.058973664
1716268604167603714,0.189,,,,20.066668032
1716268604175298082,-0.184,,,,20.0743624
1716268604182992450,-0.603,,,,20.082056768
1716268604190686818,-0.613,,,,20.089751136
1716268604198381186,-0.404,,,,20.097445504
1716268604206075554,-0.341,,,,20.105139872
1716268604213769922,-0.354,,,,20.11283424
1716268604221464290,-0.3,,,,20.120528608
1716268604229158658,-0.252,,,,20.128222976
1716268604236853026,-0.232,,,,20.135917344
1716268604244547394,-0.194,,,,20.143611712
1716268604252241762,-0.157,,,,20.15130608
1716268604259936130,-0.13,,,,20.159000448
1716268604267630498,-0.101,,,,20.166694816
1716268604275324866,-0.075,,,,20.174389184
1716268604283019234,-0.05,,,,20.182083552
1716268604290713602,-0.029,,689.0,,20.18977792
1716268604298407970,0.0,,,,20.197472288
1716268604306102338,0.021,,,,20.205166656
1716268604313796706,0.036,,,,20.212861024
1716268604321491086,0.06,82.0,,,20.220555404
1716268604329185314,0.077,,,,20.228249632
1716268604336879542,0.08,,,,20.23594386
1716268604344573770,0.092,,,,20.243638088
1716268604352267998,0.113,,,,20.251332316
1716268604359962226,0.126,,,,20.259026544
1716268604367656454,0.133,,,,20.266720772
1716268604375350682,0.147,,,,20.274415
1716268604383044910,0.164,,,,20.282109228
1716268604390739138,0.164,,,,20.289803456
1716268604398433366,0.157,,,,20.297497684
1716268604406127594,0.16,,,,20.305191912
1716268604413821822,0.169,,,,20.31288614
1716268604421516050,0.169,,,,20.320580368
1716268604429210278,0.162,,,,20.328274596
1716268604436904506,0.164,,,,20.335968824
1716268604444598734,0.174,,,,20.343663052
1716268604452292962,0.179,,,,20.35135728
1716268604459987190,0.184,,,,20.359051508
1716268604467681418,0.194,,,,20.366745736
1716268604475375646,0.201,,,,20.374439964
1716268604483069874,0.218,,,,20.382134192
1716268604490764102,0.232,,,,20.38982842
1716268604498458330,0.242,,,,20.397522648
1716268604506152558,0.252,,,,20.405216876
1716268604513846786,0.259,,,,20.412911104
1716268604521541014,0.261,,,,20.420605332
1716268604529235242,0.271,,,,20.42829956
1716268604536929470,0.288,,,,20.435993788
1716268604544623698,0.295,,,,20.443688016
1716268604552317926,0.295,,,,20.451382244
1716268604560012154,0.303,,,,20.459076472
1716268604567706382,0.303,,,,20.4667707
1716268604575400610,0.291,,,,20.474464928
1716268604583094838,0.286,,,,20.482159156
1716268604590789066,0.283,,,,20.489853384
1716268604598483294,0.274,,,,20.497547612
1716268604606177522,0.261,,,,20.50524184
1716268604613871750,0.252,,,,20.512936068
1716268604621565978,0.244,,,,20.520630296
1716268604629260206,0.237,,,,20.528324524
1716268604636954434,0.23,,,,20.536018752
1716268604644648662,0.225,,,,20.54371298
1716268604652342890,0.218,,,,20.551407208
1716268604660037118,0.215,,,,20.559101436
1716268604667731346,0.213,,,,20.566795664
1716268604675425574,0.201,,,,20.574489892
1716268604683119802,0.196,,,,20.58218412
1716268604690814030,0.198,,,,20.589878348
1716268604698508258,0.194,,,,20.597572576
1716268604706202486,0.191,,,,20.605266804
1716268604713896714,0.191,,,,20.612961032
1716268604721590942,0.189,,,,20.62065526
1716268604729285170,0.179,,,,20.628349488
1716268604736979398,0.179,,,,20.636043716
1716268604744673626,0.184,,,,20.643737944
1716268604752367854,0.189,,,,20.651432172
1716268604760062082,0.206,,,,20.6591264
1716268604767756310,0.218,,,,20.666820628
1716268604775450538,0.208,,,,20.674514856
1716268604783144766,0.191,,,,20.682209084
1716268604790838994,0.184,,,,20.689903312
1716268604798533222,0.177,,,,20.69759754
1716268604806227450,0.164,,,,20.705291768
1716268604813921678,0.152,,,,20.712985996
1716268604821615906,0.15,,,,20.720680224
1716268604829310134,0.147,,,,20.728374452
1716268604837004362,0.143,,,,20.73606868
1716268604844698590,0.14,,,,20.743762908
1716268604852392818,0.133,,,,20.751457136
1716268604860087046,0.135,,,,20.759151364
1716268604867781274,0.225,,,,20.766845592
1716268604875475502,0.468,,,,20.77453982
1716268604883169790,0.751,,,,20.782234108
1716268604890864088,0.848,,,,20.789928406
1716268604898558386,0.555,,,,20.797622704
1716268604906252684,0.048,,,,20.805317002
1716268604913946982,-0.099,,,,20.8130113
1716268604921641280,0.123,,,,20.820705598
1716268604929335578,0.174,,,,20.828399896
1716268604937029876,0.072,,,,20.836094194
1716268604944724174,0.101,,,,20.843788492
1716268604952418472,0.152,,,,20.85148279
1716268604960112770,0.138,,,,20.859177088
1716268604967807068,0.143,,,,20.866871386
1716268604975501366,0.164,,,,20.874565684
1716268604983195664,0.174,,,,20.882259982
1716268604990889962,0.184,,,,20.88995428
1716268604998584260,0.198,,707.0,,20.897648578
1716268605006278558,0.208,,,,20.905342876
1716268605013972856,0.218,,,,20.913037174
1716268605021667154,0.215,,,,20.920731472
1716268605029361452,0.208,,,,20.92842577
1716268605037055750,0.22,,,,20.936120068
1716268605044750048,0.235,,,,20.943814366
1716268605052444346,0.232,,,,20.951508664
1716268605060138644,0.24,,,,20.959202962
1716268605067832942,0.254,,,,20.96689726
1716268605075527240,0.259,,,,20.974591558
1716268605083221538,0.264,,,,20.982285856
1716268605090915836,0.276,,,,20.989980154
1716268605098610134,0.283,,,,20.997674452
1716268605106304432,0.295,,,,21.00536875
1716268605113998730,0.307,,,,21.013063048
1716268605121693028,0.317,,,,21.020757346
1716268605129387326,0.337,,,,21.028451644
1716268605137081624,0.361,,,,21.036145942
1716268605144775922,0.383,,,,21.04384024
1716268605152470220,0.402,,,,21.051534538
1716268605160164518,0.434,,,,21.059228836
1716268605167858816,0.47,,,,21.066923134
1716268605175553114,0.499,,,,21.074617432
1716268605183247412,0.538,,,,21.08231173
1716268605190941710,0.589,,,,21.090006028
1716268605198636008,0.637,,,,21.097700326
1716268605206330306,0.676,,,,21.105394624
1716268605214024604,0.705,,,,21.113088922
1716268605221718902,0.734,,,,21.12078322
1716268605229413200,0.759,,,,21.128477518
1716268605237107498,0.766,,,,21.136171816
1716268605244801796,0.771,,,,21.143866114
1716268605252496094,0.783,,,,21.151560412
1716268605260190392,0.78,,,,21.15925471
1716268605267884690,0.759,,,,21.166949008
1716268605275578988,0.742,,,,21.174643306
1716268605283273286,0.744,,,,21.182337604
1716268605290967584,0.739,,,,21.190031902
1716268605298661882,0.715,,,,21.1977262
1716268605306356180,0.6960000000000001,,,,21.205420498
1716268605314050478,0.686,,,,21.213114796
1716268605321744776,0.674,,,,21.220809094
1716268605329439074,0.664,,,,21.228503392
1716268605337133372,0.654,,,,21.23619769
1716268605344827670,0.645,,,,21.243891988
1716268605352521968,0.63,,,,21.251586286
1716268605360216266,0.62,,,,21.259280584
1716268605367910564,0.618,,,,21.266974882
1716268605375604862,0.613,,,,21.27466918
1716268605383299160,0.603,,,,21.282363478
1716268605390993458,0.596,,,,21.290057776
1716268605398687756,0.589,,,,21.297752074
1716268605406382054,0.579,,,,21.305446372
1716268605414076352,0.5690000000000001,,,,21.31314067
1716268605421770650,0.562,,,,21.320834968
1716268605429464948,0.557,,,,21.328529266
1716268605437159246,0.555,,,,21.336223564
1716268605444853580,0.548,82.0,,,21.343917898
1716268605452547739,0.535,,,,21.351612057
1716268605460241898,0.533,,,,21.359306216
1716268605467936057,0.531,,,,21.367000375
1716268605475630216,0.521,,,,21.374694534
1716268605483324375,0.511,,,,21.382388693
1716268605491018534,0.504,,,,21.390082852
1716268605498712693,0.504,,,,21.397777011
1716268605506406852,0.504,,,,21.40547117
1716268605514101011,0.499,,,,21.413165329
1716268605521795170,0.492,,,,21.420859488
1716268605529489329,0.47,,,,21.428553647
1716268605537183488,0.451,,,,21.436247806
1716268605544877647,0.448,,,,21.443941965
1716268605552571806,0.441,,,,21.451636124
1716268605560265965,0.424,,,,21.459330283
1716268605567960124,0.412,,,,21.467024442
1716268605575654283,0.414,,,,21.474718601
1716268605583348442,0.424,,,,21.48241276
1716268605591042601,0.421,,,,21.490106919
1716268605598736760,0.407,,,,21.497801078
1716268605606430919,0.409,,,,21.505495237
1716268605614125078,0.472,,,,21.513189396
1716268605621819237,0.664,,,,21.520883555
1716268605629513396,0.94,,,,21.528577714
1716268605637207555,1.098,,,,21.536271873
1716268605644901714,0.914,,,,21.543966032
1716268605652595873,0.448,,,,21.551660191
1716268605660290032,0.181,,,,21.55935435
1716268605667984191,0.322,,,,21.567048509
1716268605675678350,0.441,,,,21.574742668
1716268605683372509,0.368,,,,21.582436827
1716268605691066668,0.351,,,,21.590130986
1716268605698760827,0.397,,,,21.597825145
1716268605706454986,0.388,,,,21.605519304
1716268605714149145,0.373,,,,21.613213463
1716268605721843304,0.388,,,,21.620907622
1716268605729537463,0.383,,,,21.628601781
1716268605737231622,0.371,,,,21.63629594
1716268605744925781,0.378,,743.0,,21.643990099
1716268605752619940,0.378,,,,21.651684258
1716268605760314099,0.375,,,,21.659378417
1716268605768008258,0.378,,,,21.667072576
1716268605775702417,0.373,,,,21.674766735
1716268605783396576,0.366,,,,21.682460894
1716268605791090735,0.363,,,,21.690155053
1716268605798784894,0.363,,,,21.697849212
1716268605806479053,0.356,,,,21.705543371
1716268605814173212,0.351,,,,21.71323753
1716268605821867371,0.358,,,,21.720931689
1716268605829561530,0.368,,,,21.728625848
1716268605837255689,0.363,,,,21.736320007
1716268605844949848,0.351,,,,21.744014166
1716268605852644007,0.349,,,,21.751708325
1716268605860338166,0.349,,,,21.759402484
1716268605868032325,0.341,,,,21.767096643
1716268605875726484,0.332,,,,21.774790802
1716268605883420643,0.324,,,,21.782484961
1716268605891114802,0.315,,,,21.79017912
1716268605898808961,0.295,,,,21.797873279
1716268605906503120,0.276,,,,21.805567438
1716268605914197279,0.261,,,,21.813261597
1716268605921891438,0.252,,,,21.820955756
1716268605929585597,0.242,,,,21.828649915
1716268605937279756,0.237,,,,21.836344074
1716268605944973915,0.23,,,,21.844038233
1716268605952668074,0.22,,,,21.851732392
1716268605960362233,0.215,,,,21.859426551
1716268605968056392,0.218,,,,21.86712071
1716268605975750551,0.227,,,,21.874814869
1716268605983444710,0.235,,,,21.882509028
1716268605991138869,0.23,,,,21.890203187
1716268605998833028,0.22,,,,21.897897346
1716268606006527196,0.22,,,,21.905591514
1716268606014221564,0.218,,,,21.913285882
1716268606021915932,0.213,,,,21.92098025
1716268606029610300,0.203,,,,21.928674618
1716268606037304668,0.191,,,,21.936368986
1716268606044999036,0.184,,,,21.944063354
1716268606052693404,0.179,,,,21.951757722
