time,ecg,hr,rr,marker,norm_time
1716268281354680060,0.075,80.0,,,0.0
1716268281362374149,0.075,,,,0.007694089
1716268281370068238,0.07,,,,0.015388178
1716268281377762327,0.065,,,,0.023082267
1716268281385456416,0.058,,,,0.030776356
1716268281393150505,0.058,,,,0.038470445
1716268281400844594,0.05,,,,0.046164534
1716268281408538683,0.031,,,,0.053858623
1716268281416232772,0.016,,,,0.061552712
1716268281423926861,0.021,,,,0.069246801
1716268281431620950,0.019,,,,0.07694089
1716268281439315039,0.016,,,,0.084634979
1716268281447009128,0.007,,,,0.092329068
1716268281454703217,-0.004,,,,0.100023157
1716268281462397306,-0.012,,,,0.107717246
1716268281470091395,-0.019,,,,0.115411335
1716268281477785484,-0.033,,,,0.123105424
1716268281485479573,-0.048,,,,0.130799513
1716268281493173662,-0.06,,,,0.138493602
1716268281500867751,-0.07,,,,0.146187691
1716268281508561840,-0.07,,,,0.15388178
1716268281516255929,-0.055,,,,0.161575869
1716268281523950018,-0.053,,,,0.169269958
1716268281531644107,-0.075,,,,0.176964047
1716268281539338196,-0.106,,,,0.184658136
1716268281547032285,-0.13,,,,0.192352225
1716268281554726374,-0.15,,,,0.200046314
1716268281562420463,-0.169,,,,0.207740403
1716268281570114552,-0.184,,,,0.215434492
1716268281577808641,-0.194,,,,0.223128581
1716268281585502730,-0.208,,,,0.23082267
1716268281593196819,-0.227,,,,0.238516759
1716268281600890908,-0.235,,,,0.246210848
1716268281608584997,-0.252,,,,0.253904937
1716268281616279086,-0.278,,,,0.261599026
1716268281623973175,-0.235,,,,0.269293115
1716268281631667264,-0.046,,,,0.276987204
1716268281639361353,0.206,,,,0.284681293
1716268281647055442,0.278,,,,0.292375382
1716268281654749531,-0.014,,,,0.300069471
1716268281662443620,-0.48,,,,0.30776356
1716268281670137709,-0.654,,,,0.315457649
1716268281677831798,-0.514,,,,0.323151738
1716268281685525887,-0.458,,,,0.330845827
1716268281693219976,-0.526,,,,0.338539916
1716268281700914065,-0.531,,,,0.346234005
1716268281708608154,-0.516,,,,0.353928094
1716268281716302243,-0.54,,,,0.361622183
1716268281723996332,-0.555,,,,0.369316272
1716268281731690421,-0.557,,,,0.377010361
1716268281739384510,-0.5670000000000001,,,,0.38470445
1716268281747078599,-0.5740000000000001,,,,0.392398539
1716268281754772688,-0.5740000000000001,,759.0,,0.400092628
1716268281762466777,-0.577,,,,0.407786717
1716268281770160866,-0.586,,,,0.415480806
1716268281777854955,-0.589,,,,0.423174895
1716268281785549044,-0.591,,,,0.430868984
1716268281793243133,-0.603,,,,0.438563073
1716268281800937222,-0.618,,,,0.446257162
1716268281808631311,-0.62,,,,0.453951251
1716268281816325400,-0.623,,,,0.46164534
1716268281824019489,-0.628,,,,0.469339429
1716268281831713578,-0.637,,,,0.477033518
1716268281839407667,-0.652,,,,0.484727607
1716268281847101756,-0.659,,,,0.492421696
1716268281854795845,-0.666,,,,0.500115785
1716268281862489934,-0.683,,,,0.507809874
1716268281870184023,-0.6980000000000001,,,,0.515503963
1716268281877878112,-0.712,,,,0.523198052
1716268281885572201,-0.732,,,,0.530892141
1716268281893266290,-0.749,,,,0.53858623
1716268281900960379,-0.759,,,,0.546280319
1716268281908654468,-0.785,,,,0.553974408
1716268281916348590,-0.8170000000000001,,,,0.56166853
1716268281924042958,-0.836,,,,0.569362898
1716268281931737326,-0.848,,,,0.577057266
1716268281939431694,-0.858,,,,0.584751634
1716268281947126062,-0.882,,,,0.592446002
1716268281954820430,-0.914,,,,0.60014037
1716268281962514798,-0.923,,,,0.607834738
1716268281970209166,-0.921,,,,0.615529106
1716268281977903534,-0.94,,,,0.623223474
1716268281985597902,-0.948,,,,0.630917842
1716268281993292270,-0.931,,,,0.63861221
1716268282000986638,-0.931,,,,0.646306578
1716268282008681006,-0.948,,,,0.654000946
1716268282016375374,-0.943,,,,0.661695314
1716268282024069742,-0.931,,,,0.669389682
1716268282031764110,-0.936,,,,0.67708405
1716268282039458478,-0.943,,,,0.684778418
1716268282047152846,-0.948,,,,0.692472786
1716268282054847214,-0.955,,,,0.700167154
1716268282062541582,-0.953,,,,0.707861522
1716268282070235950,-0.953,,,,0.71555589
1716268282077930318,-0.953,,,,0.723250258
1716268282085624686,-0.953,,,,0.730944626
1716268282093319054,-0.96,,,,0.738638994
1716268282101013422,-0.967,,,,0.746333362
1716268282108707790,-0.965,,,,0.75402773
1716268282116402158,-0.962,,,,0.761722098
1716268282124096526,-0.965,,,,0.769416466
1716268282131790894,-0.967,,,,0.777110834
1716268282139485262,-0.962,,,,0.784805202
1716268282147179630,-0.957,,,,0.79249957
1716268282154873998,-0.953,,,,0.800193938
1716268282162568366,-0.94,,,,0.807888306
1716268282170262734,-0.926,,,,0.815582674
1716268282177957102,-0.916,,,,0.823277042
1716268282185651470,-0.914,,,,0.83097141
1716268282193345838,-0.904,,,,0.838665778
1716268282201040206,-0.88,,,,0.846360146
1716268282208734574,-0.846,,,,0.854054514
1716268282216428942,-0.8260000000000001,,,,0.861748882
1716268282224123310,-0.8170000000000001,,,,0.86944325
1716268282231817678,-0.807,,,,0.877137618
1716268282239512046,-0.805,,,,0.884831986
1716268282247206414,-0.8140000000000001,,,,0.892526354
1716268282254900782,-0.812,,,,0.900220722
1716268282262595150,-0.793,,,,0.90791509
1716268282270289518,-0.778,,,,0.915609458
1716268282277983886,-0.773,,,,0.923303826
1716268282285678254,-0.761,,,,0.930998194
1716268282293372622,-0.744,,,,0.938692562
1716268282301066990,-0.742,,,,0.94638693
1716268282308761358,-0.744,,,,0.954081298
1716268282316455726,-0.662,,,,0.961775666
1716268282324150094,-0.4,,,,0.969470034
1716268282331844462,-0.067,,,,0.977164402
1716268282339538830,0.036,,,,0.98485877
1716268282347233198,-0.31,,,,0.992553138
1716268282354927566,-0.812,,,,1.000247506
1716268282362621934,-0.928,,,,1.007941874
1716268282370316302,-0.737,,,,1.015636242
1716268282378010670,-0.662,,,,1.02333061
1716268282385705038,-0.7030000000000001,,,,1.031024978
1716268282393399406,-0.683,,,,1.038719346
1716268282401093774,-0.642,,,,1.046413714
1716268282408788142,-0.632,,,,1.054108082
1716268282416482510,-0.62,,,,1.06180245
1716268282424176878,-0.601,,,,1.069496818
1716268282431871246,-0.584,,,,1.077191186
1716268282439565614,-0.5650000000000001,,,,1.084885554
1716268282447259982,-0.545,,,,1.092579922
1716268282454954350,-0.535,,,,1.10027429
1716268282462648718,-0.528,,,,1.107968658
1716268282470343086,-0.511,,,,1.115663026
1716268282478037466,-0.494,80.0,,,1.123357406
1716268282485731485,-0.489,,736.0,,1.131051425
1716268282493425504,-0.48,,,,1.138745444
1716268282501119523,-0.458,,,,1.146439463
1716268282508813542,-0.443,,,,1.154133482
1716268282516507561,-0.436,,,,1.161827501
1716268282524201580,-0.426,,,,1.16952152
1716268282531895599,-0.409,,,,1.177215539
1716268282539589618,-0.39,,,,1.184909558
1716268282547283637,-0.385,,,,1.192603577
1716268282554977656,-0.38,,,,1.200297596
1716268282562671675,-0.363,,,,1.207991615
1716268282570365694,-0.351,,,,1.215685634
1716268282578059713,-0.351,,,,1.223379653
1716268282585753732,-0.346,,,,1.231073672
1716268282593447751,-0.341,,,,1.238767691
1716268282601141770,-0.351,,,,1.24646171
1716268282608835789,-0.356,,,,1.254155729
1716268282616529808,-0.344,,,,1.261849748
1716268282624223827,-0.332,,,,1.269543767
1716268282631917846,-0.344,,,,1.277237786
1716268282639611865,-0.346,,,,1.284931805
1716268282647305884,-0.337,,,,1.292625824
1716268282654999903,-0.329,,,,1.300319843
1716268282662693922,-0.324,,,,1.308013862
1716268282670387941,-0.312,,,,1.315707881
1716268282678081960,-0.295,,,,1.3234019
1716268282685775979,-0.278,,,,1.331095919
1716268282693469998,-0.269,,,,1.338789938
1716268282701164017,-0.259,,,,1.346483957
1716268282708858036,-0.247,,,,1.354177976
1716268282716552055,-0.235,,,,1.361871995
1716268282724246074,-0.227,,,,1.369566014
1716268282731940093,-0.22,,,,1.377260033
1716268282739634112,-0.21,,,,1.384954052
1716268282747328131,-0.206,,,,1.392648071
1716268282755022150,-0.201,,,,1.40034209
1716268282762716169,-0.194,,,,1.408036109
1716268282770410188,-0.189,,,,1.415730128
1716268282778104207,-0.181,,,,1.423424147
1716268282785798226,-0.179,,,,1.431118166
1716268282793492245,-0.189,,,,1.438812185
1716268282801186264,-0.186,,,,1.446506204
1716268282808880283,-0.174,,,,1.454200223
1716268282816574302,-0.167,,,,1.461894242
1716268282824268321,-0.162,,,,1.469588261
1716268282831962340,-0.16,,,,1.47728228
1716268282839656359,-0.162,,,,1.484976299
1716268282847350378,-0.167,,,,1.492670318
1716268282855044397,-0.169,,,,1.500364337
1716268282862738416,-0.162,,,,1.508058356
1716268282870432435,-0.143,,,,1.515752375
1716268282878126454,-0.123,,,,1.523446394
1716268282885820473,-0.113,,,,1.531140413
1716268282893514492,-0.118,,,,1.538834432
1716268282901208511,-0.121,,,,1.546528451
1716268282908902530,-0.116,,,,1.55422247
1716268282916596549,-0.111,,,,1.561916489
1716268282924290568,-0.116,,,,1.569610508
1716268282931984587,-0.123,,,,1.577304527
1716268282939678606,-0.118,,,,1.584998546
1716268282947372625,-0.106,,,,1.592692565
1716268282955066644,-0.099,,,,1.600386584
1716268282962760663,-0.099,,,,1.608080603
1716268282970454682,-0.101,,,,1.615774622
1716268282978148701,-0.053,,,,1.623468641
1716268282985842720,0.152,,,,1.63116266
1716268282993536739,0.482,,,,1.638856679
1716268283001230758,0.6880000000000001,,,,1.646550698
1716268283008924777,0.475,,,,1.654244717
1716268283016618796,-0.055,,,,1.661938736
1716268283024312815,-0.327,,,,1.669632755
1716268283032006834,-0.186,,,,1.677326774
1716268283039700912,-0.067,,,,1.685020852
1716268283047395210,-0.113,,,,1.69271515
1716268283055089508,-0.123,,,,1.700409448
1716268283062783806,-0.094,,,,1.708103746
1716268283070478104,-0.094,,,,1.715798044
1716268283078172402,-0.092,,,,1.723492342
1716268283085866700,-0.082,,,,1.73118664
1716268283093560998,-0.077,,,,1.738880938
1716268283101255296,-0.067,,,,1.746575236
1716268283108949594,-0.055,,,,1.754269534
1716268283116643892,-0.053,,,,1.761963832
1716268283124338190,-0.041,,,,1.76965813
1716268283132032488,-0.029,,,,1.777352428
1716268283139726786,-0.021,,,,1.785046726
1716268283147421084,-0.019,,,,1.792741024
1716268283155115382,-0.009,,,,1.800435322
1716268283162809680,0.002,,,,1.80812962
1716268283170503978,0.014,,,,1.815823918
1716268283178198276,0.026,,,,1.823518216
1716268283185892574,0.031,,,,1.831212514
1716268283193586872,0.033,,,,1.838906812
1716268283201281170,0.046,,,,1.84660111
1716268283208975468,0.05,,,,1.854295408
1716268283216669766,0.048,,729.0,,1.861989706
1716268283224364064,0.05,,,,1.869684004
1716268283232058362,0.053,,,,1.877378302
1716268283239752660,0.043,,,,1.8850726
1716268283247446958,0.029,,,,1.892766898
1716268283255141256,0.026,,,,1.900461196
1716268283262835554,0.024,,,,1.908155494
1716268283270529852,0.014,,,,1.915849792
1716268283278224150,-0.002,,,,1.92354409
1716268283285918448,-0.014,,,,1.931238388
1716268283293612746,-0.024,,,,1.938932686
1716268283301307044,-0.029,,,,1.946626984
1716268283309001342,-0.029,,,,1.954321282
1716268283316695640,-0.026,,,,1.96201558
1716268283324389938,-0.024,,,,1.969709878
1716268283332084236,-0.019,,,,1.977404176
1716268283339778534,-0.014,,,,1.985098474
1716268283347472832,-0.016,,,,1.992792772
1716268283355167130,-0.016,,,,2.00048707
1716268283362861428,-0.007,,,,2.008181368
1716268283370555726,0.002,,,,2.015875666
1716268283378250024,0.007,,,,2.023569964
1716268283385944322,0.016,,,,2.031264262
1716268283393638620,0.019,,,,2.03895856
1716268283401332918,0.024,,,,2.046652858
1716268283409027216,0.031,,,,2.054347156
1716268283416721514,0.036,,,,2.062041454
1716268283424415812,0.038,,,,2.069735752
1716268283432110110,0.043,,,,2.07743005
1716268283439804408,0.053,,,,2.085124348
1716268283447498706,0.063,,,,2.092818646
1716268283455193004,0.065,,,,2.100512944
1716268283462887302,0.067,,,,2.108207242
1716268283470581600,0.072,,,,2.11590154
1716268283478275898,0.077,,,,2.123595838
1716268283485970196,0.08,,,,2.131290136
1716268283493664494,0.089,,,,2.138984434
1716268283501358792,0.099,,,,2.146678732
1716268283509053090,0.104,,,,2.15437303
1716268283516747388,0.113,,,,2.162067328
1716268283524441686,0.118,,,,2.169761626
1716268283532135984,0.113,,,,2.177455924
1716268283539830282,0.126,,,,2.185150222
1716268283547524580,0.157,,,,2.19284452
1716268283555218878,0.179,,,,2.200538818
1716268283562913176,0.181,,,,2.208233116
1716268283570607474,0.177,,,,2.215927414
1716268283578301772,0.179,,,,2.223621712
1716268283585996070,0.184,,,,2.23131601
1716268283593690368,0.181,,,,2.239010308
1716268283601384700,0.181,80.0,,,2.24670464
1716268283609079068,0.191,,,,2.254399008
1716268283616773436,0.201,,,,2.262093376
1716268283624467804,0.198,,,,2.269787744
1716268283632162172,0.194,,,,2.277482112
1716268283639856540,0.201,,,,2.28517648
1716268283647550908,0.21,,,,2.292870848
1716268283655245276,0.266,,,,2.300565216
1716268283662939644,0.477,,,,2.308259584
1716268283670634012,0.797,,,,2.315953952
1716268283678328380,0.991,,,,2.32364832
1716268283686022748,0.793,,,,2.331342688
1716268283693717116,0.276,,,,2.339037056
1716268283701411484,-0.004,,,,2.346731424
1716268283709105852,0.15,,,,2.354425792
1716268283716800220,0.266,,,,2.36212016
1716268283724494588,0.191,,,,2.369814528
1716268283732188956,0.186,,,,2.377508896
1716268283739883324,0.242,,,,2.385203264
1716268283747577692,0.235,,,,2.392897632
1716268283755272060,0.232,,,,2.400592
1716268283762966428,0.264,,,,2.408286368
1716268283770660796,0.269,,,,2.415980736
1716268283778355164,0.261,,,,2.423675104
1716268283786049532,0.269,,,,2.431369472
1716268283793743900,0.288,,,,2.43906384
1716268283801438268,0.31,,,,2.446758208
1716268283809132636,0.317,,,,2.454452576
1716268283816827004,0.329,,,,2.462146944
1716268283824521372,0.354,,,,2.469841312
1716268283832215740,0.368,,,,2.47753568
1716268283839910108,0.375,,,,2.485230048
1716268283847604476,0.385,,,,2.492924416
1716268283855298844,0.397,,,,2.500618784
1716268283862993212,0.412,,,,2.508313152
1716268283870687580,0.431,,,,2.51600752
1716268283878381948,0.458,,,,2.523701888
1716268283886076316,0.482,,,,2.531396256
1716268283893770684,0.497,,,,2.539090624
1716268283901465052,0.509,,,,2.546784992
1716268283909159420,0.526,,,,2.55447936
1716268283916853788,0.54,,,,2.562173728
1716268283924548156,0.55,,,,2.569868096
1716268283932242524,0.562,,,,2.577562464
1716268283939936892,0.577,,,,2.585256832
1716268283947631260,0.5670000000000001,,,,2.5929512
1716268283955325628,0.552,,734.0,,2.600645568
1716268283963019996,0.555,,,,2.608339936
1716268283970714364,0.562,,,,2.616034304
1716268283978408732,0.56,,,,2.623728672
1716268283986103100,0.557,,,,2.63142304
1716268283993797468,0.56,,,,2.639117408
1716268284001491836,0.5670000000000001,,,,2.646811776
1716268284009186204,0.5720000000000001,,,,2.654506144
1716268284016880572,0.5740000000000001,,,,2.662200512
1716268284024574940,0.582,,,,2.66989488
1716268284032269308,0.586,,,,2.677589248
1716268284039963676,0.582,,,,2.685283616
1716268284047658044,0.5740000000000001,,,,2.692977984
1716268284055352412,0.579,,,,2.700672352
1716268284063046780,0.582,,,,2.70836672
1716268284070741148,0.577,,,,2.716061088
1716268284078435516,0.579,,,,2.723755456
1716268284086129884,0.584,,,,2.731449824
1716268284093824252,0.582,,,,2.739144192
1716268284101518620,0.582,,,,2.74683856
1716268284109212988,0.586,,,,2.754532928
1716268284116907356,0.601,,,,2.762227296
1716268284124601724,0.613,,,,2.769921664
1716268284132296092,0.63,,,,2.777616032
1716268284139990460,0.664,,,,2.7853104
1716268284147684828,0.6880000000000001,,,,2.793004768
1716268284155379196,0.717,,,,2.800699136
1716268284163073578,0.768,81.0,,,2.808393518
1716268284170767806,0.809,,,,2.816087746
1716268284178462034,0.843,,,,2.823781974
1716268284186156262,0.88,,,,2.831476202
1716268284193850490,0.911,,,,2.83917043
1716268284201544718,0.928,,,,2.846864658
1716268284209238946,0.945,,,,2.854558886
1716268284216933174,0.97,,,,2.862253114
1716268284224627402,0.979,,,,2.869947342
1716268284232321630,0.979,,,,2.87764157
1716268284240015858,1.013,,,,2.885335798
1716268284247710086,1.04,,,,2.893030026
1716268284255404314,1.045,,,,2.900724254
1716268284263098542,1.035,,,,2.908418482
1716268284270792770,1.004,,,,2.91611271
1716268284278486998,0.972,,,,2.923806938
1716268284286181226,0.95,,,,2.931501166
1716268284293875454,0.921,,,,2.939195394
1716268284301569682,0.911,,,,2.946889622
1716268284309263910,0.892,,,,2.95458385
1716268284316958138,0.865,,,,2.962278078
1716268284324652366,0.851,,,,2.969972306
1716268284332346594,0.841,,,,2.977666534
1716268284340040822,0.8240000000000001,,,,2.985360762
1716268284347735050,0.809,,,,2.99305499
1716268284355429278,0.921,,,,3.000749218
1716268284363123506,1.202,,,,3.008443446
1716268284370817734,1.486,,,,3.016137674
1716268284378511962,1.503,,,,3.023831902
1716268284386206190,1.033,,,,3.03152613
1716268284393900418,0.489,,,,3.039220358
1716268284401594646,0.468,,,,3.046914586
1716268284409288874,0.662,,,,3.054608814
1716268284416983102,0.618,,,,3.062303042
1716268284424677330,0.538,,,,3.06999727
1716268284432371558,0.579,,,,3.077691498
1716268284440065786,0.591,,,,3.085385726
1716268284447760014,0.557,,,,3.093079954
1716268284455454242,0.5670000000000001,,,,3.100774182
1716268284463148470,0.584,,,,3.10846841
1716268284470842698,0.5720000000000001,,,,3.116162638
1716268284478536926,0.577,,,,3.123856866
1716268284486231154,0.582,,,,3.131551094
1716268284493925382,0.5650000000000001,,,,3.139245322
1716268284501619610,0.548,,,,3.14693955
1716268284509313838,0.528,,,,3.154633778
1716268284517008066,0.506,,,,3.162328006
1716268284524702294,0.485,,,,3.170022234
1716268284532396522,0.46,,,,3.177716462
1716268284540090750,0.451,,,,3.18541069
1716268284547784978,0.436,,,,3.193104918
1716268284555479206,0.426,,,,3.200799146
1716268284563173434,0.424,,,,3.208493374
1716268284570867662,0.409,,,,3.216187602
1716268284578561890,0.404,,,,3.22388183
1716268284586256118,0.395,,,,3.231576058
1716268284593950346,0.375,,,,3.239270286
1716268284601644574,0.363,,,,3.246964514
1716268284609338802,0.351,,,,3.254658742
1716268284617033030,0.346,,,,3.26235297
1716268284624727258,0.334,,,,3.270047198
1716268284632421486,0.3,,,,3.277741426
1716268284640115714,0.276,,,,3.285435654
1716268284647809942,0.252,,,,3.293129882
1716268284655504170,0.227,,,,3.30082411
1716268284663198398,0.213,,,,3.308518338
1716268284670892626,0.191,,,,3.316212566
1716268284678586854,0.172,,,,3.323906794
1716268284686281082,0.157,,,,3.331601022
1716268284693975310,0.138,,743.0,,3.33929525
1716268284701669538,0.118,,,,3.346989478
1716268284709363766,0.092,,,,3.354683706
1716268284717057994,0.072,,,,3.362377934
1716268284724752282,0.046,,,,3.370072222
1716268284732446371,0.012,,,,3.377766311
1716268284740140460,-0.002,,,,3.3854604
1716268284747834549,-0.021,,,,3.393154489
1716268284755528638,-0.048,,,,3.400848578
1716268284763222727,-0.072,,,,3.408542667
1716268284770916816,-0.099,,,,3.416236756
1716268284778610905,-0.126,,,,3.423930845
1716268284786304994,-0.16,,,,3.431624934
1716268284793999083,-0.191,,,,3.439319023
1716268284801693172,-0.208,,,,3.447013112
1716268284809387261,-0.223,,,,3.454707201
1716268284817081350,-0.235,,,,3.46240129
1716268284824775439,-0.242,,,,3.470095379
1716268284832469528,-0.242,,,,3.477789468
1716268284840163617,-0.242,,,,3.485483557
1716268284847857706,-0.254,,,,3.493177646
1716268284855551795,-0.261,,,,3.500871735
1716268284863245884,-0.266,,,,3.508565824
1716268284870939973,-0.291,,,,3.516259913
1716268284878634062,-0.312,,,,3.523954002
1716268284886328151,-0.337,,,,3.531648091
1716268284894022240,-0.368,,,,3.53934218
1716268284901716329,-0.402,,,,3.547036269
1716268284909410418,-0.446,,,,3.554730358
1716268284917104507,-0.477,,,,3.562424447
1716268284924798596,-0.516,,,,3.570118536
1716268284932492685,-0.55,,,,3.577812625
1716268284940186774,-0.5670000000000001,,,,3.585506714
1716268284947880863,-0.599,,,,3.593200803
1716268284955574952,-0.625,,,,3.600894892
1716268284963269041,-0.645,,,,3.608588981
1716268284970963130,-0.71,,,,3.61628307
1716268284978657219,-0.812,,,,3.623977159
1716268284986351308,-0.906,,,,3.631671248
1716268284994045397,-0.977,,,,3.639365337
1716268285001739486,-1.052,,,,3.647059426
1716268285009433575,-1.149,,,,3.654753515
1716268285017127664,-1.202,,,,3.662447604
1716268285024821753,-1.207,,,,3.670141693
1716268285032515842,-1.205,,,,3.677835782
1716268285040209931,-1.195,,,,3.685529871
1716268285047904020,-1.178,,,,3.69322396
1716268285055598109,-1.168,,,,3.700918049
1716268285063292198,-1.101,,,,3.708612138
1716268285070986287,-0.851,,,,3.716306227
1716268285078680376,-0.451,,,,3.724000316
1716268285086374465,-0.189,,,,3.731694405
1716268285094068554,-0.361,,,,3.739388494
1716268285101762643,-0.873,,,,3.747082583
1716268285109456732,-1.13,,,,3.754776672
1716268285117150821,-0.919,,,,3.762470761
1716268285124844910,-0.751,,,,3.77016485
1716268285132538999,-0.78,,,,3.777858939
1716268285140233088,-0.712,,,,3.785553028
1716268285147927177,-0.599,,,,3.793247117
1716268285155621266,-0.555,,,,3.800941206
1716268285163315355,-0.514,,,,3.808635295
1716268285171009444,-0.458,,,,3.816329384
1716268285178703533,-0.395,,,,3.824023473
1716268285186397622,-0.329,,,,3.831717562
1716268285194091711,-0.293,,,,3.839411651
1716268285201785800,-0.261,,,,3.84710574
1716268285209479889,-0.218,,,,3.854799829
1716268285217173978,-0.167,,,,3.862493918
1716268285224868067,-0.126,,,,3.870188007
1716268285232562156,-0.087,,,,3.877882096
1716268285240256245,-0.048,,,,3.885576185
1716268285247950334,-0.021,,,,3.893270274
1716268285255644423,0.004,,,,3.900964363
1716268285263338512,0.038,,,,3.908658452
1716268285271032601,0.08,,,,3.916352541
1716268285278726690,0.121,,,,3.92404663
1716268285286420812,0.15,82.0,,,3.931740752
1716268285294115180,0.177,,,,3.93943512
1716268285301809548,0.206,,,,3.947129488
1716268285309503916,0.227,,,,3.954823856
1716268285317198284,0.252,,,,3.962518224
1716268285324892652,0.281,,,,3.970212592
1716268285332587020,0.295,,,,3.97790696
1716268285340281388,0.317,,,,3.985601328
1716268285347975756,0.337,,,,3.993295696
1716268285355670124,0.346,,,,4.000990064
1716268285363364492,0.334,,,,4.008684432
1716268285371058860,0.329,,,,4.0163788
1716268285378753228,0.351,,,,4.024073168
1716268285386447596,0.334,,692.0,,4.031767536
1716268285394141964,0.298,,,,4.039461904
1716268285401836332,0.286,,,,4.047156272
1716268285409530700,0.257,,,,4.05485064
1716268285417225068,0.218,,,,4.062545008
1716268285424919436,0.184,,,,4.070239376
1716268285432613804,0.155,,,,4.077933744
1716268285440308172,0.14,,,,4.085628112
1716268285448002540,0.123,,,,4.09332248
1716268285455696908,0.101,,,,4.101016848
1716268285463391276,0.092,,,,4.108711216
1716268285471085644,0.101,,,,4.116405584
1716268285478780012,0.121,,,,4.124099952
1716268285486474380,0.128,,,,4.13179432
1716268285494168748,0.135,,,,4.139488688
1716268285501863116,0.147,,,,4.147183056
1716268285509557484,0.157,,,,4.154877424
1716268285517251852,0.174,,,,4.162571792
1716268285524946220,0.189,,,,4.17026616
1716268285532640588,0.194,,,,4.177960528
1716268285540334956,0.21,,,,4.185654896
1716268285548029324,0.225,,,,4.193349264
1716268285555723692,0.227,,,,4.201043632
1716268285563418060,0.232,,,,4.208738
1716268285571112428,0.237,,,,4.216432368
1716268285578806796,0.254,,,,4.224126736
1716268285586501164,0.269,,,,4.231821104
1716268285594195532,0.274,,,,4.239515472
1716268285601889900,0.288,,,,4.24720984
1716268285609584268,0.3,,,,4.254904208
1716268285617278636,0.322,,,,4.262598576
1716268285624973004,0.344,,,,4.270292944
1716268285632667372,0.356,,,,4.277987312
1716268285640361740,0.375,,,,4.28568168
1716268285648056108,0.395,,,,4.293376048
1716268285655750476,0.417,,,,4.301070416
1716268285663444844,0.446,,,,4.308764784
1716268285671139212,0.46,,,,4.316459152
1716268285678833580,0.497,,,,4.32415352
1716268285686527948,0.538,,,,4.331847888
1716268285694222316,0.55,,,,4.339542256
1716268285701916684,0.555,,,,4.347236624
1716268285709611052,0.579,,,,4.354930992
1716268285717305420,0.606,,,,4.36262536
1716268285724999788,0.606,,,,4.370319728
1716268285732694156,0.62,,,,4.378014096
1716268285740388524,0.664,,,,4.385708464
1716268285748082892,0.6910000000000001,,,,4.393402832
1716268285755777260,0.734,,,,4.4010972
1716268285763471628,0.795,,,,4.408791568
1716268285771165996,0.839,,,,4.416485936
1716268285778860364,0.873,,,,4.424180304
1716268285786554732,0.882,,,,4.431874672
1716268285794249100,0.962,,,,4.43956904
1716268285801943468,1.229,,,,4.447263408
1716268285809637836,1.586,,,,4.454957776
1716268285817332204,1.767,,,,4.462652144
1716268285825026572,1.508,,,,4.470346512
1716268285832720940,1.008,,,,4.47804088
1716268285840415308,0.88,,,,4.485735248
1716268285848109688,1.11,,,,4.493429628
1716268285855804056,1.207,,,,4.501123996
1716268285863498424,1.161,,,,4.508818364
1716268285871192792,1.198,,,,4.516512732
1716268285878887160,1.263,,,,4.5242071
1716268285886581528,1.273,,,,4.531901468
1716268285894275896,1.297,,,,4.539595836
1716268285901970264,1.353,,,,4.547290204
1716268285909664632,1.367,,,,4.554984572
1716268285917359000,1.379,,,,4.56267894
1716268285925053368,1.406,,,,4.570373308
1716268285932747736,1.409,,,,4.578067676
1716268285940442104,1.421,,,,4.585762044
1716268285948136472,1.435,,,,4.593456412
1716268285955830840,1.44,,,,4.60115078
1716268285963525208,1.445,,,,4.608845148
1716268285971219576,1.445,,,,4.616539516
1716268285978913944,1.45,,,,4.624233884
1716268285986608312,1.45,,,,4.631928252
1716268285994302680,1.442,,,,4.63962262
1716268286001997048,1.44,,,,4.647316988
1716268286009691416,1.44,,,,4.655011356
1716268286017385784,1.445,,,,4.662705724
1716268286025080152,1.44,,,,4.670400092
1716268286032774520,1.418,,,,4.67809446
1716268286040468888,1.411,,,,4.685788828
1716268286048163256,1.399,,664.0,,4.693483196
1716268286055857624,1.384,,,,4.701177564
1716268286063551992,1.37,,,,4.708871932
1716268286071246360,1.348,,,,4.7165663
1716268286078940728,1.345,,,,4.724260668
1716268286086635096,1.333,,,,4.731955036
1716268286094329464,1.299,,,,4.739649404
1716268286102023832,1.295,,,,4.747343772
1716268286109718200,1.302,,,,4.75503814
1716268286117412568,1.309,,,,4.762732508
1716268286125106936,1.311,,,,4.770426876
1716268286132801304,1.285,,,,4.778121244
1716268286140495672,1.263,,,,4.785815612
1716268286148190040,1.275,,,,4.79350998
1716268286155884408,1.304,,,,4.801204348
1716268286163578776,1.311,,,,4.808898716
1716268286171273144,1.295,,,,4.816593084
1716268286178967512,1.295,,,,4.824287452
1716268286186661880,1.299,,,,4.83198182
1716268286194356248,1.292,,,,4.839676188
1716268286202050616,1.285,,,,4.847370556
1716268286209744984,1.27,,,,4.855064924
1716268286217439352,1.273,,,,4.862759292
1716268286225133720,1.263,,,,4.87045366
1716268286232828088,1.239,,,,4.878148028
1716268286240522456,1.231,,,,4.885842396
1716268286248216824,1.222,,,,4.893536764
1716268286255911192,1.214,,,,4.901231132
1716268286263605560,1.207,,,,4.9089255
1716268286271299928,1.2,,,,4.916619868
1716268286278994296,1.222,,,,4.924314236
1716268286286688664,1.217,,,,4.932008604
1716268286294383032,1.198,,,,4.939702972
1716268286302077400,1.205,,,,4.94739734
1716268286309771768,1.212,,,,4.955091708
1716268286317466136,1.224,,,,4.962786076
1716268286325160504,1.236,,,,4.970480444
1716268286332854872,1.239,,,,4.978174812
1716268286340549240,1.27,,,,4.98586918
1716268286348243608,1.302,,,,4.993563548
1716268286355937976,1.319,,,,5.001257916
1716268286363632344,1.345,,,,5.008952284
1716268286371326712,1.36,,,,5.016646652
1716268286379021080,1.377,,,,5.02434102
1716268286386715448,1.401,,,,5.032035388
1716268286394409816,1.43,,,,5.039729756
1716268286402104184,1.472,,,,5.047424124
1716268286409798564,1.496,82.0,,,5.055118504
1716268286417492932,1.527,,,,5.062812872
1716268286425187300,1.566,,,,5.07050724
1716268286432881668,1.583,,,,5.078201608
1716268286440576036,1.588,,,,5.085895976
1716268286448270404,1.566,,,,5.093590344
1716268286455964772,1.549,,,,5.101284712
1716268286463659140,1.544,,,,5.10897908
1716268286471353508,1.53,,,,5.116673448
1716268286479047876,1.52,,,,5.124367816
1716268286486742244,1.503,,,,5.132062184
1716268286494436612,1.484,,,,5.139756552
1716268286502130980,1.484,,,,5.14745092
1716268286509825348,1.472,,,,5.155145288
1716268286517519716,1.462,,,,5.162839656
1716268286525214084,1.447,,,,5.170534024
1716268286532908452,1.447,,,,5.178228392
1716268286540602820,1.588,,,,5.18592276
1716268286548297188,1.852,,,,5.193617128
1716268286555991556,2.049,,,,5.201311496
1716268286563685924,1.925,,,,5.209005864
1716268286571380292,1.467,,,,5.216700232
1716268286579074660,1.12,,,,5.2243946
1716268286586769028,1.168,,,,5.232088968
1716268286594463396,1.304,,,,5.239783336
1716268286602157764,1.275,,,,5.247477704
1716268286609852132,1.224,,,,5.255172072
1716268286617546500,1.248,,,,5.26286644
1716268286625240868,1.251,,,,5.270560808
1716268286632935236,1.222,,,,5.278255176
1716268286640629604,1.229,,,,5.285949544
1716268286648323972,1.241,,,,5.293643912
1716268286656018340,1.236,,,,5.30133828
1716268286663712708,1.239,,,,5.309032648
1716268286671407076,1.246,,,,5.316727016
1716268286679101444,1.263,,,,5.324421384
1716268286686795812,1.261,,,,5.332115752
1716268286694490180,1.256,,,,5.33981012
1716268286702184548,1.28,,,,5.347504488
1716268286709878916,1.28,,,,5.355198856
1716268286717573284,1.278,,,,5.362893224
1716268286725267652,1.28,,677.0,,5.370587592
1716268286732962020,1.258,,,,5.37828196
1716268286740656388,1.244,,,,5.385976328
1716268286748350756,1.241,,,,5.393670696
1716268286756045124,1.248,,,,5.401365064
1716268286763739492,1.239,,,,5.409059432
1716268286771433860,1.205,,,,5.4167538
1716268286779128228,1.193,,,,5.424448168
1716268286786822596,1.183,,,,5.432142536
1716268286794516964,1.178,,,,5.439836904
1716268286802211332,1.166,,,,5.447531272
1716268286809905700,1.101,,,,5.45522564
1716268286817600068,1.052,,,,5.462920008
1716268286825294436,1.045,,,,5.470614376
1716268286832988804,1.025,,,,5.478308744
1716268286840683172,1.018,,,,5.486003112
1716268286848377540,0.999,,,,5.49369748
1716268286856071908,0.97,,,,5.501391848
1716268286863766276,0.953,,,,5.509086216
1716268286871460644,0.926,,,,5.516780584
1716268286879155012,0.911,,,,5.524474952
1716268286886849380,0.909,,,,5.53216932
1716268286894543748,0.909,,,,5.539863688
1716268286902238116,0.906,,,,5.547558056
1716268286909932484,0.897,,,,5.555252424
1716268286917626852,0.904,,,,5.562946792
1716268286925321220,0.902,,,,5.57064116
1716268286933015588,0.882,,,,5.578335528
1716268286940709956,0.887,,,,5.586029896
1716268286948404324,0.877,,,,5.593724264
1716268286956098692,0.863,,,,5.601418632
1716268286963793060,0.86,,,,5.609113
1716268286971487440,0.848,,,,5.61680738
1716268286979181738,0.843,,,,5.624501678
1716268286986876036,0.8220000000000001,,,,5.632195976
1716268286994570334,0.795,,,,5.639890274
1716268287002264632,0.8,,,,5.647584572
1716268287009958930,0.793,,,,5.65527887
1716268287017653228,0.776,,,,5.662973168
1716268287025347526,0.754,,,,5.670667466
1716268287033041824,0.744,,,,5.678361764
1716268287040736122,0.742,,,,5.686056062
1716268287048430420,0.715,,,,5.69375036
1716268287056124718,0.705,,,,5.701444658
1716268287063819016,0.7030000000000001,,,,5.709138956
1716268287071513314,0.6910000000000001,,,,5.716833254
1716268287079207612,0.6930000000000001,,,,5.724527552
1716268287086901910,0.676,,,,5.73222185
1716268287094596208,0.657,,,,5.739916148
1716268287102290506,0.666,,,,5.747610446
1716268287109984804,0.628,,,,5.755304744
1716268287117679102,0.606,,,,5.762999042
1716268287125373400,0.652,,,,5.77069334
1716268287133067698,0.659,,,,5.778387638
1716268287140761996,0.618,,,,5.786081936
1716268287148456294,0.611,,,,5.793776234
1716268287156150592,0.632,,,,5.801470532
1716268287163844890,0.613,,,,5.80916483
1716268287171539188,0.5690000000000001,,,,5.816859128
1716268287179233486,0.521,,,,5.824553426
1716268287186927784,0.368,,,,5.832247724
1716268287194622082,0.072,,,,5.839942022
1716268287202316380,-0.31,,,,5.84763632
1716268287210010678,-0.739,,,,5.855330618
1716268287217704976,-1.154,,,,5.863024916
1716268287225399274,-1.544,,,,5.870719214
1716268287233093572,-1.869,,,,5.878413512
1716268287240787870,-2.049,,,,5.88610781
1716268287248482168,-2.129,,,,5.893802108
1716268287256176466,-2.148,,,,5.901496406
1716268287263870764,-2.119,,,,5.909190704
1716268287271565062,-2.049,,,,5.916885002
1716268287279259360,-1.843,,,,5.9245793
1716268287286953658,-1.493,,,,5.932273598
1716268287294647956,-1.183,,,,5.939967896
1716268287302342254,-1.156,,,,5.947662194
1716268287310036552,-1.486,,,,5.955356492
1716268287317730850,-1.746,,,,5.96305079
1716268287325425148,-1.61,,,,5.970745088
1716268287333119446,-1.372,,,,5.978439386
1716268287340813744,-1.287,,,,5.986133684
1716268287348508042,-1.234,,,,5.993827982
1716268287356202340,-1.122,,,,6.00152228
1716268287363896638,-1.02,,,,6.009216578
1716268287371590936,-0.933,,,,6.016910876
1716268287379285234,-0.8240000000000001,,,,6.024605174
1716268287386979532,-0.722,,,,6.032299472
1716268287394673830,-0.62,,,,6.03999377
1716268287402368128,-0.528,,,,6.047688068
1716268287410062426,-0.453,,,,6.055382366
1716268287417756724,-0.341,,,,6.063076664
1716268287425451022,-0.184,,696.0,,6.070770962
1716268287433145320,-0.009,,,,6.07846526
1716268287440839618,0.155,,,,6.086159558
1716268287448533916,0.295,,,,6.093853856
1716268287456228214,0.441,,,,6.101548154
1716268287463922512,0.5650000000000001,,,,6.109242452
1716268287471616810,0.635,,,,6.11693675
1716268287479311108,0.7000000000000001,,,,6.124631048
1716268287487005406,0.756,,,,6.132325346
1716268287494699704,0.797,,,,6.140019644
1716268287502394002,0.8310000000000001,,,,6.147713942
1716268287510088300,0.841,,,,6.15540824
1716268287517782598,0.86,,,,6.163102538
1716268287525476896,0.873,,,,6.170796836
1716268287533171232,0.86,83.0,,,6.178491172
1716268287540865530,0.858,,,,6.18618547
1716268287548559828,0.848,,,,6.193879768
1716268287556254126,0.834,,,,6.201574066
1716268287563948424,0.8260000000000001,,,,6.209268364
1716268287571642722,0.8140000000000001,,,,6.216962662
1716268287579337020,0.8170000000000001,,,,6.22465696
1716268287587031318,0.8140000000000001,,,,6.232351258
1716268287594725616,0.812,,,,6.240045556
1716268287602419914,0.8220000000000001,,,,6.247739854
1716268287610114212,0.8190000000000001,,,,6.255434152
1716268287617808510,0.8260000000000001,,,,6.26312845
1716268287625502808,0.836,,,,6.270822748
1716268287633197106,0.8310000000000001,,,,6.278517046
1716268287640891404,0.8220000000000001,,,,6.286211344
1716268287648585702,0.797,,,,6.293905642
1716268287656280000,0.783,,,,6.30159994
1716268287663974298,0.766,,,,6.309294238
1716268287671668596,0.729,,,,6.316988536
1716268287679362894,0.705,,,,6.324682834
1716268287687057192,0.674,,,,6.332377132
1716268287694751490,0.635,,,,6.34007143
1716268287702445788,0.594,,,,6.347765728
1716268287710140086,0.528,,,,6.355460026
1716268287717834384,0.472,,,,6.363154324
1716268287725528682,0.419,,,,6.370848622
1716268287733222980,0.349,,,,6.37854292
1716268287740917278,0.283,,,,6.386237218
1716268287748611576,0.21,,,,6.393931516
1716268287756305874,0.128,,,,6.401625814
1716268287764000172,0.014,,,,6.409320112
1716268287771694470,-0.162,,,,6.41701441
1716268287779388768,-0.341,,,,6.424708708
1716268287787083066,-0.509,,,,6.432403006
1716268287794777364,-0.657,,,,6.440097304
1716268287802471662,-0.771,,,,6.447791602
1716268287810165960,-0.846,,,,6.4554859
1716268287817860258,-0.863,,,,6.463180198
1716268287825554556,-0.877,,,,6.470874496
1716268287833248854,-0.887,,,,6.478568794
1716268287840943152,-0.848,,,,6.486263092
1716268287848637450,-0.8240000000000001,,,,6.49395739
1716268287856331748,-0.805,,,,6.501651688
1716268287864026046,-0.759,,,,6.509345986
1716268287871720344,-0.71,,,,6.517040284
1716268287879414642,-0.666,,,,6.524734582
1716268287887108940,-0.647,,,,6.53242888
1716268287894803238,-0.637,,,,6.540123178
1716268287902497536,-0.611,,,,6.547817476
1716268287910191834,-0.589,,,,6.555511774
1716268287917886132,-0.5690000000000001,,,,6.563206072
1716268287925580430,-0.555,,,,6.57090037
1716268287933274728,-0.54,,,,6.578594668
1716268287940969026,-0.509,,,,6.586288966
1716268287948663324,-0.489,,,,6.593983264
1716268287956357622,-0.485,,,,6.601677562
1716268287964051920,-0.48,,,,6.60937186
1716268287971746218,-0.477,,,,6.617066158
1716268287979440516,-0.38,,,,6.624760456
1716268287987134814,-0.121,,,,6.632454754
1716268287994829112,0.196,,,,6.640149052
1716268288002523410,0.298,,,,6.64784335
1716268288010217708,-0.038,,,,6.655537648
1716268288017912006,-0.518,,,,6.663231946
1716268288025606304,-0.606,,,,6.670926244
1716268288033300602,-0.395,,,,6.678620542
1716268288040994900,-0.312,,,,6.68631484
1716268288048689198,-0.349,,,,6.694009138
1716268288056383496,-0.305,,,,6.701703436
1716268288064077794,-0.249,,,,6.709397734
1716268288071772092,-0.24,,,,6.717092032
1716268288079466390,-0.198,,,,6.72478633
1716268288087160688,-0.13,,,,6.732480628
1716268288094855022,-0.084,,,,6.740174962
1716268288102549111,-0.05,,,,6.747869051
1716268288110243200,-0.033,,,,6.75556314
1716268288117937289,-0.019,,,,6.763257229
1716268288125631378,-0.014,,,,6.770951318
1716268288133325467,-0.033,,712.0,,6.778645407
1716268288141019556,-0.055,,,,6.786339496
1716268288148713645,-0.116,,,,6.794033585
1716268288156407734,-0.225,,,,6.801727674
1716268288164101823,-0.388,,,,6.809421763
1716268288171795912,-0.628,,,,6.817115852
1716268288179490001,-0.911,,,,6.824809941
1716268288187184090,-1.224,,,,6.83250403
1716268288194878179,-1.518,,,,6.840198119
1716268288202572268,-1.75,,,,6.847892208
1716268288210266357,-1.942,,,,6.855586297
1716268288217960446,-2.0460000000000003,,,,6.863280386
1716268288225654535,-2.073,,,,6.870974475
1716268288233348624,-2.092,,,,6.878668564
1716268288241042713,-2.08,,,,6.886362653
1716268288248736802,-2.032,,,,6.894056742
1716268288256430891,-1.971,,,,6.901750831
1716268288264124980,-1.903,,,,6.90944492
1716268288271819069,-1.845,,,,6.917139009
1716268288279513158,-1.789,,,,6.924833098
1716268288287207247,-1.729,,,,6.932527187
1716268288294901336,-1.656,,,,6.940221276
1716268288302595425,-1.581,,,,6.947915365
1716268288310289514,-1.525,,,,6.955609454
1716268288317983603,-1.457,,,,6.963303543
1716268288325677692,-1.384,,,,6.970997632
1716268288333371781,-1.331,,,,6.978691721
1716268288341065870,-1.268,,,,6.98638581
1716268288348759959,-1.2,,,,6.994079899
1716268288356454048,-1.137,,,,7.001773988
1716268288364148137,-1.079,,,,7.009468077
1716268288371842226,-1.028,,,,7.017162166
1716268288379536315,-0.967,,,,7.024856255
1716268288387230404,-0.919,,,,7.032550344
1716268288394924493,-0.875,,,,7.040244433
1716268288402618582,-0.807,,,,7.047938522
1716268288410312671,-0.749,,,,7.055632611
1716268288418006760,-0.6910000000000001,,,,7.0633267
1716268288425700849,-0.635,,,,7.071020789
1716268288433394938,-0.577,,,,7.078714878
1716268288441089027,-0.504,,,,7.086408967
1716268288448783116,-0.446,,,,7.094103056
1716268288456477205,-0.392,,,,7.101797145
1716268288464171294,-0.329,,,,7.109491234
1716268288471865383,-0.276,,,,7.117185323
1716268288479559472,-0.225,,,,7.124879412
1716268288487253561,-0.174,,,,7.132573501
1716268288494947650,-0.116,,,,7.14026759
1716268288502641739,-0.065,,,,7.147961679
1716268288510335828,-0.041,,,,7.155655768
1716268288518029917,-0.009,,,,7.163349857
1716268288525724006,0.024,,,,7.171043946
1716268288533418095,0.055,,,,7.178738035
1716268288541112184,0.101,,,,7.186432124
1716268288548806273,0.145,,,,7.194126213
1716268288556500362,0.21,,,,7.201820302
1716268288564194451,0.291,,,,7.209514391
1716268288571888540,0.332,,,,7.21720848
1716268288579582629,0.356,,,,7.224902569
1716268288587276718,0.38,,,,7.232596658
1716268288594970807,0.404,,,,7.240290747
1716268288602664896,0.421,,,,7.247984836
1716268288610358985,0.424,,,,7.255678925
1716268288618053074,0.446,,,,7.263373014
1716268288625747163,0.47,,,,7.271067103
1716268288633441252,0.472,,,,7.278761192
1716268288641135341,0.477,,,,7.286455281
1716268288648829430,0.477,,,,7.29414937
1716268288656523552,0.475,83.0,,,7.301843492
1716268288664217920,0.533,,,,7.30953786
1716268288671912288,0.734,,,,7.317232228
1716268288679606656,1.05,,,,7.324926596
1716268288687301024,1.219,,,,7.332620964
1716268288694995392,0.979,,,,7.340315332
1716268288702689760,0.441,,,,7.3480097
1716268288710384128,0.164,,,,7.355704068
1716268288718078496,0.337,,,,7.363398436
1716268288725772864,0.431,,,,7.371092804
1716268288733467232,0.32,,,,7.378787172
1716268288741161600,0.315,,,,7.38648154
1716268288748855968,0.351,,,,7.394175908
1716268288756550336,0.322,,,,7.401870276
1716268288764244704,0.307,,,,7.409564644
1716268288771939072,0.312,,,,7.417259012
1716268288779633440,0.307,,,,7.42495338
1716268288787327808,0.293,,,,7.432647748
1716268288795022176,0.283,,,,7.440342116
1716268288802716544,0.281,,,,7.448036484
1716268288810410912,0.266,,,,7.455730852
1716268288818105280,0.254,,,,7.46342522
1716268288825799648,0.23,,,,7.471119588
1716268288833494016,0.172,,,,7.478813956
1716268288841188384,0.123,,,,7.486508324
1716268288848882752,0.08,,,,7.494202692
1716268288856577120,0.031,,,,7.50189706
1716268288864271488,-0.009,,729.0,,7.509591428
1716268288871965856,-0.046,,,,7.517285796
1716268288879660224,-0.072,,,,7.524980164
1716268288887354592,-0.123,,,,7.532674532
1716268288895048960,-0.191,,,,7.5403689
1716268288902743328,-0.254,,,,7.548063268
1716268288910437696,-0.349,,,,7.555757636
1716268288918132064,-0.451,,,,7.563452004
1716268288925826432,-0.531,,,,7.571146372
1716268288933520800,-0.582,,,,7.57884074
1716268288941215168,-0.615,,,,7.586535108
1716268288948909536,-0.64,,,,7.594229476
1716268288956603904,-0.649,,,,7.601923844
1716268288964298272,-0.664,,,,7.609618212
1716268288971992640,-0.6930000000000001,,,,7.61731258
1716268288979687008,-0.7030000000000001,,,,7.625006948
1716268288987381376,-0.732,,,,7.632701316
1716268288995075744,-0.785,,,,7.640395684
1716268289002770112,-0.8170000000000001,,,,7.648090052
1716268289010464480,-0.851,,,,7.65578442
1716268289018158848,-0.892,,,,7.663478788
1716268289025853216,-0.923,,,,7.671173156
1716268289033547584,-0.95,,,,7.678867524
1716268289041241952,-0.97,,,,7.686561892
1716268289048936320,-1.008,,,,7.69425626
1716268289056630688,-1.05,,,,7.701950628
1716268289064325056,-1.079,,,,7.709644996
1716268289072019424,-1.096,,,,7.717339364
1716268289079713792,-1.103,,,,7.725033732
1716268289087408160,-1.117,,,,7.7327281
1716268289095102528,-1.12,,,,7.740422468
1716268289102796896,-1.11,,,,7.748116836
1716268289110491264,-1.122,,,,7.755811204
1716268289118185632,-1.132,,,,7.763505572
1716268289125880000,-1.13,,,,7.77119994
1716268289133574368,-1.134,,,,7.778894308
1716268289141268736,-1.144,,,,7.786588676
1716268289148963104,-1.159,,,,7.794283044
1716268289156657472,-1.161,,,,7.801977412
1716268289164351840,-1.147,,,,7.80967178
1716268289172046208,-1.137,,,,7.817366148
1716268289179740576,-1.122,,,,7.825060516
1716268289187434944,-1.105,,,,7.832754884
1716268289195129312,-1.084,,,,7.840449252
1716268289202823680,-1.052,,,,7.84814362
1716268289210518048,-1.035,,,,7.855837988
1716268289218212428,-1.004,83.0,,,7.863532368
1716268289225906796,-0.948,,,,7.871226736
1716268289233601164,-0.902,,,,7.878921104
1716268289241295532,-0.856,,,,7.886615472
1716268289248989900,-0.8190000000000001,,,,7.89430984
1716268289256684268,-0.795,,,,7.902004208
1716268289264378636,-0.773,,,,7.909698576
1716268289272073004,-0.751,,,,7.917392944
1716268289279767372,-0.712,,,,7.925087312
1716268289287461740,-0.676,,,,7.93278168
1716268289295156108,-0.654,,,,7.940476048
1716268289302850476,-0.625,,,,7.948170416
1716268289310544844,-0.589,,,,7.955864784
1716268289318239212,-0.55,,,,7.963559152
1716268289325933580,-0.533,,,,7.97125352
1716268289333627948,-0.516,,,,7.978947888
1716268289341322316,-0.366,,,,7.986642256
1716268289349016684,-0.029,,,,7.994336624
1716268289356711052,0.327,,,,8.002030992
1716268289364405420,0.388,,,,8.00972536
1716268289372099788,-0.058,,,,8.017419728
1716268289379794156,-0.584,,,,8.025114096
1716268289387488524,-0.584,,,,8.032808464
1716268289395182892,-0.341,,,,8.040502832
1716268289402877260,-0.356,,,,8.0481972
1716268289410571628,-0.426,,,,8.055891568
1716268289418265996,-0.351,,,,8.063585936
1716268289425960364,-0.32,,,,8.071280304
1716268289433654732,-0.339,,,,8.078974672
1716268289441349100,-0.305,,,,8.08666904
1716268289449043468,-0.276,,,,8.094363408
1716268289456737836,-0.266,,,,8.102057776
1716268289464432204,-0.237,,,,8.109752144
1716268289472126572,-0.215,,,,8.117446512
1716268289479820940,-0.196,,,,8.12514088
1716268289487515308,-0.177,,,,8.132835248
1716268289495209676,-0.152,,,,8.140529616
1716268289502904044,-0.128,,,,8.148223984
1716268289510598412,-0.118,,,,8.155918352
1716268289518292780,-0.099,,,,8.16361272
1716268289525987148,-0.077,,,,8.171307088
1716268289533681516,-0.07,,,,8.179001456
1716268289541375884,-0.053,,,,8.186695824
1716268289549070252,-0.041,,,,8.194390192
1716268289556764620,-0.026,,,,8.20208456
1716268289564458988,-0.014,,,,8.209778928
1716268289572153356,-0.014,,,,8.217473296
1716268289579847724,-0.002,,,,8.225167664
1716268289587542092,0.004,,,,8.232862032
1716268289595236460,-0.002,,,,8.2405564
1716268289602930828,-0.002,,741.0,,8.248250768
1716268289610625196,-0.009,,,,8.255945136
1716268289618319564,-0.014,,,,8.263639504
1716268289626013932,-0.021,,,,8.271333872
1716268289633708300,-0.029,,,,8.27902824
1716268289641402668,-0.026,,,,8.286722608
1716268289649097036,-0.031,,,,8.294416976
1716268289656791404,-0.036,,,,8.302111344
1716268289664485772,-0.033,,,,8.309805712
1716268289672180140,-0.038,,,,8.31750008
1716268289679874508,-0.038,,,,8.325194448
1716268289687568876,-0.033,,,,8.332888816
1716268289695263244,-0.033,,,,8.340583184
1716268289702957612,-0.024,,,,8.348277552
1716268289710651980,-0.012,,,,8.35597192
1716268289718346348,-0.009,,,,8.363666288
1716268289726040716,0.0,,,,8.371360656
1716268289733735084,0.009,,,,8.379055024
1716268289741429452,0.002,,,,8.386749392
1716268289749123820,-0.026,,,,8.39444376
1716268289756818188,-0.031,,,,8.402138128
1716268289764512556,-0.024,,,,8.409832496
1716268289772206924,-0.026,,,,8.417526864
1716268289779901304,-0.024,,,,8.425221244
1716268289787595672,-0.016,,,,8.432915612
1716268289795290040,-0.019,,,,8.44060998
1716268289802984408,-0.036,,,,8.448304348
1716268289810678776,-0.046,,,,8.455998716
1716268289818373144,-0.029,,,,8.463693084
1716268289826067512,-0.029,,,,8.471387452
1716268289833761880,-0.048,,,,8.47908182
1716268289841456248,-0.053,,,,8.486776188
1716268289849150616,-0.053,,,,8.494470556
1716268289856844984,-0.055,,,,8.502164924
1716268289864539352,-0.065,,,,8.509859292
1716268289872233720,-0.077,,,,8.51755366
1716268289879928088,-0.06,,,,8.525248028
1716268289887622456,-0.046,,,,8.532942396
1716268289895316824,-0.043,,,,8.540636764
1716268289903011192,-0.041,,,,8.548331132
1716268289910705560,-0.058,,,,8.5560255
1716268289918399928,-0.072,,,,8.563719868
1716268289926094296,-0.077,,,,8.571414236
1716268289933788664,-0.084,,,,8.579108604
1716268289941483032,-0.094,,,,8.586802972
1716268289949177400,-0.106,,,,8.59449734
1716268289956871768,-0.106,,,,8.602191708
1716268289964566136,-0.094,,,,8.609886076
1716268289972260504,-0.092,,,,8.617580444
1716268289979954872,-0.089,,,,8.625274812
1716268289987649240,-0.104,,,,8.63296918
1716268289995343608,-0.021,,,,8.640663548
1716268290003037976,0.261,,,,8.648357916
1716268290010732344,0.606,,,,8.656052284
1716268290018426712,0.7030000000000001,,,,8.663746652
1716268290026121080,0.303,,,,8.67144102
1716268290033815448,-0.337,,,,8.679135388
1716268290041509816,-0.54,,,,8.686829756
1716268290049204184,-0.373,,,,8.694524124
1716268290056898552,-0.395,,,,8.702218492
1716268290064592920,-0.504,,,,8.70991286
1716268290072287288,-0.417,,,,8.717607228
1716268290079981656,-0.286,,,,8.725301596
1716268290087676024,-0.213,,,,8.732995964
1716268290095370392,-0.084,,,,8.740690332
1716268290103064760,0.046,,,,8.7483847
1716268290110759128,0.116,,,,8.756079068
1716268290118453496,0.21,,,,8.763773436
1716268290126147864,0.3,,,,8.771467804
1716268290133842232,0.341,,,,8.779162172
1716268290141536600,0.395,,,,8.78685654
1716268290149230968,0.441,,,,8.794550908
1716268290156925336,0.47,,,,8.802245276
1716268290164619704,0.487,,,,8.809939644
1716268290172314072,0.485,,,,8.817634012
1716268290180008440,0.477,,,,8.82532838
1716268290187702808,0.475,,,,8.833022748
1716268290195397176,0.482,,,,8.840717116
1716268290203091544,0.499,,,,8.848411484
1716268290210785912,0.499,,,,8.856105852
1716268290218480280,0.504,,,,8.86380022
1716268290226174648,0.521,,,,8.871494588
1716268290233869016,0.528,,,,8.879188956
1716268290241563384,0.526,,,,8.886883324
1716268290249257752,0.523,,,,8.894577692
1716268290256952120,0.528,,,,8.90227206
1716268290264646488,0.528,,,,8.909966428
1716268290272340856,0.514,,,,8.917660796
1716268290280035224,0.523,,,,8.925355164
1716268290287729592,0.528,,,,8.933049532
1716268290295423960,0.518,,,,8.9407439
1716268290303118328,0.523,,,,8.948438268
1716268290310812696,0.516,,,,8.956132636
1716268290318507064,0.499,,,,8.963827004
1716268290326201432,0.502,,,,8.971521372
1716268290333895800,0.509,,,,8.97921574
1716268290341590180,0.506,83.0,739.0,,8.98691012
1716268290349284548,0.499,,,,8.994604488
1716268290356978916,0.499,,,,9.002298856
1716268290364673284,0.499,,,,9.009993224
1716268290372367652,0.485,,,,9.017687592
1716268290380062020,0.472,,,,9.02538196
1716268290387756388,0.468,,,,9.033076328
1716268290395450756,0.46,,,,9.040770696
1716268290403145124,0.446,,,,9.048465064
1716268290410839492,0.421,,,,9.056159432
1716268290418533860,0.412,,,,9.0638538
1716268290426228228,0.409,,,,9.071548168
1716268290433922596,0.388,,,,9.079242536
1716268290441616964,0.368,,,,9.086936904
1716268290449311332,0.358,,,,9.094631272
1716268290457005700,0.351,,,,9.10232564
1716268290464700068,0.341,,,,9.110020008
1716268290472394436,0.327,,,,9.117714376
1716268290480088804,0.324,,,,9.125408744
1716268290487783172,0.322,,,,9.133103112
1716268290495477540,0.315,,,,9.14079748
1716268290503171908,0.31,,,,9.148491848
1716268290510866276,0.298,,,,9.156186216
1716268290518560644,0.295,,,,9.163880584
1716268290526255012,0.283,,,,9.171574952
1716268290533949380,0.271,,,,9.17926932
1716268290541643748,0.295,,,,9.186963688
1716268290549338116,0.31,,,,9.194658056
1716268290557032484,0.303,,,,9.202352424
1716268290564726852,0.293,,,,9.210046792
1716268290572421220,0.283,,,,9.21774116
1716268290580115588,0.281,,,,9.225435528
1716268290587809956,0.264,,,,9.233129896
1716268290595504324,0.237,,,,9.240824264
1716268290603198692,0.237,,,,9.248518632
1716268290610893060,0.242,,,,9.256213
1716268290618587428,0.242,,,,9.263907368
1716268290626281796,0.242,,,,9.271601736
1716268290633976164,0.237,,,,9.279296104
1716268290641670532,0.227,,,,9.286990472
1716268290649364900,0.274,,,,9.29468484
1716268290657059268,0.514,,,,9.302379208
1716268290664753636,0.865,,,,9.310073576
1716268290672448004,0.989,,,,9.317767944
1716268290680142372,0.645,,,,9.325462312
1716268290687836740,0.094,,,,9.33315668
1716268290695531108,-0.043,,,,9.340851048
1716268290703225476,0.181,,,,9.348545416
1716268290710919844,0.232,,,,9.356239784
1716268290718614212,0.155,,,,9.363934152
1716268290726308580,0.181,,,,9.37162852
1716268290734002948,0.206,,,,9.379322888
1716268290741697316,0.184,,,,9.387017256
1716268290749391684,0.194,,,,9.394711624
1716268290757086052,0.223,,,,9.402405992
1716268290764780420,0.232,,,,9.41010036
1716268290772474788,0.223,,,,9.417794728
1716268290780169156,0.23,,,,9.425489096
1716268290787863524,0.237,,,,9.433183464
1716268290795557892,0.242,,,,9.440877832
1716268290803252260,0.259,,,,9.4485722
1716268290810946628,0.269,,,,9.456266568
1716268290818640996,0.266,,,,9.463960936
1716268290826335364,0.261,,,,9.471655304
1716268290834029732,0.261,,,,9.479349672
1716268290841724100,0.271,,,,9.48704404
1716268290849418468,0.254,,,,9.494738408
1716268290857112836,0.237,,,,9.502432776
1716268290864807204,0.244,,,,9.510127144
1716268290872501572,0.242,,,,9.517821512
1716268290880195940,0.232,,,,9.52551588
1716268290887890308,0.22,,,,9.533210248
1716268290895584676,0.215,,,,9.540904616
1716268290903279058,0.213,,,,9.548598998
1716268290910973426,0.186,,,,9.556293366
1716268290918667794,0.184,,,,9.563987734
1716268290926362162,0.191,,,,9.571682102
1716268290934056530,0.184,,,,9.57937647
1716268290941750898,0.186,,,,9.587070838
1716268290949445266,0.186,,,,9.594765206
1716268290957139634,0.181,,,,9.602459574
1716268290964834002,0.186,,,,9.610153942
1716268290972528370,0.184,,,,9.61784831
1716268290980222738,0.186,,,,9.625542678
1716268290987917106,0.203,,,,9.633237046
1716268290995611474,0.23,,,,9.640931414
1716268291003305842,0.249,,,,9.648625782
1716268291011000210,0.252,,,,9.65632015
1716268291018694578,0.266,,,,9.664014518
1716268291026388946,0.288,,,,9.671708886
1716268291034083314,0.295,,,,9.679403254
1716268291041777682,0.3,,,,9.687097622
1716268291049472050,0.303,,703.0,,9.69479199
1716268291057166418,0.305,,,,9.702486358
1716268291064860786,0.31,,,,9.710180726
1716268291072555154,0.317,,,,9.717875094
1716268291080249522,0.339,,,,9.725569462
1716268291087943890,0.339,,,,9.73326383
1716268291095638258,0.312,,,,9.740958198
1716268291103332626,0.312,,,,9.748652566
1716268291111026994,0.327,,,,9.756346934
1716268291118721362,0.346,,,,9.764041302
1716268291126415730,0.368,,,,9.77173567
1716268291134110098,0.378,,,,9.779430038
1716268291141804466,0.385,,,,9.787124406
1716268291149498834,0.395,,,,9.794818774
1716268291157193202,0.409,,,,9.802513142
1716268291164887570,0.419,,,,9.81020751
1716268291172581938,0.412,,,,9.817901878
1716268291180276306,0.429,,,,9.825596246
1716268291187970674,0.448,,,,9.833290614
1716268291195665042,0.453,,,,9.840984982
1716268291203359410,0.472,,,,9.84867935
1716268291211053778,0.492,,,,9.856373718
1716268291218748146,0.497,,,,9.864068086
1716268291226442514,0.489,,,,9.871762454
1716268291234136882,0.485,,,,9.879456822
1716268291241831250,0.494,,,,9.88715119
1716268291249525618,0.487,,,,9.894845558
1716268291257219986,0.482,,,,9.902539926
1716268291264914354,0.497,,,,9.910234294
1716268291272608722,0.502,,,,9.917928662
1716268291280303090,0.514,,,,9.92562303
1716268291287997458,0.504,,,,9.933317398
1716268291295691826,0.521,,,,9.941011766
1716268291303386194,0.717,,,,9.948706134
1716268291311080562,1.059,,,,9.956400502
1716268291318774930,1.282,,,,9.96409487
1716268291326469298,1.11,,,,9.971789238
1716268291334163666,0.613,,,,9.979483606
1716268291341858034,0.346,,,,9.987177974
1716268291349552402,0.506,,,,9.994872342
1716268291357246770,0.652,,,,10.00256671
1716268291364941138,0.615,,,,10.010261078
1716268291372635506,0.625,,,,10.017955446
1716268291380329874,0.7000000000000001,,,,10.025649814
1716268291388024242,0.71,,,,10.033344182
1716268291395718610,0.727,,,,10.04103855
1716268291403412978,0.793,,,,10.048732918
1716268291411107346,0.8220000000000001,,,,10.056427286
1716268291418801714,0.848,,,,10.064121654
1716268291426496082,0.887,,,,10.071816022
1716268291434190450,0.919,,,,10.07951039
1716268291441884818,0.974,,,,10.087204758
1716268291449579186,1.02,,,,10.094899126
1716268291457273554,1.059,,,,10.102593494
1716268291464967934,1.096,84.0,,,10.110287874
1716268291472662302,1.13,,,,10.117982242
1716268291480356670,1.185,,,,10.12567661
1716268291488051038,1.231,,,,10.133370978
1716268291495745406,1.248,,,,10.141065346
1716268291503439774,1.278,,,,10.148759714
1716268291511134142,1.309,,,,10.156454082
1716268291518828510,1.336,,,,10.16414845
1716268291526522878,1.336,,,,10.171842818
1716268291534217246,1.321,,,,10.179537186
1716268291541911614,1.324,,,,10.187231554
1716268291549605982,1.316,,,,10.194925922
1716268291557300350,1.311,,,,10.20262029
1716268291564994718,1.319,,,,10.210314658
1716268291572689086,1.299,,,,10.218009026
1716268291580383454,1.28,,,,10.225703394
1716268291588077822,1.273,,,,10.233397762
1716268291595772190,1.27,,,,10.24109213
1716268291603466558,1.275,,,,10.248786498
1716268291611160926,1.251,,,,10.256480866
1716268291618855294,1.222,,,,10.264175234
1716268291626549662,1.205,,,,10.271869602
1716268291634244030,1.185,,,,10.27956397
1716268291641938398,1.183,,,,10.287258338
1716268291649632766,1.173,,,,10.294952706
1716268291657327134,1.151,,,,10.302647074
1716268291665021502,1.134,,,,10.310341442
1716268291672715870,1.117,,,,10.31803581
1716268291680410238,1.113,,,,10.325730178
1716268291688104606,1.103,,,,10.333424546
1716268291695798974,1.086,,,,10.341118914
1716268291703493342,1.076,,,,10.348813282
1716268291711187710,1.052,,,,10.35650765
1716268291718882078,1.03,,,,10.364202018
1716268291726576446,1.018,,,,10.371896386
1716268291734270814,0.996,,687.0,,10.379590754
1716268291741965182,0.982,,,,10.387285122
1716268291749659550,0.96,,,,10.39497949
1716268291757353918,0.938,,,,10.402673858
1716268291765048286,0.94,,,,10.410368226
1716268291772742654,0.919,,,,10.418062594
1716268291780437022,0.899,,,,10.425756962
1716268291788131390,0.923,,,,10.43345133
1716268291795825758,0.931,,,,10.441145698
1716268291803520126,0.88,,,,10.448840066
1716268291811214494,0.846,,,,10.456534434
1716268291818908862,0.853,,,,10.464228802
1716268291826603230,0.841,,,,10.47192317
1716268291834297598,0.8220000000000001,,,,10.479617538
1716268291841991966,0.8220000000000001,,,,10.487311906
1716268291849686334,0.802,,,,10.495006274
1716268291857380702,0.778,,,,10.502700642
1716268291865075070,0.759,,,,10.51039501
1716268291872769438,0.725,,,,10.518089378
1716268291880463806,0.7030000000000001,,,,10.525783746
1716268291888158174,0.686,,,,10.533478114
1716268291895852542,0.664,,,,10.541172482
1716268291903546910,0.642,,,,10.54886685
1716268291911241278,0.601,,,,10.556561218
1716268291918935646,0.5720000000000001,,,,10.564255586
1716268291926630014,0.54,,,,10.571949954
1716268291934324382,0.5670000000000001,,,,10.579644322
1716268291942018750,0.788,,,,10.58733869
1716268291949713118,1.088,,,,10.595033058
1716268291957407486,1.161,,,,10.602727426
1716268291965101854,0.788,,,,10.610421794
1716268291972796222,0.237,,,,10.618116162
1716268291980490590,0.08,,,,10.62581053
1716268291988184958,0.208,,,,10.633504898
1716268291995879326,0.15,,,,10.641199266
1716268292003573694,-0.026,,,,10.648893634
1716268292011268062,-0.152,,,,10.656588002
1716268292018962430,-0.291,,,,10.66428237
1716268292026656810,-0.475,,,,10.67197675
1716268292034350899,-0.671,,,,10.679670839
1716268292042044988,-0.887,,,,10.687364928
1716268292049739077,-1.149,,,,10.695059017
1716268292057433166,-1.394,,,,10.702753106
1716268292065127255,-1.583,,,,10.710447195
1716268292072821344,-1.75,,,,10.718141284
1716268292080515433,-1.906,,,,10.725835373
1716268292088209522,-2.039,,,,10.733529462
1716268292095903611,-2.129,,,,10.741223551
1716268292103597700,-2.185,,,,10.74891764
1716268292111291789,-2.243,,,,10.756611729
1716268292118985878,-2.265,,,,10.764305818
1716268292126679967,-2.231,,,,10.771999907
1716268292134374056,-2.185,,,,10.779693996
1716268292142068145,-2.136,,,,10.787388085
1716268292149762234,-2.083,,,,10.795082174
1716268292157456323,-2.02,,,,10.802776263
1716268292165150412,-1.944,,,,10.810470352
1716268292172844501,-1.872,,,,10.818164441
1716268292180538590,-1.799,,,,10.82585853
1716268292188232679,-1.726,,,,10.833552619
1716268292195926768,-1.639,,,,10.841246708
1716268292203620857,-1.544,,,,10.848940797
1716268292211314946,-1.469,,,,10.856634886
1716268292219009035,-1.379,,,,10.864328975
1716268292226703124,-1.28,,,,10.872023064
1716268292234397213,-1.195,,,,10.879717153
1716268292242091302,-1.105,,,,10.887411242
1716268292249785391,-1.016,,,,10.895105331
1716268292257479480,-0.921,,,,10.90279942
1716268292265173569,-0.8260000000000001,,,,10.910493509
1716268292272867658,-0.742,,,,10.918187598
1716268292280561747,-0.654,,,,10.925881687
1716268292288255836,-0.586,,,,10.933575776
1716268292295949925,-0.545,,,,10.941269865
1716268292303644014,-0.502,,,,10.948963954
1716268292311338103,-0.453,,,,10.956658043
1716268292319032192,-0.412,,,,10.964352132
1716268292326726281,-0.385,,,,10.972046221
1716268292334420370,-0.363,,,,10.97974031
1716268292342114459,-0.332,,,,10.987434399
1716268292349808548,-0.32,,,,10.995128488
1716268292357502637,-0.312,,,,11.002822577
1716268292365196726,-0.291,,,,11.010516666
1716268292372890815,-0.286,,,,11.018210755
1716268292380584904,-0.278,,,,11.025904844
1716268292388278993,-0.271,,,,11.033598933
1716268292395973082,-0.276,,,,11.041293022
1716268292403667171,-0.269,,,,11.048987111
1716268292411361260,-0.257,,674.0,,11.0566812
1716268292419055349,-0.249,,,,11.064375289
1716268292426749438,-0.264,,,,11.072069378
1716268292434443527,-0.278,,,,11.079763467
1716268292442137616,-0.266,,,,11.087457556
1716268292449831705,-0.249,,,,11.095151645
1716268292457525794,-0.235,,,,11.102845734
1716268292465219883,-0.227,,,,11.110539823
1716268292472913972,-0.24,,,,11.118233912
1716268292480608061,-0.257,,,,11.125928001
1716268292488302150,-0.264,,,,11.13362209
1716268292495996239,-0.261,,,,11.141316179
1716268292503690328,-0.259,,,,11.149010268
1716268292511384417,-0.264,,,,11.156704357
1716268292519078506,-0.252,,,,11.164398446
1716268292526772595,-0.237,,,,11.172092535
1716268292534466684,-0.242,,,,11.179786624
1716268292542160773,-0.237,,,,11.187480713
1716268292549854862,-0.232,,,,11.195174802
1716268292557548951,-0.143,,,,11.202868891
1716268292565243040,0.145,,,,11.21056298
1716268292572937129,0.506,,,,11.218257069
1716268292580631218,0.596,,,,11.225951158
1716268292588325342,0.169,85.0,,,11.233645282
1716268292596019640,-0.373,,,,11.24133958
1716268292603713938,-0.409,,,,11.249033878
1716268292611408236,-0.181,,,,11.256728176
1716268292619102534,-0.184,,,,11.264422474
1716268292626796832,-0.264,,,,11.272116772
1716268292634491130,-0.22,,,,11.27981107
1716268292642185428,-0.179,,,,11.287505368
1716268292649879726,-0.189,,,,11.295199666
1716268292657574024,-0.169,,,,11.302893964
1716268292665268322,-0.138,,,,11.310588262
1716268292672962620,-0.133,,,,11.31828256
1716268292680656918,-0.113,,,,11.325976858
1716268292688351216,-0.084,,,,11.333671156
1716268292696045514,-0.072,,,,11.341365454
1716268292703739812,-0.063,,,,11.349059752
1716268292711434110,-0.043,,,,11.35675405
1716268292719128408,-0.026,,,,11.364448348
1716268292726822706,-0.012,,,,11.372142646
1716268292734517004,0.007,,,,11.379836944
1716268292742211302,0.031,,,,11.387531242
1716268292749905600,0.048,,,,11.39522554
1716268292757599898,0.063,,,,11.402919838
1716268292765294196,0.08,,,,11.410614136
1716268292772988494,0.097,,,,11.418308434
1716268292780682792,0.121,,,,11.426002732
1716268292788377090,0.143,,,,11.43369703
1716268292796071388,0.174,,,,11.441391328
1716268292803765686,0.208,,,,11.449085626
1716268292811459984,0.23,,,,11.456779924
1716268292819154282,0.254,,,,11.464474222
1716268292826848580,0.283,,,,11.47216852
1716268292834542878,0.307,,,,11.479862818
1716268292842237176,0.341,,,,11.487557116
1716268292849931474,0.368,,,,11.495251414
1716268292857625772,0.388,,,,11.502945712
1716268292865320070,0.412,,,,11.51064001
1716268292873014368,0.434,,,,11.518334308
1716268292880708666,0.468,,,,11.526028606
1716268292888402964,0.502,,,,11.533722904
1716268292896097262,0.528,,,,11.541417202
1716268292903791560,0.5670000000000001,,,,11.5491115
1716268292911485858,0.596,,,,11.556805798
1716268292919180156,0.628,,,,11.564500096
1716268292926874454,0.671,,,,11.572194394
1716268292934568752,0.6960000000000001,,,,11.579888692
1716268292942263050,0.7000000000000001,,,,11.58758299
1716268292949957348,0.715,,,,11.595277288
1716268292957651646,0.734,,,,11.602971586
1716268292965345944,0.754,,,,11.610665884
1716268292973040242,0.768,,,,11.618360182
1716268292980734540,0.768,,,,11.62605448
1716268292988428838,0.756,,,,11.633748778
1716268292996123136,0.732,,,,11.641443076
1716268293003817434,0.727,,,,11.649137374
1716268293011511732,0.739,,,,11.656831672
1716268293019206030,0.739,,,,11.66452597
1716268293026900328,0.727,,,,11.672220268
1716268293034594626,0.71,,,,11.679914566
1716268293042288924,0.705,,,,11.687608864
1716268293049983222,0.717,,,,11.695303162
1716268293057677520,0.742,,,,11.70299746
1716268293065371818,0.785,,655.0,,11.710691758
1716268293073066116,0.8240000000000001,,,,11.718386056
1716268293080760414,0.848,,,,11.726080354
1716268293088454712,0.868,,,,11.733774652
1716268293096149010,0.882,,,,11.74146895
1716268293103843308,0.899,,,,11.749163248
1716268293111537606,0.911,,,,11.756857546
1716268293119231904,0.931,,,,11.764551844
1716268293126926202,0.967,,,,11.772246142
1716268293134620500,0.984,,,,11.77994044
1716268293142314798,0.979,,,,11.787634738
1716268293150009132,1.004,86.0,,,11.795329072
1716268293157703430,1.033,,,,11.80302337
1716268293165397728,1.067,,,,11.810717668
1716268293173092026,1.219,,,,11.818411966
1716268293180786324,1.51,,,,11.826106264
1716268293188480622,1.758,,,,11.833800562
1716268293196174920,1.707,,,,11.84149486
1716268293203869218,1.285,,,,11.849189158
1716268293211563516,0.926,,,,11.856883456
1716268293219257814,1.004,,,,11.864577754
1716268293226952112,1.173,,,,11.872272052
1716268293234646410,1.139,,,,11.87996635
1716268293242340708,1.113,,,,11.887660648
1716268293250035006,1.159,,,,11.895354946
1716268293257729304,1.159,,,,11.903049244
1716268293265423602,1.144,,,,11.910743542
1716268293273117900,1.168,,,,11.91843784
1716268293280812198,1.185,,,,11.926132138
1716268293288506496,1.171,,,,11.933826436
1716268293296200794,1.173,,,,11.941520734
1716268293303895092,1.193,,,,11.949215032
1716268293311589390,1.188,,,,11.95690933
1716268293319283688,1.181,,,,11.964603628
1716268293326977986,1.185,,,,11.972297926
1716268293334672284,1.183,,,,11.979992224
1716268293342366582,1.178,,,,11.987686522
1716268293350060880,1.185,,,,11.99538082
1716268293357755178,1.188,,,,12.003075118
1716268293365449476,1.183,,,,12.010769416
1716268293373143774,1.183,,,,12.018463714
1716268293380838072,1.181,,,,12.026158012
1716268293388532370,1.171,,,,12.03385231
1716268293396226668,1.168,,,,12.041546608
1716268293403920966,1.161,,,,12.049240906
1716268293411615264,1.134,,,,12.056935204
1716268293419309562,1.125,,,,12.064629502
1716268293427003860,1.125,,,,12.0723238
1716268293434698158,1.101,,,,12.080018098
1716268293442392456,1.067,,,,12.087712396
1716268293450086754,1.064,,,,12.095406694
1716268293457781052,1.069,,,,12.103100992
1716268293465475350,1.052,,,,12.11079529
1716268293473169648,1.018,,,,12.118489588
1716268293480863946,0.999,,,,12.126183886
1716268293488558244,0.987,,,,12.133878184
1716268293496252542,0.962,,,,12.141572482
1716268293503946840,0.938,,,,12.14926678
1716268293511641138,0.931,,,,12.156961078
1716268293519335436,0.928,,,,12.164655376
1716268293527029734,0.923,,,,12.172349674
1716268293534724032,0.916,,,,12.180043972
1716268293542418330,0.904,,,,12.18773827
1716268293550112628,0.89,,,,12.195432568
1716268293557806926,0.863,,,,12.203126866
1716268293565501224,0.841,,,,12.210821164
1716268293573195522,0.8290000000000001,,,,12.218515462
1716268293580889820,0.812,,,,12.22620976
1716268293588584118,0.8,,,,12.233904058
1716268293596278416,0.79,,,,12.241598356
1716268293603972714,0.785,,,,12.249292654
1716268293611667012,0.771,,,,12.256986952
1716268293619361310,0.732,,,,12.26468125
1716268293627055608,0.7030000000000001,,,,12.272375548
1716268293634749906,0.705,,,,12.280069846
1716268293642444204,0.6980000000000001,,,,12.287764144
1716268293650138502,0.664,,,,12.295458442
1716268293657832800,0.647,,,,12.30315274
1716268293665527098,0.652,,,,12.310847038
1716268293673221396,0.649,,,,12.318541336
1716268293680915694,0.647,,,,12.326235634
1716268293688609992,0.642,,,,12.333929932
1716268293696304290,0.628,,,,12.34162423
1716268293703998588,0.613,,,,12.349318528
1716268293711692922,0.589,,,,12.357012862
1716268293719387290,0.562,,654.0,,12.36470723
1716268293727081658,0.552,,,,12.372401598
1716268293734776026,0.531,,,,12.380095966
1716268293742470394,0.504,,,,12.387790334
1716268293750164762,0.518,,,,12.395484702
1716268293757859130,0.535,,,,12.40317907
1716268293765553498,0.511,,,,12.410873438
1716268293773247866,0.511,,,,12.418567806
1716268293780942234,0.662,,,,12.426262174
1716268293788636602,0.94,,,,12.433956542
1716268293796330970,1.13,,,,12.44165091
1716268293804025338,0.994,,,,12.449345278
1716268293811719706,0.548,,,,12.457039646
1716268293819414074,0.254,,,,12.464734014
1716268293827108442,0.366,,,,12.472428382
1716268293834802810,0.502,,,,12.48012275
1716268293842497178,0.455,,,,12.487817118
1716268293850191546,0.429,,,,12.495511486
1716268293857885914,0.468,,,,12.503205854
1716268293865580282,0.465,,,,12.510900222
1716268293873274650,0.448,,,,12.51859459
1716268293880969018,0.463,,,,12.526288958
1716268293888663386,0.472,,,,12.533983326
1716268293896357754,0.475,,,,12.541677694
1716268293904052122,0.485,,,,12.549372062
1716268293911746490,0.497,,,,12.55706643
1716268293919440858,0.506,,,,12.564760798
1716268293927135226,0.506,,,,12.572455166
1716268293934829594,0.499,,,,12.580149534
1716268293942523962,0.509,,,,12.587843902
1716268293950218330,0.518,,,,12.59553827
1716268293957912698,0.499,,,,12.603232638
1716268293965607066,0.485,,,,12.610927006
1716268293973301434,0.489,,,,12.618621374
1716268293980995802,0.494,,,,12.626315742
1716268293988690170,0.494,,,,12.63401011
1716268293996384538,0.502,,,,12.641704478
1716268294004078906,0.511,,,,12.649398846
1716268294011773274,0.511,,,,12.657093214
1716268294019467642,0.499,,,,12.664787582
1716268294027162010,0.485,,,,12.67248195
1716268294034856378,0.472,,,,12.680176318
1716268294042550746,0.468,,,,12.687870686
1716268294050245114,0.468,,,,12.695565054
1716268294057939482,0.468,,,,12.703259422
1716268294065633850,0.468,,,,12.71095379
1716268294073328218,0.47,,,,12.718648158
1716268294081022586,0.47,,,,12.726342526
1716268294088716954,0.468,,,,12.734036894
1716268294096411322,0.463,,,,12.741731262
1716268294104105690,0.458,,,,12.74942563
1716268294111800058,0.458,,,,12.757119998
1716268294119494426,0.465,,,,12.764814366
1716268294127188794,0.482,,,,12.772508734
1716268294134883162,0.487,,,,12.780203102
1716268294142577530,0.477,,,,12.78789747
1716268294150271898,0.48,,,,12.795591838
1716268294157966266,0.465,,,,12.803286206
1716268294165660634,0.443,,,,12.810980574
1716268294173355002,0.453,,,,12.818674942
1716268294181049370,0.48,,,,12.82636931
1716268294188743738,0.48,,,,12.834063678
1716268294196438106,0.47,,,,12.841758046
1716268294204132474,0.475,,,,12.849452414
1716268294211826842,0.485,,,,12.857146782
1716268294219521210,0.477,,,,12.86484115
1716268294227215578,0.463,,,,12.872535518
1716268294234909946,0.465,,,,12.880229886
1716268294242604314,0.472,,,,12.887924254
1716268294250298682,0.46,,,,12.895618622
1716268294257993050,0.419,,,,12.90331299
1716268294265687418,0.4,,,,12.911007358
1716268294273381798,0.417,88.0,,,12.918701738
1716268294281076166,0.417,,,,12.926396106
1716268294288770534,0.409,,,,12.934090474
1716268294296464902,0.417,,,,12.941784842
1716268294304159270,0.404,,,,12.94947921
1716268294311853638,0.373,,,,12.957173578
1716268294319548006,0.358,,,,12.964867946
1716268294327242374,0.351,,,,12.972562314
1716268294334936742,0.324,,,,12.980256682
1716268294342631110,0.305,,,,12.98795105
1716268294350325478,0.305,,,,12.995645418
1716268294358019846,0.298,,,,13.003339786
1716268294365714214,0.288,,648.0,,13.011034154
1716268294373408582,0.293,,,,13.018728522
1716268294381102950,0.281,,,,13.02642289
1716268294388797318,0.341,,,,13.034117258
1716268294396491686,0.557,,,,13.041811626
1716268294404186054,0.812,,,,13.049505994
1716268294411880422,0.848,,,,13.057200362
1716268294419574790,0.526,,,,13.06489473
1716268294427269158,0.123,,,,13.072589098
1716268294434963526,0.08,,,,13.080283466
1716268294442657894,0.252,,,,13.087977834
1716268294450352262,0.259,,,,13.095672202
1716268294458046630,0.194,,,,13.10336657
1716268294465740998,0.232,,,,13.111060938
1716268294473435366,0.254,,,,13.118755306
1716268294481129734,0.206,,,,13.126449674
1716268294488824102,0.189,,,,13.134144042
1716268294496518470,0.215,,,,13.14183841
1716268294504212838,0.237,,,,13.149532778
1716268294511907206,0.24,,,,13.157227146
1716268294519601574,0.237,,,,13.164921514
1716268294527295942,0.232,,,,13.172615882
1716268294534990310,0.23,,,,13.18031025
1716268294542684678,0.225,,,,13.188004618
1716268294550379046,0.225,,,,13.195698986
1716268294558073414,0.227,,,,13.203393354
1716268294565767782,0.223,,,,13.211087722
1716268294573462150,0.21,,,,13.21878209
1716268294581156518,0.206,,,,13.226476458
1716268294588850886,0.22,,,,13.234170826
1716268294596545254,0.22,,,,13.241865194
1716268294604239622,0.203,,,,13.249559562
1716268294611933990,0.186,,,,13.25725393
1716268294619628358,0.179,,,,13.264948298
1716268294627322726,0.174,,,,13.272642666
1716268294635017094,0.167,,,,13.280337034
1716268294642711462,0.155,,,,13.288031402
1716268294650405830,0.145,,,,13.29572577
1716268294658100198,0.14,,,,13.303420138
1716268294665794566,0.128,,,,13.311114506
1716268294673488934,0.118,,,,13.318808874
1716268294681183302,0.113,,,,13.326503242
1716268294688877670,0.101,,,,13.33419761
1716268294696572038,0.08,,,,13.341891978
1716268294704266406,0.067,,,,13.349586346
1716268294711960774,0.05,,,,13.357280714
1716268294719655142,0.026,,,,13.364975082
1716268294727349510,0.014,,,,13.37266945
1716268294735043878,0.004,,,,13.380363818
1716268294742738246,-0.014,,,,13.388058186
1716268294750432614,-0.038,,,,13.395752554
1716268294758126982,-0.06,,,,13.403446922
1716268294765821350,-0.082,,,,13.41114129
1716268294773515718,-0.104,,,,13.418835658
1716268294781210086,-0.126,,,,13.426530026
1716268294788904454,-0.157,,,,13.434224394
1716268294796598822,-0.196,,,,13.441918762
1716268294804293190,-0.225,,,,13.44961313
1716268294811987558,-0.252,,,,13.457307498
1716268294819681926,-0.286,,,,13.465001866
1716268294827376294,-0.324,,,,13.472696234
1716268294835070674,-0.366,,,,13.480390614
1716268294842765042,-0.402,,,,13.488084982
1716268294850459410,-0.441,,,,13.49577935
1716268294858153778,-0.472,,,,13.503473718
1716268294865848146,-0.499,,,,13.511168086
1716268294873542514,-0.533,,,,13.518862454
1716268294881236882,-0.5690000000000001,,,,13.526556822
1716268294888931250,-0.589,,,,13.53425119
1716268294896625618,-0.596,,,,13.541945558
1716268294904319986,-0.628,,,,13.549639926
1716268294912014354,-0.681,,,,13.557334294
1716268294919708722,-0.727,,,,13.565028662
1716268294927403090,-0.768,,,,13.57272303
1716268294935097458,-0.8170000000000001,,,,13.580417398
1716268294942791826,-0.851,,,,13.588111766
1716268294950486194,-0.877,,,,13.595806134
1716268294958180562,-0.911,,,,13.603500502
1716268294965874930,-0.936,,,,13.61119487
1716268294973569298,-0.95,,,,13.618889238
1716268294981263666,-0.962,,,,13.626583606
1716268294988958034,-0.979,,,,13.634277974
1716268294996652402,-0.972,,,,13.641972342
1716268295004346770,-0.841,,636.0,,13.64966671
1716268295012041138,-0.5720000000000001,,,,13.657361078
1716268295019735506,-0.383,,,,13.665055446
1716268295027429874,-0.54,,,,13.672749814
1716268295035124242,-0.991,,,,13.680444182
1716268295042818610,-1.263,,,,13.68813855
1716268295050512978,-1.151,,,,13.695832918
1716268295058207346,-1.028,,,,13.703527286
1716268295065901714,-1.069,,,,13.711221654
1716268295073596082,-1.098,,,,13.718916022
1716268295081290450,-1.069,,,,13.72661039
1716268295088984818,-1.081,,,,13.734304758
1716268295096679186,-1.113,,,,13.741999126
1716268295104373554,-1.113,,,,13.749693494
1716268295112067922,-1.113,,,,13.757387862
1716268295119762290,-1.122,,,,13.76508223
1716268295127456658,-1.115,,,,13.772776598
1716268295135151026,-1.108,,,,13.780470966
1716268295142845394,-1.115,,,,13.788165334
1716268295150539762,-1.105,,,,13.795859702
1716268295158234130,-1.088,,,,13.80355407
1716268295165928498,-1.117,,,,13.811248438
1716268295173622866,-1.149,,,,13.818942806
1716268295181317234,-1.122,,,,13.826637174
1716268295189011602,-1.086,,,,13.834331542
1716268295196705970,-1.067,,,,13.84202591
1716268295204400338,-1.042,,,,13.849720278
1716268295212094706,-1.018,,,,13.857414646
1716268295219789074,-0.996,,,,13.865109014
1716268295227483442,-0.972,,,,13.872803382
1716268295235177810,-0.955,,,,13.88049775
1716268295242872178,-0.94,,,,13.888192118
1716268295250566546,-0.931,,,,13.895886486
1716268295258260914,-0.923,,,,13.903580854
1716268295265955282,-0.911,,,,13.911275222
1716268295273649650,-0.894,,,,13.91896959
1716268295281344018,-0.87,,,,13.926663958
1716268295289038386,-0.851,,,,13.934358326
1716268295296732754,-0.843,,,,13.942052694
1716268295304427122,-0.836,,,,13.949747062
1716268295312121490,-0.8190000000000001,,,,13.95744143
1716268295319815858,-0.8,,,,13.965135798
1716268295327510226,-0.785,,,,13.972830166
1716268295335204594,-0.773,,,,13.980524534
1716268295342898962,-0.763,,,,13.988218902
1716268295350593330,-0.754,,,,13.99591327
1716268295358287698,-0.742,,,,14.003607638
1716268295365982066,-0.727,,,,14.011302006
1716268295373676434,-0.72,,,,14.018996374
1716268295381370802,-0.71,,,,14.026690742
1716268295389065170,-0.7000000000000001,,,,14.03438511
1716268295396759550,-0.6980000000000001,90.0,,,14.04207949
1716268295404453918,-0.6880000000000001,,,,14.049773858
1716268295412148286,-0.679,,,,14.057468226
1716268295419842654,-0.671,,,,14.065162594
1716268295427537022,-0.664,,,,14.072856962
1716268295435231390,-0.659,,,,14.08055133
1716268295442925758,-0.662,,,,14.088245698
1716268295450620126,-0.676,,,,14.095940066
1716268295458314494,-0.681,,,,14.103634434
1716268295466008862,-0.671,,,,14.111328802
1716268295473703230,-0.659,,,,14.11902317
1716268295481397598,-0.649,,,,14.126717538
1716268295489091966,-0.645,,,,14.134411906
1716268295496786334,-0.637,,,,14.142106274
1716268295504480702,-0.618,,,,14.149800642
1716268295512175070,-0.594,,,,14.15749501
1716268295519869438,-0.5670000000000001,,,,14.165189378
1716268295527563806,-0.548,,,,14.172883746
1716268295535258174,-0.56,,,,14.180578114
1716268295542952542,-0.582,,,,14.188272482
1716268295550646910,-0.586,,,,14.19596685
1716268295558341278,-0.582,,,,14.203661218
1716268295566035646,-0.582,,,,14.211355586
1716268295573730014,-0.5720000000000001,,,,14.219049954
1716268295581424382,-0.55,,,,14.226744322
1716268295589118750,-0.548,,,,14.23443869
1716268295596813118,-0.552,,,,14.242133058
1716268295604507486,-0.548,,,,14.249827426
1716268295612201854,-0.526,,,,14.257521794
1716268295619896222,-0.39,,,,14.265216162
1716268295627590590,-0.089,,622.0,,14.27291053
1716268295635284958,0.186,,,,14.280604898
1716268295642979326,0.138,,,,14.288299266
1716268295650673694,-0.312,,,,14.295993634
1716268295658368062,-0.708,,,,14.303688002
1716268295666062430,-0.647,,,,14.31138237
1716268295673756798,-0.455,,,,14.319076738
1716268295681451166,-0.463,,,,14.326771106
1716268295689145534,-0.494,,,,14.334465474
1716268295696839902,-0.446,,,,14.342159842
1716268295704534270,-0.421,,,,14.34985421
1716268295712228638,-0.426,,,,14.357548578
1716268295719923006,-0.409,,,,14.365242946
1716268295727617374,-0.385,,,,14.372937314
1716268295735311742,-0.373,,,,14.380631682
1716268295743006110,-0.354,,,,14.38832605
1716268295750700478,-0.339,,,,14.396020418
1716268295758394846,-0.329,,,,14.403714786
1716268295766089214,-0.307,,,,14.411409154
1716268295773783582,-0.288,,,,14.419103522
1716268295781477950,-0.274,,,,14.42679789
1716268295789172318,-0.257,,,,14.434492258
1716268295796866686,-0.235,,,,14.442186626
1716268295804561054,-0.22,,,,14.449880994
1716268295812255422,-0.206,,,,14.457575362
1716268295819949790,-0.189,,,,14.46526973
1716268295827644158,-0.172,,,,14.472964098
1716268295835338526,-0.164,,,,14.480658466
1716268295843032894,-0.15,,,,14.488352834
1716268295850727262,-0.143,,,,14.496047202
1716268295858421630,-0.143,,,,14.50374157
1716268295866115998,-0.135,,,,14.511435938
1716268295873810366,-0.126,,,,14.519130306
1716268295881504734,-0.121,,,,14.526824674
1716268295889199102,-0.118,,,,14.534519042
1716268295896893470,-0.116,,,,14.54221341
1716268295904587838,-0.104,,,,14.549907778
1716268295912282206,-0.094,,,,14.557602146
1716268295919976574,-0.092,,,,14.565296514
1716268295927670942,-0.082,,,,14.572990882
1716268295935365310,-0.072,,,,14.58068525
1716268295943059678,-0.065,,,,14.588379618
1716268295950754046,-0.067,,,,14.596073986
1716268295958448426,-0.07,,,,14.603768366
1716268295966142376,-0.065,,,,14.611462316
1716268295973836326,-0.055,,,,14.619156266
1716268295981530276,-0.043,,,,14.626850216
1716268295989224226,-0.033,,,,14.634544166
1716268295996918176,-0.029,,,,14.642238116
1716268296004612126,-0.024,,,,14.649932066
1716268296012306076,-0.026,,,,14.657626016
1716268296020000026,-0.026,,,,14.665319966
1716268296027693976,-0.024,,,,14.673013916
1716268296035387926,-0.024,,,,14.680707866
1716268296043081876,-0.026,,,,14.688401816
1716268296050775826,-0.021,,,,14.696095766
1716268296058469776,-0.016,,,,14.703789716
1716268296066163726,-0.016,,,,14.711483666
1716268296073857676,-0.021,,,,14.719177616
1716268296081551626,-0.019,,,,14.726871566
1716268296089245576,-0.019,,,,14.734565516
1716268296096939526,-0.019,,,,14.742259466
1716268296104633476,-0.014,,,,14.749953416
1716268296112327426,-0.012,,,,14.757647366
1716268296120021376,-0.009,,,,14.765341316
1716268296127715326,0.007,,,,14.773035266
1716268296135409276,0.029,,,,14.780729216
1716268296143103226,0.038,,,,14.788423166
1716268296150797176,0.031,,,,14.796117116
1716268296158491126,0.016,,,,14.803811066
1716268296166185076,0.012,,,,14.811505016
1716268296173879026,0.012,,,,14.819198966
1716268296181572976,0.002,,,,14.826892916
1716268296189266926,-0.009,,,,14.834586866
1716268296196960876,-0.007,,,,14.842280816
1716268296204654826,0.007,,,,14.849974766
1716268296212348776,0.014,,,,14.857668716
1716268296220042726,0.012,,,,14.865362666
1716268296227736676,0.009,,,,14.873056616
1716268296235430626,0.06,,613.0,,14.880750566
1716268296243124576,0.269,,,,14.888444516
1716268296250818526,0.5670000000000001,,,,14.896138466
1716268296258512476,0.722,,,,14.903832416
1716268296266206426,0.518,,,,14.911526366
1716268296273900376,0.043,,,,14.919220316
1716268296281594326,-0.203,,,,14.926914266
1716268296289288276,-0.038,,,,14.934608216
1716268296296982226,0.084,,,,14.942302166
1716268296304676176,0.019,,,,14.949996116
1716268296312370126,0.014,,,,14.957690066
1716268296320064076,0.063,,,,14.965384016
1716268296327758026,0.06,,,,14.973077966
1716268296335451976,0.053,,,,14.980771916
1716268296343145926,0.065,,,,14.988465866
1716268296350839876,0.065,,,,14.996159816
1716268296358533826,0.067,,,,15.003853766
1716268296366227776,0.084,,,,15.011547716
1716268296373921726,0.097,,,,15.019241666
1716268296381615676,0.104,,,,15.026935616
1716268296389309626,0.106,,,,15.034629566
1716268296397003576,0.099,,,,15.042323516
1716268296404697526,0.101,,,,15.050017466
1716268296412391476,0.121,,,,15.057711416
1716268296420085426,0.14,,,,15.065405366
1716268296427779376,0.145,,,,15.073099316
1716268296435473326,0.147,,,,15.080793266
1716268296443167276,0.155,,,,15.088487216
1716268296450861226,0.16,,,,15.096181166
1716268296458555176,0.155,,,,15.103875116
1716268296466249126,0.157,,,,15.111569066
1716268296473943076,0.16,,,,15.119263016
1716268296481637026,0.157,,,,15.126956966
1716268296489330976,0.162,,,,15.134650916
1716268296497024926,0.162,,,,15.142344866
1716268296504718876,0.16,,,,15.150038816
1716268296512412826,0.167,,,,15.157732766
1716268296520106784,0.177,92.0,,,15.165426724
1716268296527801152,0.174,,,,15.173121092
1716268296535495520,0.181,,,,15.18081546
1716268296543189888,0.184,,,,15.188509828
1716268296550884256,0.172,,,,15.196204196
1716268296558578624,0.164,,,,15.203898564
1716268296566272992,0.169,,,,15.211592932
1716268296573967360,0.174,,,,15.2192873
1716268296581661728,0.169,,,,15.226981668
1716268296589356096,0.172,,,,15.234676036
1716268296597050464,0.186,,,,15.242370404
1716268296604744832,0.201,,,,15.250064772
1716268296612439200,0.206,,,,15.25775914
1716268296620133568,0.21,,,,15.265453508
1716268296627827936,0.22,,,,15.273147876
1716268296635522304,0.21,,,,15.280842244
1716268296643216672,0.194,,,,15.288536612
1716268296650911040,0.201,,,,15.29623098
1716268296658605408,0.21,,,,15.303925348
1716268296666299776,0.21,,,,15.311619716
1716268296673994144,0.213,,,,15.319314084
1716268296681688512,0.213,,,,15.327008452
1716268296689382880,0.208,,,,15.33470282
1716268296697077248,0.213,,,,15.342397188
1716268296704771616,0.22,,,,15.350091556
1716268296712465984,0.215,,,,15.357785924
1716268296720160352,0.218,,,,15.365480292
1716268296727854720,0.223,,,,15.37317466
1716268296735549088,0.215,,,,15.380869028
1716268296743243456,0.21,,,,15.388563396
1716268296750937824,0.223,,,,15.396257764
1716268296758632192,0.23,,,,15.403952132
1716268296766326560,0.223,,,,15.4116465
1716268296774020928,0.218,,,,15.419340868
1716268296781715296,0.23,,,,15.427035236
1716268296789409664,0.24,,,,15.434729604
1716268296797104032,0.247,,,,15.442423972
1716268296804798400,0.261,,,,15.45011834
1716268296812492768,0.276,,,,15.457812708
1716268296820187136,0.269,,,,15.465507076
1716268296827881504,0.247,,,,15.473201444
1716268296835575872,0.235,,,,15.480895812
1716268296843270240,0.244,,606.0,,15.48859018
1716268296850964608,0.244,,,,15.496284548
1716268296858658976,0.237,,,,15.503978916
1716268296866353344,0.242,,,,15.511673284
1716268296874047712,0.247,,,,15.519367652
1716268296881742080,0.259,,,,15.52706202
1716268296889436448,0.269,,,,15.534756388
1716268296897130816,0.264,,,,15.542450756
1716268296904825184,0.298,,,,15.550145124
1716268296912519552,0.475,,,,15.557839492
1716268296920213920,0.749,,,,15.56553386
1716268296927908288,0.933,,,,15.573228228
1716268296935602656,0.805,,,,15.580922596
1716268296943297024,0.368,,,,15.588616964
1716268296950991392,0.07,,,,15.596311332
1716268296958685760,0.179,,,,15.6040057
1716268296966380128,0.317,,,,15.611700068
1716268296974074496,0.254,,,,15.619394436
1716268296981768864,0.22,,,,15.627088804
1716268296989463232,0.269,,,,15.634783172
1716268296997157600,0.266,,,,15.64247754
1716268297004851968,0.249,,,,15.650171908
1716268297012546336,0.266,,,,15.657866276
1716268297020240704,0.276,,,,15.665560644
1716268297027935072,0.276,,,,15.673255012
1716268297035629440,0.286,,,,15.68094938
1716268297043323808,0.288,,,,15.688643748
1716268297051018176,0.291,,,,15.696338116
1716268297058712544,0.293,,,,15.704032484
1716268297066406912,0.295,,,,15.711726852
1716268297074101280,0.298,,,,15.71942122
1716268297081795660,0.3,,,,15.7271156
1716268297089490028,0.305,,,,15.734809968
1716268297097184396,0.303,,,,15.742504336
1716268297104878764,0.307,,,,15.750198704
1716268297112573132,0.315,,,,15.757893072
1716268297120267500,0.31,,,,15.76558744
1716268297127961868,0.3,,,,15.773281808
1716268297135656236,0.298,,,,15.780976176
1716268297143350604,0.303,,,,15.788670544
1716268297151044972,0.298,,,,15.796364912
1716268297158739340,0.278,,,,15.80405928
1716268297166433708,0.271,,,,15.811753648
1716268297174128076,0.269,,,,15.819448016
1716268297181822444,0.266,,,,15.827142384
1716268297189516812,0.264,,,,15.834836752
1716268297197211180,0.257,,,,15.84253112
1716268297204905548,0.252,,,,15.850225488
1716268297212599916,0.247,,,,15.857919856
1716268297220294284,0.237,,,,15.865614224
1716268297227988652,0.232,,,,15.873308592
1716268297235683020,0.227,,,,15.88100296
1716268297243377388,0.23,,,,15.888697328
1716268297251071756,0.23,,,,15.896391696
1716268297258766124,0.227,,,,15.904086064
1716268297266460492,0.23,,,,15.911780432
1716268297274154860,0.232,,,,15.9194748
1716268297281849228,0.225,,,,15.927169168
1716268297289543596,0.22,,,,15.934863536
1716268297297237964,0.215,,,,15.942557904
1716268297304932332,0.213,,,,15.950252272
1716268297312626700,0.208,,,,15.95794664
1716268297320321068,0.196,,,,15.965641008
1716268297328015436,0.186,,,,15.973335376
1716268297335709804,0.181,,,,15.981029744
1716268297343404172,0.177,,,,15.988724112
1716268297351098540,0.177,,,,15.99641848
1716268297358792908,0.174,,,,16.004112848
1716268297366487276,0.162,,,,16.011807216
1716268297374181644,0.152,,,,16.019501584
1716268297381876012,0.15,,,,16.027195952
1716268297389570380,0.15,,,,16.03489032
1716268297397264748,0.145,,,,16.042584688
1716268297404959116,0.133,,,,16.050279056
1716268297412653484,0.123,,,,16.057973424
1716268297420347852,0.123,,,,16.065667792
1716268297428042220,0.118,,,,16.07336216
1716268297435736588,0.113,,,,16.081056528
1716268297443430956,0.111,,,,16.088750896
1716268297451125324,0.106,,611.0,,16.096445264
1716268297458819692,0.101,,,,16.104139632
1716268297466514060,0.097,,,,16.111834
1716268297474208428,0.084,,,,16.119528368
1716268297481902796,0.072,,,,16.127222736
1716268297489597164,0.075,,,,16.134917104
1716268297497291532,0.094,,,,16.142611472
1716268297504985900,0.111,,,,16.15030584
1716268297512680268,0.109,,,,16.158000208
1716268297520374636,0.097,,,,16.165694576
1716268297528069004,0.089,,,,16.173388944
1716268297535763372,0.08,,,,16.181083312
1716268297543457740,0.067,,,,16.18877768
1716268297551152108,0.058,,,,16.196472048
1716268297558846476,0.05,,,,16.204166416
1716268297566540844,0.043,,,,16.211860784
1716268297574235212,0.036,,,,16.219555152
1716268297581929580,0.033,,,,16.22724952
1716268297589623948,0.036,,,,16.234943888
1716268297597318316,0.031,,,,16.242638256
1716268297605012684,0.048,,,,16.250332624
1716268297612707052,0.191,,,,16.258026992
1716268297620401420,0.472,,,,16.26572136
1716268297628095788,0.676,,,,16.273415728
1716268297635790156,0.552,,,,16.281110096
1716268297643484538,0.111,93.0,,,16.288804478
1716268297651178906,-0.213,,,,16.296498846
1716268297658873274,-0.138,,,,16.304193214
1716268297666567642,0.016,,,,16.311887582
1716268297674262010,-0.007,,,,16.31958195
1716268297681956378,-0.046,,,,16.327276318
1716268297689650746,-0.016,,,,16.334970686
1716268297697345114,-0.016,,,,16.342665054
1716268297705039482,-0.033,,,,16.350359422
1716268297712733850,-0.019,,,,16.35805379
1716268297720428218,-0.021,,,,16.365748158
1716268297728122586,-0.041,,,,16.373442526
1716268297735816954,-0.041,,,,16.381136894
1716268297743511322,-0.036,,,,16.388831262
1716268297751205690,-0.041,,,,16.39652563
1716268297758900058,-0.046,,,,16.404219998
1716268297766594426,-0.038,,,,16.411914366
1716268297774288794,-0.036,,,,16.419608734
1716268297781983162,-0.041,,,,16.427303102
1716268297789677530,-0.053,,,,16.43499747
1716268297797371898,-0.063,,,,16.442691838
1716268297805066266,-0.065,,,,16.450386206
1716268297812760634,-0.072,,,,16.458080574
1716268297820455002,-0.087,,,,16.465774942
1716268297828149370,-0.087,,,,16.47346931
1716268297835843738,-0.092,,,,16.481163678
1716268297843538106,-0.106,,,,16.488858046
1716268297851232474,-0.116,,,,16.496552414
1716268297858926842,-0.126,,,,16.504246782
1716268297866621210,-0.147,,,,16.51194115
1716268297874315578,-0.169,,,,16.519635518
1716268297882009946,-0.184,,,,16.527329886
1716268297889704314,-0.189,,,,16.535024254
1716268297897398682,-0.191,,,,16.542718622
1716268297905093050,-0.203,,,,16.55041299
1716268297912787418,-0.218,,,,16.558107358
1716268297920481786,-0.225,,,,16.565801726
1716268297928176154,-0.23,,,,16.573496094
1716268297935870522,-0.237,,,,16.581190462
1716268297943564890,-0.237,,,,16.58888483
1716268297951259258,-0.232,,,,16.596579198
1716268297958953626,-0.232,,,,16.604273566
1716268297966647994,-0.232,,,,16.611967934
1716268297974342362,-0.232,,,,16.619662302
1716268297982036730,-0.244,,,,16.62735667
1716268297989731098,-0.247,,,,16.635051038
1716268297997425466,-0.232,,,,16.642745406
1716268298005119834,-0.23,,,,16.650439774
1716268298012814202,-0.244,,,,16.658134142
1716268298020508570,-0.252,,,,16.66582851
1716268298028202938,-0.257,,,,16.673522878
1716268298035897306,-0.259,,,,16.681217246
1716268298043591674,-0.247,,,,16.688911614
1716268298051286042,-0.242,,,,16.696605982
1716268298058980410,-0.249,,,,16.70430035
1716268298066674778,-0.247,,612.0,,16.711994718
1716268298074369146,-0.24,,,,16.719689086
1716268298082063514,-0.237,,,,16.727383454
1716268298089757882,-0.24,,,,16.735077822
1716268298097452250,-0.242,,,,16.74277219
1716268298105146618,-0.24,,,,16.750466558
1716268298112840986,-0.23,,,,16.758160926
1716268298120535354,-0.23,,,,16.765855294
1716268298128229722,-0.23,,,,16.773549662
1716268298135924090,-0.223,,,,16.78124403
1716268298143618458,-0.215,,,,16.788938398
1716268298151312826,-0.218,,,,16.796632766
1716268298159007194,-0.215,,,,16.804327134
1716268298166701562,-0.208,,,,16.812021502
1716268298174395930,-0.206,,,,16.81971587
1716268298182090298,-0.198,,,,16.827410238
1716268298189784666,-0.179,,,,16.835104606
1716268298197479034,-0.16,,,,16.842798974
1716268298205173414,-0.167,94.0,,,16.850493354
1716268298212867573,-0.184,,,,16.858187513
1716268298220561732,-0.181,,,,16.865881672
1716268298228255891,-0.174,,,,16.873575831
1716268298235950050,-0.181,,,,16.88126999
1716268298243644209,-0.179,,,,16.888964149
1716268298251338368,-0.167,,,,16.896658308
1716268298259032527,-0.16,,,,16.904352467
1716268298266726686,-0.164,,,,16.912046626
1716268298274420845,-0.162,,,,16.919740785
1716268298282115004,-0.15,,,,16.927434944
1716268298289809163,-0.121,,,,16.935129103
1716268298297503322,0.021,,,,16.942823262
1716268298305197481,0.315,,,,16.950517421
1716268298312891640,0.562,,,,16.95821158
1716268298320585799,0.482,,,,16.965905739
1716268298328279958,0.036,,,,16.973599898
1716268298335974117,-0.337,,,,16.981294057
1716268298343668276,-0.269,,,,16.988988216
1716268298351362435,-0.08,,,,16.996682375
1716268298359056594,-0.099,,,,17.004376534
1716268298366750753,-0.14,,,,17.012070693
1716268298374444912,-0.089,,,,17.019764852
1716268298382139071,-0.07,,,,17.027459011
1716268298389833230,-0.087,,,,17.03515317
1716268298397527389,-0.075,,,,17.042847329
1716268298405221548,-0.055,,,,17.050541488
1716268298412915707,-0.048,,,,17.058235647
1716268298420609866,-0.038,,,,17.065929806
1716268298428304025,-0.021,,,,17.073623965
1716268298435998184,-0.009,,,,17.081318124
1716268298443692343,-0.002,,,,17.089012283
1716268298451386502,0.002,,,,17.096706442
1716268298459080661,0.009,,,,17.104400601
1716268298466774820,0.024,,,,17.11209476
1716268298474468979,0.029,,,,17.119788919
1716268298482163138,0.031,,,,17.127483078
1716268298489857297,0.021,,,,17.135177237
1716268298497551456,0.016,,,,17.142871396
1716268298505245615,0.038,,,,17.150565555
1716268298512939774,0.05,,,,17.158259714
1716268298520633933,0.043,,,,17.165953873
1716268298528328092,0.041,,,,17.173648032
1716268298536022251,0.038,,,,17.181342191
1716268298543716410,0.038,,,,17.18903635
1716268298551410569,0.036,,,,17.196730509
1716268298559104728,0.033,,,,17.204424668
1716268298566798887,0.038,,,,17.212118827
1716268298574493046,0.036,,,,17.219812986
1716268298582187205,0.031,,,,17.227507145
1716268298589881364,0.031,,,,17.235201304
1716268298597575523,0.029,,,,17.242895463
1716268298605269682,0.026,,,,17.250589622
1716268298612963841,0.021,,,,17.258283781
1716268298620658000,0.026,,,,17.26597794
1716268298628352159,0.029,,,,17.273672099
1716268298636046318,0.031,,,,17.281366258
1716268298643740477,0.043,,,,17.289060417
1716268298651434636,0.05,,,,17.296754576
1716268298659128795,0.053,,,,17.304448735
1716268298666822954,0.06,,,,17.312142894
1716268298674517113,0.065,,,,17.319837053
1716268298682211272,0.067,,617.0,,17.327531212
1716268298689905431,0.075,,,,17.335225371
1716268298697599590,0.08,,,,17.34291953
1716268298705293749,0.084,,,,17.350613689
1716268298712987908,0.08,,,,17.358307848
1716268298720682067,0.075,,,,17.366002007
1716268298728376226,0.077,,,,17.373696166
1716268298736070385,0.077,,,,17.381390325
1716268298743764544,0.072,,,,17.389084484
1716268298751458703,0.072,,,,17.396778643
1716268298759152862,0.077,,,,17.404472802
1716268298766847032,0.08,,,,17.412166972
1716268298774541191,0.075,,,,17.419861131
1716268298782235350,0.077,,,,17.42755529
1716268298789929509,0.084,,,,17.435249449
1716268298797623668,0.084,,,,17.442943608
1716268298805317827,0.082,,,,17.450637767
1716268298813011986,0.07,,,,17.458331926
1716268298820706145,0.055,,,,17.466026085
1716268298828400304,0.063,,,,17.473720244
1716268298836094463,0.065,,,,17.481414403
1716268298843788622,0.063,,,,17.489108562
1716268298851482781,0.067,,,,17.496802721
1716268298859176940,0.075,,,,17.50449688
1716268298866871099,0.087,,,,17.512191039
1716268298874565258,0.101,,,,17.519885198
1716268298882259417,0.113,,,,17.527579357
1716268298889953576,0.118,,,,17.535273516
1716268298897647735,0.101,,,,17.542967675
1716268298905341894,0.084,,,,17.550661834
1716268298913036053,0.089,,,,17.558355993
1716268298920730212,0.092,,,,17.566050152
1716268298928424371,0.087,,,,17.573744311
1716268298936118530,0.092,,,,17.58143847
1716268298943812689,0.104,,,,17.589132629
1716268298951506848,0.104,,,,17.596826788
1716268298959201007,0.099,,,,17.604520947
1716268298966895166,0.104,,,,17.612215106
1716268298974589325,0.111,,,,17.619909265
1716268298982283484,0.172,,,,17.627603424
1716268298989977643,0.363,,,,17.635297583
1716268298997671802,0.62,,,,17.642991742
1716268299005365961,0.761,,,,17.650685901
1716268299013060120,0.562,,,,17.65838006
1716268299020754279,0.097,,,,17.666074219
1716268299028448438,-0.128,,,,17.673768378
1716268299036142597,0.041,,,,17.681462537
1716268299043836756,0.152,,,,17.689156696
1716268299051530915,0.08,,,,17.696850855
1716268299059225074,0.075,,,,17.704545014
1716268299066919233,0.121,,,,17.712239173
1716268299074613392,0.106,,,,17.719933332
1716268299082307551,0.094,,,,17.727627491
1716268299090001710,0.118,,,,17.73532165
1716268299097695869,0.135,,,,17.743015809
1716268299105390028,0.138,,,,17.750709968
1716268299113084187,0.145,,,,17.758404127
1716268299120778346,0.164,,,,17.766098286
1716268299128472505,0.174,,,,17.773792445
1716268299136166664,0.167,,,,17.781486604
1716268299143860823,0.179,,,,17.789180763
1716268299151554982,0.198,,,,17.796874922
1716268299159249141,0.201,,,,17.804569081
1716268299166943300,0.208,,,,17.81226324
1716268299174637459,0.225,,,,17.819957399
1716268299182331618,0.24,,,,17.827651558
1716268299190025777,0.252,,,,17.835345717
1716268299197719936,0.254,,,,17.843039876
1716268299205414095,0.257,,,,17.850734035
1716268299213108254,0.276,,,,17.858428194
1716268299220802413,0.291,,,,17.866122353
1716268299228496572,0.293,,,,17.873816512
1716268299236190731,0.305,,,,17.881510671
1716268299243884890,0.324,,,,17.88920483
1716268299251579049,0.329,,,,17.896898989
1716268299259273208,0.341,,,,17.904593148
1716268299266967367,0.363,,,,17.912287307
1716268299274661526,0.361,,,,17.919981466
1716268299282355685,0.366,,,,17.927675625
1716268299290049844,0.385,,,,17.935369784
1716268299297744003,0.402,,,,17.943063943
1716268299305438162,0.431,,620.0,,17.950758102
1716268299313132321,0.46,,,,17.958452261
1716268299320826480,0.475,,,,17.96614642
1716268299328520648,0.492,94.0,,,17.973840588
1716268299336215016,0.521,,,,17.981534956
1716268299343909384,0.555,,,,17.989229324
1716268299351603752,0.5740000000000001,,,,17.996923692
1716268299359298120,0.589,,,,18.00461806
1716268299366992488,0.613,,,,18.012312428
1716268299374686856,0.628,,,,18.020006796
1716268299382381224,0.642,,,,18.027701164
1716268299390075592,0.666,,,,18.035395532
1716268299397769960,0.679,,,,18.0430899
1716268299405464328,0.671,,,,18.050784268
1716268299413158696,0.659,,,,18.058478636
1716268299420853064,0.662,,,,18.066173004
1716268299428547432,0.669,,,,18.073867372
1716268299436241800,0.654,,,,18.08156174
1716268299443936168,0.649,,,,18.089256108
1716268299451630536,0.662,,,,18.096950476
1716268299459324904,0.666,,,,18.104644844
1716268299467019272,0.669,,,,18.112339212
1716268299474713640,0.671,,,,18.12003358
1716268299482408008,0.676,,,,18.127727948
1716268299490102376,0.681,,,,18.135422316
1716268299497796744,0.674,,,,18.143116684
1716268299505491112,0.671,,,,18.150811052
1716268299513185480,0.679,,,,18.15850542
1716268299520879848,0.686,,,,18.166199788
1716268299528574216,0.6910000000000001,,,,18.173894156
1716268299536268584,0.686,,,,18.181588524
1716268299543962952,0.6910000000000001,,,,18.189282892
1716268299551657320,0.7030000000000001,,,,18.19697726
1716268299559351688,0.708,,,,18.204671628
1716268299567046056,0.708,,,,18.212365996
1716268299574740424,0.715,,,,18.220060364
1716268299582434792,0.742,,,,18.227754732
1716268299590129160,0.771,,,,18.2354491
1716268299597823528,0.78,,,,18.243143468
1716268299605517896,0.78,,,,18.250837836
1716268299613212264,0.788,,,,18.258532204
1716268299620906632,0.793,,,,18.266226572
1716268299628601000,0.79,,,,18.27392094
1716268299636295368,0.788,,,,18.281615308
1716268299643989736,0.797,,,,18.289309676
1716268299651684104,0.8,,,,18.297004044
1716268299659378472,0.802,,,,18.304698412
1716268299667072840,0.8240000000000001,,,,18.31239278
1716268299674767208,0.841,,,,18.320087148
1716268299682461576,0.841,,,,18.327781516
1716268299690155944,0.875,,,,18.335475884
1716268299697850312,1.037,,,,18.343170252
1716268299705544680,1.309,,,,18.35086462
1716268299713239048,1.464,,,,18.358558988
1716268299720933416,1.309,,,,18.366253356
1716268299728627784,0.89,,,,18.373947724
1716268299736322152,0.589,,,,18.381642092
1716268299744016520,0.679,,,,18.38933646
1716268299751710888,0.8190000000000001,,,,18.397030828
1716268299759405256,0.768,,,,18.404725196
1716268299767099624,0.727,,,,18.412419564
1716268299774793992,0.754,,,,18.420113932
1716268299782488360,0.739,,,,18.4278083
1716268299790182728,0.715,,,,18.435502668
1716268299797877096,0.72,,,,18.443197036
1716268299805571464,0.729,,,,18.450891404
1716268299813265832,0.717,,,,18.458585772
1716268299820960200,0.705,,,,18.46628014
1716268299828654568,0.7000000000000001,,,,18.473974508
1716268299836348936,0.6980000000000001,,,,18.481668876
1716268299844043304,0.7000000000000001,,,,18.489363244
1716268299851737672,0.6960000000000001,,,,18.497057612
1716268299859432040,0.683,,,,18.50475198
1716268299867126408,0.679,,,,18.512446348
1716268299874820776,0.669,,,,18.520140716
1716268299882515144,0.666,,,,18.527835084
1716268299890209524,0.671,,,,18.535529464
1716268299897903892,0.671,,,,18.543223832
1716268299905598260,0.671,,,,18.5509182
1716268299913292628,0.662,,,,18.558612568
1716268299920986996,0.647,,,,18.566306936
1716268299928681364,0.647,,,,18.574001304
1716268299936375732,0.649,,,,18.581695672
1716268299944070100,0.645,,,,18.58939004
1716268299951764468,0.635,,,,18.597084408
1716268299959458836,0.625,,,,18.604778776
1716268299967153204,0.62,,,,18.612473144
1716268299974847572,0.613,,671.0,,18.620167512
1716268299982541940,0.611,,,,18.62786188
1716268299990236308,0.611,,,,18.635556248
1716268299997930676,0.599,,,,18.643250616
1716268300005625044,0.586,,,,18.650944984
1716268300013319412,0.577,,,,18.658639352
1716268300021013780,0.5740000000000001,,,,18.66633372
1716268300028708148,0.5740000000000001,,,,18.674028088
1716268300036402516,0.56,,,,18.681722456
1716268300044096884,0.56,,,,18.689416824
1716268300051791252,0.5650000000000001,,,,18.697111192
1716268300059485620,0.557,,,,18.70480556
1716268300067179988,0.552,,,,18.712499928
1716268300074874356,0.555,,,,18.720194296
1716268300082568724,0.557,,,,18.727888664
1716268300090263092,0.555,,,,18.735583032
1716268300097957460,0.54,,,,18.7432774
1716268300105651828,0.531,,,,18.750971768
1716268300113346196,0.531,,,,18.758666136
1716268300121040564,0.526,,,,18.766360504
1716268300128734932,0.516,,,,18.774054872
1716268300136429300,0.504,,,,18.78174924
1716268300144123668,0.497,,,,18.789443608
1716268300151818036,0.487,,,,18.797137976
1716268300159512404,0.472,,,,18.804832344
1716268300167206772,0.47,,,,18.812526712
1716268300174901140,0.463,,,,18.82022108
1716268300182595508,0.451,,,,18.827915448
1716268300190289876,0.441,,,,18.835609816
1716268300197984244,0.429,,,,18.843304184
1716268300205678612,0.426,,,,18.850998552
1716268300213372980,0.419,,,,18.85869292
1716268300221067348,0.409,,,,18.866387288
1716268300228761716,0.404,,,,18.874081656
1716268300236456084,0.395,,,,18.881776024
1716268300244150452,0.383,,,,18.889470392
1716268300251844820,0.371,,,,18.89716476
1716268300259539188,0.358,,,,18.904859128
1716268300267233556,0.349,,,,18.912553496
1716268300274927924,0.334,,,,18.920247864
1716268300282622292,0.329,,,,18.927942232
1716268300290316660,0.341,,,,18.9356366
1716268300298011028,0.339,,,,18.943330968
1716268300305705396,0.327,,,,18.951025336
1716268300313399764,0.3,,,,18.958719704
1716268300321094132,0.274,,,,18.966414072
1716268300328788500,0.257,,,,18.97410844
1716268300336482868,0.235,,,,18.981802808
1716268300344177236,0.213,,,,18.989497176
1716268300351871604,0.206,,,,18.997191544
1716268300359565972,0.201,,,,19.004885912
1716268300367260340,0.198,,,,19.01258028
1716268300374954708,0.189,,,,19.020274648
1716268300382649076,0.181,,,,19.027969016
1716268300390343444,0.189,,,,19.035663384
1716268300398037812,0.271,,,,19.043357752
1716268300405732180,0.504,,,,19.05105212
1716268300413426548,0.751,,,,19.058746488
1716268300421120916,0.766,,,,19.066440856
1716268300428815284,0.424,,,,19.074135224
1716268300436509652,0.0,,,,19.081829592
1716268300444204020,-0.058,,,,19.08952396
1716268300451898400,0.128,92.0,,,19.09721834
1716268300459592768,0.155,,,,19.104912708
1716268300467287136,0.094,,,,19.112607076
1716268300474981504,0.109,,,,19.120301444
1716268300482675872,0.128,,,,19.127995812
1716268300490370240,0.109,,,,19.13569018
1716268300498064608,0.106,,,,19.143384548
1716268300505758976,0.123,,,,19.151078916
1716268300513453344,0.116,,,,19.158773284
1716268300521147712,0.104,,,,19.166467652
1716268300528842080,0.113,,,,19.17416202
1716268300536536448,0.113,,,,19.181856388
1716268300544230816,0.109,,,,19.189550756
1716268300551925184,0.109,,,,19.197245124
1716268300559619552,0.113,,,,19.204939492
1716268300567313920,0.121,,,,19.21263386
1716268300575008288,0.116,,,,19.220328228
1716268300582702656,0.113,,,,19.228022596
1716268300590397024,0.123,,,,19.235716964
1716268300598091392,0.128,,,,19.243411332
1716268300605785760,0.126,,,,19.2511057
1716268300613480128,0.126,,,,19.258800068
1716268300621174496,0.133,,,,19.266494436
1716268300628868864,0.143,,,,19.274188804
1716268300636563232,0.133,,,,19.281883172
1716268300644257600,0.123,,,,19.28957754
1716268300651951968,0.116,,,,19.297271908
1716268300659646336,0.109,,,,19.304966276
1716268300667340704,0.104,,,,19.312660644
1716268300675035072,0.092,,701.0,,19.320355012
1716268300682729440,0.082,,,,19.32804938
1716268300690423808,0.072,,,,19.335743748
1716268300698118176,0.055,,,,19.343438116
1716268300705812544,0.038,,,,19.351132484
1716268300713506912,0.024,,,,19.358826852
1716268300721201280,0.007,,,,19.36652122
1716268300728895648,-0.004,,,,19.374215588
1716268300736590016,-0.016,,,,19.381909956
1716268300744284384,-0.019,,,,19.389604324
1716268300751978752,-0.024,,,,19.397298692
1716268300759673120,-0.038,,,,19.40499306
1716268300767367488,-0.046,,,,19.412687428
1716268300775061856,-0.053,,,,19.420381796
1716268300782756224,-0.065,,,,19.428076164
1716268300790450592,-0.082,,,,19.435770532
1716268300798144960,-0.104,,,,19.4434649
1716268300805839328,-0.116,,,,19.451159268
1716268300813533696,-0.133,,,,19.458853636
1716268300821228064,-0.152,,,,19.466548004
1716268300828922432,-0.16,,,,19.474242372
1716268300836616800,-0.167,,,,19.48193674
1716268300844311168,-0.177,,,,19.489631108
1716268300852005536,-0.181,,,,19.497325476
1716268300859699904,-0.186,,,,19.505019844
1716268300867394272,-0.184,,,,19.512714212
1716268300875088640,-0.191,,,,19.52040858
1716268300882783008,-0.201,,,,19.528102948
1716268300890477376,-0.196,,,,19.535797316
1716268300898171744,-0.194,,,,19.543491684
1716268300905866112,-0.194,,,,19.551186052
1716268300913560480,-0.201,,,,19.55888042
1716268300921254848,-0.201,,,,19.566574788
1716268300928949216,-0.196,,,,19.574269156
1716268300936643584,-0.206,,,,19.581963524
1716268300944337952,-0.213,,,,19.589657892
1716268300952032320,-0.215,,,,19.59735226
1716268300959726688,-0.227,,,,19.605046628
1716268300967421056,-0.225,,,,19.612740996
1716268300975115424,-0.21,,,,19.620435364
1716268300982809792,-0.203,,,,19.628129732
1716268300990504160,-0.208,,,,19.6358241
1716268300998198528,-0.23,,,,19.643518468
1716268301005892896,-0.247,,,,19.651212836
1716268301013587278,-0.269,,,,19.658907218
1716268301021281506,-0.298,,,,19.666601446
1716268301028975734,-0.307,,,,19.674295674
1716268301036669962,-0.305,,,,19.681989902
1716268301044364190,-0.303,,,,19.68968413
1716268301052058418,-0.303,,,,19.697378358
1716268301059752646,-0.305,,,,19.705072586
1716268301067446874,-0.31,,,,19.712766814
1716268301075141102,-0.31,,,,19.720461042
1716268301082835330,-0.203,,,,19.72815527
1716268301090529558,0.065,,,,19.735849498
1716268301098223786,0.341,,,,19.743543726
1716268301105918014,0.351,,,,19.751237954
1716268301113612242,-0.055,,,,19.758932182
1716268301121306470,-0.509,,,,19.76662641
1716268301129000698,-0.518,,,,19.774320638
1716268301136694926,-0.31,,,,19.782014866
1716268301144389154,-0.298,,,,19.789709094
1716268301152083382,-0.356,,,,19.797403322
1716268301159777610,-0.322,,,,19.80509755
1716268301167471838,-0.293,,,,19.812791778
1716268301175166066,-0.307,,,,19.820486006
1716268301182860294,-0.298,,,,19.828180234
1716268301190554522,-0.274,,,,19.835874462
1716268301198248750,-0.271,,,,19.84356869
1716268301205942978,-0.264,,,,19.851262918
1716268301213637206,-0.249,,,,19.858957146
1716268301221331434,-0.242,,,,19.866651374
1716268301229025662,-0.23,,,,19.874345602
1716268301236719890,-0.22,,,,19.88203983
1716268301244414118,-0.213,,,,19.889734058
1716268301252108346,-0.208,,,,19.897428286
1716268301259802574,-0.201,,,,19.905122514
1716268301267496802,-0.191,,,,19.912816742
1716268301275191030,-0.179,,,,19.92051097
1716268301282885258,-0.16,,,,19.928205198
1716268301290579486,-0.14,,,,19.935899426
1716268301298273714,-0.138,,,,19.943593654
1716268301305967942,-0.14,,,,19.951287882
1716268301313662170,-0.128,,,,19.95898211
1716268301321356398,-0.116,,,,19.966676338
1716268301329050626,-0.118,,,,19.974370566
1716268301336744854,-0.123,,,,19.982064794
1716268301344439082,-0.116,,,,19.989759022
1716268301352133310,-0.113,,,,19.99745325
1716268301359827538,-0.121,,686.0,,20.005147478
1716268301367521766,-0.111,,,,20.012841706
1716268301375215994,-0.104,,,,20.020535934
1716268301382910222,-0.109,,,,20.028230162
1716268301390604450,-0.113,,,,20.03592439
1716268301398298678,-0.113,,,,20.043618618
1716268301405992906,-0.109,,,,20.051312846
1716268301413687134,-0.106,,,,20.059007074
1716268301421381362,-0.109,,,,20.066701302
1716268301429075590,-0.106,,,,20.07439553
1716268301436769818,-0.101,,,,20.082089758
1716268301444464046,-0.094,,,,20.089783986
1716268301452158274,-0.084,,,,20.097478214
1716268301459852502,-0.077,,,,20.105172442
1716268301467546730,-0.065,,,,20.11286667
1716268301475240958,-0.063,,,,20.120560898
1716268301482935186,-0.063,,,,20.128255126
1716268301490629414,-0.055,,,,20.135949354
1716268301498323642,-0.05,,,,20.143643582
1716268301506017870,-0.05,,,,20.15133781
1716268301513712098,-0.058,,,,20.159032038
1716268301521406326,-0.065,,,,20.166726266
1716268301529100554,-0.067,,,,20.174420494
1716268301536794782,-0.063,,,,20.182114722
1716268301544489010,-0.055,,,,20.18980895
1716268301552183238,-0.043,,,,20.197503178
1716268301559877466,-0.046,,,,20.205197406
1716268301567571694,-0.053,,,,20.212891634
1716268301575265982,-0.055,91.0,,,20.220585922
1716268301582960280,-0.05,,,,20.22828022
1716268301590654578,-0.043,,,,20.235974518
1716268301598348876,-0.043,,,,20.243668816
1716268301606043174,-0.038,,,,20.251363114
1716268301613737472,-0.031,,,,20.259057412
1716268301621431770,-0.033,,,,20.26675171
1716268301629126068,-0.041,,,,20.274446008
1716268301636820366,-0.043,,,,20.282140306
1716268301644514664,-0.021,,,,20.289834604
1716268301652208962,0.0,,,,20.297528902
1716268301659903260,0.007,,,,20.3052232
1716268301667597558,0.004,,,,20.312917498
1716268301675291856,-0.002,,,,20.320611796
1716268301682986154,-0.002,,,,20.328306094
1716268301690680452,-0.007,,,,20.336000392
1716268301698374750,-0.019,,,,20.34369469
1716268301706069048,-0.019,,,,20.351388988
1716268301713763346,-0.012,,,,20.359083286
1716268301721457644,-0.012,,,,20.366777584
1716268301729151942,-0.002,,,,20.374471882
1716268301736846240,0.002,,,,20.38216618
1716268301744540538,-0.002,,,,20.389860478
1716268301752234836,0.026,,,,20.397554776
1716268301759929134,0.196,,,,20.405249074
1716268301767623432,0.492,,,,20.412943372
1716268301775317730,0.686,,,,20.42063767
1716268301783012028,0.531,,,,20.428331968
1716268301790706326,0.063,,,,20.436026266
1716268301798400624,-0.235,,,,20.443720564
1716268301806094922,-0.101,,,,20.451414862
1716268301813789220,0.046,,,,20.45910916
1716268301821483518,-0.012,,,,20.466803458
1716268301829177816,-0.029,,,,20.474497756
1716268301836872114,0.019,,,,20.482192054
1716268301844566412,0.012,,,,20.489886352
1716268301852260710,0.0,,,,20.49758065
1716268301859955008,0.021,,,,20.505274948
1716268301867649306,0.036,,,,20.512969246
1716268301875343604,0.033,,,,20.520663544
1716268301883037902,0.043,,,,20.528357842
1716268301890732200,0.055,,,,20.53605214
1716268301898426498,0.055,,,,20.543746438
1716268301906120796,0.058,,,,20.551440736
1716268301913815094,0.067,,,,20.559135034
1716268301921509392,0.072,,,,20.566829332
1716268301929203690,0.075,,,,20.57452363
1716268301936897988,0.084,,,,20.582217928
1716268301944592286,0.094,,,,20.589912226
1716268301952286584,0.101,,,,20.597606524
1716268301959980882,0.106,,,,20.605300822
1716268301967675180,0.111,,,,20.61299512
1716268301975369478,0.113,,,,20.620689418
1716268301983063776,0.116,,,,20.628383716
1716268301990758074,0.118,,,,20.636078014
1716268301998452372,0.106,,,,20.643772312
1716268302006146670,0.101,,,,20.65146661
1716268302013840968,0.104,,,,20.659160908
1716268302021535266,0.094,,,,20.666855206
1716268302029229564,0.082,,,,20.674549504
1716268302036923862,0.075,,,,20.682243802
1716268302044618160,0.075,,,,20.6899381
1716268302052312458,0.075,,690.0,,20.697632398
1716268302060006756,0.08,,,,20.705326696
1716268302067701054,0.082,,,,20.713020994
1716268302075395352,0.06,,,,20.720715292
1716268302083089650,0.046,,,,20.72840959
1716268302090783948,0.053,,,,20.736103888
1716268302098478246,0.055,,,,20.743798186
1716268302106172544,0.053,,,,20.751492484
1716268302113866842,0.058,,,,20.759186782
1716268302121561140,0.063,,,,20.76688108
1716268302129255438,0.067,,,,20.774575378
1716268302136949772,0.065,90.0,,,20.782269712
1716268302144643931,0.07,,,,20.789963871
1716268302152338090,0.08,,,,20.79765803
1716268302160032249,0.075,,,,20.805352189
1716268302167726408,0.067,,,,20.813046348
1716268302175420567,0.067,,,,20.820740507
1716268302183114726,0.063,,,,20.828434666
1716268302190808885,0.058,,,,20.836128825
1716268302198503044,0.055,,,,20.843822984
1716268302206197203,0.058,,,,20.851517143
1716268302213891362,0.058,,,,20.859211302
1716268302221585521,0.058,,,,20.866905461
1716268302229279680,0.063,,,,20.87459962
1716268302236973839,0.063,,,,20.882293779
1716268302244667998,0.058,,,,20.889987938
1716268302252362157,0.055,,,,20.897682097
1716268302260056316,0.058,,,,20.905376256
1716268302267750475,0.063,,,,20.913070415
1716268302275444634,0.063,,,,20.920764574
1716268302283138793,0.063,,,,20.928458733
1716268302290832952,0.07,,,,20.936152892
1716268302298527111,0.07,,,,20.943847051
1716268302306221270,0.07,,,,20.95154121
1716268302313915429,0.077,,,,20.959235369
1716268302321609588,0.089,,,,20.966929528
1716268302329303747,0.106,,,,20.974623687
1716268302336997906,0.113,,,,20.982317846
1716268302344692065,0.113,,,,20.990012005
1716268302352386224,0.109,,,,20.997706164
1716268302360080383,0.101,,,,21.005400323
1716268302367774542,0.097,,,,21.013094482
1716268302375468701,0.087,,,,21.020788641
1716268302383162860,0.084,,,,21.0284828
1716268302390857019,0.097,,,,21.036176959
1716268302398551178,0.104,,,,21.043871118
1716268302406245337,0.101,,,,21.051565277
1716268302413939496,0.101,,,,21.059259436
1716268302421633655,0.104,,,,21.066953595
1716268302429327814,0.147,,,,21.074647754
1716268302437021973,0.315,,,,21.082341913
1716268302444716132,0.591,,,,21.090036072
1716268302452410291,0.773,,,,21.097730231
1716268302460104450,0.623,,,,21.10542439
1716268302467798609,0.167,,,,21.113118549
1716268302475492768,-0.121,,,,21.120812708
1716268302483186927,0.004,,,,21.128506867
1716268302490881086,0.15,,,,21.136201026
1716268302498575245,0.094,,,,21.143895185
1716268302506269404,0.067,,,,21.151589344
1716268302513963563,0.106,,,,21.159283503
1716268302521657722,0.113,,,,21.166977662
1716268302529351881,0.109,,,,21.174671821
1716268302537046040,0.111,,,,21.18236598
1716268302544740199,0.113,,,,21.190060139
1716268302552434358,0.13,,,,21.197754298
1716268302560128517,0.145,,,,21.205448457
1716268302567822676,0.15,,,,21.213142616
1716268302575516835,0.147,,,,21.220836775
1716268302583210994,0.152,,,,21.228530934
1716268302590905153,0.162,,,,21.236225093
1716268302598599312,0.167,,,,21.243919252
1716268302606293471,0.181,,,,21.251613411
1716268302613987630,0.186,,,,21.25930757
1716268302621681789,0.179,,,,21.267001729
1716268302629375948,0.191,,,,21.274695888
1716268302637070107,0.203,,,,21.282390047
1716268302644764266,0.203,,,,21.290084206
1716268302652458425,0.206,,,,21.297778365
1716268302660152584,0.21,,,,21.305472524
1716268302667846743,0.218,,,,21.313166683
1716268302675540902,0.22,,,,21.320860842
1716268302683235061,0.218,,,,21.328555001
1716268302690929220,0.218,,,,21.33624916
1716268302698623388,0.21,,,,21.343943328
1716268302706317756,0.213,,,,21.351637696
1716268302714012124,0.227,,,,21.359332064
1716268302721706492,0.225,,,,21.367026432
1716268302729400860,0.218,,,,21.3747208
1716268302737095228,0.21,,,,21.382415168
1716268302744789596,0.213,,,,21.390109536
1716268302752483964,0.218,,,,21.397803904
1716268302760178332,0.213,,709.0,,21.405498272
1716268302767872700,0.203,,,,21.41319264
1716268302775567068,0.196,,,,21.420887008
1716268302783261436,0.198,,,,21.428581376
1716268302790955804,0.203,,,,21.436275744
1716268302798650172,0.198,,,,21.443970112
1716268302806344540,0.198,,,,21.45166448
1716268302814038908,0.198,,,,21.459358848
1716268302821733276,0.194,,,,21.467053216
1716268302829427644,0.196,,,,21.474747584
1716268302837122012,0.196,,,,21.482441952
1716268302844816380,0.191,,,,21.49013632
1716268302852510748,0.189,,,,21.497830688
1716268302860205116,0.179,,,,21.505525056
1716268302867899484,0.177,,,,21.513219424
1716268302875593852,0.174,,,,21.520913792
1716268302883288220,0.169,,,,21.52860816
1716268302890982588,0.169,,,,21.536302528
1716268302898676956,0.167,,,,21.543996896
1716268302906371324,0.164,,,,21.551691264
1716268302914065692,0.155,,,,21.559385632
1716268302921760060,0.145,,,,21.56708
1716268302929454428,0.15,,,,21.574774368
1716268302937148796,0.152,,,,21.582468736
1716268302944843164,0.143,,,,21.590163104
1716268302952537532,0.138,,,,21.597857472
1716268302960231900,0.135,,,,21.60555184
1716268302967926268,0.135,,,,21.613246208
1716268302975620636,0.133,,,,21.620940576
1716268302983315004,0.123,,,,21.628634944
1716268302991009372,0.121,,,,21.636329312
1716268302998703740,0.135,,,,21.64402368
1716268303006398108,0.15,,,,21.651718048
1716268303014092476,0.145,,,,21.659412416
1716268303021786844,0.13,,,,21.667106784
1716268303029481212,0.126,,,,21.674801152
1716268303037175580,0.113,,,,21.68249552
1716268303044869948,0.089,,,,21.690189888
1716268303052564316,0.072,,,,21.697884256
1716268303060258684,0.063,,,,21.705578624
1716268303067953052,0.063,,,,21.713272992
1716268303075647420,0.067,,,,21.72096736
1716268303083341788,0.072,,,,21.728661728
1716268303091036156,0.075,,,,21.736356096
1716268303098730524,0.063,,,,21.744050464
1716268303106424892,0.13,,,,21.751744832
1716268303114119260,0.346,,,,21.7594392
1716268303121813628,0.596,,,,21.767133568
1716268303129507996,0.666,,,,21.774827936
1716268303137202364,0.392,,,,21.782522304
1716268303144896732,-0.053,,,,21.790216672
1716268303152591100,-0.206,,,,21.79791104
1716268303160285468,-0.036,,,,21.805605408
1716268303167979836,0.041,,,,21.813299776
1716268303175674204,-0.031,,,,21.820994144
1716268303183368572,-0.031,,,,21.828688512
1716268303191062940,0.002,,,,21.83638288
1716268303198757308,-0.016,,,,21.844077248
1716268303206451676,-0.024,,,,21.851771616
1716268303214146044,-0.014,,,,21.859465984
1716268303221840412,-0.021,,,,21.867160352
1716268303229534780,-0.026,,,,21.87485472
1716268303237229148,-0.029,,,,21.882549088
1716268303244923516,-0.033,,,,21.890243456
1716268303252617884,-0.033,,,,21.897937824
1716268303260312264,-0.031,89.0,,,21.905632204
