time,ecg,hr,rr,marker,norm_time
1715821790661925900,0.106,80.0,,,0.0
1715821790669619850,0.079,,,,0.00769395
1715821790677313800,0.074,,,,0.0153879
1715821790685007750,0.072,,,,0.02308185
1715821790692701700,0.062,,,,0.0307758
1715821790700395650,0.058,,,,0.03846975
1715821790708089600,0.05,,,,0.0461637
1715821790715783550,0.036,,,,0.05385765
1715821790723477500,0.014,,,,0.0615516
1715821790731171450,0.0,,,,0.06924555
1715821790738865400,-0.009,,,,0.0769395
1715821790746559350,-0.019,,,,0.08463345
1715821790754253300,-0.031,,,,0.0923274
1715821790761947250,-0.05,,,,0.10002135
1715821790769641200,-0.072,,,,0.1077153
1715821790777335150,-0.084,,,,0.11540925
1715821790785029100,-0.089,,,,0.1231032
1715821790792723050,-0.103,,,,0.13079715
1715821790800417000,-0.108,,,,0.1384911
1715821790808110950,-0.103,,,,0.14618505
1715821790815804900,-0.101,,,,0.153879
1715821790823498850,-0.089,,,,0.16157295
1715821790831192800,-0.055,,,,0.1692669
1715821790838886750,-0.012,,,,0.17696085
1715821790846580700,0.038,,,,0.1846548
1715821790854274650,0.087,,,,0.19234875
1715821790861968600,0.128,,,,0.2000427
1715821790869662550,0.154,,,,0.20773665
1715821790877356500,0.181,,,,0.2154306
1715821790885050450,0.203,,,,0.22312455
1715821790892744400,0.21,,,,0.2308185
1715821790900438350,0.212,,,,0.23851245
1715821790908132300,0.212,,,,0.2462064
1715821790915826250,0.21,,,,0.25390035
1715821790923520200,0.21,,,,0.2615943
1715821790931214150,0.212,,,,0.26928825
1715821790938908100,0.21,,,,0.2769822
1715821790946602050,0.207,,,,0.28467615
1715821790954296000,0.2,,,,0.2923701
1715821790961989950,0.19,,,,0.30006405
1715821790969683900,0.186,,,,0.307758
1715821790977377850,0.183,,,,0.31545195
1715821790985071800,0.181,,,,0.3231459
1715821790992765750,0.181,,,,0.33083985
1715821791000459700,0.176,,,,0.3385338
1715821791008153650,0.171,,,,0.34622775
1715821791015847600,0.171,,,,0.3539217
1715821791023541550,0.171,,731.0,,0.36161565
1715821791031235500,0.174,,,,0.3693096
1715821791038929450,0.171,,,,0.37700355
1715821791046623400,0.169,,,,0.3846975
1715821791054317350,0.164,,,,0.39239145
1715821791062011300,0.166,,,,0.4000854
1715821791069705250,0.174,,,,0.40777935
1715821791077399200,0.178,,,,0.4154733
1715821791085093150,0.174,,,,0.42316725
1715821791092787100,0.166,,,,0.4308612
1715821791100481050,0.169,,,,0.43855515
1715821791108175000,0.171,,,,0.4462491
1715821791115868950,0.166,,,,0.45394305
1715821791123562900,0.166,,,,0.461637
1715821791131256850,0.171,,,,0.46933095
1715821791138950800,0.166,,,,0.4770249
1715821791146644750,0.161,,,,0.48471885
1715821791154338700,0.164,,,,0.4924128
1715821791162032650,0.171,,,,0.50010675
1715821791169726600,0.171,,,,0.5078007
1715821791177420550,0.164,,,,0.51549465
1715821791185114500,0.159,,,,0.5231886
1715821791192808450,0.161,,,,0.53088255
1715821791200502400,0.159,,,,0.5385765
1715821791208196350,0.154,,,,0.54627045
1715821791215890300,0.154,,,,0.5539644
1715821791223584258,0.159,,,,0.561658358
1715821791231278626,0.159,,,,0.569352726
1715821791238972994,0.157,,,,0.577047094
1715821791246667362,0.152,,,,0.584741462
1715821791254361730,0.142,,,,0.59243583
1715821791262056098,0.125,,,,0.600130198
1715821791269750466,0.116,,,,0.607824566
1715821791277444834,0.12,,,,0.615518934
1715821791285139202,0.14,,,,0.623213302
1715821791292833570,0.154,,,,0.63090767
1715821791300527938,0.142,,,,0.638602038
1715821791308222306,0.132,,,,0.646296406
1715821791315916674,0.135,,,,0.653990774
1715821791323611042,0.13,,,,0.661685142
1715821791331305410,0.125,,,,0.66937951
1715821791338999778,0.123,,,,0.677073878
1715821791346694146,0.125,,,,0.684768246
1715821791354388514,0.128,,,,0.692462614
1715821791362082882,0.128,,,,0.700156982
1715821791369777250,0.123,,,,0.70785135
1715821791377471618,0.108,,,,0.715545718
1715821791385165986,-0.004,,,,0.723240086
1715821791392860354,-0.321,,,,0.730934454
1715821791400554722,-0.6880000000000001,,,,0.738628822
1715821791408249090,-0.647,,,,0.74632319
1715821791415943458,-0.012,,,,0.754017558
1715821791423637826,0.56,,,,0.761711926
1715821791431332194,0.432,,,,0.769406294
1715821791439026562,0.094,,,,0.777100662
1715821791446720930,0.084,,,,0.78479503
1715821791454415298,0.128,,,,0.792489398
1715821791462109666,0.06,,,,0.800183766
1715821791469804034,0.062,,,,0.807878134
1715821791477498402,0.094,,,,0.815572502
1715821791485192770,0.07,,,,0.82326687
1715821791492887138,0.06,,,,0.830961238
1715821791500581506,0.067,,,,0.838655606
1715821791508275874,0.055,,,,0.846349974
1715821791515970242,0.045,,,,0.854044342
1715821791523664610,0.05,,,,0.86173871
1715821791531358978,0.043,,,,0.869433078
1715821791539053346,0.031,,,,0.877127446
1715821791546747714,0.026,,,,0.884821814
1715821791554442082,0.019,,,,0.892516182
1715821791562136450,0.007,,,,0.90021055
1715821791569830818,-0.002,,,,0.907904918
1715821791577525186,-0.014,,,,0.915599286
1715821791585219554,-0.029,,,,0.923293654
1715821791592913922,-0.045,,,,0.930988022
1715821791600608290,-0.067,,,,0.93868239
1715821791608302658,-0.079,,,,0.946376758
1715821791615997026,-0.082,,,,0.954071126
1715821791623691394,-0.087,,,,0.961765494
1715821791631385762,-0.091,,,,0.969459862
1715821791639080130,-0.089,,,,0.97715423
1715821791646774498,-0.072,,,,0.984848598
1715821791654468866,-0.045,,,,0.992542966
1715821791662163234,-0.004,,,,1.000237334
1715821791669857602,0.053,,,,1.007931702
1715821791677551970,0.111,,,,1.01562607
1715821791685246338,0.149,,,,1.023320438
1715821791692940706,0.171,,,,1.031014806
1715821791700635074,0.195,,,,1.038709174
1715821791708329442,0.215,,,,1.046403542
1715821791716023810,0.222,,,,1.05409791
1715821791723718178,0.222,,,,1.061792278
1715821791731412546,0.224,,,,1.069486646
1715821791739106914,0.227,,,,1.077181014
1715821791746801282,0.227,,,,1.084875382
1715821791754495650,0.222,,728.0,,1.09256975
1715821791762190018,0.217,,,,1.100264118
1715821791769884386,0.215,,,,1.107958486
1715821791777578754,0.21,,,,1.115652854
1715821791785273134,0.203,80.0,,,1.123347234
1715821791792967084,0.203,,,,1.131041184
1715821791800661034,0.203,,,,1.138735134
1715821791808354984,0.198,,,,1.146429084
1715821791816048934,0.19,,,,1.154123034
1715821791823742884,0.186,,,,1.161816984
1715821791831436834,0.183,,,,1.169510934
1715821791839130784,0.174,,,,1.177204884
1715821791846824734,0.166,,,,1.184898834
1715821791854518684,0.171,,,,1.192592784
1715821791862212634,0.174,,,,1.200286734
1715821791869906584,0.169,,,,1.207980684
1715821791877600534,0.159,,,,1.215674634
1715821791885294484,0.157,,,,1.223368584
1715821791892988434,0.159,,,,1.231062534
1715821791900682384,0.159,,,,1.238756484
1715821791908376334,0.154,,,,1.246450434
1715821791916070284,0.154,,,,1.254144384
1715821791923764234,0.154,,,,1.261838334
1715821791931458184,0.157,,,,1.269532284
1715821791939152134,0.157,,,,1.277226234
1715821791946846084,0.149,,,,1.284920184
1715821791954540034,0.145,,,,1.292614134
1715821791962233984,0.145,,,,1.300308084
1715821791969927934,0.147,,,,1.308002034
1715821791977621884,0.147,,,,1.315695984
1715821791985315834,0.147,,,,1.323389934
1715821791993009784,0.145,,,,1.331083884
1715821792000703734,0.142,,,,1.338777834
1715821792008397684,0.145,,,,1.346471784
1715821792016091634,0.142,,,,1.354165734
1715821792023785584,0.145,,,,1.361859684
1715821792031479534,0.147,,,,1.369553634
1715821792039173484,0.147,,,,1.377247584
1715821792046867434,0.145,,,,1.384941534
1715821792054561384,0.145,,,,1.392635484
1715821792062255334,0.137,,,,1.400329434
1715821792069949284,0.135,,,,1.408023384
1715821792077643234,0.132,,,,1.415717334
1715821792085337184,0.132,,,,1.423411284
1715821792093031134,0.14,,,,1.431105234
1715821792100725084,0.147,,,,1.438799184
1715821792108419034,0.132,,,,1.446493134
1715821792116112984,0.111,,,,1.454187084
1715821792123806934,0.106,,,,1.461881034
1715821792131500884,0.103,,,,1.469574984
1715821792139194834,0.091,,,,1.477268934
1715821792146888784,0.099,,,,1.484962884
1715821792154582734,0.116,,,,1.492656834
1715821792162276684,0.108,,,,1.500350784
1715821792169970634,0.106,,,,1.508044734
1715821792177664584,0.111,,,,1.515738684
1715821792185358534,0.106,,,,1.523432634
1715821792193052484,0.096,,,,1.531126584
1715821792200746434,0.091,,,,1.538820534
1715821792208440384,0.094,,,,1.546514484
1715821792216134334,0.094,,,,1.554208434
1715821792223828284,0.089,,,,1.561902384
1715821792231522234,0.091,,,,1.569596334
1715821792239216184,0.096,,,,1.577290284
1715821792246910134,0.033,,,,1.584984234
1715821792254604084,-0.2,,,,1.592678184
1715821792262298034,-0.589,,,,1.600372134
1715821792269991984,-0.761,,,,1.608066084
1715821792277685934,-0.321,,,,1.615760034
1715821792285379884,0.384,,,,1.623453984
1715821792293073834,0.526,,,,1.631147934
1715821792300767784,0.171,,,,1.638841884
1715821792308461734,0.038,,,,1.646535834
1715821792316155684,0.12,,,,1.654229784
1715821792323849634,0.094,,,,1.661923734
1715821792331543584,0.058,,,,1.669617684
1715821792339237534,0.084,,,,1.677311634
1715821792346931492,0.079,,,,1.685005592
1715821792354625860,0.06,,,,1.69269996
1715821792362320228,0.065,,,,1.700394328
1715821792370014596,0.062,,,,1.708088696
1715821792377708964,0.048,,,,1.715783064
1715821792385403332,0.036,,,,1.723477432
1715821792393097700,0.033,,,,1.7311718
1715821792400792068,0.029,,,,1.738866168
1715821792408486436,0.019,,,,1.746560536
1715821792416180804,0.002,,,,1.754254904
1715821792423875172,-0.004,,,,1.761949272
1715821792431569540,-0.012,,,,1.76964364
1715821792439263908,-0.029,,,,1.777338008
1715821792446958276,-0.041,,,,1.785032376
1715821792454652644,-0.048,,,,1.792726744
1715821792462347012,-0.058,,,,1.800421112
1715821792470041380,-0.077,,,,1.80811548
1715821792477735748,-0.094,,,,1.815809848
1715821792485430116,-0.103,,,,1.823504216
1715821792493124484,-0.101,,743.0,,1.831198584
1715821792500818852,-0.101,,,,1.838892952
1715821792508513220,-0.094,,,,1.84658732
1715821792516207588,-0.074,,,,1.854281688
1715821792523901956,-0.043,,,,1.861976056
1715821792531596324,-0.002,,,,1.869670424
1715821792539290692,0.055,,,,1.877364792
1715821792546985060,0.111,,,,1.88505916
1715821792554679428,0.147,,,,1.892753528
1715821792562373796,0.174,,,,1.900447896
1715821792570068164,0.195,,,,1.908142264
1715821792577762532,0.21,,,,1.915836632
1715821792585456900,0.217,,,,1.923531
1715821792593151268,0.217,,,,1.931225368
1715821792600845636,0.222,,,,1.938919736
1715821792608540004,0.222,,,,1.946614104
1715821792616234372,0.215,,,,1.954308472
1715821792623928740,0.21,,,,1.96200284
1715821792631623108,0.212,,,,1.969697208
1715821792639317476,0.21,,,,1.977391576
1715821792647011844,0.203,,,,1.985085944
1715821792654706212,0.198,,,,1.992780312
1715821792662400580,0.193,,,,2.00047468
1715821792670094948,0.19,,,,2.008169048
1715821792677789316,0.188,,,,2.015863416
1715821792685483684,0.183,,,,2.023557784
1715821792693178052,0.181,,,,2.031252152
1715821792700872420,0.176,,,,2.03894652
1715821792708566788,0.171,,,,2.046640888
1715821792716261156,0.166,,,,2.054335256
1715821792723955524,0.169,,,,2.062029624
1715821792731649892,0.174,,,,2.069723992
1715821792739344260,0.171,,,,2.07741836
1715821792747038628,0.171,,,,2.085112728
1715821792754732996,0.174,,,,2.092807096
1715821792762427364,0.171,,,,2.100501464
1715821792770121732,0.169,,,,2.108195832
1715821792777816100,0.169,,,,2.1158902
1715821792785510468,0.169,,,,2.123584568
1715821792793204836,0.164,,,,2.131278936
1715821792800899204,0.157,,,,2.138973304
1715821792808593572,0.157,,,,2.146667672
1715821792816287940,0.157,,,,2.15436204
1715821792823982308,0.152,,,,2.162056408
1715821792831676676,0.149,,,,2.169750776
1715821792839371044,0.149,,,,2.177445144
1715821792847065412,0.149,,,,2.185139512
1715821792854759780,0.149,,,,2.19283388
1715821792862454148,0.147,,,,2.200528248
1715821792870148516,0.14,,,,2.208222616
1715821792877842884,0.137,,,,2.215916984
1715821792885537252,0.128,,,,2.223611352
1715821792893231620,0.113,,,,2.23130572
1715821792900925988,0.113,,,,2.239000088
1715821792908620368,0.118,80.0,,,2.246694468
1715821792916314318,0.118,,,,2.254388418
1715821792924008268,0.116,,,,2.262082368
1715821792931702218,0.106,,,,2.269776318
1715821792939396168,0.101,,,,2.277470268
1715821792947090118,0.099,,,,2.285164218
1715821792954784068,0.091,,,,2.292858168
1715821792962478018,0.091,,,,2.300552118
1715821792970171968,0.101,,,,2.308246068
1715821792977865918,0.096,,,,2.315940018
1715821792985559868,0.089,,,,2.323633968
1715821792993253818,0.101,,,,2.331327918
1715821793000947768,0.111,,,,2.339021868
1715821793008641718,0.103,,,,2.346715818
1715821793016335668,0.091,,,,2.354409768
1715821793024029618,0.082,,,,2.362103718
1715821793031723568,0.074,,,,2.369797668
1715821793039417518,0.074,,,,2.377491618
1715821793047111468,0.087,,,,2.385185568
1715821793054805418,0.108,,,,2.392879518
1715821793062499368,0.118,,,,2.400573468
1715821793070193318,0.12,,,,2.408267418
1715821793077887268,0.116,,,,2.415961368
1715821793085581218,0.116,,,,2.423655318
1715821793093275168,0.116,,,,2.431349268
1715821793100969118,0.113,,,,2.439043218
1715821793108663068,0.113,,,,2.446737168
1715821793116357018,0.116,,,,2.454431118
1715821793124050968,0.118,,,,2.462125068
1715821793131744918,0.118,,,,2.469819018
1715821793139438868,0.12,,,,2.477512968
1715821793147132818,0.094,,,,2.485206918
1715821793154826768,-0.06,,,,2.492900868
1715821793162520718,-0.396,,,,2.500594818
1715821793170214668,-0.669,,,,2.508288768
1715821793177908618,-0.464,,,,2.515982718
1715821793185602568,0.193,,,,2.523676668
1715821793193296518,0.58,,,,2.531370618
1715821793200990468,0.34,,,,2.539064568
1715821793208684418,0.077,,,,2.546758518
1715821793216378368,0.116,,,,2.554452468
1715821793224072318,0.135,,,,2.562146418
1715821793231766268,0.082,,,,2.569840368
1715821793239460218,0.094,,,,2.577534318
1715821793247154168,0.106,,,,2.585228268
1715821793254848118,0.084,,759.0,,2.592922218
1715821793262542068,0.079,,,,2.600616168
1715821793270236018,0.087,,,,2.608310118
1715821793277929968,0.077,,,,2.616004068
1715821793285623918,0.07,,,,2.623698018
1715821793293317868,0.07,,,,2.631391968
1715821793301011818,0.062,,,,2.639085918
1715821793308705768,0.05,,,,2.646779868
1715821793316399718,0.045,,,,2.654473818
1715821793324093668,0.041,,,,2.662167768
1715821793331787618,0.031,,,,2.669861718
1715821793339481568,0.016,,,,2.677555668
1715821793347175518,0.002,,,,2.685249618
1715821793354869468,-0.007,,,,2.692943568
1715821793362563418,-0.019,,,,2.700637518
1715821793370257368,-0.038,,,,2.708331468
1715821793377951318,-0.055,,,,2.716025418
1715821793385645268,-0.067,,,,2.723719368
1715821793393339218,-0.087,,,,2.731413318
1715821793401033168,-0.096,,,,2.739107268
1715821793408727118,-0.079,,,,2.746801218
1715821793416421068,-0.067,,,,2.754495168
1715821793424115018,-0.06,,,,2.762189118
1715821793431808968,-0.026,,,,2.769883068
1715821793439502918,0.024,,,,2.777577018
1715821793447196868,0.072,,,,2.785270968
1715821793454890818,0.118,,,,2.792964918
1715821793462584768,0.157,,,,2.800658868
1715821793470278728,0.183,,,,2.808352828
1715821793477973096,0.203,,,,2.816047196
1715821793485667464,0.215,,,,2.823741564
1715821793493361832,0.215,,,,2.831435932
1715821793501056200,0.219,,,,2.8391303
1715821793508750568,0.222,,,,2.846824668
1715821793516444936,0.215,,,,2.854519036
1715821793524139304,0.198,,,,2.862213404
1715821793531833672,0.19,,,,2.869907772
1715821793539528040,0.193,,,,2.87760214
1715821793547222408,0.188,,,,2.885296508
1715821793554916776,0.186,,,,2.892990876
1715821793562611144,0.183,,,,2.900685244
1715821793570305512,0.178,,,,2.908379612
1715821793577999880,0.171,,,,2.91607398
1715821793585694248,0.166,,,,2.923768348
1715821793593388616,0.164,,,,2.931462716
1715821793601082984,0.161,,,,2.939157084
1715821793608777352,0.154,,,,2.946851452
1715821793616471720,0.145,,,,2.95454582
1715821793624166088,0.145,,,,2.962240188
1715821793631860456,0.147,,,,2.969934556
1715821793639554824,0.142,,,,2.977628924
1715821793647249192,0.14,,,,2.985323292
1715821793654943560,0.142,,,,2.99301766
1715821793662637928,0.142,,,,3.000712028
1715821793670332296,0.137,,,,3.008406396
1715821793678026664,0.13,,,,3.016100764
1715821793685721032,0.135,,,,3.023795132
1715821793693415400,0.14,,,,3.0314895
1715821793701109768,0.135,,,,3.039183868
1715821793708804136,0.132,,,,3.046878236
1715821793716498504,0.137,,,,3.054572604
1715821793724192872,0.142,,,,3.062266972
1715821793731887240,0.14,,,,3.06996134
1715821793739581608,0.137,,,,3.077655708
1715821793747275976,0.14,,,,3.085350076
1715821793754970344,0.137,,,,3.093044444
1715821793762664712,0.132,,,,3.100738812
1715821793770359080,0.132,,,,3.10843318
1715821793778053448,0.14,,,,3.116127548
1715821793785747816,0.14,,,,3.123821916
1715821793793442184,0.137,,,,3.131516284
1715821793801136552,0.14,,,,3.139210652
1715821793808830920,0.142,,,,3.14690502
1715821793816525288,0.137,,,,3.154599388
1715821793824219656,0.137,,,,3.162293756
1715821793831914024,0.14,,,,3.169988124
1715821793839608392,0.142,,,,3.177682492
1715821793847302760,0.14,,,,3.18537686
1715821793854997128,0.137,,,,3.193071228
1715821793862691496,0.137,,,,3.200765596
1715821793870385864,0.14,,,,3.208459964
1715821793878080232,0.14,,,,3.216154332
1715821793885774600,0.14,,,,3.2238487
1715821793893468968,0.132,,,,3.231543068
1715821793901163336,0.123,,,,3.239237436
1715821793908857704,0.12,,,,3.246931804
1715821793916552072,0.12,,,,3.254626172
1715821793924246440,0.12,,,,3.26232054
1715821793931940808,0.123,,,,3.270014908
1715821793939635176,0.123,,,,3.277709276
1715821793947329544,0.125,,,,3.285403644
1715821793955023912,0.128,,,,3.293098012
1715821793962718280,0.13,,,,3.30079238
1715821793970412648,0.13,,,,3.308486748
1715821793978107016,0.128,,,,3.316181116
1715821793985801384,0.132,,,,3.323875484
1715821793993495752,0.137,,,,3.331569852
1715821794001190120,0.132,,,,3.33926422
1715821794008884488,0.13,,,,3.346958588
1715821794016578856,0.12,,,,3.354652956
1715821794024273224,0.106,,,,3.362347324
1715821794031967604,0.101,80.0,,,3.370041704
1715821794039661972,0.111,,,,3.377736072
1715821794047356340,0.13,,,,3.38543044
1715821794055050708,0.14,,,,3.393124808
1715821794062745076,0.14,,,,3.400819176
1715821794070439444,0.142,,820.0,,3.408513544
1715821794078133812,0.145,,,,3.416207912
1715821794085828180,0.14,,,,3.42390228
1715821794093522548,0.135,,,,3.431596648
1715821794101216916,0.137,,,,3.439291016
1715821794108911284,0.137,,,,3.446985384
1715821794116605652,0.13,,,,3.454679752
1715821794124300020,0.123,,,,3.46237412
1715821794131994388,0.132,,,,3.470068488
1715821794139688756,0.091,,,,3.477762856
1715821794147383124,-0.111,,,,3.485457224
1715821794155077492,-0.466,,,,3.493151592
1715821794162771860,-0.681,,,,3.50084596
1715821794170466228,-0.355,,,,3.508540328
1715821794178160596,0.323,,,,3.516234696
1715821794185854964,0.577,,,,3.523929064
1715821794193549332,0.277,,,,3.531623432
1715821794201243700,0.089,,,,3.5393178
1715821794208938068,0.149,,,,3.547012168
1715821794216632436,0.135,,,,3.554706536
1715821794224326804,0.084,,,,3.562400904
1715821794232021172,0.101,,,,3.570095272
1715821794239715540,0.103,,,,3.57778964
1715821794247409908,0.084,,,,3.585484008
1715821794255104276,0.091,,,,3.593178376
1715821794262798644,0.091,,,,3.600872744
1715821794270493012,0.07,,,,3.608567112
1715821794278187380,0.058,,,,3.61626148
1715821794285881748,0.058,,,,3.623955848
1715821794293576116,0.055,,,,3.631650216
1715821794301270484,0.045,,,,3.639344584
1715821794308964852,0.038,,,,3.647038952
1715821794316659220,0.033,,,,3.65473332
1715821794324353588,0.019,,,,3.662427688
1715821794332047956,0.007,,,,3.670122056
1715821794339742324,-0.007,,,,3.677816424
1715821794347436692,-0.024,,,,3.685510792
1715821794355131060,-0.045,,,,3.69320516
1715821794362825428,-0.065,,,,3.700899528
1715821794370519796,-0.072,,,,3.708593896
1715821794378214164,-0.082,,,,3.716288264
1715821794385908532,-0.094,,,,3.723982632
1715821794393602900,-0.096,,,,3.731677
1715821794401297268,-0.091,,,,3.739371368
1715821794408991636,-0.096,,,,3.747065736
1715821794416686004,-0.087,,,,3.754760104
1715821794424380372,-0.053,,,,3.762454472
1715821794432074740,-0.007,,,,3.77014884
1715821794439769108,0.045,,,,3.777843208
1715821794447463476,0.094,,,,3.785537576
1715821794455157844,0.13,,,,3.793231944
1715821794462852212,0.152,,,,3.800926312
1715821794470546580,0.178,,,,3.80862068
1715821794478240948,0.2,,,,3.816315048
1715821794485935316,0.205,,,,3.824009416
1715821794493629684,0.203,,,,3.831703784
1715821794501324052,0.203,,,,3.839398152
1715821794509018420,0.203,,,,3.84709252
1715821794516712788,0.195,,,,3.854786888
1715821794524407156,0.195,,,,3.862481256
1715821794532101524,0.198,,,,3.870175624
1715821794539795892,0.19,,,,3.877869992
1715821794547490260,0.181,,,,3.88556436
1715821794555184628,0.181,,,,3.893258728
1715821794562878996,0.178,,,,3.900953096
1715821794570573364,0.174,,,,3.908647464
1715821794578267732,0.174,,,,3.916341832
1715821794585962100,0.176,,,,3.9240362
1715821794593656480,0.174,,,,3.93173058
1715821794601350848,0.164,,,,3.939424948
1715821794609045216,0.164,,,,3.947119316
1715821794616739584,0.169,,,,3.954813684
1715821794624433952,0.171,,,,3.962508052
1715821794632128320,0.166,,,,3.97020242
1715821794639822688,0.164,,,,3.977896788
1715821794647517056,0.161,,,,3.985591156
1715821794655211424,0.154,,,,3.993285524
1715821794662905792,0.145,,,,4.000979892
1715821794670600160,0.147,,,,4.00867426
1715821794678294528,0.154,,,,4.016368628
1715821794685988896,0.147,,,,4.024062996
1715821794693683264,0.145,,,,4.031757364
1715821794701377632,0.152,,,,4.039451732
1715821794709072000,0.154,,,,4.0471461
1715821794716766368,0.152,,,,4.054840468
1715821794724460736,0.154,,,,4.062534836
1715821794732155104,0.154,,,,4.070229204
1715821794739849472,0.149,,,,4.077923572
1715821794747543840,0.154,,,,4.08561794
1715821794755238208,0.157,,,,4.093312308
1715821794762932576,0.152,,,,4.101006676
1715821794770626944,0.149,,,,4.108701044
1715821794778321312,0.149,,,,4.116395412
1715821794786015680,0.149,,,,4.12408978
1715821794793710048,0.154,,,,4.131784148
1715821794801404416,0.152,,,,4.139478516
1715821794809098784,0.149,,,,4.147172884
1715821794816793152,0.152,,,,4.154867252
1715821794824487520,0.152,,,,4.16256162
1715821794832181888,0.147,,,,4.170255988
1715821794839876256,0.147,,,,4.177950356
1715821794847570624,0.147,,,,4.185644724
1715821794855264992,0.149,,,,4.193339092
1715821794862959360,0.145,,,,4.20103346
1715821794870653728,0.142,,,,4.208727828
1715821794878348096,0.147,,,,4.216422196
1715821794886042464,0.149,,,,4.224116564
1715821794893736832,0.147,,,,4.231810932
1715821794901431200,0.14,,,,4.2395053
1715821794909125568,0.13,,,,4.247199668
1715821794916819936,0.123,,,,4.254894036
1715821794924514304,0.125,,,,4.262588404
1715821794932208672,0.128,,,,4.270282772
1715821794939903040,0.123,,,,4.27797714
1715821794947597408,0.125,,,,4.285671508
1715821794955291776,0.132,,,,4.293365876
1715821794962986144,0.135,,,,4.301060244
1715821794970680512,0.132,,,,4.308754612
1715821794978374880,0.13,,,,4.31644898
1715821794986069248,0.123,,,,4.324143348
1715821794993763616,0.111,,,,4.331837716
1715821795001457984,0.103,,,,4.339532084
1715821795009152352,0.106,,,,4.347226452
1715821795016846720,0.111,,,,4.35492082
1715821795024541088,0.12,,,,4.362615188
1715821795032235456,0.13,,,,4.370309556
1715821795039929824,0.13,,,,4.378003924
1715821795047624192,0.128,,,,4.385698292
1715821795055318560,0.125,,,,4.39339266
1715821795063012928,0.125,,,,4.401087028
1715821795070707296,0.125,,,,4.408781396
1715821795078401664,0.123,,,,4.416475764
1715821795086096032,0.12,,,,4.424170132
1715821795093790400,0.123,,,,4.4318645
1715821795101484768,0.123,,,,4.439558868
1715821795109179136,0.116,,,,4.447253236
1715821795116873504,0.038,,,,4.454947604
1715821795124567872,-0.219,,,,4.462641972
1715821795132262240,-0.587,,,,4.47033634
1715821795139956608,-0.6910000000000001,,,,4.478030708
1715821795147650976,-0.198,,,,4.485725076
1715821795155345356,0.459,80.0,864.0,,4.493419456
1715821795163039724,0.519,,,,4.501113824
1715821795170734092,0.174,,,,4.508808192
1715821795178428460,0.082,,,,4.51650256
1715821795186122828,0.14,,,,4.524196928
1715821795193817196,0.091,,,,4.531891296
1715821795201511564,0.053,,,,4.539585664
1715821795209205932,0.077,,,,4.547280032
1715821795216900300,0.074,,,,4.5549744
1715821795224594668,0.058,,,,4.562668768
1715821795232289036,0.055,,,,4.570363136
1715821795239983404,0.058,,,,4.578057504
1715821795247677772,0.053,,,,4.585751872
1715821795255372140,0.05,,,,4.59344624
1715821795263066508,0.045,,,,4.601140608
1715821795270760876,0.038,,,,4.608834976
1715821795278455244,0.031,,,,4.616529344
1715821795286149612,0.019,,,,4.624223712
1715821795293843980,0.009,,,,4.63191808
1715821795301538348,0.004,,,,4.639612448
1715821795309232716,-0.004,,,,4.647306816
1715821795316927084,-0.019,,,,4.655001184
1715821795324621452,-0.031,,,,4.662695552
1715821795332315820,-0.041,,,,4.67038992
1715821795340010188,-0.058,,,,4.678084288
1715821795347704556,-0.07,,,,4.685778656
1715821795355398924,-0.077,,,,4.693473024
1715821795363093292,-0.082,,,,4.701167392
1715821795370787660,-0.079,,,,4.70886176
1715821795378482028,-0.074,,,,4.716556128
1715821795386176396,-0.072,,,,4.724250496
1715821795393870764,-0.053,,,,4.731944864
1715821795401565132,-0.014,,,,4.739639232
1715821795409259500,0.026,,,,4.7473336
1715821795416953868,0.067,,,,4.755027968
1715821795424648236,0.116,,,,4.762722336
1715821795432342604,0.157,,,,4.770416704
1715821795440036972,0.178,,,,4.778111072
1715821795447731340,0.195,,,,4.78580544
1715821795455425708,0.212,,,,4.793499808
1715821795463120076,0.219,,,,4.801194176
1715821795470814444,0.215,,,,4.808888544
1715821795478508812,0.212,,,,4.816582912
1715821795486203180,0.217,,,,4.82427728
1715821795493897548,0.222,,,,4.831971648
1715821795501591916,0.215,,,,4.839666016
1715821795509286284,0.207,,,,4.847360384
1715821795516980652,0.205,,,,4.855054752
1715821795524675020,0.2,,,,4.86274912
1715821795532369388,0.195,,,,4.870443488
1715821795540063756,0.19,,,,4.878137856
1715821795547758124,0.188,,,,4.885832224
1715821795555452492,0.186,,,,4.893526592
1715821795563146860,0.183,,,,4.90122096
1715821795570841228,0.181,,,,4.908915328
1715821795578535596,0.178,,,,4.916609696
1715821795586229964,0.176,,,,4.924304064
1715821795593924332,0.178,,,,4.931998432
1715821795601618700,0.181,,,,4.9396928
1715821795609313068,0.178,,,,4.947387168
1715821795617007436,0.178,,,,4.955081536
1715821795624701804,0.178,,,,4.962775904
1715821795632396172,0.178,,,,4.970470272
1715821795640090540,0.171,,,,4.97816464
1715821795647784908,0.164,,,,4.985859008
1715821795655479276,0.166,,,,4.993553376
1715821795663173644,0.169,,,,5.001247744
1715821795670868012,0.169,,,,5.008942112
1715821795678562380,0.166,,,,5.01663648
1715821795686256748,0.166,,,,5.024330848
1715821795693951116,0.169,,,,5.032025216
1715821795701645484,0.166,,,,5.039719584
1715821795709339852,0.161,,,,5.047413952
1715821795717034232,0.161,79.0,,,5.055108332
1715821795724728251,0.166,,,,5.062802351
1715821795732422270,0.166,,,,5.07049637
1715821795740116289,0.164,,,,5.078190389
1715821795747810308,0.159,,,,5.085884408
1715821795755504327,0.159,,,,5.093578427
1715821795763198346,0.157,,,,5.101272446
1715821795770892365,0.152,,,,5.108966465
1715821795778586384,0.147,,,,5.116660484
1715821795786280403,0.149,,,,5.124354503
1715821795793974422,0.152,,,,5.132048522
1715821795801668441,0.145,,,,5.139742541
1715821795809362460,0.145,,,,5.14743656
1715821795817056479,0.149,,,,5.155130579
1715821795824750498,0.145,,,,5.162824598
1715821795832444517,0.14,,,,5.170518617
1715821795840138536,0.14,,903.0,,5.178212636
1715821795847832555,0.137,,,,5.185906655
1715821795855526574,0.132,,,,5.193600674
1715821795863220593,0.132,,,,5.201294693
1715821795870914612,0.135,,,,5.208988712
1715821795878608631,0.13,,,,5.216682731
1715821795886302650,0.123,,,,5.22437675
1715821795893996669,0.12,,,,5.232070769
1715821795901690688,0.128,,,,5.239764788
1715821795909384707,0.128,,,,5.247458807
1715821795917078726,0.111,,,,5.255152826
1715821795924772745,0.094,,,,5.262846845
1715821795932466764,0.082,,,,5.270540864
1715821795940160783,0.067,,,,5.278234883
1715821795947854802,0.06,,,,5.285928902
1715821795955548821,0.077,,,,5.293622921
1715821795963242840,0.099,,,,5.30131694
1715821795970936859,0.106,,,,5.309010959
1715821795978630878,0.101,,,,5.316704978
1715821795986324897,0.096,,,,5.324398997
1715821795994018916,0.096,,,,5.332093016
1715821796001712935,0.099,,,,5.339787035
1715821796009406954,0.094,,,,5.347481054
1715821796017100973,0.091,,,,5.355175073
1715821796024794992,0.099,,,,5.362869092
1715821796032489011,0.106,,,,5.370563111
1715821796040183030,0.108,,,,5.37825713
1715821796047877049,0.101,,,,5.385951149
1715821796055571068,0.002,,,,5.393645168
1715821796063265087,-0.297,,,,5.401339187
1715821796070959106,-0.674,,,,5.409033206
1715821796078653125,-0.6930000000000001,,,,5.416727225
1715821796086347144,-0.094,,,,5.424421244
1715821796094041163,0.541,,,,5.432115263
1715821796101735182,0.478,,,,5.439809282
1715821796109429201,0.116,,,,5.447503301
1715821796117123220,0.087,,,,5.45519732
1715821796124817239,0.149,,,,5.462891339
1715821796132511258,0.087,,,,5.470585358
1715821796140205277,0.067,,,,5.478279377
1715821796147899296,0.103,,,,5.485973396
1715821796155593315,0.094,,,,5.493667415
1715821796163287334,0.067,,,,5.501361434
1715821796170981353,0.07,,,,5.509055453
1715821796178675372,0.077,,,,5.516749472
1715821796186369391,0.065,,,,5.524443491
1715821796194063410,0.055,,,,5.53213751
1715821796201757429,0.053,,,,5.539831529
1715821796209451448,0.055,,,,5.547525548
1715821796217145467,0.041,,,,5.555219567
1715821796224839486,0.026,,,,5.562913586
1715821796232533505,0.029,,,,5.570607605
1715821796240227524,0.024,,,,5.578301624
1715821796247921543,0.002,,,,5.585995643
1715821796255615562,-0.014,,,,5.593689662
1715821796263309581,-0.029,,,,5.601383681
1715821796271003600,-0.043,,,,5.6090777
1715821796278697678,-0.058,,,,5.616771778
1715821796286391976,-0.07,,,,5.624466076
1715821796294086274,-0.074,,,,5.632160374
1715821796301780572,-0.082,,,,5.639854672
1715821796309474870,-0.096,,,,5.64754897
1715821796317169168,-0.096,,,,5.655243268
1715821796324863466,-0.074,,,,5.662937566
1715821796332557764,-0.048,,,,5.670631864
1715821796340252062,-0.014,,,,5.678326162
1715821796347946360,0.033,,,,5.68602046
1715821796355640658,0.082,,,,5.693714758
1715821796363334956,0.123,,,,5.701409056
1715821796371029254,0.159,,,,5.709103354
1715821796378723552,0.178,,,,5.716797652
1715821796386417850,0.188,,,,5.72449195
1715821796394112148,0.198,,,,5.732186248
1715821796401806446,0.207,,,,5.739880546
1715821796409500744,0.205,,,,5.747574844
1715821796417195042,0.203,,,,5.755269142
1715821796424889340,0.195,,,,5.76296344
1715821796432583638,0.19,,,,5.770657738
1715821796440277936,0.186,,,,5.778352036
1715821796447972234,0.186,,,,5.786046334
1715821796455666532,0.183,,,,5.793740632
1715821796463360830,0.174,,,,5.80143493
1715821796471055128,0.166,,,,5.809129228
1715821796478749426,0.174,,,,5.816823526
1715821796486443724,0.178,,,,5.824517824
1715821796494138022,0.171,,,,5.832212122
1715821796501832320,0.164,,,,5.83990642
1715821796509526618,0.164,,,,5.847600718
1715821796517220916,0.161,,,,5.855295016
1715821796524915214,0.159,,,,5.862989314
1715821796532609512,0.159,,,,5.870683612
1715821796540303810,0.157,,,,5.87837791
1715821796547998108,0.157,,,,5.886072208
1715821796555692406,0.164,,,,5.893766506
1715821796563386704,0.164,,,,5.901460804
1715821796571081002,0.164,,,,5.909155102
1715821796578775300,0.164,,,,5.9168494
1715821796586469598,0.161,,,,5.924543698
1715821796594163896,0.159,,,,5.932237996
1715821796601858194,0.164,,,,5.939932294
1715821796609552492,0.159,,,,5.947626592
1715821796617246790,0.152,,,,5.95532089
1715821796624941088,0.149,,,,5.963015188
1715821796632635386,0.152,,,,5.970709486
1715821796640329684,0.149,,,,5.978403784
1715821796648023982,0.149,,,,5.986098082
1715821796655718280,0.149,,,,5.99379238
1715821796663412578,0.147,,,,6.001486678
1715821796671106876,0.142,,,,6.009180976
1715821796678801174,0.14,,,,6.016875274
1715821796686495472,0.145,,,,6.024569572
1715821796694189770,0.147,,,,6.03226387
1715821796701884068,0.142,,,,6.039958168
1715821796709578366,0.137,,,,6.047652466
1715821796717272664,0.135,,,,6.055346764
1715821796724966962,0.13,,,,6.063041062
1715821796732661260,0.128,,,,6.07073536
1715821796740355558,0.13,,,,6.078429658
1715821796748049856,0.135,,,,6.086123956
1715821796755744154,0.13,,,,6.093818254
1715821796763438452,0.125,,,,6.101512552
1715821796771132750,0.13,,,,6.10920685
1715821796778827048,0.128,,,,6.116901148
1715821796786521346,0.118,,,,6.124595446
1715821796794215644,0.118,,,,6.132289744
1715821796801909942,0.118,,,,6.139984042
1715821796809604240,0.116,,,,6.14767834
1715821796817298538,0.111,,,,6.155372638
1715821796824992836,0.113,,,,6.163066936
1715821796832687134,0.118,,,,6.170761234
1715821796840381466,0.113,78.0,991.0,,6.178455566
1715821796848075764,0.101,,,,6.186149864
1715821796855770062,0.087,,,,6.193844162
1715821796863464360,0.077,,,,6.20153846
1715821796871158658,0.074,,,,6.209232758
1715821796878852956,0.077,,,,6.216927056
1715821796886547254,0.084,,,,6.224621354
1715821796894241552,0.091,,,,6.232315652
1715821796901935850,0.099,,,,6.24000995
1715821796909630148,0.101,,,,6.247704248
1715821796917324446,0.091,,,,6.255398546
1715821796925018744,0.079,,,,6.263092844
1715821796932713042,0.079,,,,6.270787142
1715821796940407340,0.087,,,,6.27848144
1715821796948101638,0.089,,,,6.286175738
1715821796955795936,0.089,,,,6.293870036
1715821796963490234,0.094,,,,6.301564334
1715821796971184532,0.082,,,,6.309258632
1715821796978878830,-0.019,,,,6.31695293
1715821796986573128,-0.297,,,,6.324647228
1715821796994267426,-0.628,,,,6.332341526
1715821797001961724,-0.611,,,,6.340035824
1715821797009656022,-0.038,,,,6.347730122
1715821797017350320,0.519,,,,6.35542442
1715821797025044618,0.442,,,,6.363118718
1715821797032738916,0.113,,,,6.370813016
1715821797040433214,0.082,,,,6.378507314
1715821797048127512,0.142,,,,6.386201612
1715821797055821810,0.089,,,,6.39389591
1715821797063516108,0.072,,,,6.401590208
1715821797071210406,0.101,,,,6.409284506
1715821797078904704,0.094,,,,6.416978804
1715821797086599002,0.074,,,,6.424673102
1715821797094293300,0.074,,,,6.4323674
1715821797101987598,0.072,,,,6.440061698
1715821797109681896,0.062,,,,6.447755996
1715821797117376194,0.055,,,,6.455450294
1715821797125070492,0.05,,,,6.463144592
1715821797132764790,0.048,,,,6.47083889
1715821797140459088,0.045,,,,6.478533188
1715821797148153386,0.033,,,,6.486227486
1715821797155847684,0.019,,,,6.493921784
1715821797163541982,0.014,,,,6.501616082
1715821797171236280,0.007,,,,6.50931038
1715821797178930578,-0.007,,,,6.517004678
1715821797186624876,-0.019,,,,6.524698976
1715821797194319174,-0.031,,,,6.532393274
1715821797202013472,-0.041,,,,6.540087572
1715821797209707770,-0.053,,,,6.54778187
1715821797217402068,-0.062,,,,6.555476168
1715821797225096366,-0.067,,,,6.563170466
1715821797232790664,-0.065,,,,6.570864764
1715821797240484962,-0.062,,,,6.578559062
1715821797248179260,-0.05,,,,6.58625336
1715821797255873558,-0.021,,,,6.593947658
1715821797263567856,0.012,,,,6.601641956
1715821797271262154,0.053,,,,6.609336254
1715821797278956452,0.096,,,,6.617030552
1715821797286650750,0.14,,,,6.62472485
1715821797294345048,0.174,,,,6.632419148
1715821797302039346,0.195,,,,6.640113446
1715821797309733644,0.217,,,,6.647807744
1715821797317427942,0.229,,,,6.655502042
1715821797325122240,0.224,,,,6.66319634
1715821797332816538,0.222,,,,6.670890638
1715821797340510836,0.227,,,,6.678584936
1715821797348205134,0.229,,,,6.686279234
1715821797355899432,0.224,,,,6.693973532
1715821797363593730,0.217,,,,6.70166783
1715821797371288028,0.207,,,,6.709362128
1715821797378982326,0.203,,,,6.717056426
1715821797386676624,0.2,,,,6.724750724
1715821797394370922,0.198,,,,6.732445022
1715821797402065258,0.195,,,,6.740139358
1715821797409759277,0.19,,,,6.747833377
1715821797417453296,0.186,,,,6.755527396
1715821797425147315,0.174,,,,6.763221415
1715821797432841334,0.166,,,,6.770915434
1715821797440535353,0.169,,,,6.778609453
1715821797448229372,0.171,,,,6.786303472
1715821797455923391,0.164,,,,6.793997491
1715821797463617410,0.161,,,,6.80169151
1715821797471311429,0.164,,,,6.809385529
1715821797479005448,0.159,,,,6.817079548
1715821797486699467,0.152,,,,6.824773567
1715821797494393486,0.154,,,,6.832467586
1715821797502087505,0.159,,,,6.840161605
1715821797509781524,0.154,,,,6.847855624
1715821797517475543,0.154,,,,6.855549643
1715821797525169562,0.159,,,,6.863243662
1715821797532863581,0.159,,,,6.870937681
1715821797540557600,0.152,,,,6.8786317
1715821797548251619,0.152,,,,6.886325719
1715821797555945638,0.159,,,,6.894019738
1715821797563639657,0.159,,,,6.901713757
1715821797571333676,0.157,,,,6.909407776
1715821797579027695,0.159,,,,6.917101795
1715821797586721714,0.159,,,,6.924795814
1715821797594415733,0.154,,,,6.932489833
1715821797602109752,0.147,,,,6.940183852
1715821797609803771,0.14,,,,6.947877871
1715821797617497790,0.132,,,,6.95557189
1715821797625191809,0.135,,,,6.963265909
1715821797632885828,0.137,,,,6.970959928
1715821797640579847,0.132,,,,6.978653947
1715821797648273866,0.13,,,,6.986347966
1715821797655967885,0.13,,,,6.994041985
1715821797663661904,0.132,,,,7.001736004
1715821797671355923,0.135,,,,7.009430023
1715821797679049942,0.137,,,,7.017124042
1715821797686743961,0.132,,,,7.024818061
1715821797694437980,0.125,,,,7.03251208
1715821797702131999,0.123,,,,7.040206099
1715821797709826018,0.12,,,,7.047900118
1715821797717520037,0.118,,,,7.055594137
1715821797725214056,0.12,,,,7.063288156
1715821797732908075,0.125,,,,7.070982175
1715821797740602094,0.116,,,,7.078676194
1715821797748296113,0.099,,,,7.086370213
1715821797755990132,0.091,,,,7.094064232
1715821797763684151,0.094,,,,7.101758251
1715821797771378170,0.101,,,,7.10945227
1715821797779072189,0.113,,,,7.117146289
1715821797786766208,0.123,,,,7.124840308
1715821797794460227,0.125,,,,7.132534327
1715821797802154246,0.128,,,,7.140228346
1715821797809848265,0.13,,,,7.147922365
1715821797817542284,0.128,,,,7.155616384
1715821797825236303,0.128,,,,7.163310403
1715821797832930322,0.128,,,,7.171004422
1715821797840624341,0.125,,,,7.178698441
1715821797848318360,0.123,,,,7.18639246
1715821797856012379,0.123,,,,7.194086479
1715821797863706398,0.123,,,,7.201780498
1715821797871400417,0.082,,,,7.209474517
1715821797879094436,-0.099,,,,7.217168536
1715821797886788455,-0.439,,,,7.224862555
1715821797894482474,-0.659,,,,7.232556574
1715821797902176493,-0.369,,,,7.240250593
1715821797909870512,0.294,,,,7.247944612
1715821797917564531,0.594,,,,7.255638631
1715821797925258550,0.309,,,,7.26333265
1715821797932952569,0.077,,,,7.271026669
1715821797940646588,0.125,,,,7.278720688
1715821797948340607,0.135,,,,7.286414707
1715821797956034626,0.084,,,,7.294108726
1715821797963728702,0.096,75.0,975.0,,7.301802802
1715821797971423070,0.106,,,,7.30949717
1715821797979117438,0.087,,,,7.317191538
1715821797986811806,0.084,,,,7.324885906
1715821797994506174,0.091,,,,7.332580274
1715821798002200542,0.084,,,,7.340274642
1715821798009894910,0.074,,,,7.34796901
1715821798017589278,0.062,,,,7.355663378
1715821798025283646,0.05,,,,7.363357746
1715821798032978014,0.048,,,,7.371052114
1715821798040672382,0.043,,,,7.378746482
1715821798048366750,0.036,,,,7.38644085
1715821798056061118,0.024,,,,7.394135218
1715821798063755486,0.012,,,,7.401829586
1715821798071449854,0.002,,,,7.409523954
1715821798079144222,-0.007,,,,7.417218322
1715821798086838590,-0.021,,,,7.42491269
1715821798094532958,-0.036,,,,7.432607058
1715821798102227326,-0.055,,,,7.440301426
1715821798109921694,-0.072,,,,7.447995794
1715821798117616062,-0.077,,,,7.455690162
1715821798125310430,-0.072,,,,7.46338453
1715821798133004798,-0.062,,,,7.471078898
1715821798140699166,-0.05,,,,7.478773266
1715821798148393534,-0.033,,,,7.486467634
1715821798156087902,-0.007,,,,7.494162002
1715821798163782270,0.036,,,,7.50185637
1715821798171476638,0.082,,,,7.509550738
1715821798179171006,0.128,,,,7.517245106
1715821798186865374,0.166,,,,7.524939474
1715821798194559742,0.193,,,,7.532633842
1715821798202254110,0.21,,,,7.54032821
1715821798209948478,0.222,,,,7.548022578
1715821798217642846,0.234,,,,7.555716946
1715821798225337214,0.236,,,,7.563411314
1715821798233031582,0.234,,,,7.571105682
1715821798240725950,0.234,,,,7.57880005
1715821798248420318,0.232,,,,7.586494418
1715821798256114686,0.227,,,,7.594188786
1715821798263809054,0.219,,,,7.601883154
1715821798271503422,0.217,,,,7.609577522
1715821798279197790,0.215,,,,7.61727189
1715821798286892158,0.205,,,,7.624966258
1715821798294586526,0.2,,,,7.632660626
1715821798302280894,0.203,,,,7.640354994
1715821798309975262,0.2,,,,7.648049362
1715821798317669630,0.19,,,,7.65574373
1715821798325363998,0.188,,,,7.663438098
1715821798333058366,0.19,,,,7.671132466
1715821798340752734,0.188,,,,7.678826834
1715821798348447102,0.181,,,,7.686521202
1715821798356141470,0.181,,,,7.69421557
1715821798363835838,0.183,,,,7.701909938
1715821798371530206,0.186,,,,7.709604306
1715821798379224574,0.181,,,,7.717298674
1715821798386918942,0.178,,,,7.724993042
1715821798394613310,0.181,,,,7.73268741
1715821798402307678,0.183,,,,7.740381778
1715821798410002046,0.178,,,,7.748076146
1715821798417696414,0.178,,,,7.755770514
1715821798425390782,0.178,,,,7.763464882
1715821798433085150,0.166,,,,7.77115925
1715821798440779518,0.157,,,,7.778853618
1715821798448473886,0.161,,,,7.786547986
1715821798456168254,0.166,,,,7.794242354
1715821798463862622,0.164,,,,7.801936722
1715821798471556990,0.159,,,,7.80963109
1715821798479251358,0.159,,,,7.817325458
1715821798486945726,0.161,,,,7.825019826
1715821798494640094,0.161,,,,7.832714194
1715821798502334462,0.157,,,,7.840408562
1715821798510028830,0.157,,,,7.84810293
1715821798517723198,0.161,,,,7.855797298
1715821798525417578,0.157,,,,7.863491678
1715821798533111946,0.152,,,,7.871186046
1715821798540806314,0.154,,,,7.878880414
1715821798548500682,0.159,,,,7.886574782
1715821798556195050,0.164,,,,7.89426915
1715821798563889418,0.164,,,,7.901963518
1715821798571583786,0.157,,,,7.909657886
1715821798579278154,0.149,,,,7.917352254
1715821798586972522,0.137,,,,7.925046622
1715821798594666890,0.12,,,,7.93274099
1715821798602361258,0.106,,,,7.940435358
1715821798610055626,0.116,,,,7.948129726
1715821798617749994,0.128,,,,7.955824094
1715821798625444362,0.125,,,,7.963518462
1715821798633138730,0.128,,,,7.97121283
1715821798640833098,0.135,,,,7.978907198
1715821798648527466,0.132,,,,7.986601566
1715821798656221834,0.125,,,,7.994295934
1715821798663916202,0.123,,,,8.001990302
1715821798671610570,0.123,,,,8.00968467
1715821798679304938,0.118,,,,8.017379038
1715821798686999306,0.116,,,,8.025073406
1715821798694693674,0.118,,,,8.032767774
1715821798702388042,0.116,,,,8.040462142
1715821798710082410,0.038,,,,8.04815651
1715821798717776778,-0.203,,,,8.055850878
1715821798725471146,-0.558,,,,8.063545246
1715821798733165514,-0.674,,,,8.071239614
1715821798740859882,-0.205,,,,8.078933982
1715821798748554250,0.473,,938.0,,8.08662835
1715821798756248618,0.5750000000000001,,,,8.094322718
1715821798763942986,0.222,,,,8.102017086
1715821798771637354,0.089,,,,8.109711454
1715821798779331722,0.14,,,,8.117405822
1715821798787026090,0.096,,,,8.12510019
1715821798794720458,0.07,,,,8.132794558
1715821798802414826,0.094,,,,8.140488926
1715821798810109194,0.084,,,,8.148183294
1715821798817803562,0.07,,,,8.155877662
1715821798825497930,0.074,,,,8.16357203
1715821798833192298,0.067,,,,8.171266398
1715821798840886666,0.05,,,,8.178960766
1715821798848581034,0.048,,,,8.186655134
1715821798856275402,0.043,,,,8.194349502
1715821798863969770,0.031,,,,8.20204387
1715821798871664138,0.031,,,,8.209738238
1715821798879358506,0.029,,,,8.217432606
1715821798887052874,0.012,,,,8.225126974
1715821798894747242,0.0,,,,8.232821342
1715821798902441610,-0.009,,,,8.24051571
1715821798910135978,-0.019,,,,8.248210078
1715821798917830346,-0.036,,,,8.255904446
1715821798925524714,-0.048,,,,8.263598814
1715821798933219082,-0.062,,,,8.271293182
1715821798940913450,-0.089,,,,8.27898755
1715821798948607818,-0.103,,,,8.286681918
1715821798956302186,-0.096,,,,8.294376286
1715821798963996554,-0.089,,,,8.302070654
1715821798971690922,-0.084,,,,8.309765022
1715821798979385290,-0.07,,,,8.31745939
1715821798987079658,-0.045,,,,8.325153758
1715821798994774026,-0.002,,,,8.332848126
1715821799002468394,0.048,,,,8.340542494
1715821799010162762,0.096,,,,8.348236862
1715821799017857130,0.14,,,,8.35593123
1715821799025551498,0.178,,,,8.363625598
1715821799033245866,0.2,,,,8.371319966
1715821799040940234,0.215,,,,8.379014334
1715821799048634602,0.222,,,,8.386708702
1715821799056328970,0.227,,,,8.39440307
1715821799064023338,0.227,,,,8.402097438
1715821799071717706,0.227,,,,8.409791806
1715821799079412074,0.224,,,,8.417486174
1715821799087106454,0.217,74.0,,,8.425180554
1715821799094800473,0.21,,,,8.432874573
1715821799102494492,0.205,,,,8.440568592
1715821799110188511,0.203,,,,8.448262611
1715821799117882530,0.2,,,,8.45595663
1715821799125576549,0.188,,,,8.463650649
1715821799133270568,0.178,,,,8.471344668
1715821799140964587,0.176,,,,8.479038687
1715821799148658606,0.176,,,,8.486732706
1715821799156352625,0.169,,,,8.494426725
1715821799164046644,0.161,,,,8.502120744
1715821799171740663,0.164,,,,8.509814763
1715821799179434682,0.166,,,,8.517508782
1715821799187128701,0.161,,,,8.525202801
1715821799194822720,0.161,,,,8.53289682
1715821799202516739,0.164,,,,8.540590839
1715821799210210758,0.164,,,,8.548284858
1715821799217904777,0.161,,,,8.555978877
1715821799225598796,0.159,,,,8.563672896
1715821799233292815,0.164,,,,8.571366915
1715821799240986834,0.166,,,,8.579060934
1715821799248680853,0.161,,,,8.586754953
1715821799256374872,0.159,,,,8.594448972
1715821799264068891,0.161,,,,8.602142991
1715821799271762910,0.161,,,,8.60983701
1715821799279456929,0.159,,,,8.617531029
1715821799287150948,0.159,,,,8.625225048
1715821799294844967,0.161,,,,8.632919067
1715821799302538986,0.159,,,,8.640613086
1715821799310233005,0.157,,,,8.648307105
1715821799317927024,0.159,,,,8.656001124
1715821799325621043,0.157,,,,8.663695143
1715821799333315062,0.152,,,,8.671389162
1715821799341009081,0.147,,,,8.679083181
1715821799348703100,0.147,,,,8.6867772
1715821799356397119,0.147,,,,8.694471219
1715821799364091138,0.145,,,,8.702165238
1715821799371785157,0.147,,,,8.709859257
1715821799379479176,0.154,,,,8.717553276
1715821799387173195,0.157,,,,8.725247295
1715821799394867214,0.152,,,,8.732941314
1715821799402561233,0.14,,,,8.740635333
1715821799410255252,0.125,,,,8.748329352
1715821799417949271,0.113,,,,8.756023371
1715821799425643290,0.113,,,,8.76371739
1715821799433337309,0.123,,,,8.771411409
1715821799441031328,0.132,,,,8.779105428
1715821799448725347,0.13,,,,8.786799447
1715821799456419366,0.13,,,,8.794493466
1715821799464113385,0.132,,,,8.802187485
1715821799471807404,0.132,,,,8.809881504
1715821799479501423,0.132,,,,8.817575523
1715821799487195442,0.135,,,,8.825269542
1715821799494889461,0.135,,,,8.832963561
1715821799502583480,0.13,,,,8.84065758
1715821799510277499,0.132,,,,8.848351599
1715821799517971518,0.14,,,,8.856045618
1715821799525665537,0.14,,,,8.863739637
1715821799533359556,0.079,,,,8.871433656
1715821799541053575,-0.149,,,,8.879127675
1715821799548747594,-0.529,,,,8.886821694
1715821799556441613,-0.7000000000000001,,,,8.894515713
1715821799564135632,-0.258,,,,8.902209732
1715821799571829651,0.454,,,,8.909903751
1715821799579523670,0.594,,,,8.91759777
1715821799587217689,0.227,,,,8.925291789
1715821799594911708,0.084,,,,8.932985808
1715821799602605727,0.157,,,,8.940679827
1715821799610299746,0.116,,,,8.948373846
1715821799617993765,0.074,,,,8.956067865
1715821799625687784,0.103,,,,8.963761884
1715821799633381803,0.096,,,,8.971455903
1715821799641075822,0.072,,,,8.979149922
1715821799648769900,0.077,,,,8.986844
1715821799656464198,0.072,,,,8.994538298
1715821799664158496,0.06,,923.0,,9.002232596
1715821799671852794,0.053,,,,9.009926894
1715821799679547092,0.043,,,,9.017621192
1715821799687241390,0.033,,,,9.02531549
1715821799694935688,0.024,,,,9.033009788
1715821799702629986,0.007,,,,9.040704086
1715821799710324284,-0.002,,,,9.048398384
1715821799718018582,-0.007,,,,9.056092682
1715821799725712880,-0.024,,,,9.06378698
1715821799733407178,-0.041,,,,9.071481278
1715821799741101476,-0.05,,,,9.079175576
1715821799748795774,-0.058,,,,9.086869874
1715821799756490072,-0.074,,,,9.094564172
1715821799764184370,-0.087,,,,9.10225847
1715821799771878668,-0.091,,,,9.109952768
1715821799779572966,-0.091,,,,9.117647066
1715821799787267264,-0.094,,,,9.125341364
1715821799794961562,-0.089,,,,9.133035662
1715821799802655860,-0.067,,,,9.14072996
1715821799810350158,-0.038,,,,9.148424258
1715821799818044456,-0.004,,,,9.156118556
1715821799825738754,0.036,,,,9.163812854
1715821799833433052,0.084,,,,9.171507152
1715821799841127350,0.13,,,,9.17920145
1715821799848821648,0.161,,,,9.186895748
1715821799856515946,0.183,,,,9.194590046
1715821799864210244,0.198,,,,9.202284344
1715821799871904542,0.207,,,,9.209978642
1715821799879598840,0.21,,,,9.21767294
1715821799887293138,0.207,,,,9.225367238
1715821799894987436,0.212,,,,9.233061536
1715821799902681734,0.215,,,,9.240755834
1715821799910376032,0.207,,,,9.248450132
1715821799918070330,0.203,,,,9.25614443
1715821799925764628,0.2,,,,9.263838728
1715821799933458926,0.195,,,,9.271533026
1715821799941153224,0.188,,,,9.279227324
1715821799948847522,0.176,,,,9.286921622
1715821799956541820,0.169,,,,9.29461592
1715821799964236118,0.171,,,,9.302310218
1715821799971930416,0.169,,,,9.310004516
1715821799979624714,0.161,,,,9.317698814
1715821799987319012,0.164,,,,9.325393112
1715821799995013310,0.161,,,,9.33308741
1715821800002707608,0.157,,,,9.340781708
1715821800010401906,0.159,,,,9.348476006
1715821800018096204,0.164,,,,9.356170304
1715821800025790502,0.161,,,,9.363864602
1715821800033484800,0.159,,,,9.3715589
1715821800041179098,0.159,,,,9.379253198
1715821800048873396,0.159,,,,9.386947496
1715821800056567694,0.161,,,,9.394641794
1715821800064261992,0.159,,,,9.402336092
1715821800071956290,0.154,,,,9.41003039
1715821800079650588,0.154,,,,9.417724688
1715821800087344886,0.152,,,,9.425418986
1715821800095039184,0.145,,,,9.433113284
1715821800102733482,0.145,,,,9.440807582
1715821800110427780,0.152,,,,9.44850188
1715821800118122078,0.152,,,,9.456196178
1715821800125816376,0.152,,,,9.463890476
1715821800133510674,0.152,,,,9.471584774
1715821800141204972,0.149,,,,9.479279072
1715821800148899270,0.145,,,,9.48697337
1715821800156593568,0.149,,,,9.494667668
1715821800164287866,0.154,,,,9.502361966
1715821800171982164,0.154,,,,9.510056264
1715821800179676462,0.149,,,,9.517750562
1715821800187370760,0.152,,,,9.52544486
1715821800195065058,0.159,,,,9.533139158
1715821800202759356,0.159,,,,9.540833456
1715821800210453688,0.147,73.0,,,9.548527788
1715821800218147986,0.135,,,,9.556222086
1715821800225842284,0.12,,,,9.563916384
1715821800233536582,0.108,,,,9.571610682
1715821800241230880,0.106,,,,9.57930498
1715821800248925178,0.12,,,,9.586999278
1715821800256619476,0.142,,,,9.594693576
1715821800264313774,0.142,,,,9.602387874
1715821800272008072,0.135,,,,9.610082172
1715821800279702370,0.135,,,,9.61777647
1715821800287396668,0.14,,,,9.625470768
1715821800295090966,0.14,,,,9.633165066
1715821800302785264,0.137,,,,9.640859364
1715821800310479562,0.135,,,,9.648553662
1715821800318173860,0.128,,,,9.65624796
1715821800325868158,0.123,,,,9.663942258
1715821800333562456,0.132,,,,9.671636556
1715821800341256754,0.12,,,,9.679330854
1715821800348951052,-0.026,,,,9.687025152
1715821800356645350,-0.374,,,,9.69471945
1715821800364339648,-0.715,,,,9.702413748
1715821800372033946,-0.5650000000000001,,,,9.710108046
1715821800379728244,0.145,,,,9.717802344
1715821800387422542,0.633,,,,9.725496642
1715821800395116840,0.398,,,,9.73319094
1715821800402811138,0.091,,,,9.740885238
1715821800410505436,0.132,,,,9.748579536
1715821800418199734,0.159,,,,9.756273834
1715821800425894032,0.094,,,,9.763968132
1715821800433588330,0.103,,,,9.77166243
1715821800441282628,0.118,,,,9.779356728
1715821800448976926,0.084,,,,9.787051026
1715821800456671224,0.074,,,,9.794745324
1715821800464365522,0.084,,,,9.802439622
1715821800472059820,0.074,,,,9.81013392
1715821800479754118,0.062,,,,9.817828218
1715821800487448416,0.065,,,,9.825522516
1715821800495142714,0.06,,,,9.833216814
1715821800502837012,0.048,,,,9.840911112
1715821800510531310,0.038,,,,9.84860541
1715821800518225608,0.029,,,,9.856299708
1715821800525919906,0.016,,,,9.863994006
1715821800533614204,0.004,,,,9.871688304
1715821800541308502,-0.007,,,,9.879382602
1715821800549002800,-0.021,,,,9.8870769
1715821800556697098,-0.036,,,,9.894771198
1715821800564391396,-0.055,,896.0,,9.902465496
1715821800572085694,-0.074,,,,9.910159794
1715821800579779992,-0.084,,,,9.917854092
1715821800587474290,-0.087,,,,9.92554839
1715821800595168588,-0.091,,,,9.933242688
1715821800602862886,-0.094,,,,9.940936986
1715821800610557184,-0.082,,,,9.948631284
1715821800618251482,-0.06,,,,9.956325582
1715821800625945780,-0.029,,,,9.96401988
1715821800633640078,0.016,,,,9.971714178
1715821800641334376,0.067,,,,9.979408476
1715821800649028674,0.106,,,,9.987102774
1715821800656722972,0.142,,,,9.994797072
1715821800664417270,0.171,,,,10.00249137
1715821800672111568,0.186,,,,10.010185668
1715821800679805866,0.195,,,,10.017879966
1715821800687500164,0.2,,,,10.025574264
1715821800695194462,0.203,,,,10.033268562
1715821800702888760,0.203,,,,10.04096286
1715821800710583058,0.203,,,,10.048657158
1715821800718277356,0.2,,,,10.056351456
1715821800725971654,0.195,,,,10.064045754
1715821800733665952,0.19,,,,10.071740052
1715821800741360250,0.183,,,,10.07943435
1715821800749054548,0.181,,,,10.087128648
1715821800756748846,0.181,,,,10.094822946
1715821800764443144,0.178,,,,10.102517244
1715821800772137480,0.174,72.0,,,10.11021158
1715821800779831499,0.169,,,,10.117905599
1715821800787525518,0.164,,,,10.125599618
1715821800795219537,0.166,,,,10.133293637
1715821800802913556,0.166,,,,10.140987656
1715821800810607575,0.161,,,,10.148681675
1715821800818301594,0.159,,,,10.156375694
1715821800825995613,0.154,,,,10.164069713
1715821800833689632,0.149,,,,10.171763732
1715821800841383651,0.142,,,,10.179457751
1715821800849077670,0.142,,,,10.18715177
1715821800856771689,0.145,,,,10.194845789
1715821800864465708,0.145,,,,10.202539808
1715821800872159727,0.14,,,,10.210233827
1715821800879853746,0.137,,,,10.217927846
1715821800887547765,0.14,,,,10.225621865
1715821800895241784,0.145,,,,10.233315884
1715821800902935803,0.145,,,,10.241009903
1715821800910629822,0.142,,,,10.248703922
1715821800918323841,0.142,,,,10.256397941
1715821800926017860,0.137,,,,10.26409196
1715821800933711879,0.135,,,,10.271785979
1715821800941405898,0.135,,,,10.279479998
1715821800949099917,0.132,,,,10.287174017
1715821800956793936,0.125,,,,10.294868036
1715821800964487955,0.118,,,,10.302562055
1715821800972181974,0.12,,,,10.310256074
1715821800979875993,0.13,,,,10.317950093
1715821800987570012,0.135,,,,10.325644112
1715821800995264031,0.132,,,,10.333338131
1715821801002958050,0.125,,,,10.34103215
1715821801010652069,0.111,,,,10.348726169
1715821801018346088,0.094,,,,10.356420188
1715821801026040107,0.087,,,,10.364114207
1715821801033734126,0.099,,,,10.371808226
1715821801041428145,0.125,,,,10.379502245
1715821801049122164,0.137,,,,10.387196264
1715821801056816183,0.128,,,,10.394890283
1715821801064510202,0.118,,,,10.402584302
1715821801072204221,0.12,,,,10.410278321
1715821801079898240,0.12,,,,10.41797234
1715821801087592259,0.12,,,,10.425666359
1715821801095286278,0.125,,,,10.433360378
1715821801102980297,0.125,,,,10.441054397
1715821801110674316,0.118,,,,10.448748416
1715821801118368335,0.12,,,,10.456442435
1715821801126062354,0.135,,,,10.464136454
1715821801133756373,0.103,,,,10.471830473
1715821801141450392,-0.079,,,,10.479524492
1715821801149144411,-0.459,,,,10.487218511
1715821801156838430,-0.746,,,,10.49491253
1715821801164532449,-0.476,,,,10.502606549
1715821801172226468,0.256,,,,10.510300568
1715821801179920487,0.618,,,,10.517994587
1715821801187614506,0.316,,,,10.525688606
1715821801195308525,0.062,,,,10.533382625
1715821801203002544,0.13,,,,10.541076644
1715821801210696563,0.147,,,,10.548770663
1715821801218390582,0.091,,,,10.556464682
1715821801226084601,0.106,,,,10.564158701
1715821801233778620,0.116,,,,10.57185272
1715821801241472639,0.091,,,,10.579546739
1715821801249166658,0.084,,,,10.587240758
1715821801256860677,0.087,,,,10.594934777
1715821801264554696,0.079,,,,10.602628796
1715821801272248715,0.074,,,,10.610322815
1715821801279942734,0.065,,,,10.618016834
1715821801287636753,0.055,,,,10.625710853
1715821801295330772,0.05,,,,10.633404872
1715821801303024791,0.038,,,,10.641098891
1715821801310718810,0.029,,,,10.64879291
1715821801318412829,0.021,,,,10.656486929
1715821801326106848,0.007,,,,10.664180948
1715821801333800924,-0.007,,,,10.671875024
1715821801341495292,-0.016,,,,10.679569392
1715821801349189660,-0.033,,,,10.68726376
1715821801356884028,-0.055,,,,10.694958128
1715821801364578396,-0.065,,,,10.702652496
1715821801372272764,-0.072,,,,10.710346864
1715821801379967132,-0.079,,,,10.718041232
1715821801387661500,-0.077,,,,10.7257356
1715821801395355868,-0.065,,,,10.733429968
1715821801403050236,-0.053,,837.0,,10.741124336
1715821801410744604,-0.041,,,,10.748818704
1715821801418438972,-0.007,,,,10.756513072
1715821801426133340,0.045,,,,10.76420744
1715821801433827708,0.089,,,,10.771901808
1715821801441522076,0.12,,,,10.779596176
1715821801449216444,0.152,,,,10.787290544
1715821801456910812,0.178,,,,10.794984912
1715821801464605180,0.186,,,,10.80267928
1715821801472299548,0.176,,,,10.810373648
1715821801479993916,0.178,,,,10.818068016
1715821801487688284,0.188,,,,10.825762384
1715821801495382652,0.188,,,,10.833456752
1715821801503077020,0.183,,,,10.84115112
1715821801510771388,0.186,,,,10.848845488
1715821801518465756,0.176,,,,10.856539856
1715821801526160124,0.161,,,,10.864234224
1715821801533854492,0.154,,,,10.871928592
1715821801541548860,0.152,,,,10.87962296
1715821801549243228,0.145,,,,10.887317328
1715821801556937596,0.137,,,,10.895011696
1715821801564631964,0.135,,,,10.902706064
1715821801572326332,0.135,,,,10.910400432
1715821801580020700,0.132,,,,10.9180948
1715821801587715068,0.132,,,,10.925789168
1715821801595409436,0.132,,,,10.933483536
1715821801603103804,0.132,,,,10.941177904
1715821801610798172,0.135,,,,10.948872272
1715821801618492540,0.128,,,,10.95656664
1715821801626186908,0.128,,,,10.964261008
1715821801633881276,0.135,,,,10.971955376
1715821801641575644,0.132,,,,10.979649744
1715821801649270012,0.13,,,,10.987344112
1715821801656964380,0.132,,,,10.99503848
1715821801664658748,0.137,,,,11.002732848
1715821801672353116,0.14,,,,11.010427216
1715821801680047484,0.135,,,,11.018121584
1715821801687741852,0.13,,,,11.025815952
1715821801695436220,0.132,,,,11.03351032
1715821801703130588,0.142,,,,11.041204688
1715821801710824956,0.14,,,,11.048899056
1715821801718519324,0.135,,,,11.056593424
1715821801726213692,0.135,,,,11.064287792
1715821801733908060,0.14,,,,11.07198216
1715821801741602428,0.132,,,,11.079676528
1715821801749296796,0.13,,,,11.087370896
1715821801756991164,0.137,,,,11.095065264
1715821801764685532,0.14,,,,11.102759632
1715821801772379900,0.135,,,,11.110454
1715821801780074268,0.135,,,,11.118148368
1715821801787768636,0.145,,,,11.125842736
1715821801795463004,0.142,,,,11.133537104
1715821801803157372,0.135,,,,11.141231472
1715821801810851740,0.137,,,,11.14892584
1715821801818546108,0.13,,,,11.156620208
1715821801826240476,0.106,,,,11.164314576
1715821801833934844,0.094,,,,11.172008944
1715821801841629212,0.111,,,,11.179703312
1715821801849323580,0.135,,,,11.18739768
1715821801857017948,0.142,,,,11.195092048
1715821801864712316,0.137,,,,11.202786416
1715821801872406684,0.137,,,,11.210480784
1715821801880101052,0.142,,,,11.218175152
1715821801887795420,0.14,,,,11.22586952
1715821801895489800,0.135,72.0,,,11.2335639
1715821801903183889,0.135,,,,11.241257989
1715821801910877978,0.137,,,,11.248952078
1715821801918572067,0.137,,,,11.256646167
1715821801926266156,0.135,,,,11.264340256
1715821801933960245,0.14,,,,11.272034345
1715821801941654334,0.111,,,,11.279728434
1715821801949348423,-0.055,,,,11.287422523
1715821801957042512,-0.401,,,,11.295116612
1715821801964736601,-0.674,,,,11.302810701
1715821801972430690,-0.468,,,,11.31050479
1715821801980124779,0.188,,,,11.318198879
1715821801987818868,0.584,,,,11.325892968
1715821801995512957,0.35,,,,11.333587057
1715821802003207046,0.079,,,,11.341281146
1715821802010901135,0.113,,,,11.348975235
1715821802018595224,0.135,,,,11.356669324
1715821802026289313,0.077,,,,11.364363413
1715821802033983402,0.089,,,,11.372057502
1715821802041677491,0.108,,,,11.379751591
1715821802049371580,0.082,,,,11.38744568
1715821802057065669,0.074,,,,11.395139769
1715821802064759758,0.082,,,,11.402833858
1715821802072453847,0.07,,,,11.410527947
1715821802080147936,0.06,,,,11.418222036
1715821802087842025,0.062,,,,11.425916125
1715821802095536114,0.06,,,,11.433610214
1715821802103230203,0.043,,,,11.441304303
1715821802110924292,0.041,,,,11.448998392
1715821802118618381,0.041,,,,11.456692481
1715821802126312470,0.026,,,,11.46438657
1715821802134006559,0.014,,,,11.472080659
1715821802141700648,0.004,,,,11.479774748
1715821802149394737,-0.012,,,,11.487468837
1715821802157088826,-0.024,,,,11.495162926
1715821802164782915,-0.038,,,,11.502857015
1715821802172477004,-0.05,,,,11.510551104
1715821802180171093,-0.058,,,,11.518245193
1715821802187865182,-0.06,,,,11.525939282
1715821802195559271,-0.058,,,,11.533633371
1715821802203253360,-0.048,,,,11.54132746
1715821802210947449,-0.038,,,,11.549021549
1715821802218641538,-0.024,,,,11.556715638
1715821802226335627,0.012,,824.0,,11.564409727
1715821802234029716,0.062,,,,11.572103816
1715821802241723805,0.103,,,,11.579797905
1715821802249417894,0.137,,,,11.587491994
1715821802257111983,0.169,,,,11.595186083
1715821802264806072,0.195,,,,11.602880172
1715821802272500161,0.21,,,,11.610574261
1715821802280194250,0.217,,,,11.61826835
1715821802287888339,0.219,,,,11.625962439
1715821802295582428,0.219,,,,11.633656528
1715821802303276517,0.215,,,,11.641350617
1715821802310970606,0.212,,,,11.649044706
1715821802318664695,0.21,,,,11.656738795
1715821802326358784,0.207,,,,11.664432884
1715821802334052873,0.2,,,,11.672126973
1715821802341746962,0.188,,,,11.679821062
1715821802349441051,0.181,,,,11.687515151
1715821802357135140,0.178,,,,11.69520924
1715821802364829229,0.178,,,,11.702903329
1715821802372523318,0.174,,,,11.710597418
1715821802380217407,0.174,,,,11.718291507
1715821802387911496,0.174,,,,11.725985596
1715821802395605585,0.169,,,,11.733679685
1715821802403299674,0.159,,,,11.741373774
1715821802410993763,0.154,,,,11.749067863
1715821802418687852,0.157,,,,11.756761952
1715821802426381941,0.154,,,,11.764456041
1715821802434076030,0.149,,,,11.77215013
1715821802441770119,0.147,,,,11.779844219
1715821802449464208,0.145,,,,11.787538308
1715821802457158332,0.145,,,,11.795232432
1715821802464852560,0.145,,,,11.80292666
1715821802472546788,0.14,,,,11.810620888
1715821802480241016,0.132,,,,11.818315116
1715821802487935244,0.125,,,,11.826009344
1715821802495629472,0.125,,,,11.833703572
1715821802503323700,0.13,,,,11.8413978
1715821802511017928,0.125,,,,11.849092028
1715821802518712156,0.116,,,,11.856786256
1715821802526406384,0.108,,,,11.864480484
1715821802534100612,0.111,,,,11.872174712
1715821802541794840,0.106,,,,11.87986894
1715821802549489068,0.099,,,,11.887563168
1715821802557183296,0.101,,,,11.895257396
1715821802564877524,0.108,,,,11.902951624
1715821802572571752,0.113,,,,11.910645852
1715821802580265980,0.111,,,,11.91834008
1715821802587960208,0.106,,,,11.926034308
1715821802595654436,0.111,,,,11.933728536
1715821802603348664,0.116,,,,11.941422764
1715821802611042892,0.118,,,,11.949116992
1715821802618737120,0.123,,,,11.95681122
1715821802626431348,0.125,,,,11.964505448
1715821802634125576,0.118,,,,11.972199676
1715821802641819804,0.103,,,,11.979893904
1715821802649514032,0.094,,,,11.987588132
1715821802657208260,0.087,,,,11.99528236
1715821802664902488,0.089,,,,12.002976588
1715821802672596716,0.111,,,,12.010670816
1715821802680290944,0.128,,,,12.018365044
1715821802687985172,0.128,,,,12.026059272
1715821802695679400,0.13,,,,12.0337535
1715821802703373628,0.13,,,,12.041447728
1715821802711067856,0.128,,,,12.049141956
1715821802718762084,0.135,,,,12.056836184
1715821802726456312,0.132,,,,12.064530412
1715821802734150540,0.125,,,,12.07222464
1715821802741844768,0.128,,,,12.079918868
1715821802749538996,0.135,,,,12.087613096
1715821802757233224,0.14,,,,12.095307324
1715821802764927452,0.13,,,,12.103001552
1715821802772621680,0.038,,,,12.11069578
1715821802780315908,-0.229,,,,12.118390008
1715821802788010136,-0.58,,,,12.126084236
1715821802795704364,-0.616,,,,12.133778464
1715821802803398592,-0.082,,,,12.141472692
1715821802811092820,0.524,,,,12.14916692
1715821802818787048,0.519,,,,12.156861148
1715821802826481276,0.171,,,,12.164555376
1715821802834175504,0.091,,,,12.172249604
1715821802841869732,0.154,,,,12.179943832
1715821802849563960,0.111,,,,12.18763806
1715821802857258188,0.087,,,,12.195332288
1715821802864952416,0.113,,,,12.203026516
1715821802872646644,0.106,,,,12.210720744
1715821802880340872,0.089,,,,12.218414972
1715821802888035100,0.094,,,,12.2261092
1715821802895729328,0.096,,,,12.233803428
1715821802903423556,0.082,,,,12.241497656
1715821802911117784,0.07,,,,12.249191884
1715821802918812012,0.07,,,,12.256886112
1715821802926506240,0.07,,,,12.26458034
1715821802934200468,0.06,,,,12.272274568
1715821802941894696,0.048,,,,12.279968796
1715821802949588924,0.038,,,,12.287663024
1715821802957283152,0.033,,,,12.295357252
1715821802964977380,0.021,,,,12.30305148
1715821802972671608,0.004,,,,12.310745708
1715821802980365836,-0.014,,,,12.318439936
1715821802988060064,-0.038,,,,12.326134164
1715821802995754292,-0.05,,,,12.333828392
1715821803003448520,-0.055,,,,12.34152262
1715821803011142748,-0.062,,,,12.349216848
1715821803018837034,-0.065,72.0,,,12.356911134
1715821803026531402,-0.058,,,,12.364605502
1715821803034225770,-0.045,,812.0,,12.37229987
1715821803041920138,-0.031,,,,12.379994238
1715821803049614506,-0.009,,,,12.387688606
1715821803057308874,0.029,,,,12.395382974
1715821803065003242,0.07,,,,12.403077342
1715821803072697610,0.113,,,,12.41077171
1715821803080391978,0.154,,,,12.418466078
1715821803088086346,0.181,,,,12.426160446
1715821803095780714,0.193,,,,12.433854814
1715821803103475082,0.203,,,,12.441549182
1715821803111169450,0.212,,,,12.44924355
1715821803118863818,0.217,,,,12.456937918
1715821803126558186,0.215,,,,12.464632286
1715821803134252554,0.217,,,,12.472326654
1715821803141946922,0.224,,,,12.480021022
1715821803149641290,0.219,,,,12.48771539
1715821803157335658,0.21,,,,12.495409758
1715821803165030026,0.205,,,,12.503104126
1715821803172724394,0.198,,,,12.510798494
1715821803180418762,0.186,,,,12.518492862
1715821803188113130,0.181,,,,12.52618723
1715821803195807498,0.183,,,,12.533881598
1715821803203501866,0.183,,,,12.541575966
1715821803211196234,0.178,,,,12.549270334
1715821803218890602,0.178,,,,12.556964702
1715821803226584970,0.181,,,,12.56465907
1715821803234279338,0.178,,,,12.572353438
1715821803241973706,0.171,,,,12.580047806
1715821803249668074,0.166,,,,12.587742174
1715821803257362442,0.166,,,,12.595436542
1715821803265056810,0.161,,,,12.60313091
1715821803272751178,0.154,,,,12.610825278
1715821803280445546,0.147,,,,12.618519646
1715821803288139914,0.147,,,,12.626214014
1715821803295834282,0.152,,,,12.633908382
1715821803303528650,0.152,,,,12.64160275
1715821803311223018,0.149,,,,12.649297118
1715821803318917386,0.149,,,,12.656991486
1715821803326611754,0.149,,,,12.664685854
1715821803334306122,0.145,,,,12.672380222
1715821803342000490,0.145,,,,12.68007459
1715821803349694858,0.149,,,,12.687768958
1715821803357389226,0.149,,,,12.695463326
1715821803365083594,0.142,,,,12.703157694
1715821803372777962,0.14,,,,12.710852062
1715821803380472330,0.149,,,,12.71854643
1715821803388166698,0.149,,,,12.726240798
1715821803395861066,0.14,,,,12.733935166
1715821803403555434,0.142,,,,12.741629534
1715821803411249802,0.147,,,,12.749323902
1715821803418944170,0.149,,,,12.75701827
1715821803426638538,0.149,,,,12.764712638
1715821803434332906,0.152,,,,12.772407006
1715821803442027274,0.147,,,,12.780101374
1715821803449721642,0.13,,,,12.787795742
1715821803457416010,0.113,,,,12.79549011
1715821803465110378,0.103,,,,12.803184478
1715821803472804746,0.116,,,,12.810878846
1715821803480499114,0.137,,,,12.818573214
1715821803488193482,0.145,,,,12.826267582
1715821803495887850,0.14,,,,12.83396195
1715821803503582218,0.137,,,,12.841656318
1715821803511276586,0.132,,,,12.849350686
1715821803518970954,0.13,,,,12.857045054
1715821803526665322,0.13,,,,12.864739422
1715821803534359690,0.132,,,,12.87243379
1715821803542054058,0.128,,,,12.880128158
1715821803549748426,0.125,,,,12.887822526
1715821803557442794,0.13,,,,12.895516894
1715821803565137162,0.135,,,,12.903211262
1715821803572831530,0.103,,,,12.91090563
1715821803580525910,-0.065,,,,12.91860001
1715821803588220208,-0.406,,,,12.926294308
1715821803595914506,-0.659,,,,12.933988606
1715821803603608804,-0.401,,,,12.941682904
1715821803611303102,0.285,,,,12.949377202
1715821803618997400,0.64,,,,12.9570715
1715821803626691698,0.364,,,,12.964765798
1715821803634385996,0.096,,,,12.972460096
1715821803642080294,0.13,,,,12.980154394
1715821803649774592,0.14,,,,12.987848692
1715821803657468890,0.087,,,,12.99554299
1715821803665163188,0.096,,,,13.003237288
1715821803672857486,0.111,,,,13.010931586
1715821803680551784,0.091,,,,13.018625884
1715821803688246082,0.084,,,,13.026320182
1715821803695940380,0.084,,,,13.03401448
1715821803703634678,0.079,,,,13.041708778
1715821803711328976,0.07,,,,13.049403076
1715821803719023274,0.065,,,,13.057097374
1715821803726717572,0.06,,,,13.064791672
1715821803734411870,0.06,,,,13.07248597
1715821803742106168,0.05,,,,13.080180268
1715821803749800466,0.038,,,,13.087874566
1715821803757494764,0.024,,,,13.095568864
1715821803765189062,0.009,,,,13.103263162
1715821803772883360,-0.007,,,,13.11095746
1715821803780577658,-0.019,,,,13.118651758
1715821803788271956,-0.031,,,,13.126346056
1715821803795966254,-0.043,,,,13.134040354
1715821803803660552,-0.055,,,,13.141734652
1715821803811354850,-0.065,,,,13.14942895
1715821803819049148,-0.062,,,,13.157123248
1715821803826743446,-0.053,,791.0,,13.164817546
1715821803834437744,-0.048,,,,13.172511844
1715821803842132042,-0.041,,,,13.180206142
1715821803849826340,-0.012,,,,13.18790044
1715821803857520638,0.033,,,,13.195594738
1715821803865214936,0.072,,,,13.203289036
1715821803872909234,0.116,,,,13.210983334
1715821803880603532,0.159,,,,13.218677632
1715821803888297830,0.19,,,,13.22637193
1715821803895992128,0.205,,,,13.234066228
1715821803903686426,0.222,,,,13.241760526
1715821803911380724,0.241,,,,13.249454824
1715821803919075022,0.244,,,,13.257149122
1715821803926769320,0.234,,,,13.26484342
1715821803934463618,0.236,,,,13.272537718
1715821803942157916,0.239,,,,13.280232016
1715821803949852214,0.229,,,,13.287926314
1715821803957546512,0.227,,,,13.295620612
1715821803965240810,0.229,,,,13.30331491
1715821803972935108,0.224,,,,13.311009208
1715821803980629406,0.207,,,,13.318703506
1715821803988323704,0.188,,,,13.326397804
1715821803996018002,0.174,,,,13.334092102
1715821804003712300,0.171,,,,13.3417864
1715821804011406598,0.174,,,,13.349480698
1715821804019100896,0.159,,,,13.357174996
1715821804026795194,0.152,,,,13.364869294
1715821804034489492,0.161,,,,13.372563592
1715821804042183790,0.164,,,,13.38025789
1715821804049878088,0.157,,,,13.387952188
1715821804057572386,0.154,,,,13.395646486
1715821804065266684,0.154,,,,13.403340784
1715821804072960982,0.152,,,,13.411035082
1715821804080655280,0.149,,,,13.41872938
1715821804088349578,0.145,,,,13.426423678
1715821804096043876,0.142,,,,13.434117976
1715821804103738174,0.14,,,,13.441812274
1715821804111432472,0.135,,,,13.449506572
1715821804119126770,0.135,,,,13.45720087
1715821804126821068,0.14,,,,13.464895168
1715821804134515366,0.14,,,,13.472589466
1715821804142209702,0.13,72.0,,,13.480283802
1715821804149903721,0.13,,,,13.487977821
1715821804157597740,0.135,,,,13.49567184
1715821804165291759,0.13,,,,13.503365859
1715821804172985778,0.13,,,,13.511059878
1715821804180679797,0.135,,,,13.518753897
1715821804188373816,0.137,,,,13.526447916
1715821804196067835,0.135,,,,13.534141935
1715821804203761854,0.135,,,,13.541835954
1715821804211455873,0.142,,,,13.549529973
1715821804219149892,0.147,,,,13.557223992
1715821804226843911,0.135,,,,13.564918011
1715821804234537930,0.113,,,,13.57261203
1715821804242231949,0.096,,,,13.580306049
1715821804249925968,0.087,,,,13.588000068
1715821804257619987,0.091,,,,13.595694087
1715821804265314006,0.111,,,,13.603388106
1715821804273008025,0.13,,,,13.611082125
1715821804280702044,0.13,,,,13.618776144
1715821804288396063,0.125,,,,13.626470163
1715821804296090082,0.125,,,,13.634164182
1715821804303784101,0.128,,,,13.641858201
1715821804311478120,0.13,,,,13.64955222
1715821804319172139,0.128,,,,13.657246239
1715821804326866158,0.125,,,,13.664940258
1715821804334560177,0.125,,,,13.672634277
1715821804342254196,0.125,,,,13.680328296
1715821804349948215,0.128,,,,13.688022315
1715821804357642234,0.111,,,,13.695716334
1715821804365336253,-0.024,,,,13.703410353
1715821804373030272,-0.345,,,,13.711104372
1715821804380724291,-0.659,,,,13.718798391
1715821804388418310,-0.522,,,,13.72649241
1715821804396112329,0.154,,,,13.734186429
1715821804403806348,0.633,,,,13.741880448
1715821804411500367,0.422,,,,13.749574467
1715821804419194386,0.12,,,,13.757268486
1715821804426888405,0.135,,,,13.764962505
1715821804434582424,0.152,,,,13.772656524
1715821804442276443,0.087,,,,13.780350543
1715821804449970462,0.099,,,,13.788044562
1715821804457664481,0.118,,,,13.795738581
1715821804465358500,0.091,,,,13.8034326
1715821804473052519,0.087,,,,13.811126619
1715821804480746538,0.094,,,,13.818820638
1715821804488440557,0.077,,,,13.826514657
1715821804496134576,0.06,,,,13.834208676
1715821804503828595,0.055,,,,13.841902695
1715821804511522614,0.045,,,,13.849596714
1715821804519216633,0.036,,,,13.857290733
1715821804526910652,0.029,,,,13.864984752
1715821804534604671,0.019,,,,13.872678771
1715821804542298690,0.012,,,,13.88037279
1715821804549992709,0.004,,,,13.888066809
1715821804557686728,-0.009,,,,13.895760828
1715821804565380747,-0.026,,,,13.903454847
1715821804573074766,-0.038,,,,13.911148866
1715821804580768785,-0.053,,,,13.918842885
1715821804588462804,-0.065,,,,13.926536904
1715821804596156823,-0.067,,,,13.934230923
1715821804603850842,-0.07,,,,13.941924942
1715821804611544861,-0.07,,,,13.949618961
1715821804619238880,-0.062,,,,13.95731298
1715821804626932899,-0.043,,,,13.965006999
1715821804634626918,-0.016,,809.0,,13.972701018
1715821804642320937,0.021,,,,13.980395037
1715821804650014956,0.07,,,,13.988089056
1715821804657708975,0.116,,,,13.995783075
1715821804665402994,0.154,,,,14.003477094
1715821804673097013,0.186,,,,14.011171113
1715821804680791032,0.207,,,,14.018865132
1715821804688485051,0.219,,,,14.026559151
1715821804696179070,0.232,,,,14.03425317
1715821804703873146,0.236,73.0,,,14.041947246
1715821804711567514,0.234,,,,14.049641614
1715821804719261882,0.239,,,,14.057335982
1715821804726956250,0.244,,,,14.06503035
1715821804734650618,0.236,,,,14.072724718
1715821804742344986,0.224,,,,14.080419086
1715821804750039354,0.215,,,,14.088113454
1715821804757733722,0.207,,,,14.095807822
1715821804765428090,0.198,,,,14.10350219
1715821804773122458,0.193,,,,14.111196558
1715821804780816826,0.183,,,,14.118890926
1715821804788511194,0.181,,,,14.126585294
1715821804796205562,0.181,,,,14.134279662
1715821804803899930,0.171,,,,14.14197403
1715821804811594298,0.161,,,,14.149668398
1715821804819288666,0.164,,,,14.157362766
1715821804826983034,0.166,,,,14.165057134
1715821804834677402,0.161,,,,14.172751502
1715821804842371770,0.154,,,,14.18044587
1715821804850066138,0.157,,,,14.188140238
1715821804857760506,0.159,,,,14.195834606
1715821804865454874,0.159,,,,14.203528974
1715821804873149242,0.159,,,,14.211223342
1715821804880843610,0.157,,,,14.21891771
1715821804888537978,0.149,,,,14.226612078
1715821804896232346,0.14,,,,14.234306446
1715821804903926714,0.137,,,,14.242000814
1715821804911621082,0.14,,,,14.249695182
1715821804919315450,0.14,,,,14.25738955
1715821804927009818,0.137,,,,14.265083918
1715821804934704186,0.137,,,,14.272778286
1715821804942398554,0.14,,,,14.280472654
1715821804950092922,0.135,,,,14.288167022
1715821804957787290,0.135,,,,14.29586139
1715821804965481658,0.142,,,,14.303555758
1715821804973176026,0.14,,,,14.311250126
1715821804980870394,0.13,,,,14.318944494
1715821804988564762,0.123,,,,14.326638862
1715821804996259130,0.116,,,,14.33433323
1715821805003953498,0.111,,,,14.342027598
1715821805011647866,0.111,,,,14.349721966
1715821805019342234,0.116,,,,14.357416334
1715821805027036602,0.116,,,,14.365110702
1715821805034730970,0.108,,,,14.37280507
1715821805042425338,0.096,,,,14.380499438
1715821805050119706,0.082,,,,14.388193806
1715821805057814074,0.079,,,,14.395888174
1715821805065508442,0.094,,,,14.403582542
1715821805073202810,0.113,,,,14.41127691
1715821805080897178,0.12,,,,14.418971278
1715821805088591546,0.123,,,,14.426665646
1715821805096285914,0.125,,,,14.434360014
1715821805103980282,0.12,,,,14.442054382
1715821805111674650,0.12,,,,14.44974875
1715821805119369018,0.125,,,,14.457443118
1715821805127063386,0.123,,,,14.465137486
1715821805134757754,0.118,,,,14.472831854
1715821805142452122,0.12,,,,14.480526222
1715821805150146490,0.128,,,,14.48822059
1715821805157840858,0.13,,,,14.495914958
1715821805165535226,0.077,,,,14.503609326
1715821805173229594,-0.135,,,,14.511303694
1715821805180923962,-0.5,,,,14.518998062
1715821805188618330,-0.6910000000000001,,,,14.52669243
1715821805196312698,-0.304,,,,14.534386798
1715821805204007066,0.396,,,,14.542081166
1715821805211701434,0.596,,,,14.549775534
1715821805219395802,0.258,,,,14.557469902
1715821805227090170,0.089,,,,14.56516427
1715821805234784538,0.157,,,,14.572858638
1715821805242478906,0.125,,,,14.580553006
1715821805250173274,0.072,,,,14.588247374
1715821805257867642,0.099,,,,14.595941742
1715821805265562022,0.101,,,,14.603636122
1715821805273256111,0.077,,,,14.611330211
1715821805280950200,0.077,,,,14.6190243
1715821805288644289,0.079,,,,14.626718389
1715821805296338378,0.065,,,,14.634412478
1715821805304032467,0.053,,,,14.642106567
1715821805311726556,0.053,,,,14.649800656
1715821805319420645,0.048,,,,14.657494745
1715821805327114734,0.038,,,,14.665188834
1715821805334808823,0.026,,,,14.672882923
1715821805342502912,0.014,,,,14.680577012
1715821805350197001,0.002,,,,14.688271101
1715821805357891090,-0.007,,,,14.69596519
1715821805365585179,-0.019,,,,14.703659279
1715821805373279268,-0.031,,,,14.711353368
1715821805380973357,-0.045,,,,14.719047457
1715821805388667446,-0.062,,,,14.726741546
1715821805396361535,-0.067,,,,14.734435635
1715821805404055624,-0.074,,,,14.742129724
1715821805411749713,-0.079,,,,14.749823813
1715821805419443802,-0.072,,,,14.757517902
1715821805427137891,-0.062,,,,14.765211991
1715821805434831980,-0.045,,,,14.77290608
1715821805442526069,-0.014,,,,14.780600169
1715821805450220158,0.021,,,,14.788294258
1715821805457914247,0.067,,,,14.795988347
1715821805465608336,0.118,,826.0,,14.803682436
1715821805473302425,0.154,,,,14.811376525
1715821805480996514,0.181,,,,14.819070614
1715821805488690603,0.198,,,,14.826764703
1715821805496384692,0.2,,,,14.834458792
1715821805504078781,0.198,,,,14.842152881
1715821805511772870,0.203,,,,14.84984697
1715821805519466959,0.207,,,,14.857541059
1715821805527161048,0.198,,,,14.865235148
1715821805534855137,0.188,,,,14.872929237
1715821805542549226,0.193,,,,14.880623326
1715821805550243315,0.193,,,,14.888317415
1715821805557937404,0.183,,,,14.896011504
1715821805565631493,0.186,,,,14.903705593
1715821805573325582,0.188,,,,14.911399682
1715821805581019671,0.176,,,,14.919093771
1715821805588713760,0.166,,,,14.92678786
1715821805596407849,0.171,,,,14.934481949
1715821805604101938,0.164,,,,14.942176038
1715821805611796027,0.145,,,,14.949870127
1715821805619490116,0.149,,,,14.957564216
1715821805627184205,0.154,,,,14.965258305
1715821805634878294,0.145,,,,14.972952394
1715821805642572383,0.152,,,,14.980646483
1715821805650266472,0.161,,,,14.988340572
1715821805657960561,0.161,,,,14.996034661
1715821805665654650,0.159,,,,15.00372875
1715821805673348739,0.147,,,,15.011422839
1715821805681042828,0.147,,,,15.019116928
1715821805688736917,0.149,,,,15.026811017
1715821805696431006,0.128,,,,15.034505106
1715821805704125095,0.12,,,,15.042199195
1715821805711819184,0.142,,,,15.049893284
1715821805719513273,0.145,,,,15.057587373
1715821805727207362,0.12,,,,15.065281462
1715821805734901451,0.13,,,,15.072975551
1715821805742595540,0.14,,,,15.08066964
1715821805750289629,0.111,,,,15.088363729
1715821805757983718,0.12,,,,15.096057818
1715821805765677807,0.147,,,,15.103751907
1715821805773371896,0.123,,,,15.111445996
1715821805781065985,0.106,,,,15.119140085
1715821805788760074,0.125,,,,15.126834174
1715821805796454163,0.128,,,,15.134528263
1715821805804148252,0.12,,,,15.142222352
1715821805811842341,0.125,,,,15.149916441
1715821805819536430,0.125,,,,15.15761053
1715821805827230554,0.123,73.0,,,15.165304654
1715821805834924782,0.132,,,,15.172998882
1715821805842619010,0.137,,,,15.18069311
1715821805850313238,0.12,,,,15.188387338
1715821805858007466,0.101,,,,15.196081566
1715821805865701694,0.099,,,,15.203775794
1715821805873395922,0.094,,,,15.211470022
1715821805881090150,0.089,,,,15.21916425
1715821805888784378,0.111,,,,15.226858478
1715821805896478606,0.132,,,,15.234552706
1715821805904172834,0.12,,,,15.242246934
1715821805911867062,0.111,,,,15.249941162
1715821805919561290,0.125,,,,15.25763539
1715821805927255518,0.13,,,,15.265329618
1715821805934949746,0.128,,,,15.273023846
1715821805942643974,0.13,,,,15.280718074
1715821805950338202,0.125,,,,15.288412302
1715821805958032430,0.118,,,,15.29610653
1715821805965726658,0.128,,,,15.303800758
1715821805973420886,0.147,,,,15.311494986
1715821805981115114,0.113,,,,15.319189214
1715821805988809342,-0.062,,,,15.326883442
1715821805996503570,-0.408,,,,15.33457767
1715821806004197798,-0.681,,,,15.342271898
1715821806011892026,-0.456,,,,15.349966126
1715821806019586254,0.222,,,,15.357660354
1715821806027280482,0.601,,,,15.365354582
1715821806034974710,0.357,,,,15.37304881
1715821806042668938,0.099,,,,15.380743038
1715821806050363166,0.125,,,,15.388437266
1715821806058057394,0.13,,,,15.396131494
1715821806065751622,0.07,,,,15.403825722
1715821806073445850,0.084,,,,15.41151995
1715821806081140078,0.101,,,,15.419214178
1715821806088834306,0.072,,,,15.426908406
1715821806096528534,0.06,,,,15.434602634
1715821806104222762,0.065,,,,15.442296862
1715821806111916990,0.048,,,,15.44999109
1715821806119611218,0.045,,,,15.457685318
1715821806127305446,0.062,,,,15.465379546
1715821806134999674,0.06,,,,15.473073774
1715821806142693902,0.041,,,,15.480768002
1715821806150388130,0.029,,,,15.48846223
1715821806158082358,0.021,,,,15.496156458
1715821806165776586,0.014,,,,15.503850686
1715821806173470814,0.0,,,,15.511544914
1715821806181165042,-0.014,,,,15.519239142
1715821806188859270,-0.026,,,,15.52693337
1715821806196553498,-0.033,,,,15.534627598
1715821806204247726,-0.05,,,,15.542321826
1715821806211941954,-0.07,,,,15.550016054
1715821806219636182,-0.082,,,,15.557710282
1715821806227330410,-0.074,,,,15.56540451
1715821806235024638,-0.067,,,,15.573098738
1715821806242718866,-0.067,,,,15.580792966
1715821806250413094,-0.053,,,,15.588487194
1715821806258107322,-0.024,,,,15.596181422
1715821806265801550,0.014,,804.0,,15.60387565
1715821806273495778,0.055,,,,15.611569878
1715821806281190006,0.099,,,,15.619264106
1715821806288884234,0.135,,,,15.626958334
1715821806296578462,0.169,,,,15.634652562
1715821806304272690,0.19,,,,15.64234679
1715821806311966918,0.198,,,,15.650041018
1715821806319661146,0.207,,,,15.657735246
1715821806327355374,0.222,,,,15.665429474
1715821806335049602,0.229,,,,15.673123702
1715821806342743830,0.232,,,,15.68081793
1715821806350438058,0.234,,,,15.688512158
1715821806358132286,0.227,,,,15.696206386
1715821806365826514,0.215,,,,15.703900614
1715821806373520742,0.212,,,,15.711594842
1715821806381214970,0.207,,,,15.71928907
1715821806388909256,0.198,,,,15.726983356
1715821806396603624,0.19,,,,15.734677724
1715821806404297992,0.186,,,,15.742372092
1715821806411992360,0.171,,,,15.75006646
1715821806419686728,0.157,,,,15.757760828
1715821806427381096,0.154,,,,15.765455196
1715821806435075464,0.161,,,,15.773149564
1715821806442769832,0.161,,,,15.780843932
1715821806450464200,0.154,,,,15.7885383
1715821806458158568,0.154,,,,15.796232668
1715821806465852936,0.149,,,,15.803927036
1715821806473547304,0.14,,,,15.811621404
1715821806481241672,0.137,,,,15.819315772
1715821806488936040,0.145,,,,15.82701014
1715821806496630408,0.145,,,,15.834704508
1715821806504324776,0.135,,,,15.842398876
1715821806512019144,0.12,,,,15.850093244
1715821806519713512,0.116,,,,15.857787612
1715821806527407880,0.116,,,,15.86548198
1715821806535102248,0.118,,,,15.873176348
1715821806542796616,0.12,,,,15.880870716
1715821806550490984,0.118,,,,15.888565084
1715821806558185352,0.118,,,,15.896259452
1715821806565879720,0.118,,,,15.90395382
1715821806573574088,0.116,,,,15.911648188
1715821806581268456,0.116,,,,15.919342556
1715821806588962824,0.118,,,,15.927036924
1715821806596657192,0.116,,,,15.934731292
1715821806604351560,0.116,,,,15.94242566
1715821806612045928,0.118,,,,15.950120028
1715821806619740296,0.123,,,,15.957814396
1715821806627434664,0.118,,,,15.965508764
1715821806635129032,0.116,,,,15.973203132
1715821806642823400,0.125,,,,15.9808975
1715821806650517768,0.135,,,,15.988591868
1715821806658212136,0.135,,,,15.996286236
1715821806665906504,0.128,,,,16.003980604
1715821806673600872,0.116,,,,16.011674972
1715821806681295240,0.103,,,,16.01936934
1715821806688989608,0.094,,,,16.027063708
1715821806696683976,0.096,,,,16.034758076
1715821806704378344,0.116,,,,16.042452444
1715821806712072712,0.135,,,,16.050146812
1715821806719767080,0.135,,,,16.05784118
1715821806727461448,0.128,,,,16.065535548
1715821806735155816,0.132,,,,16.073229916
1715821806742850184,0.132,,,,16.080924284
1715821806750544552,0.128,,,,16.088618652
1715821806758238920,0.13,,,,16.09631302
1715821806765933288,0.132,,,,16.104007388
1715821806773627656,0.13,,,,16.111701756
1715821806781322024,0.128,,,,16.119396124
1715821806789016392,0.13,,,,16.127090492
1715821806796710760,0.13,,,,16.13478486
1715821806804405128,0.053,,,,16.142479228
1715821806812099496,-0.195,,,,16.150173596
1715821806819793864,-0.536,,,,16.157867964
1715821806827488232,-0.616,,,,16.165562332
1715821806835182600,-0.14,,,,16.1732567
1715821806842876968,0.488,,,,16.180951068
1715821806850571336,0.553,,,,16.188645436
1715821806858265704,0.215,,,,16.196339804
1715821806865960072,0.096,,,,16.204034172
1715821806873654440,0.157,,,,16.21172854
1715821806881348808,0.123,,,,16.219422908
1715821806889043176,0.096,,,,16.227117276
1715821806896737544,0.12,,,,16.234811644
1715821806904431912,0.113,,,,16.242506012
1715821806912126280,0.096,,,,16.25020038
1715821806919820648,0.103,,,,16.257894748
1715821806927515016,0.099,,,,16.265589116
1715821806935209384,0.079,,,,16.273283484
1715821806942903752,0.077,,,,16.280977852
1715821806950598132,0.079,73.0,,,16.288672232
1715821806958292082,0.072,,,,16.296366182
1715821806965986032,0.058,,,,16.304060132
1715821806973679982,0.043,,,,16.311754082
1715821806981373932,0.036,,,,16.319448032
1715821806989067882,0.019,,,,16.327141982
1715821806996761832,0.0,,,,16.334835932
1715821807004455782,-0.009,,,,16.342529882
1715821807012149732,-0.031,,,,16.350223832
1715821807019843682,-0.065,,,,16.357917782
1715821807027537632,-0.079,,,,16.365611732
1715821807035231582,-0.077,,,,16.373305682
1715821807042925532,-0.084,,,,16.380999632
1715821807050619482,-0.089,,786.0,,16.388693582
1715821807058313432,-0.074,,,,16.396387532
1715821807066007382,-0.065,,,,16.404081482
1715821807073701332,-0.05,,,,16.411775432
1715821807081395282,-0.012,,,,16.419469382
1715821807089089232,0.036,,,,16.427163332
1715821807096783182,0.084,,,,16.434857282
1715821807104477132,0.123,,,,16.442551232
1715821807112171082,0.157,,,,16.450245182
1715821807119865032,0.193,,,,16.457939132
1715821807127558982,0.217,,,,16.465633082
1715821807135252932,0.227,,,,16.473327032
1715821807142946882,0.229,,,,16.481020982
1715821807150640832,0.232,,,,16.488714932
1715821807158334782,0.232,,,,16.496408882
1715821807166028732,0.232,,,,16.504102832
1715821807173722682,0.229,,,,16.511796782
1715821807181416632,0.229,,,,16.519490732
1715821807189110582,0.224,,,,16.527184682
1715821807196804532,0.217,,,,16.534878632
1715821807204498482,0.212,,,,16.542572582
1715821807212192432,0.205,,,,16.550266532
1715821807219886382,0.2,,,,16.557960482
1715821807227580332,0.193,,,,16.565654432
1715821807235274282,0.183,,,,16.573348382
1715821807242968232,0.178,,,,16.581042332
1715821807250662182,0.176,,,,16.588736282
1715821807258356132,0.174,,,,16.596430232
1715821807266050082,0.169,,,,16.604124182
1715821807273744032,0.171,,,,16.611818132
1715821807281437982,0.174,,,,16.619512082
1715821807289131932,0.166,,,,16.627206032
1715821807296825882,0.164,,,,16.634899982
1715821807304519832,0.169,,,,16.642593932
1715821807312213782,0.161,,,,16.650287882
1715821807319907732,0.154,,,,16.657981832
1715821807327601682,0.154,,,,16.665675782
1715821807335295632,0.154,,,,16.673369732
1715821807342989582,0.152,,,,16.681063682
1715821807350683532,0.145,,,,16.688757632
1715821807358377482,0.145,,,,16.696451582
1715821807366071432,0.149,,,,16.704145532
1715821807373765382,0.147,,,,16.711839482
1715821807381459332,0.142,,,,16.719533432
1715821807389153282,0.142,,,,16.727227382
1715821807396847232,0.145,,,,16.734921332
1715821807404541182,0.142,,,,16.742615282
1715821807412235132,0.142,,,,16.750309232
1715821807419929082,0.142,,,,16.758003182
1715821807427623032,0.142,,,,16.765697132
1715821807435316982,0.14,,,,16.773391082
1715821807443010932,0.145,,,,16.781085032
1715821807450704882,0.147,,,,16.788778982
1715821807458398832,0.147,,,,16.796472932
1715821807466092782,0.145,,,,16.804166882
1715821807473786732,0.14,,,,16.811860832
1715821807481480682,0.13,,,,16.819554782
1715821807489174632,0.12,,,,16.827248732
1715821807496868582,0.111,,,,16.834942682
1715821807504562532,0.101,,,,16.842636632
1715821807512256492,0.111,,,,16.850330592
1715821807519950860,0.13,,,,16.85802496
1715821807527645228,0.128,,,,16.865719328
1715821807535339596,0.12,,,,16.873413696
1715821807543033964,0.128,,,,16.881108064
1715821807550728332,0.132,,,,16.888802432
1715821807558422700,0.128,,,,16.8964968
1715821807566117068,0.128,,,,16.904191168
1715821807573811436,0.128,,,,16.911885536
1715821807581505804,0.128,,,,16.919579904
1715821807589200172,0.128,,,,16.927274272
1715821807596894540,0.128,,,,16.93496864
1715821807604588908,0.132,,,,16.942663008
1715821807612283276,0.089,,,,16.950357376
1715821807619977644,-0.101,,,,16.958051744
1715821807627672012,-0.449,,,,16.965746112
1715821807635366380,-0.674,,,,16.97344048
1715821807643060748,-0.372,,,,16.981134848
1715821807650755116,0.314,,,,16.988829216
1715821807658449484,0.616,,,,16.996523584
1715821807666143852,0.326,,,,17.004217952
1715821807673838220,0.096,,,,17.01191232
1715821807681532588,0.137,,,,17.019606688
1715821807689226956,0.132,,,,17.027301056
1715821807696921324,0.087,,,,17.034995424
1715821807704615692,0.101,,,,17.042689792
1715821807712310060,0.099,,,,17.05038416
1715821807720004428,0.079,,,,17.058078528
1715821807727698796,0.082,,,,17.065772896
1715821807735393164,0.084,,,,17.073467264
1715821807743087532,0.072,,,,17.081161632
1715821807750781900,0.065,,,,17.088856
1715821807758476268,0.062,,,,17.096550368
1715821807766170636,0.055,,,,17.104244736
1715821807773865004,0.043,,,,17.111939104
1715821807781559372,0.038,,,,17.119633472
1715821807789253740,0.033,,,,17.12732784
1715821807796948108,0.014,,,,17.135022208
1715821807804642476,0.0,,,,17.142716576
1715821807812336844,-0.009,,,,17.150410944
1715821807820031212,-0.026,,,,17.158105312
1715821807827725580,-0.048,,,,17.16579968
1715821807835419948,-0.062,,,,17.173494048
1715821807843114316,-0.072,,,,17.181188416
1715821807850808684,-0.077,,,,17.188882784
1715821807858503052,-0.077,,805.0,,17.196577152
1715821807866197420,-0.077,,,,17.20427152
1715821807873891788,-0.065,,,,17.211965888
1715821807881586156,-0.038,,,,17.219660256
1715821807889280524,-0.014,,,,17.227354624
1715821807896974892,0.021,,,,17.235048992
1715821807904669260,0.077,,,,17.24274336
1715821807912363628,0.132,,,,17.250437728
1715821807920057996,0.171,,,,17.258132096
1715821807927752364,0.198,,,,17.265826464
1715821807935446732,0.222,,,,17.273520832
1715821807943141100,0.234,,,,17.2812152
1715821807950835468,0.236,,,,17.288909568
1715821807958529836,0.236,,,,17.296603936
1715821807966224204,0.239,,,,17.304298304
1715821807973918572,0.241,,,,17.311992672
1715821807981612940,0.241,,,,17.31968704
1715821807989307308,0.234,,,,17.327381408
1715821807997001676,0.232,,,,17.335075776
1715821808004696044,0.229,,,,17.342770144
1715821808012390412,0.219,,,,17.350464512
1715821808020084780,0.21,,,,17.35815888
1715821808027779148,0.2,,,,17.365853248
1715821808035473516,0.181,,,,17.373547616
1715821808043167884,0.169,,,,17.381241984
1715821808050862252,0.174,,,,17.388936352
1715821808058556620,0.174,,,,17.39663072
1715821808066250988,0.164,,,,17.404325088
1715821808073945368,0.161,73.0,,,17.412019468
1715821808081639318,0.164,,,,17.419713418
1715821808089333268,0.159,,,,17.427407368
1715821808097027218,0.154,,,,17.435101318
1715821808104721168,0.157,,,,17.442795268
1715821808112415118,0.159,,,,17.450489218
1715821808120109068,0.152,,,,17.458183168
1715821808127803018,0.14,,,,17.465877118
1715821808135496968,0.132,,,,17.473571068
1715821808143190918,0.137,,,,17.481265018
1715821808150884868,0.137,,,,17.488958968
1715821808158578818,0.132,,,,17.496652918
1715821808166272768,0.132,,,,17.504346868
1715821808173966718,0.13,,,,17.512040818
1715821808181660668,0.13,,,,17.519734768
1715821808189354618,0.13,,,,17.527428718
1715821808197048568,0.125,,,,17.535122668
1715821808204742518,0.125,,,,17.542816618
1715821808212436468,0.125,,,,17.550510568
1715821808220130418,0.123,,,,17.558204518
1715821808227824368,0.123,,,,17.565898468
1715821808235518318,0.125,,,,17.573592418
1715821808243212268,0.125,,,,17.581286368
1715821808250906218,0.125,,,,17.588980318
1715821808258600168,0.132,,,,17.596674268
1715821808266294118,0.137,,,,17.604368218
1715821808273988068,0.13,,,,17.612062168
1715821808281682018,0.118,,,,17.619756118
1715821808289375968,0.106,,,,17.627450068
1715821808297069918,0.099,,,,17.635144018
1715821808304763868,0.101,,,,17.642837968
1715821808312457818,0.113,,,,17.650531918
1715821808320151768,0.132,,,,17.658225868
1715821808327845718,0.14,,,,17.665919818
1715821808335539668,0.132,,,,17.673613768
1715821808343233618,0.132,,,,17.681307718
1715821808350927568,0.135,,,,17.689001668
1715821808358621518,0.132,,,,17.696695618
1715821808366315468,0.132,,,,17.704389568
1715821808374009418,0.132,,,,17.712083518
1715821808381703368,0.13,,,,17.719777468
1715821808389397318,0.13,,,,17.727471418
1715821808397091268,0.137,,,,17.735165368
1715821808404785218,0.135,,,,17.742859318
1715821808412479168,0.053,,,,17.750553268
1715821808420173118,-0.212,,,,17.758247218
1715821808427867068,-0.589,,,,17.765941168
1715821808435561018,-0.667,,,,17.773635118
1715821808443254968,-0.125,,,,17.781329068
1715821808450948918,0.529,,,,17.789023018
1715821808458642868,0.548,,,,17.796716968
1715821808466336818,0.193,,,,17.804410918
1715821808474030768,0.103,,,,17.812104868
1715821808481724718,0.161,,,,17.819798818
1715821808489418668,0.111,,,,17.827492768
1715821808497112618,0.087,,,,17.835186718
1715821808504806568,0.113,,,,17.842880668
1715821808512500518,0.103,,,,17.850574618
1715821808520194468,0.087,,,,17.858268568
1715821808527888418,0.091,,,,17.865962518
1715821808535582368,0.077,,,,17.873656468
1715821808543276318,0.053,,,,17.881350418
1715821808550970268,0.053,,,,17.889044368
1715821808558664218,0.058,,,,17.896738318
1715821808566358168,0.045,,,,17.904432268
1715821808574052118,0.036,,,,17.912126218
1715821808581746068,0.029,,,,17.919820168
1715821808589440018,0.014,,,,17.927514118
1715821808597133968,0.004,,,,17.935208068
1715821808604827918,-0.004,,,,17.942902018
1715821808612521868,-0.021,,,,17.950595968
1715821808620215818,-0.036,,,,17.958289918
1715821808627909768,-0.05,,,,17.965983868
1715821808635603726,-0.07,,,,17.973677826
1715821808643298094,-0.077,,,,17.981372194
1715821808650992462,-0.077,,,,17.989066562
1715821808658686830,-0.082,,,,17.99676093
1715821808666381198,-0.082,,,,18.004455298
1715821808674075566,-0.067,,817.0,,18.012149666
1715821808681769934,-0.038,,,,18.019844034
1715821808689464302,-0.004,,,,18.027538402
1715821808697158670,0.033,,,,18.03523277
1715821808704853038,0.082,,,,18.042927138
1715821808712547406,0.135,,,,18.050621506
1715821808720241774,0.176,,,,18.058315874
1715821808727936142,0.2,,,,18.066010242
1715821808735630510,0.215,,,,18.07370461
1715821808743324878,0.232,,,,18.081398978
1715821808751019246,0.236,,,,18.089093346
1715821808758713614,0.234,,,,18.096787714
1715821808766407982,0.234,,,,18.104482082
1715821808774102350,0.234,,,,18.11217645
1715821808781796718,0.232,,,,18.119870818
1715821808789491086,0.227,,,,18.127565186
1715821808797185454,0.224,,,,18.135259554
1715821808804879822,0.222,,,,18.142953922
1715821808812574190,0.212,,,,18.15064829
1715821808820268558,0.203,,,,18.158342658
1715821808827962926,0.195,,,,18.166037026
1715821808835657294,0.19,,,,18.173731394
1715821808843351662,0.19,,,,18.181425762
1715821808851046030,0.183,,,,18.18912013
1715821808858740398,0.176,,,,18.196814498
1715821808866434766,0.174,,,,18.204508866
1715821808874129134,0.174,,,,18.212203234
1715821808881823502,0.166,,,,18.219897602
1715821808889517870,0.166,,,,18.22759197
1715821808897212238,0.169,,,,18.235286338
1715821808904906606,0.161,,,,18.242980706
1715821808912600974,0.149,,,,18.250675074
1715821808920295342,0.154,,,,18.258369442
1715821808927989710,0.159,,,,18.26606381
1715821808935684078,0.149,,,,18.273758178
1715821808943378446,0.142,,,,18.281452546
1715821808951072814,0.145,,,,18.289146914
1715821808958767182,0.147,,,,18.296841282
1715821808966461550,0.145,,,,18.30453565
1715821808974155918,0.142,,,,18.312230018
1715821808981850286,0.145,,,,18.319924386
1715821808989544654,0.145,,,,18.327618754
1715821808997239022,0.14,,,,18.335313122
1715821809004933390,0.137,,,,18.34300749
1715821809012627758,0.14,,,,18.350701858
1715821809020322126,0.142,,,,18.358396226
1715821809028016494,0.14,,,,18.366090594
1715821809035710862,0.135,,,,18.373784962
1715821809043405230,0.128,,,,18.38147933
1715821809051099598,0.12,,,,18.389173698
1715821809058793966,0.123,,,,18.396868066
1715821809066488334,0.128,,,,18.404562434
1715821809074182702,0.128,,,,18.412256802
1715821809081877070,0.128,,,,18.41995117
1715821809089571438,0.132,,,,18.427645538
1715821809097265806,0.135,,,,18.435339906
1715821809104960174,0.132,,,,18.443034274
1715821809112654542,0.125,,,,18.450728642
1715821809120348910,0.116,,,,18.45842301
1715821809128043278,0.101,,,,18.466117378
1715821809135737646,0.096,,,,18.473811746
1715821809143432014,0.106,,,,18.481506114
1715821809151126382,0.128,,,,18.489200482
1715821809158820750,0.14,,,,18.49689485
1715821809166515118,0.14,,,,18.504589218
1715821809174209486,0.137,,,,18.512283586
1715821809181903854,0.135,,,,18.519977954
1715821809189598222,0.132,,,,18.527672322
1715821809197292602,0.132,73.0,,,18.535366702
1715821809204986621,0.132,,,,18.543060721
1715821809212680640,0.128,,,,18.55075474
1715821809220374659,0.128,,,,18.558448759
1715821809228068678,0.132,,,,18.566142778
1715821809235762697,0.135,,,,18.573836797
1715821809243456716,0.096,,,,18.581530816
1715821809251150735,-0.065,,,,18.589224835
1715821809258844754,-0.413,,,,18.596918854
1715821809266538773,-0.717,,,,18.604612873
1715821809274232792,-0.512,,,,18.612306892
1715821809281926811,0.203,,,,18.620000911
1715821809289620830,0.628,,,,18.62769493
1715821809297314849,0.364,,,,18.635388949
1715821809305008868,0.089,,,,18.643082968
1715821809312702887,0.14,,,,18.650776987
1715821809320396906,0.152,,,,18.658471006
1715821809328090925,0.087,,,,18.666165025
1715821809335784944,0.103,,,,18.673859044
1715821809343478963,0.123,,,,18.681553063
1715821809351172982,0.101,,,,18.689247082
1715821809358867001,0.094,,,,18.696941101
1715821809366561020,0.096,,,,18.70463512
1715821809374255039,0.087,,,,18.712329139
1715821809381949058,0.079,,,,18.720023158
1715821809389643077,0.077,,,,18.727717177
1715821809397337096,0.067,,,,18.735411196
1715821809405031115,0.06,,,,18.743105215
1715821809412725134,0.053,,,,18.750799234
1715821809420419153,0.041,,,,18.758493253
1715821809428113172,0.024,,,,18.766187272
1715821809435807191,0.007,,,,18.773881291
1715821809443501210,-0.004,,,,18.78157531
1715821809451195229,-0.021,,,,18.789269329
1715821809458889248,-0.038,,,,18.796963348
1715821809466583267,-0.05,,,,18.804657367
1715821809474277286,-0.062,,,,18.812351386
1715821809481971305,-0.074,,,,18.820045405
1715821809489665324,-0.079,,,,18.827739424
1715821809497359343,-0.074,,819.0,,18.835433443
1715821809505053362,-0.065,,,,18.843127462
1715821809512747381,-0.053,,,,18.850821481
1715821809520441400,-0.026,,,,18.8585155
1715821809528135419,0.021,,,,18.866209519
1715821809535829438,0.074,,,,18.873903538
1715821809543523457,0.12,,,,18.881597557
1715821809551217476,0.152,,,,18.889291576
1715821809558911495,0.183,,,,18.896985595
1715821809566605514,0.21,,,,18.904679614
1715821809574299533,0.224,,,,18.912373633
1715821809581993552,0.236,,,,18.920067652
1715821809589687571,0.244,,,,18.927761671
1715821809597381590,0.241,,,,18.93545569
1715821809605075609,0.239,,,,18.943149709
1715821809612769628,0.234,,,,18.950843728
1715821809620463647,0.232,,,,18.958537747
1715821809628157666,0.224,,,,18.966231766
1715821809635851685,0.217,,,,18.973925785
1715821809643545704,0.21,,,,18.981619804
1715821809651239723,0.205,,,,18.989313823
1715821809658933742,0.198,,,,18.997007842
1715821809666627761,0.193,,,,19.004701861
1715821809674321780,0.19,,,,19.01239588
1715821809682015799,0.181,,,,19.020089899
1715821809689709818,0.171,,,,19.027783918
1715821809697403837,0.166,,,,19.035477937
1715821809705097856,0.161,,,,19.043171956
1715821809712791875,0.161,,,,19.050865975
1715821809720485894,0.157,,,,19.058559994
1715821809728179913,0.152,,,,19.066254013
1715821809735873932,0.149,,,,19.073948032
1715821809743567951,0.147,,,,19.081642051
1715821809751261970,0.142,,,,19.08933607
1715821809758956048,0.142,73.0,,,19.097030148
1715821809766650346,0.147,,,,19.104724446
1715821809774344644,0.145,,,,19.112418744
1715821809782038942,0.142,,,,19.120113042
1715821809789733240,0.14,,,,19.12780734
1715821809797427538,0.137,,,,19.135501638
1715821809805121836,0.132,,,,19.143195936
1715821809812816134,0.125,,,,19.150890234
1715821809820510432,0.123,,,,19.158584532
1715821809828204730,0.13,,,,19.16627883
1715821809835899028,0.13,,,,19.173973128
1715821809843593326,0.128,,,,19.181667426
1715821809851287624,0.13,,,,19.189361724
1715821809858981922,0.13,,,,19.197056022
1715821809866676220,0.13,,,,19.20475032
1715821809874370518,0.128,,,,19.212444618
1715821809882064816,0.128,,,,19.220138916
1715821809889759114,0.128,,,,19.227833214
1715821809897453412,0.125,,,,19.235527512
1715821809905147710,0.13,,,,19.24322181
1715821809912842008,0.135,,,,19.250916108
1715821809920536306,0.13,,,,19.258610406
1715821809928230604,0.123,,,,19.266304704
1715821809935924902,0.128,,,,19.273999002
1715821809943619200,0.135,,,,19.2816933
1715821809951313498,0.13,,,,19.289387598
1715821809959007796,0.116,,,,19.297081896
1715821809966702094,0.101,,,,19.304776194
1715821809974396392,0.094,,,,19.312470492
1715821809982090690,0.099,,,,19.32016479
1715821809989784988,0.111,,,,19.327859088
1715821809997479286,0.125,,,,19.335553386
1715821810005173584,0.132,,,,19.343247684
1715821810012867882,0.13,,,,19.350941982
1715821810020562180,0.128,,,,19.35863628
1715821810028256478,0.132,,,,19.366330578
1715821810035950776,0.132,,,,19.374024876
1715821810043645074,0.12,,,,19.381719174
1715821810051339372,0.111,,,,19.389413472
1715821810059033670,0.113,,,,19.39710777
1715821810066727968,0.113,,,,19.404802068
1715821810074422266,0.116,,,,19.412496366
1715821810082116564,0.123,,,,19.420190664
1715821810089810862,0.082,,,,19.427884962
1715821810097505160,-0.123,,,,19.43557926
1715821810105199458,-0.495,,,,19.443273558
1715821810112893756,-0.732,,,,19.450967856
1715821810120588054,-0.393,,,,19.458662154
1715821810128282352,0.326,,,,19.466356452
1715821810135976650,0.594,,,,19.47405075
1715821810143670948,0.265,,,,19.481745048
1715821810151365246,0.067,,,,19.489439346
1715821810159059544,0.147,,,,19.497133644
1715821810166753842,0.14,,,,19.504827942
1715821810174448140,0.079,,,,19.51252224
1715821810182142438,0.103,,,,19.520216538
1715821810189836736,0.116,,,,19.527910836
1715821810197531034,0.087,,,,19.535605134
1715821810205225332,0.082,,,,19.543299432
1715821810212919630,0.089,,,,19.55099373
1715821810220613928,0.082,,,,19.558688028
1715821810228308226,0.072,,,,19.566382326
1715821810236002524,0.065,,,,19.574076624
1715821810243696822,0.058,,,,19.581770922
1715821810251391120,0.048,,,,19.58946522
1715821810259085418,0.043,,,,19.597159518
1715821810266779716,0.033,,,,19.604853816
1715821810274474014,0.019,,,,19.612548114
1715821810282168312,0.007,,,,19.620242412
1715821810289862610,-0.009,,,,19.62793671
1715821810297556908,-0.026,,,,19.635631008
1715821810305251206,-0.038,,811.0,,19.643325306
1715821810312945504,-0.05,,,,19.651019604
1715821810320639836,-0.067,,,,19.658713936
1715821810328334204,-0.077,,,,19.666408304
1715821810336028572,-0.079,,,,19.674102672
1715821810343722940,-0.082,,,,19.68179704
1715821810351417308,-0.082,,,,19.689491408
1715821810359111676,-0.062,,,,19.697185776
1715821810366806044,-0.024,,,,19.704880144
1715821810374500412,0.019,,,,19.712574512
1715821810382194780,0.065,,,,19.72026888
1715821810389889148,0.113,,,,19.727963248
1715821810397583516,0.159,,,,19.735657616
1715821810405277884,0.19,,,,19.743351984
1715821810412972252,0.207,,,,19.751046352
1715821810420666620,0.215,,,,19.75874072
1715821810428360988,0.222,,,,19.766435088
1715821810436055356,0.224,,,,19.774129456
1715821810443749724,0.215,,,,19.781823824
1715821810451444092,0.207,,,,19.789518192
1715821810459138460,0.212,,,,19.79721256
1715821810466832828,0.212,,,,19.804906928
1715821810474527196,0.2,,,,19.812601296
1715821810482221564,0.195,,,,19.820295664
1715821810489915932,0.195,,,,19.827990032
1715821810497610300,0.188,,,,19.8356844
1715821810505304668,0.183,,,,19.843378768
1715821810512999036,0.183,,,,19.851073136
1715821810520693404,0.176,,,,19.858767504
1715821810528387772,0.164,,,,19.866461872
1715821810536082140,0.159,,,,19.87415624
1715821810543776508,0.159,,,,19.881850608
1715821810551470876,0.147,,,,19.889544976
1715821810559165244,0.132,,,,19.897239344
1715821810566859612,0.135,,,,19.904933712
1715821810574553980,0.14,,,,19.91262808
1715821810582248348,0.135,,,,19.920322448
1715821810589942716,0.135,,,,19.928016816
1715821810597637084,0.137,,,,19.935711184
1715821810605331452,0.14,,,,19.943405552
1715821810613025820,0.14,,,,19.95109992
1715821810620720188,0.135,,,,19.958794288
1715821810628414556,0.132,,,,19.966488656
1715821810636108924,0.14,,,,19.974183024
1715821810643803292,0.147,,,,19.981877392
1715821810651497660,0.14,,,,19.98957176
1715821810659192028,0.132,,,,19.997266128
1715821810666886396,0.128,,,,20.004960496
1715821810674580764,0.128,,,,20.012654864
1715821810682275132,0.128,,,,20.020349232
1715821810689969500,0.13,,,,20.0280436
1715821810697663868,0.132,,,,20.035737968
1715821810705358236,0.13,,,,20.043432336
1715821810713052604,0.128,,,,20.051126704
1715821810720746972,0.13,,,,20.058821072
1715821810728441340,0.132,,,,20.06651544
1715821810736135708,0.132,,,,20.074209808
1715821810743830076,0.132,,,,20.081904176
1715821810751524444,0.13,,,,20.089598544
1715821810759218812,0.13,,,,20.097292912
1715821810766913180,0.132,,,,20.10498728
1715821810774607548,0.135,,,,20.112681648
1715821810782301916,0.137,,,,20.120376016
1715821810789996284,0.147,,,,20.128070384
1715821810797690652,0.145,,,,20.135764752
1715821810805385020,0.132,,,,20.14345912
1715821810813079388,0.123,,,,20.151153488
1715821810820773756,0.116,,,,20.158847856
1715821810828468124,0.106,,,,20.166542224
1715821810836162492,0.106,,,,20.174236592
1715821810843856860,0.132,,,,20.18193096
1715821810851551228,0.145,,,,20.189625328
1715821810859245596,0.14,,,,20.197319696
1715821810866939964,0.137,,,,20.205014064
1715821810874634332,0.14,,,,20.212708432
1715821810882328714,0.142,73.0,,,20.220402814
1715821810890022942,0.14,,,,20.228097042
1715821810897717170,0.137,,,,20.23579127
1715821810905411398,0.135,,,,20.243485498
1715821810913105626,0.128,,,,20.251179726
1715821810920799854,0.125,,,,20.258873954
1715821810928494082,0.135,,,,20.266568182
1715821810936188310,0.132,,,,20.27426241
1715821810943882538,0.043,,,,20.281956638
1715821810951576766,-0.222,,,,20.289650866
1715821810959270994,-0.5750000000000001,,,,20.297345094
1715821810966965222,-0.64,,,,20.305039322
1715821810974659450,-0.135,,,,20.31273355
1715821810982353678,0.493,,,,20.320427778
1715821810990047906,0.519,,,,20.328122006
1715821810997742134,0.171,,,,20.335816234
1715821811005436362,0.084,,,,20.343510462
1715821811013130590,0.152,,,,20.35120469
1715821811020824818,0.113,,,,20.358898918
1715821811028519046,0.089,,,,20.366593146
1715821811036213274,0.113,,,,20.374287374
1715821811043907502,0.101,,,,20.381981602
1715821811051601730,0.077,,,,20.38967583
1715821811059295958,0.072,,,,20.397370058
1715821811066990186,0.07,,,,20.405064286
1715821811074684414,0.06,,,,20.412758514
1715821811082378642,0.055,,,,20.420452742
1715821811090072870,0.053,,,,20.42814697
1715821811097767098,0.045,,,,20.435841198
1715821811105461326,0.038,,797.0,,20.443535426
1715821811113155554,0.031,,,,20.451229654
1715821811120849782,0.021,,,,20.458923882
1715821811128544010,0.007,,,,20.46661811
1715821811136238238,-0.004,,,,20.474312338
1715821811143932466,-0.012,,,,20.482006566
1715821811151626694,-0.031,,,,20.489700794
1715821811159320922,-0.06,,,,20.497395022
1715821811167015150,-0.074,,,,20.50508925
1715821811174709378,-0.079,,,,20.512783478
1715821811182403606,-0.087,,,,20.520477706
1715821811190097834,-0.089,,,,20.528171934
1715821811197792062,-0.087,,,,20.535866162
1715821811205486290,-0.07,,,,20.54356039
1715821811213180518,-0.05,,,,20.551254618
1715821811220874746,-0.021,,,,20.558948846
1715821811228568974,0.024,,,,20.566643074
1715821811236263202,0.079,,,,20.574337302
1715821811243957430,0.128,,,,20.58203153
1715821811251651658,0.161,,,,20.589725758
1715821811259345886,0.183,,,,20.597419986
1715821811267040114,0.2,,,,20.605114214
1715821811274734342,0.215,,,,20.612808442
1715821811282428570,0.219,,,,20.62050267
1715821811290122798,0.217,,,,20.628196898
1715821811297817026,0.219,,,,20.635891126
1715821811305511254,0.219,,,,20.643585354
1715821811313205482,0.212,,,,20.651279582
1715821811320899710,0.205,,,,20.65897381
1715821811328593938,0.203,,,,20.666668038
1715821811336288166,0.195,,,,20.674362266
1715821811343982394,0.19,,,,20.682056494
1715821811351676622,0.186,,,,20.689750722
1715821811359370850,0.178,,,,20.69744495
1715821811367065078,0.169,,,,20.705139178
1715821811374759306,0.161,,,,20.712833406
1715821811382453534,0.161,,,,20.720527634
1715821811390147762,0.161,,,,20.728221862
1715821811397841990,0.157,,,,20.73591609
1715821811405536218,0.152,,,,20.743610318
1715821811413230446,0.149,,,,20.751304546
1715821811420924674,0.152,,,,20.758998774
1715821811428618902,0.152,,,,20.766693002
1715821811436313130,0.147,,,,20.77438723
1715821811444007418,0.149,,,,20.782081518
1715821811451701716,0.152,,,,20.789775816
1715821811459396014,0.145,,,,20.797470114
1715821811467090312,0.145,,,,20.805164412
1715821811474784610,0.149,,,,20.81285871
1715821811482478908,0.154,,,,20.820553008
1715821811490173206,0.149,,,,20.828247306
1715821811497867504,0.142,,,,20.835941604
1715821811505561802,0.145,,,,20.843635902
1715821811513256100,0.147,,,,20.8513302
1715821811520950398,0.137,,,,20.859024498
1715821811528644696,0.13,,,,20.866718796
1715821811536338994,0.132,,,,20.874413094
1715821811544033292,0.132,,,,20.882107392
1715821811551727590,0.128,,,,20.88980169
1715821811559421888,0.12,,,,20.897495988
1715821811567116186,0.123,,,,20.905190286
1715821811574810484,0.12,,,,20.912884584
1715821811582504782,0.12,,,,20.920578882
1715821811590199080,0.125,,,,20.92827318
1715821811597893378,0.128,,,,20.935967478
1715821811605587676,0.125,,,,20.943661776
1715821811613281974,0.125,,,,20.951356074
1715821811620976272,0.128,,,,20.959050372
1715821811628670570,0.128,,,,20.96674467
1715821811636364868,0.125,,,,20.974438968
1715821811644059166,0.125,,,,20.982133266
1715821811651753464,0.128,,,,20.989827564
1715821811659447762,0.132,,,,20.997521862
1715821811667142060,0.132,,,,21.00521616
1715821811674836358,0.12,,,,21.012910458
1715821811682530656,0.103,,,,21.020604756
1715821811690224954,0.096,,,,21.028299054
1715821811697919252,0.099,,,,21.035993352
1715821811705613550,0.111,,,,21.04368765
1715821811713307848,0.132,,,,21.051381948
1715821811721002146,0.137,,,,21.059076246
1715821811728696444,0.132,,,,21.066770544
1715821811736390742,0.132,,,,21.074464842
1715821811744085040,0.137,,,,21.08215914
1715821811751779338,0.14,,,,21.089853438
1715821811759473636,0.135,,,,21.097547736
1715821811767167934,0.13,,,,21.105242034
1715821811774862232,0.13,,,,21.112936332
1715821811782556530,0.13,,,,21.12063063
1715821811790250828,0.135,,,,21.128324928
1715821811797945126,0.142,,,,21.136019226
1715821811805639424,0.099,,,,21.143713524
1715821811813333722,-0.091,,,,21.151407822
1715821811821028020,-0.439,,,,21.15910212
1715821811828722318,-0.65,,,,21.166796418
1715821811836416616,-0.331,,,,21.174490716
1715821811844110914,0.338,,,,21.182185014
1715821811851805212,0.611,,,,21.189879312
1715821811859499510,0.311,,,,21.19757361
1715821811867193808,0.089,,,,21.205267908
1715821811874888106,0.145,,,,21.212962206
1715821811882582404,0.149,,,,21.220656504
1715821811890276702,0.094,,,,21.228350802
1715821811897971000,0.101,,,,21.2360451
1715821811905665298,0.108,,,,21.243739398
1715821811913359596,0.089,,,,21.251433696
1715821811921053894,0.089,,,,21.259127994
1715821811928748192,0.096,,,,21.266822292
1715821811936442490,0.087,,,,21.27451659
1715821811944136788,0.074,,,,21.282210888
1715821811951831086,0.074,,,,21.289905186
1715821811959525384,0.067,,,,21.297599484
1715821811967219682,0.055,,,,21.305293782
1715821811974913980,0.048,,,,21.31298808
1715821811982608278,0.043,,,,21.320682378
1715821811990302576,0.031,,,,21.328376676
1715821811997996874,0.014,,,,21.336070974
1715821812005691208,-0.002,73.0,835.0,,21.343765308
1715821812013385367,-0.016,,,,21.351459467
1715821812021079526,-0.031,,,,21.359153626
1715821812028773685,-0.048,,,,21.366847785
1715821812036467844,-0.06,,,,21.374541944
1715821812044162003,-0.065,,,,21.382236103
1715821812051856162,-0.079,,,,21.389930262
1715821812059550321,-0.099,,,,21.397624421
1715821812067244480,-0.094,,,,21.40531858
1715821812074938639,-0.07,,,,21.413012739
1715821812082632798,-0.043,,,,21.420706898
1715821812090326957,-0.007,,,,21.428401057
1715821812098021116,0.045,,,,21.436095216
1715821812105715275,0.099,,,,21.443789375
1715821812113409434,0.14,,,,21.451483534
1715821812121103593,0.166,,,,21.459177693
1715821812128797752,0.188,,,,21.466871852
1715821812136491911,0.203,,,,21.474566011
1715821812144186070,0.203,,,,21.48226017
1715821812151880229,0.198,,,,21.489954329
1715821812159574388,0.198,,,,21.497648488
1715821812167268547,0.198,,,,21.505342647
1715821812174962706,0.195,,,,21.513036806
1715821812182656865,0.186,,,,21.520730965
1715821812190351024,0.178,,,,21.528425124
1715821812198045183,0.178,,,,21.536119283
1715821812205739342,0.181,,,,21.543813442
1715821812213433501,0.174,,,,21.551507601
1715821812221127660,0.166,,,,21.55920176
1715821812228821819,0.166,,,,21.566895919
1715821812236515978,0.159,,,,21.574590078
1715821812244210137,0.154,,,,21.582284237
1715821812251904296,0.154,,,,21.589978396
1715821812259598455,0.157,,,,21.597672555
1715821812267292614,0.157,,,,21.605366714
1715821812274986773,0.154,,,,21.613060873
1715821812282680932,0.152,,,,21.620755032
1715821812290375091,0.154,,,,21.628449191
1715821812298069250,0.154,,,,21.63614335
1715821812305763409,0.152,,,,21.643837509
1715821812313457568,0.152,,,,21.651531668
1715821812321151727,0.152,,,,21.659225827
1715821812328845886,0.149,,,,21.666919986
1715821812336540045,0.149,,,,21.674614145
1715821812344234204,0.154,,,,21.682308304
1715821812351928363,0.154,,,,21.690002463
1715821812359622522,0.152,,,,21.697696622
1715821812367316681,0.152,,,,21.705390781
1715821812375010840,0.154,,,,21.71308494
1715821812382704999,0.152,,,,21.720779099
1715821812390399158,0.145,,,,21.728473258
1715821812398093317,0.14,,,,21.736167417
1715821812405787476,0.142,,,,21.743861576
1715821812413481635,0.145,,,,21.751555735
1715821812421175794,0.14,,,,21.759249894
1715821812428869953,0.14,,,,21.766944053
1715821812436564112,0.142,,,,21.774638212
1715821812444258271,0.145,,,,21.782332371
1715821812451952430,0.142,,,,21.79002653
1715821812459646589,0.142,,,,21.797720689
1715821812467340748,0.142,,,,21.805414848
1715821812475034907,0.14,,,,21.813109007
1715821812482729066,0.142,,,,21.820803166
1715821812490423225,0.152,,,,21.828497325
1715821812498117384,0.157,,,,21.836191484
1715821812505811543,0.149,,,,21.843885643
1715821812513505702,0.135,,,,21.851579802
1715821812521199861,0.125,,,,21.859273961
1715821812528894020,0.116,,,,21.86696812
1715821812536588179,0.113,,,,21.874662279
1715821812544282338,0.125,,,,21.882356438
1715821812551976497,0.147,,,,21.890050597
1715821812559670656,0.14,,,,21.897744756
1715821812567364824,0.125,,,,21.905438924
1715821812575059192,0.128,,,,21.913133292
1715821812582753560,0.137,,,,21.92082766
1715821812590447928,0.137,,,,21.928522028
1715821812598142296,0.128,,,,21.936216396
1715821812605836664,0.128,,,,21.943910764
1715821812613531032,0.128,,,,21.951605132
1715821812621225400,0.125,,,,21.9592995
1715821812628919768,0.125,,,,21.966993868
1715821812636614136,0.123,,,,21.974688236
1715821812644308504,0.053,,,,21.982382604
1715821812652002872,-0.183,,,,21.990076972
1715821812659697240,-0.543,,,,21.99777134
1715821812667391608,-0.655,,,,22.005465708
1715821812675085976,-0.183,,,,22.013160076
1715821812682780344,0.478,,,,22.020854444
1715821812690474712,0.5720000000000001,,,,22.028548812
1715821812698169080,0.222,,,,22.03624318
1715821812705863448,0.091,,,,22.043937548
1715821812713557816,0.147,,,,22.051631916
1715821812721252184,0.103,,,,22.059326284
1715821812728946552,0.074,,,,22.067020652
1715821812736640920,0.101,,,,22.07471502
1715821812744335288,0.094,,,,22.082409388
1715821812752029656,0.074,,,,22.090103756
1715821812759724024,0.084,,,,22.097798124
1715821812767418392,0.084,,,,22.105492492
1715821812775112760,0.07,,,,22.11318686
1715821812782807128,0.062,,845.0,,22.120881228
1715821812790501496,0.06,,,,22.128575596
1715821812798195864,0.048,,,,22.136269964
1715821812805890232,0.038,,,,22.143964332
1715821812813584600,0.031,,,,22.1516587
1715821812821278968,0.024,,,,22.159353068
1715821812828973336,0.012,,,,22.167047436
1715821812836667704,-0.002,,,,22.174741804
1715821812844362072,-0.019,,,,22.182436172
1715821812852056440,-0.036,,,,22.19013054
1715821812859750808,-0.053,,,,22.197824908
1715821812867445176,-0.065,,,,22.205519276
1715821812875139544,-0.084,,,,22.213213644
1715821812882833912,-0.099,,,,22.220908012
1715821812890528280,-0.094,,,,22.22860238
1715821812898222648,-0.087,,,,22.236296748
1715821812905917016,-0.077,,,,22.243991116
