time,ecg,hr,rr,marker,norm_time
1715821995112587472,0.128,72.0,,,0.0
1715821995120281422,0.161,,,,0.00769395
1715821995127975372,0.183,,,,0.0153879
1715821995135669322,0.198,,,,0.02308185
1715821995143363272,0.207,,,,0.0307758
1715821995151057222,0.207,,,,0.03846975
1715821995158751172,0.198,,,,0.0461637
1715821995166445122,0.195,,,,0.05385765
1715821995174139072,0.203,,,,0.0615516
1715821995181833022,0.2,,,,0.06924555
1715821995189526972,0.19,,,,0.0769395
1715821995197220922,0.19,,,,0.08463345
1715821995204914872,0.198,,,,0.0923274
1715821995212608822,0.19,,,,0.10002135
1715821995220302772,0.186,,,,0.1077153
1715821995227996722,0.186,,,,0.11540925
1715821995235690672,0.181,,,,0.1231032
1715821995243384622,0.176,,,,0.13079715
1715821995251078572,0.171,,,,0.1384911
1715821995258772522,0.174,,,,0.14618505
1715821995266466472,0.176,,,,0.153879
1715821995274160422,0.169,,,,0.16157295
1715821995281854372,0.161,,,,0.1692669
1715821995289548322,0.166,,,,0.17696085
1715821995297242272,0.166,,,,0.1846548
1715821995304936222,0.164,,,,0.19234875
1715821995312630172,0.161,,,,0.2000427
1715821995320324122,0.164,,,,0.20773665
1715821995328018072,0.164,,,,0.2154306
1715821995335712022,0.161,,,,0.22312455
1715821995343405972,0.164,,,,0.2308185
1715821995351099922,0.169,,,,0.23851245
1715821995358793872,0.169,,,,0.2462064
1715821995366487822,0.161,,,,0.25390035
1715821995374181772,0.149,,,,0.2615943
1715821995381875722,0.145,,,,0.26928825
1715821995389569672,0.149,,,,0.2769822
1715821995397263622,0.149,,,,0.28467615
1715821995404957572,0.145,,,,0.2923701
1715821995412651522,0.147,,,,0.30006405
1715821995420345472,0.152,,,,0.307758
1715821995428039422,0.147,,,,0.31545195
1715821995435733372,0.149,,,,0.3231459
1715821995443427322,0.154,,,,0.33083985
1715821995451121272,0.152,,,,0.3385338
1715821995458815222,0.149,,,,0.34622775
1715821995466509172,0.147,,,,0.3539217
1715821995474203122,0.147,,,,0.36161565
1715821995481897072,0.149,,,,0.3693096
1715821995489591022,0.149,,,,0.37700355
1715821995497284972,0.149,,,,0.3846975
1715821995504978922,0.154,,,,0.39239145
1715821995512672872,0.154,,,,0.4000854
1715821995520366822,0.149,,,,0.40777935
1715821995528060772,0.142,,,,0.4154733
1715821995535754722,0.128,,,,0.42316725
1715821995543448672,0.118,,,,0.4308612
1715821995551142622,0.113,,,,0.43855515
1715821995558836572,0.123,,,,0.4462491
1715821995566530522,0.142,,,,0.45394305
1715821995574224472,0.152,,,,0.461637
1715821995581918422,0.149,,,,0.46933095
1715821995589612372,0.152,,,,0.4770249
1715821995597306322,0.152,,,,0.48471885
1715821995605000272,0.147,,,,0.4924128
1715821995612694222,0.142,,,,0.50010675
1715821995620388172,0.14,,,,0.5078007
1715821995628082122,0.132,,,,0.51549465
1715821995635776072,0.13,,,,0.5231886
1715821995643470022,0.137,,,,0.53088255
1715821995651163972,0.132,,,,0.5385765
1715821995658857922,0.065,,,,0.54627045
1715821995666551872,-0.159,,,,0.5539644
1715821995674245832,-0.5,72.0,,,0.56165836
1715821995681940200,-0.623,,,,0.569352728
1715821995689634568,-0.215,,,,0.577047096
1715821995697328936,0.42,,,,0.584741464
1715821995705023304,0.58,,,,0.592435832
1715821995712717672,0.27,,,,0.6001302
1715821995720412040,0.103,,854.0,,0.607824568
1715821995728106408,0.142,,,,0.615518936
1715821995735800776,0.116,,,,0.623213304
1715821995743495144,0.077,,,,0.630907672
1715821995751189512,0.096,,,,0.63860204
1715821995758883880,0.094,,,,0.646296408
1715821995766578248,0.074,,,,0.653990776
1715821995774272616,0.074,,,,0.661685144
1715821995781966984,0.072,,,,0.669379512
1715821995789661352,0.06,,,,0.67707388
1715821995797355720,0.055,,,,0.684768248
1715821995805050088,0.053,,,,0.692462616
1715821995812744456,0.043,,,,0.700156984
1715821995820438824,0.031,,,,0.707851352
1715821995828133192,0.021,,,,0.71554572
1715821995835827560,0.007,,,,0.723240088
1715821995843521928,-0.004,,,,0.730934456
1715821995851216296,-0.026,,,,0.738628824
1715821995858910664,-0.048,,,,0.746323192
1715821995866605032,-0.067,,,,0.75401756
1715821995874299400,-0.101,,,,0.761711928
1715821995881993768,-0.13,,,,0.769406296
1715821995889688136,-0.135,,,,0.777100664
1715821995897382504,-0.137,,,,0.784795032
1715821995905076872,-0.147,,,,0.7924894
1715821995912771240,-0.145,,,,0.800183768
1715821995920465608,-0.13,,,,0.807878136
1715821995928159976,-0.113,,,,0.815572504
1715821995935854344,-0.079,,,,0.823266872
1715821995943548712,-0.024,,,,0.83096124
1715821995951243080,0.033,,,,0.838655608
1715821995958937448,0.089,,,,0.846349976
1715821995966631816,0.135,,,,0.854044344
1715821995974326184,0.164,,,,0.861738712
1715821995982020552,0.19,,,,0.86943308
1715821995989714920,0.205,,,,0.877127448
1715821995997409288,0.212,,,,0.884821816
1715821996005103656,0.217,,,,0.892516184
1715821996012798024,0.217,,,,0.900210552
1715821996020492392,0.215,,,,0.90790492
1715821996028186760,0.217,,,,0.915599288
1715821996035881128,0.217,,,,0.923293656
1715821996043575496,0.215,,,,0.930988024
1715821996051269864,0.212,,,,0.938682392
1715821996058964232,0.205,,,,0.94637676
1715821996066658600,0.2,,,,0.954071128
1715821996074352968,0.2,,,,0.961765496
1715821996082047336,0.198,,,,0.969459864
1715821996089741704,0.193,,,,0.977154232
1715821996097436072,0.193,,,,0.9848486
1715821996105130440,0.188,,,,0.992542968
1715821996112824808,0.176,,,,1.000237336
1715821996120519176,0.169,,,,1.007931704
1715821996128213544,0.174,,,,1.015626072
1715821996135907912,0.176,,,,1.02332044
1715821996143602280,0.169,,,,1.031014808
1715821996151296648,0.164,,,,1.038709176
1715821996158991016,0.166,,,,1.046403544
1715821996166685384,0.171,,,,1.054097912
1715821996174379752,0.169,,,,1.06179228
1715821996182074120,0.171,,,,1.069486648
1715821996189768488,0.176,,,,1.077181016
1715821996197462856,0.174,,,,1.084875384
1715821996205157224,0.169,,,,1.092569752
1715821996212851592,0.169,,,,1.10026412
1715821996220545960,0.171,,,,1.107958488
1715821996228240328,0.174,,,,1.115652856
1715821996235934708,0.171,,,,1.123347236
1715821996243628936,0.166,,,,1.131041464
1715821996251323164,0.166,,,,1.138735692
1715821996259017392,0.169,,,,1.14642992
1715821996266711620,0.166,,,,1.154124148
1715821996274405848,0.164,,,,1.161818376
1715821996282100076,0.169,,,,1.169512604
1715821996289794304,0.161,,,,1.177206832
1715821996297488532,0.147,,,,1.18490106
1715821996305182760,0.145,,,,1.192595288
1715821996312876988,0.152,,,,1.200289516
1715821996320571216,0.147,,,,1.207983744
1715821996328265444,0.132,,,,1.215677972
1715821996335959672,0.13,,,,1.2233722
1715821996343653900,0.137,,,,1.231066428
1715821996351348128,0.137,,,,1.238760656
1715821996359042356,0.13,,,,1.246454884
1715821996366736584,0.135,,,,1.254149112
1715821996374430812,0.142,,,,1.26184334
1715821996382125040,0.132,,,,1.269537568
1715821996389819268,0.111,,,,1.277231796
1715821996397513496,0.099,,,,1.284926024
1715821996405207724,0.094,,,,1.292620252
1715821996412901952,0.089,,,,1.30031448
1715821996420596180,0.101,,,,1.308008708
1715821996428290408,0.123,,,,1.315702936
1715821996435984636,0.128,,,,1.323397164
1715821996443678864,0.13,,,,1.331091392
1715821996451373092,0.132,,,,1.33878562
1715821996459067320,0.132,,,,1.346479848
1715821996466761548,0.132,,,,1.354174076
1715821996474455776,0.13,,,,1.361868304
1715821996482150004,0.128,,,,1.369562532
1715821996489844232,0.125,,,,1.37725676
1715821996497538460,0.128,,,,1.384950988
1715821996505232688,0.13,,,,1.392645216
1715821996512926916,0.135,,,,1.400339444
1715821996520621144,0.091,,,,1.408033672
1715821996528315372,-0.103,,,,1.4157279
1715821996536009600,-0.454,,,,1.423422128
1715821996543703828,-0.664,,,,1.431116356
1715821996551398056,-0.36,,,,1.438810584
1715821996559092284,0.309,,,,1.446504812
1715821996566786512,0.606,,,,1.45419904
1715821996574480740,0.321,,,,1.461893268
1715821996582174968,0.096,,,,1.469587496
1715821996589869196,0.14,,,,1.477281724
1715821996597563424,0.135,,,,1.484975952
1715821996605257652,0.082,,,,1.49267018
1715821996612951880,0.101,,889.0,,1.500364408
1715821996620646108,0.111,,,,1.508058636
1715821996628340336,0.087,,,,1.515752864
1715821996636034564,0.084,,,,1.523447092
1715821996643728792,0.087,,,,1.53114132
1715821996651423020,0.07,,,,1.538835548
1715821996659117248,0.06,,,,1.546529776
1715821996666811476,0.055,,,,1.554224004
1715821996674505704,0.048,,,,1.561918232
1715821996682199932,0.041,,,,1.56961246
1715821996689894160,0.031,,,,1.577306688
1715821996697588388,0.019,,,,1.585000916
1715821996705282616,0.007,,,,1.592695144
1715821996712976844,-0.009,,,,1.600389372
1715821996720671072,-0.033,,,,1.6080836
1715821996728365300,-0.058,,,,1.615777828
1715821996736059528,-0.072,,,,1.623472056
1715821996743753756,-0.094,,,,1.631166284
1715821996751447984,-0.118,,,,1.638860512
1715821996759142212,-0.13,,,,1.64655474
1715821996766836440,-0.132,,,,1.654248968
1715821996774530668,-0.135,,,,1.661943196
1715821996782224896,-0.128,,,,1.669637424
1715821996789919124,-0.108,,,,1.677331652
1715821996797613412,-0.077,71.0,,,1.68502594
1715821996805307501,-0.031,,,,1.692720029
1715821996813001590,0.026,,,,1.700414118
1715821996820695679,0.084,,,,1.708108207
1715821996828389768,0.13,,,,1.715802296
1715821996836083857,0.161,,,,1.723496385
1715821996843777946,0.181,,,,1.731190474
1715821996851472035,0.19,,,,1.738884563
1715821996859166124,0.195,,,,1.746578652
1715821996866860213,0.195,,,,1.754272741
1715821996874554302,0.19,,,,1.76196683
1715821996882248391,0.188,,,,1.769660919
1715821996889942480,0.178,,,,1.777355008
1715821996897636569,0.169,,,,1.785049097
1715821996905330658,0.171,,,,1.792743186
1715821996913024747,0.171,,,,1.800437275
1715821996920718836,0.169,,,,1.808131364
1715821996928412925,0.164,,,,1.815825453
1715821996936107014,0.164,,,,1.823519542
1715821996943801103,0.164,,,,1.831213631
1715821996951495192,0.161,,,,1.83890772
1715821996959189281,0.159,,,,1.846601809
1715821996966883370,0.159,,,,1.854295898
1715821996974577459,0.161,,,,1.861989987
1715821996982271548,0.159,,,,1.869684076
1715821996989965637,0.152,,,,1.877378165
1715821996997659726,0.154,,,,1.885072254
1715821997005353815,0.159,,,,1.892766343
1715821997013047904,0.159,,,,1.900460432
1715821997020741993,0.159,,,,1.908154521
1715821997028436082,0.157,,,,1.91584861
1715821997036130171,0.154,,,,1.923542699
1715821997043824260,0.154,,,,1.931236788
1715821997051518349,0.157,,,,1.938930877
1715821997059212438,0.159,,,,1.946624966
1715821997066906527,0.161,,,,1.954319055
1715821997074600616,0.159,,,,1.962013144
1715821997082294705,0.157,,,,1.969707233
1715821997089988794,0.154,,,,1.977401322
1715821997097682883,0.149,,,,1.985095411
1715821997105376972,0.145,,,,1.9927895
1715821997113071061,0.145,,,,2.000483589
1715821997120765150,0.147,,,,2.008177678
1715821997128459239,0.147,,,,2.015871767
1715821997136153328,0.142,,,,2.023565856
1715821997143847417,0.14,,,,2.031259945
1715821997151541506,0.142,,,,2.038954034
1715821997159235595,0.145,,,,2.046648123
1715821997166929684,0.142,,,,2.054342212
1715821997174623773,0.142,,,,2.062036301
1715821997182317862,0.147,,,,2.06973039
1715821997190011951,0.147,,,,2.077424479
1715821997197706040,0.142,,,,2.085118568
1715821997205400129,0.145,,,,2.092812657
1715821997213094218,0.145,,,,2.100506746
1715821997220788307,0.14,,,,2.108200835
1715821997228482396,0.137,,,,2.115894924
1715821997236176485,0.14,,,,2.123589013
1715821997243870574,0.142,,,,2.131283102
1715821997251564663,0.14,,,,2.138977191
1715821997259258752,0.14,,,,2.14667128
1715821997266952841,0.137,,,,2.154365369
1715821997274646930,0.14,,,,2.162059458
1715821997282341019,0.145,,,,2.169753547
1715821997290035108,0.145,,,,2.177447636
1715821997297729197,0.142,,,,2.185141725
1715821997305423286,0.132,,,,2.192835814
1715821997313117375,0.116,,,,2.200529903
1715821997320811464,0.106,,,,2.208223992
1715821997328505553,0.111,,,,2.215918081
1715821997336199642,0.12,,,,2.22361217
1715821997343893731,0.132,,,,2.231306259
1715821997351587820,0.137,,,,2.239000348
1715821997359281942,0.14,,,,2.24669447
1715821997366976310,0.142,,,,2.254388838
1715821997374670678,0.14,,,,2.262083206
1715821997382365046,0.132,,,,2.269777574
1715821997390059414,0.12,,,,2.277471942
1715821997397753782,0.118,,,,2.28516631
1715821997405448150,0.125,,,,2.292860678
1715821997413142518,0.12,,,,2.300555046
1715821997420836886,0.125,,,,2.308249414
1715821997428531254,0.13,,,,2.315943782
1715821997436225622,0.074,,,,2.32363815
1715821997443919990,-0.12,,,,2.331332518
1715821997451614358,-0.451,,,,2.339026886
1715821997459308726,-0.664,,,,2.346721254
1715821997467003094,-0.389,,,,2.354415622
1715821997474697462,0.261,,,,2.36210999
1715821997482391830,0.58,,,,2.369804358
1715821997490086198,0.316,,882.0,,2.377498726
1715821997497780566,0.072,,,,2.385193094
1715821997505474934,0.108,,,,2.392887462
1715821997513169302,0.118,,,,2.40058183
1715821997520863670,0.074,,,,2.408276198
1715821997528558038,0.089,,,,2.415970566
1715821997536252406,0.099,,,,2.423664934
1715821997543946774,0.082,,,,2.431359302
1715821997551641142,0.074,,,,2.43905367
1715821997559335510,0.074,,,,2.446748038
1715821997567029878,0.067,,,,2.454442406
1715821997574724246,0.058,,,,2.462136774
1715821997582418614,0.048,,,,2.469831142
1715821997590112982,0.031,,,,2.47752551
1715821997597807350,0.014,,,,2.485219878
1715821997605501718,0.009,,,,2.492914246
1715821997613196086,0.0,,,,2.500608614
1715821997620890454,-0.014,,,,2.508302982
1715821997628584822,-0.029,,,,2.51599735
1715821997636279190,-0.043,,,,2.523691718
1715821997643973558,-0.06,,,,2.531386086
1715821997651667926,-0.079,,,,2.539080454
1715821997659362294,-0.099,,,,2.546774822
1715821997667056662,-0.113,,,,2.55446919
1715821997674751030,-0.128,,,,2.562163558
1715821997682445398,-0.135,,,,2.569857926
1715821997690139766,-0.135,,,,2.577552294
1715821997697834134,-0.128,,,,2.585246662
1715821997705528502,-0.113,,,,2.59294103
1715821997713222870,-0.087,,,,2.600635398
1715821997720917238,-0.041,,,,2.608329766
1715821997728611606,0.014,,,,2.616024134
1715821997736305974,0.067,,,,2.623718502
1715821997744000342,0.116,,,,2.63141287
1715821997751694710,0.154,,,,2.639107238
1715821997759389078,0.186,,,,2.646801606
1715821997767083446,0.2,,,,2.654495974
1715821997774777814,0.21,,,,2.662190342
1715821997782472182,0.215,,,,2.66988471
1715821997790166550,0.217,,,,2.677579078
1715821997797860918,0.212,,,,2.685273446
1715821997805555286,0.21,,,,2.692967814
1715821997813249654,0.21,,,,2.700662182
1715821997820944022,0.207,,,,2.70835655
1715821997828638390,0.2,,,,2.716050918
1715821997836332758,0.19,,,,2.723745286
1715821997844027126,0.19,,,,2.731439654
1715821997851721494,0.19,,,,2.739134022
1715821997859415862,0.186,,,,2.74682839
1715821997867110230,0.181,,,,2.754522758
1715821997874804598,0.181,,,,2.762217126
1715821997882498966,0.181,,,,2.769911494
1715821997890193334,0.171,,,,2.777605862
1715821997897887702,0.164,,,,2.78530023
1715821997905582070,0.164,,,,2.792994598
1715821997913276438,0.161,,,,2.800688966
1715821997920970818,0.161,71.0,,,2.808383346
1715821997928664837,0.164,,,,2.816077365
1715821997936358856,0.166,,,,2.823771384
1715821997944052875,0.166,,,,2.831465403
1715821997951746894,0.161,,,,2.839159422
1715821997959440913,0.164,,,,2.846853441
1715821997967134932,0.161,,,,2.85454746
1715821997974828951,0.152,,,,2.862241479
1715821997982522970,0.149,,,,2.869935498
1715821997990216989,0.157,,,,2.877629517
1715821997997911008,0.159,,,,2.885323536
1715821998005605027,0.149,,,,2.893017555
1715821998013299046,0.149,,,,2.900711574
1715821998020993065,0.154,,,,2.908405593
1715821998028687084,0.157,,,,2.916099612
1715821998036381103,0.154,,,,2.923793631
1715821998044075122,0.154,,,,2.93148765
1715821998051769141,0.152,,,,2.939181669
1715821998059463160,0.152,,,,2.946875688
1715821998067157179,0.152,,,,2.954569707
1715821998074851198,0.149,,,,2.962263726
1715821998082545217,0.147,,,,2.969957745
1715821998090239236,0.145,,,,2.977651764
1715821998097933255,0.145,,,,2.985345783
1715821998105627274,0.145,,,,2.993039802
1715821998113321293,0.145,,,,3.000733821
1715821998121015312,0.145,,,,3.00842784
1715821998128709331,0.145,,,,3.016121859
1715821998136403350,0.145,,,,3.023815878
1715821998144097369,0.147,,,,3.031509897
1715821998151791388,0.147,,,,3.039203916
1715821998159485407,0.152,,,,3.046897935
1715821998167179426,0.154,,,,3.054591954
1715821998174873445,0.152,,,,3.062285973
1715821998182567464,0.145,,,,3.069979992
1715821998190261483,0.128,,,,3.077674011
1715821998197955502,0.113,,,,3.08536803
1715821998205649521,0.116,,,,3.093062049
1715821998213343540,0.125,,,,3.100756068
1715821998221037559,0.142,,,,3.108450087
1715821998228731578,0.152,,,,3.116144106
1715821998236425597,0.149,,,,3.123838125
1715821998244119616,0.149,,,,3.131532144
1715821998251813635,0.147,,,,3.139226163
1715821998259507654,0.147,,,,3.146920182
1715821998267201673,0.149,,,,3.154614201
1715821998274895692,0.145,,,,3.16230822
1715821998282589711,0.14,,,,3.170002239
1715821998290283730,0.14,,,,3.177696258
1715821998297977749,0.142,,,,3.185390277
1715821998305671768,0.142,,,,3.193084296
1715821998313365787,0.108,,,,3.200778315
1715821998321059806,-0.048,,,,3.208472334
1715821998328753825,-0.377,,,,3.216166353
1715821998336447844,-0.647,,,,3.223860372
1715821998344141863,-0.461,,854.0,,3.231554391
1715821998351835882,0.169,,,,3.23924841
1715821998359529901,0.589,,,,3.246942429
1715821998367223920,0.401,,,,3.254636448
1715821998374917939,0.113,,,,3.262330467
1715821998382611958,0.116,,,,3.270024486
1715821998390305977,0.135,,,,3.277718505
1715821998397999996,0.074,,,,3.285412524
1715821998405694015,0.077,,,,3.293106543
1715821998413388034,0.094,,,,3.300800562
1715821998421082053,0.077,,,,3.308494581
1715821998428776072,0.067,,,,3.3161886
1715821998436470091,0.072,,,,3.323882619
1715821998444164110,0.067,,,,3.331576638
1715821998451858129,0.058,,,,3.339270657
1715821998459552148,0.048,,,,3.346964676
1715821998467246167,0.036,,,,3.354658695
1715821998474940186,0.029,,,,3.362352714
1715821998482634264,0.019,,,,3.370046792
1715821998490328562,0.0,,,,3.37774109
1715821998498022860,-0.012,,,,3.385435388
1715821998505717158,-0.021,,,,3.393129686
1715821998513411456,-0.048,,,,3.400823984
1715821998521105754,-0.072,,,,3.408518282
1715821998528800052,-0.084,,,,3.41621258
1715821998536494350,-0.101,,,,3.423906878
1715821998544188648,-0.125,,,,3.431601176
1715821998551882946,-0.142,,,,3.439295474
1715821998559577244,-0.145,,,,3.446989772
1715821998567271542,-0.147,,,,3.45468407
1715821998574965840,-0.149,,,,3.462378368
1715821998582660138,-0.137,,,,3.470072666
1715821998590354436,-0.101,,,,3.477766964
1715821998598048734,-0.053,,,,3.485461262
1715821998605743032,0.0,,,,3.49315556
1715821998613437330,0.058,,,,3.500849858
1715821998621131628,0.116,,,,3.508544156
1715821998628825926,0.154,,,,3.516238454
1715821998636520224,0.181,,,,3.523932752
1715821998644214522,0.2,,,,3.53162705
1715821998651908820,0.21,,,,3.539321348
1715821998659603118,0.212,,,,3.547015646
1715821998667297416,0.215,,,,3.554709944
1715821998674991714,0.217,,,,3.562404242
1715821998682686012,0.219,,,,3.57009854
1715821998690380310,0.215,,,,3.577792838
1715821998698074608,0.207,,,,3.585487136
1715821998705768906,0.207,,,,3.593181434
1715821998713463204,0.207,,,,3.600875732
1715821998721157502,0.205,,,,3.60857003
1715821998728851800,0.198,,,,3.616264328
1715821998736546098,0.193,,,,3.623958626
1715821998744240396,0.193,,,,3.631652924
1715821998751934694,0.19,,,,3.639347222
1715821998759628992,0.186,,,,3.64704152
1715821998767323290,0.183,,,,3.654735818
1715821998775017588,0.181,,,,3.662430116
1715821998782711886,0.178,,,,3.670124414
1715821998790406184,0.171,,,,3.677818712
1715821998798100482,0.176,,,,3.68551301
1715821998805794780,0.181,,,,3.693207308
1715821998813489078,0.176,,,,3.700901606
1715821998821183376,0.171,,,,3.708595904
1715821998828877674,0.169,,,,3.716290202
1715821998836571972,0.169,,,,3.7239845
1715821998844266270,0.169,,,,3.731678798
1715821998851960568,0.169,,,,3.739373096
1715821998859654866,0.171,,,,3.747067394
1715821998867349164,0.171,,,,3.754761692
1715821998875043462,0.166,,,,3.76245599
1715821998882737760,0.164,,,,3.770150288
1715821998890432058,0.166,,,,3.777844586
1715821998898126356,0.164,,,,3.785538884
1715821998905820654,0.152,,,,3.793233182
1715821998913514952,0.149,,,,3.80092748
1715821998921209250,0.157,,,,3.808621778
1715821998928903548,0.154,,,,3.816316076
1715821998936597846,0.147,,,,3.824010374
1715821998944292144,0.147,,,,3.831704672
1715821998951986442,0.152,,,,3.83939897
1715821998959680740,0.154,,,,3.847093268
1715821998967375038,0.149,,,,3.854787566
1715821998975069336,0.145,,,,3.862481864
1715821998982763634,0.147,,,,3.870176162
1715821998990457932,0.149,,,,3.87787046
1715821998998152230,0.149,,,,3.885564758
1715821999005846528,0.154,,,,3.893259056
1715821999013540826,0.157,,,,3.900953354
1715821999021235124,0.154,,,,3.908647652
1715821999028929422,0.145,,,,3.91634195
1715821999036623720,0.135,,,,3.924036248
1715821999044318054,0.123,71.0,,,3.931730582
1715821999052012422,0.113,,,,3.93942495
1715821999059706790,0.116,,,,3.947119318
1715821999067401158,0.132,,,,3.954813686
1715821999075095526,0.142,,,,3.962508054
1715821999082789894,0.137,,,,3.970202422
1715821999090484262,0.128,,,,3.97789679
1715821999098178630,0.132,,,,3.985591158
1715821999105872998,0.135,,,,3.993285526
1715821999113567366,0.128,,,,4.000979894
1715821999121261734,0.123,,,,4.008674262
1715821999128956102,0.128,,,,4.01636863
1715821999136650470,0.13,,,,4.024062998
1715821999144344838,0.128,,,,4.031757366
1715821999152039206,0.128,,,,4.039451734
1715821999159733574,0.111,,,,4.047146102
1715821999167427942,-0.016,,,,4.05484047
1715821999175122310,-0.323,,,,4.062534838
1715821999182816678,-0.628,,,,4.070229206
1715821999190511046,-0.531,,,,4.077923574
1715821999198205414,0.082,,,,4.085617942
1715821999205899782,0.592,,863.0,,4.09331231
1715821999213594150,0.464,,,,4.101006678
1715821999221288518,0.147,,,,4.108701046
1715821999228982886,0.12,,,,4.116395414
1715821999236677254,0.149,,,,4.124089782
1715821999244371622,0.091,,,,4.13178415
1715821999252065990,0.084,,,,4.139478518
1715821999259760358,0.111,,,,4.147172886
1715821999267454726,0.091,,,,4.154867254
1715821999275149094,0.074,,,,4.162561622
1715821999282843462,0.079,,,,4.17025599
1715821999290537830,0.079,,,,4.177950358
1715821999298232198,0.065,,,,4.185644726
1715821999305926566,0.055,,,,4.193339094
1715821999313620934,0.043,,,,4.201033462
1715821999321315302,0.031,,,,4.20872783
1715821999329009670,0.024,,,,4.216422198
1715821999336704038,0.014,,,,4.224116566
1715821999344398406,-0.004,,,,4.231810934
1715821999352092774,-0.024,,,,4.239505302
1715821999359787142,-0.036,,,,4.24719967
1715821999367481510,-0.058,,,,4.254894038
1715821999375175878,-0.079,,,,4.262588406
1715821999382870246,-0.096,,,,4.270282774
1715821999390564614,-0.116,,,,4.277977142
1715821999398258982,-0.135,,,,4.28567151
1715821999405953350,-0.154,,,,4.293365878
1715821999413647718,-0.164,,,,4.301060246
1715821999421342086,-0.154,,,,4.308754614
1715821999429036454,-0.14,,,,4.316448982
1715821999436730822,-0.113,,,,4.32414335
1715821999444425190,-0.065,,,,4.331837718
1715821999452119558,-0.007,,,,4.339532086
1715821999459813926,0.05,,,,4.347226454
1715821999467508294,0.103,,,,4.354920822
1715821999475202662,0.145,,,,4.36261519
1715821999482897030,0.171,,,,4.370309558
1715821999490591398,0.19,,,,4.378003926
1715821999498285766,0.205,,,,4.385698294
1715821999505980134,0.21,,,,4.393392662
1715821999513674502,0.21,,,,4.40108703
1715821999521368870,0.212,,,,4.408781398
1715821999529063238,0.212,,,,4.416475766
1715821999536757606,0.205,,,,4.424170134
1715821999544451974,0.2,,,,4.431864502
1715821999552146342,0.2,,,,4.43955887
1715821999559840710,0.195,,,,4.447253238
1715821999567535078,0.186,,,,4.454947606
1715821999575229446,0.181,,,,4.462641974
1715821999582923814,0.181,,,,4.470336342
1715821999590618182,0.178,,,,4.47803071
1715821999598312550,0.181,,,,4.485725078
1715821999606006930,0.181,,,,4.493419458
1715821999613701298,0.176,,,,4.501113826
1715821999621395666,0.171,,,,4.508808194
1715821999629090034,0.166,,,,4.516502562
1715821999636784402,0.166,,,,4.52419693
1715821999644478770,0.171,,,,4.531891298
1715821999652173138,0.169,,,,4.539585666
1715821999659867506,0.164,,,,4.547280034
1715821999667561874,0.164,,,,4.554974402
1715821999675256242,0.166,,,,4.56266877
1715821999682950610,0.161,,,,4.570363138
1715821999690644978,0.152,,,,4.578057506
1715821999698339346,0.154,,,,4.585751874
1715821999706033714,0.161,,,,4.593446242
1715821999713728082,0.154,,,,4.60114061
1715821999721422450,0.145,,,,4.608834978
1715821999729116818,0.145,,,,4.616529346
1715821999736811186,0.147,,,,4.624223714
1715821999744505554,0.142,,,,4.631918082
1715821999752199922,0.142,,,,4.63961245
1715821999759894290,0.147,,,,4.647306818
1715821999767588658,0.145,,,,4.655001186
1715821999775283026,0.14,,,,4.662695554
1715821999782977394,0.142,,,,4.670389922
1715821999790671762,0.147,,,,4.67808429
1715821999798366130,0.145,,,,4.685778658
1715821999806060498,0.137,,,,4.693473026
1715821999813754866,0.137,,,,4.701167394
1715821999821449234,0.14,,,,4.708861762
1715821999829143602,0.14,,,,4.71655613
1715821999836837970,0.135,,,,4.724250498
1715821999844532338,0.135,,,,4.731944866
1715821999852226706,0.135,,,,4.739639234
1715821999859921074,0.135,,,,4.747333602
1715821999867615442,0.135,,,,4.75502797
1715821999875309810,0.132,,,,4.762722338
1715821999883004178,0.135,,,,4.770416706
1715821999890698546,0.132,,,,4.778111074
1715821999898392914,0.13,,,,4.785805442
1715821999906087282,0.128,,,,4.79349981
1715821999913781650,0.12,,,,4.801194178
1715821999921476018,0.116,,,,4.808888546
1715821999929170386,0.118,,,,4.816582914
1715821999936864754,0.118,,,,4.824277282
1715821999944559122,0.118,,,,4.83197165
1715821999952253490,0.123,,,,4.839666018
1715821999959947858,0.128,,,,4.847360386
1715821999967642226,0.125,,,,4.855054754
1715821999975336594,0.118,,,,4.862749122
1715821999983030962,0.106,,,,4.87044349
1715821999990725330,0.091,,,,4.878137858
1715821999998419698,0.094,,,,4.885832226
1715822000006114066,0.113,,,,4.893526594
1715822000013808434,0.125,,,,4.901220962
1715822000021502802,0.13,,,,4.90891533
1715822000029197170,0.135,,,,4.916609698
1715822000036891538,0.132,,,,4.924304066
1715822000044585906,0.125,,,,4.931998434
1715822000052280274,0.12,,,,4.939692802
1715822000059974642,0.123,,,,4.94738717
1715822000067669010,0.128,,,,4.955081538
1715822000075363378,0.125,,,,4.962775906
1715822000083057746,0.12,,,,4.970470274
1715822000090752114,0.123,,,,4.978164642
1715822000098446482,0.12,,,,4.98585901
1715822000106140850,0.043,,,,4.993553378
1715822000113835218,-0.2,,,,5.001247746
1715822000121529586,-0.551,,,,5.008942114
1715822000129223954,-0.662,,,,5.016636482
1715822000136918322,-0.219,,,,5.02433085
1715822000144612690,0.425,,,,5.032025218
1715822000152307058,0.543,,,,5.039719586
1715822000160001426,0.219,,,,5.047413954
1715822000167695806,0.082,71.0,916.0,,5.055108334
1715822000175390174,0.137,,,,5.062802702
1715822000183084542,0.111,,,,5.07049707
1715822000190778910,0.077,,,,5.078191438
1715822000198473278,0.096,,,,5.085885806
1715822000206167646,0.091,,,,5.093580174
1715822000213862014,0.067,,,,5.101274542
1715822000221556382,0.062,,,,5.10896891
1715822000229250750,0.05,,,,5.116663278
1715822000236945118,0.036,,,,5.124357646
1715822000244639486,0.033,,,,5.132052014
1715822000252333854,0.029,,,,5.139746382
1715822000260028222,0.019,,,,5.14744075
1715822000267722590,0.012,,,,5.155135118
1715822000275416958,0.002,,,,5.162829486
1715822000283111326,-0.007,,,,5.170523854
1715822000290805694,-0.021,,,,5.178218222
1715822000298500062,-0.038,,,,5.18591259
1715822000306194430,-0.055,,,,5.193606958
1715822000313888798,-0.074,,,,5.201301326
1715822000321583166,-0.091,,,,5.208995694
1715822000329277534,-0.106,,,,5.216690062
1715822000336971902,-0.125,,,,5.22438443
1715822000344666270,-0.135,,,,5.232078798
1715822000352360638,-0.142,,,,5.239773166
1715822000360055006,-0.145,,,,5.247467534
1715822000367749374,-0.137,,,,5.255161902
1715822000375443742,-0.113,,,,5.26285627
1715822000383138110,-0.074,,,,5.270550638
1715822000390832478,-0.029,,,,5.278245006
1715822000398526846,0.029,,,,5.285939374
1715822000406221214,0.079,,,,5.293633742
1715822000413915582,0.113,,,,5.30132811
1715822000421609950,0.142,,,,5.309022478
1715822000429304318,0.171,,,,5.316716846
1715822000436998686,0.193,,,,5.324411214
1715822000444693054,0.203,,,,5.332105582
1715822000452387422,0.205,,,,5.33979995
1715822000460081790,0.205,,,,5.347494318
1715822000467776158,0.205,,,,5.355188686
1715822000475470526,0.203,,,,5.362883054
1715822000483164894,0.203,,,,5.370577422
1715822000490859262,0.198,,,,5.37827179
1715822000498553630,0.195,,,,5.385966158
1715822000506247998,0.198,,,,5.393660526
1715822000513942366,0.193,,,,5.401354894
1715822000521636734,0.19,,,,5.409049262
1715822000529331102,0.186,,,,5.41674363
1715822000537025470,0.183,,,,5.424437998
1715822000544719838,0.181,,,,5.432132366
1715822000552414206,0.174,,,,5.439826734
1715822000560108574,0.171,,,,5.447521102
1715822000567802942,0.169,,,,5.45521547
1715822000575497310,0.166,,,,5.462909838
1715822000583191678,0.166,,,,5.470604206
1715822000590886046,0.164,,,,5.478298574
1715822000598580414,0.161,,,,5.485992942
1715822000606274782,0.169,,,,5.49368731
1715822000613969150,0.171,,,,5.501381678
1715822000621663518,0.171,,,,5.509076046
1715822000629357886,0.169,,,,5.516770414
1715822000637052254,0.164,,,,5.524464782
1715822000644746622,0.166,,,,5.53215915
1715822000652440990,0.174,,,,5.539853518
1715822000660135358,0.171,,,,5.547547886
1715822000667829726,0.169,,,,5.555242254
1715822000675524094,0.169,,,,5.562936622
1715822000683218462,0.169,,,,5.57063099
1715822000690912830,0.166,,,,5.578325358
1715822000698607198,0.169,,,,5.586019726
1715822000706301566,0.166,,,,5.593714094
1715822000713995934,0.164,,,,5.601408462
1715822000721690302,0.164,,,,5.60910283
1715822000729384682,0.159,70.0,,,5.61679721
1715822000737078771,0.154,,,,5.624491299
1715822000744772860,0.161,,,,5.632185388
1715822000752466949,0.166,,,,5.639879477
1715822000760161038,0.161,,,,5.647573566
1715822000767855127,0.157,,,,5.655267655
1715822000775549216,0.152,,,,5.662961744
1715822000783243305,0.149,,,,5.670655833
1715822000790937394,0.142,,,,5.678349922
1715822000798631483,0.135,,,,5.686044011
1715822000806325572,0.135,,,,5.6937381
1715822000814019661,0.14,,,,5.701432189
1715822000821713750,0.135,,,,5.709126278
1715822000829407839,0.125,,,,5.716820367
1715822000837101928,0.12,,,,5.724514456
1715822000844796017,0.13,,,,5.732208545
1715822000852490106,0.135,,,,5.739902634
1715822000860184195,0.13,,,,5.747596723
1715822000867878284,0.123,,,,5.755290812
1715822000875572373,0.123,,,,5.762984901
1715822000883266462,0.123,,,,5.77067899
1715822000890960551,0.128,,,,5.778373079
1715822000898654640,0.137,,,,5.786067168
1715822000906348729,0.132,,,,5.793761257
1715822000914042818,0.116,,,,5.801455346
1715822000921736907,0.116,,,,5.809149435
1715822000929430996,0.12,,,,5.816843524
1715822000937125085,0.118,,,,5.824537613
1715822000944819174,0.116,,,,5.832231702
1715822000952513263,0.123,,,,5.839925791
1715822000960207352,0.128,,,,5.84761988
1715822000967901441,0.128,,,,5.855313969
1715822000975595530,0.128,,,,5.863008058
1715822000983289619,0.125,,,,5.870702147
1715822000990983708,0.116,,,,5.878396236
1715822000998677797,0.103,,,,5.886090325
1715822001006371886,0.096,,878.0,,5.893784414
1715822001014065975,0.091,,,,5.901478503
1715822001021760064,0.096,,,,5.909172592
1715822001029454153,0.111,,,,5.916866681
1715822001037148242,0.116,,,,5.92456077
1715822001044842331,0.116,,,,5.932254859
1715822001052536420,0.116,,,,5.939948948
1715822001060230509,0.113,,,,5.947643037
1715822001067924598,0.108,,,,5.955337126
1715822001075618687,0.108,,,,5.963031215
1715822001083312776,0.106,,,,5.970725304
1715822001091006865,0.099,,,,5.978419393
1715822001098700954,0.096,,,,5.986113482
1715822001106395043,0.101,,,,5.993807571
1715822001114089132,0.106,,,,6.00150166
1715822001121783221,0.077,,,,6.009195749
1715822001129477310,-0.082,,,,6.016889838
1715822001137171399,-0.398,,,,6.024583927
1715822001144865488,-0.662,,,,6.032278016
1715822001152559577,-0.502,,,,6.039972105
1715822001160253666,0.099,,,,6.047666194
1715822001167947755,0.529,,,,6.055360283
1715822001175641844,0.374,,,,6.063054372
1715822001183335933,0.103,,,,6.070748461
1715822001191030022,0.099,,,,6.07844255
1715822001198724111,0.128,,,,6.086136639
1715822001206418200,0.084,,,,6.093830728
1715822001214112289,0.082,,,,6.101524817
1715822001221806378,0.089,,,,6.109218906
1715822001229500467,0.072,,,,6.116912995
1715822001237194556,0.072,,,,6.124607084
1715822001244888645,0.077,,,,6.132301173
1715822001252582734,0.065,,,,6.139995262
1715822001260276823,0.06,,,,6.147689351
1715822001267970912,0.058,,,,6.15538344
1715822001275665001,0.043,,,,6.163077529
1715822001283359090,0.029,,,,6.170771618
1715822001291053214,0.026,,,,6.178465742
1715822001298747442,0.019,,,,6.18615997
1715822001306441670,0.007,,,,6.193854198
1715822001314135898,-0.004,,,,6.201548426
1715822001321830126,-0.019,,,,6.209242654
1715822001329524354,-0.038,,,,6.216936882
1715822001337218582,-0.062,,,,6.22463111
1715822001344912810,-0.082,,,,6.232325338
1715822001352607038,-0.096,,,,6.240019566
1715822001360301266,-0.108,,,,6.247713794
1715822001367995494,-0.118,,,,6.255408022
1715822001375689722,-0.12,,,,6.26310225
1715822001383383950,-0.116,,,,6.270796478
1715822001391078178,-0.108,,,,6.278490706
1715822001398772406,-0.089,,,,6.286184934
1715822001406466634,-0.048,,,,6.293879162
1715822001414160862,-0.004,,,,6.30157339
1715822001421855090,0.038,,,,6.309267618
1715822001429549318,0.089,,,,6.316961846
1715822001437243546,0.14,,,,6.324656074
1715822001444937774,0.174,,,,6.332350302
1715822001452632002,0.193,,,,6.34004453
1715822001460326230,0.21,,,,6.347738758
1715822001468020458,0.219,,,,6.355432986
1715822001475714686,0.224,,,,6.363127214
1715822001483408914,0.227,,,,6.370821442
1715822001491103142,0.224,,,,6.37851567
1715822001498797370,0.222,,,,6.386209898
1715822001506491598,0.219,,,,6.393904126
1715822001514185826,0.215,,,,6.401598354
1715822001521880054,0.207,,,,6.409292582
1715822001529574282,0.2,,,,6.41698681
1715822001537268510,0.198,,,,6.424681038
1715822001544962738,0.193,,,,6.432375266
1715822001552656966,0.188,,,,6.440069494
1715822001560351194,0.186,,,,6.447763722
1715822001568045422,0.186,,,,6.45545795
1715822001575739650,0.181,,,,6.463152178
1715822001583433878,0.181,,,,6.470846406
1715822001591128106,0.183,,,,6.478540634
1715822001598822334,0.181,,,,6.486234862
1715822001606516562,0.174,,,,6.49392909
1715822001614210790,0.171,,,,6.501623318
1715822001621905018,0.178,,,,6.509317546
1715822001629599246,0.178,,,,6.517011774
1715822001637293474,0.174,,,,6.524706002
1715822001644987702,0.174,,,,6.53240023
1715822001652681930,0.176,,,,6.540094458
1715822001660376158,0.174,,,,6.547788686
1715822001668070386,0.169,,,,6.555482914
1715822001675764614,0.166,,,,6.563177142
1715822001683458842,0.174,,,,6.57087137
1715822001691153070,0.174,,,,6.578565598
1715822001698847298,0.166,,,,6.586259826
1715822001706541526,0.171,,,,6.593954054
1715822001714235754,0.178,,,,6.601648282
1715822001721929982,0.174,,,,6.60934251
1715822001729624210,0.164,,,,6.617036738
1715822001737318438,0.164,,,,6.624730966
1715822001745012666,0.169,,,,6.632425194
1715822001752706894,0.164,,,,6.640119422
1715822001760401122,0.161,,,,6.64781365
1715822001768095350,0.164,,,,6.655507878
1715822001775789578,0.159,,,,6.663202106
1715822001783483806,0.149,,,,6.670896334
1715822001791178034,0.145,,,,6.678590562
1715822001798872262,0.149,,,,6.68628479
1715822001806566490,0.152,,,,6.693979018
1715822001814260718,0.149,,,,6.701673246
1715822001821954946,0.149,,,,6.709367474
1715822001829649174,0.152,,,,6.717061702
1715822001837343402,0.145,,,,6.72475593
1715822001845037630,0.14,,,,6.732450158
1715822001852731916,0.147,70.0,848.0,,6.740144444
1715822001860426284,0.152,,,,6.747838812
1715822001868120652,0.152,,,,6.75553318
1715822001875815020,0.145,,,,6.763227548
1715822001883509388,0.14,,,,6.770921916
1715822001891203756,0.14,,,,6.778616284
1715822001898898124,0.137,,,,6.786310652
1715822001906592492,0.128,,,,6.79400502
1715822001914286860,0.116,,,,6.801699388
1715822001921981228,0.111,,,,6.809393756
1715822001929675596,0.101,,,,6.817088124
1715822001937369964,0.087,,,,6.824782492
1715822001945064332,0.072,,,,6.83247686
1715822001952758700,0.072,,,,6.840171228
1715822001960453068,0.089,,,,6.847865596
1715822001968147436,0.103,,,,6.855559964
1715822001975841804,0.103,,,,6.863254332
1715822001983536172,0.103,,,,6.8709487
1715822001991230540,0.103,,,,6.878643068
1715822001998924908,0.096,,,,6.886337436
1715822002006619276,0.094,,,,6.894031804
1715822002014313644,0.094,,,,6.901726172
1715822002022008012,0.087,,,,6.90942054
1715822002029702380,0.077,,,,6.917114908
1715822002037396748,0.082,,,,6.924809276
1715822002045091116,0.091,,,,6.932503644
1715822002052785484,0.074,,,,6.940198012
1715822002060479852,-0.036,,,,6.94789238
1715822002068174220,-0.314,,,,6.955586748
1715822002075868588,-0.633,,,,6.963281116
1715822002083562956,-0.621,,,,6.970975484
1715822002091257324,-0.079,,,,6.978669852
1715822002098951692,0.493,,,,6.98636422
1715822002106646060,0.471,,,,6.994058588
1715822002114340428,0.149,,,,7.001752956
1715822002122034796,0.084,,,,7.009447324
1715822002129729164,0.128,,,,7.017141692
1715822002137423532,0.082,,,,7.02483606
1715822002145117900,0.067,,,,7.032530428
1715822002152812268,0.089,,,,7.040224796
1715822002160506636,0.074,,,,7.047919164
1715822002168201004,0.067,,,,7.055613532
1715822002175895372,0.07,,,,7.0633079
1715822002183589740,0.062,,,,7.071002268
1715822002191284108,0.055,,,,7.078696636
1715822002198978476,0.055,,,,7.086391004
1715822002206672844,0.043,,,,7.094085372
1715822002214367212,0.033,,,,7.10177974
1715822002222061580,0.031,,,,7.109474108
1715822002229755948,0.026,,,,7.117168476
1715822002237450316,0.012,,,,7.124862844
1715822002245144684,0.0,,,,7.132557212
1715822002252839052,-0.014,,,,7.14025158
1715822002260533420,-0.031,,,,7.147945948
1715822002268227788,-0.053,,,,7.155640316
1715822002275922156,-0.077,,,,7.163334684
1715822002283616524,-0.094,,,,7.171029052
1715822002291310892,-0.111,,,,7.17872342
1715822002299005260,-0.128,,,,7.186417788
1715822002306699628,-0.132,,,,7.194112156
1715822002314393996,-0.125,,,,7.201806524
1715822002322088364,-0.118,,,,7.209500892
1715822002329782732,-0.101,,,,7.21719526
1715822002337477100,-0.062,,,,7.224889628
1715822002345171468,-0.007,,,,7.232583996
1715822002352865836,0.048,,,,7.240278364
1715822002360560204,0.101,,,,7.247972732
1715822002368254572,0.152,,,,7.2556671
1715822002375948940,0.188,,,,7.263361468
1715822002383643308,0.21,,,,7.271055836
1715822002391337676,0.219,,,,7.278750204
1715822002399032044,0.229,,,,7.286444572
1715822002406726412,0.239,,,,7.29413894
1715822002414420792,0.236,,,,7.30183332
1715822002422115160,0.227,,,,7.309527688
1715822002429809528,0.219,,,,7.317222056
1715822002437503896,0.215,,,,7.324916424
1715822002445198264,0.205,,,,7.332610792
1715822002452892632,0.195,,,,7.34030516
1715822002460587000,0.2,,,,7.347999528
1715822002468281368,0.2,,,,7.355693896
1715822002475975736,0.19,,,,7.363388264
1715822002483670104,0.188,,,,7.371082632
1715822002491364472,0.188,,,,7.378777
1715822002499058840,0.19,,,,7.386471368
1715822002506753208,0.188,,,,7.394165736
1715822002514447576,0.181,,,,7.401860104
1715822002522141944,0.174,,,,7.409554472
1715822002529836312,0.169,,,,7.41724884
1715822002537530680,0.169,,,,7.424943208
1715822002545225048,0.169,,,,7.432637576
1715822002552919416,0.171,,,,7.440331944
1715822002560613784,0.171,,,,7.448026312
1715822002568308152,0.169,,,,7.45572068
1715822002576002520,0.164,,,,7.463415048
1715822002583696888,0.169,,,,7.471109416
1715822002591391256,0.166,,,,7.478803784
1715822002599085624,0.161,,,,7.486498152
1715822002606779992,0.161,,,,7.49419252
1715822002614474360,0.166,,,,7.501886888
1715822002622168728,0.166,,,,7.509581256
1715822002629863096,0.164,,,,7.517275624
1715822002637557464,0.164,,,,7.524969992
1715822002645251832,0.164,,,,7.53266436
1715822002652946200,0.159,,,,7.540358728
1715822002660640568,0.157,,,,7.548053096
1715822002668334936,0.159,,,,7.555747464
1715822002676029304,0.157,,,,7.563441832
1715822002683723672,0.154,,,,7.5711362
1715822002691418040,0.154,,,,7.578830568
1715822002699112408,0.159,,,,7.586524936
1715822002706806776,0.159,,,,7.594219304
1715822002714501144,0.149,,,,7.601913672
1715822002722195512,0.149,,,,7.60960804
1715822002729889880,0.154,,,,7.617302408
1715822002737584248,0.154,,,,7.624996776
1715822002745278616,0.149,,,,7.632691144
1715822002752972984,0.147,,,,7.640385512
1715822002760667352,0.145,,,,7.64807988
1715822002768361720,0.137,,,,7.655774248
1715822002776056088,0.132,,,,7.663468616
1715822002783750456,0.13,,,,7.671162984
1715822002791444824,0.13,,,,7.678857352
1715822002799139192,0.128,,,,7.68655172
1715822002806833560,0.123,,,,7.694246088
1715822002814527928,0.123,,,,7.701940456
1715822002822222296,0.125,,,,7.709634824
1715822002829916664,0.123,,,,7.717329192
1715822002837611032,0.12,,,,7.72502356
1715822002845305400,0.125,,,,7.732717928
1715822002852999768,0.12,,,,7.740412296
1715822002860694136,0.111,,,,7.748106664
1715822002868388504,0.101,,,,7.755801032
1715822002876082872,0.084,,,,7.7634954
1715822002883777240,0.074,,,,7.771189768
1715822002891471608,0.084,,,,7.778884136
1715822002899165976,0.096,,,,7.786578504
1715822002906860344,0.103,,,,7.794272872
1715822002914554712,0.108,,,,7.80196724
1715822002922249080,0.108,,,,7.809661608
1715822002929943448,0.094,,,,7.817355976
1715822002937637816,0.094,,,,7.825050344
1715822002945332184,0.099,,,,7.832744712
1715822002953026552,0.094,,,,7.84043908
1715822002960720920,0.094,,,,7.848133448
1715822002968415288,0.101,,,,7.855827816
1715822002976109670,0.103,70.0,941.0,,7.863522198
1715822002983803898,0.103,,,,7.871216426
1715822002991498126,0.065,,,,7.878910654
1715822002999192354,-0.101,,,,7.886604882
1715822003006886582,-0.427,,,,7.89429911
1715822003014580810,-0.6910000000000001,,,,7.901993338
1715822003022275038,-0.502,,,,7.909687566
1715822003029969266,0.132,,,,7.917381794
1715822003037663494,0.543,,,,7.925076022
1715822003045357722,0.338,,,,7.93277025
1715822003053051950,0.06,,,,7.940464478
1715822003060746178,0.084,,,,7.948158706
1715822003068440406,0.116,,,,7.955852934
1715822003076134634,0.06,,,,7.963547162
1715822003083828862,0.065,,,,7.97124139
1715822003091523090,0.084,,,,7.978935618
1715822003099217318,0.067,,,,7.986629846
1715822003106911546,0.058,,,,7.994324074
1715822003114605774,0.062,,,,8.002018302
1715822003122300002,0.058,,,,8.00971253
1715822003129994230,0.045,,,,8.017406758
1715822003137688458,0.043,,,,8.025100986
1715822003145382686,0.041,,,,8.032795214
1715822003153076914,0.033,,,,8.040489442
1715822003160771142,0.029,,,,8.04818367
1715822003168465370,0.014,,,,8.055877898
1715822003176159598,0.0,,,,8.063572126
1715822003183853826,-0.007,,,,8.071266354
1715822003191548054,-0.021,,,,8.078960582
1715822003199242282,-0.038,,,,8.08665481
1715822003206936510,-0.055,,,,8.094349038
1715822003214630738,-0.072,,,,8.102043266
1715822003222324966,-0.094,,,,8.109737494
1715822003230019194,-0.113,,,,8.117431722
1715822003237713422,-0.12,,,,8.12512595
1715822003245407650,-0.123,,,,8.132820178
1715822003253101878,-0.125,,,,8.140514406
1715822003260796106,-0.116,,,,8.148208634
1715822003268490334,-0.091,,,,8.155902862
1715822003276184562,-0.048,,,,8.16359709
1715822003283878790,0.009,,,,8.171291318
1715822003291573018,0.065,,,,8.178985546
1715822003299267246,0.118,,,,8.186679774
1715822003306961474,0.159,,,,8.194374002
1715822003314655702,0.188,,,,8.20206823
1715822003322349930,0.21,,,,8.209762458
1715822003330044158,0.222,,,,8.217456686
1715822003337738386,0.229,,,,8.225150914
1715822003345432614,0.232,,,,8.232845142
1715822003353126842,0.229,,,,8.24053937
1715822003360821070,0.227,,,,8.248233598
1715822003368515298,0.227,,,,8.255927826
1715822003376209526,0.224,,,,8.263622054
1715822003383903754,0.222,,,,8.271316282
1715822003391597982,0.219,,,,8.27901051
1715822003399292210,0.215,,,,8.286704738
1715822003406986438,0.207,,,,8.294398966
1715822003414680666,0.205,,,,8.302093194
1715822003422374894,0.205,,,,8.309787422
1715822003430069122,0.193,,,,8.31748165
1715822003437763350,0.178,,,,8.325175878
1715822003445457578,0.176,,,,8.332870106
1715822003453151806,0.178,,,,8.340564334
1715822003460846034,0.178,,,,8.348258562
1715822003468540262,0.176,,,,8.35595279
1715822003476234490,0.176,,,,8.363647018
1715822003483928718,0.178,,,,8.371341246
1715822003491622946,0.176,,,,8.379035474
1715822003499317174,0.169,,,,8.386729702
1715822003507011402,0.166,,,,8.39442393
1715822003514705630,0.171,,,,8.402118158
1715822003522399858,0.171,,,,8.409812386
1715822003530094086,0.166,,,,8.417506614
1715822003537788374,0.166,,,,8.425200902
1715822003545482463,0.169,,,,8.432894991
1715822003553176552,0.166,,,,8.44058908
1715822003560870641,0.166,,,,8.448283169
1715822003568564730,0.166,,,,8.455977258
1715822003576258819,0.166,,,,8.463671347
1715822003583952908,0.164,,,,8.471365436
1715822003591646997,0.159,,,,8.479059525
1715822003599341086,0.159,,,,8.486753614
1715822003607035175,0.161,,,,8.494447703
1715822003614729264,0.154,,,,8.502141792
1715822003622423353,0.145,,,,8.509835881
1715822003630117442,0.142,,,,8.51752997
1715822003637811531,0.14,,,,8.525224059
1715822003645505620,0.137,,,,8.532918148
1715822003653199709,0.135,,,,8.540612237
1715822003660893798,0.137,,,,8.548306326
1715822003668587887,0.137,,,,8.556000415
1715822003676281976,0.132,,,,8.563694504
1715822003683976065,0.132,,,,8.571388593
1715822003691670154,0.135,,,,8.579082682
1715822003699364243,0.132,,,,8.586776771
1715822003707058332,0.128,,,,8.59447086
1715822003714752421,0.125,,,,8.602164949
1715822003722446510,0.123,,,,8.609859038
1715822003730140599,0.116,,,,8.617553127
1715822003737834688,0.111,,,,8.625247216
1715822003745528777,0.111,,,,8.632941305
1715822003753222866,0.108,,,,8.640635394
1715822003760916955,0.106,,,,8.648329483
1715822003768611044,0.103,,,,8.656023572
1715822003776305133,0.103,,,,8.663717661
1715822003783999222,0.101,,,,8.67141175
1715822003791693311,0.091,,,,8.679105839
1715822003799387400,0.082,,,,8.686799928
1715822003807081489,0.082,,,,8.694494017
1715822003814775578,0.094,,,,8.702188106
1715822003822469667,0.106,,,,8.709882195
1715822003830163756,0.111,,,,8.717576284
1715822003837857845,0.116,,,,8.725270373
1715822003845551934,0.12,,,,8.732964462
1715822003853246023,0.118,,,,8.740658551
1715822003860940112,0.113,,,,8.74835264
1715822003868634201,0.111,,,,8.756046729
1715822003876328290,0.113,,,,8.763740818
1715822003884022379,0.113,,,,8.771434907
1715822003891716468,0.111,,,,8.779128996
1715822003899410557,0.118,,,,8.786823085
1715822003907104646,0.118,,,,8.794517174
1715822003914798735,0.048,,,,8.802211263
1715822003922492824,-0.169,,,,8.809905352
1715822003930186913,-0.497,,,,8.817599441
1715822003937881002,-0.664,,,,8.82529353
1715822003945575091,-0.323,,,,8.832987619
1715822003953269180,0.316,,,,8.840681708
1715822003960963269,0.551,,,,8.848375797
1715822003968657358,0.268,,,,8.856069886
1715822003976351447,0.077,,,,8.863763975
1715822003984045536,0.118,,,,8.871458064
1715822003991739625,0.106,,,,8.879152153
1715822003999433714,0.062,,,,8.886846242
1715822004007127803,0.077,,,,8.894540331
1715822004014821892,0.082,,,,8.90223442
1715822004022515981,0.07,,,,8.909928509
1715822004030210070,0.07,,,,8.917622598
1715822004037904159,0.07,,,,8.925316687
1715822004045598248,0.058,,,,8.933010776
1715822004053292337,0.05,,,,8.940704865
1715822004060986426,0.05,,,,8.948398954
1715822004068680515,0.043,,,,8.956093043
1715822004076374604,0.033,,,,8.963787132
1715822004084068693,0.029,,,,8.971481221
1715822004091762782,0.016,,,,8.97917531
1715822004099456904,0.002,69.0,1020.0,,8.986869432
1715822004107151272,-0.009,,,,8.9945638
1715822004114845640,-0.024,,,,9.002258168
1715822004122540008,-0.041,,,,9.009952536
1715822004130234376,-0.062,,,,9.017646904
1715822004137928744,-0.082,,,,9.025341272
1715822004145623112,-0.101,,,,9.03303564
1715822004153317480,-0.12,,,,9.040730008
1715822004161011848,-0.135,,,,9.048424376
1715822004168706216,-0.135,,,,9.056118744
1715822004176400584,-0.125,,,,9.063813112
1715822004184094952,-0.116,,,,9.07150748
1715822004191789320,-0.091,,,,9.079201848
1715822004199483688,-0.041,,,,9.086896216
1715822004207178056,0.024,,,,9.094590584
1715822004214872424,0.082,,,,9.102284952
1715822004222566792,0.13,,,,9.10997932
1715822004230261160,0.171,,,,9.117673688
1715822004237955528,0.195,,,,9.125368056
1715822004245649896,0.205,,,,9.133062424
1715822004253344264,0.212,,,,9.140756792
1715822004261038632,0.227,,,,9.14845116
1715822004268733000,0.232,,,,9.156145528
1715822004276427368,0.222,,,,9.163839896
1715822004284121736,0.215,,,,9.171534264
1715822004291816104,0.215,,,,9.179228632
1715822004299510472,0.215,,,,9.186923
1715822004307204840,0.212,,,,9.194617368
1715822004314899208,0.21,,,,9.202311736
1715822004322593576,0.207,,,,9.210006104
1715822004330287944,0.198,,,,9.217700472
1715822004337982312,0.193,,,,9.22539484
1715822004345676680,0.195,,,,9.233089208
1715822004353371048,0.195,,,,9.240783576
1715822004361065416,0.19,,,,9.248477944
1715822004368759784,0.183,,,,9.256172312
1715822004376454152,0.178,,,,9.26386668
1715822004384148520,0.181,,,,9.271561048
1715822004391842888,0.178,,,,9.279255416
1715822004399537256,0.176,,,,9.286949784
1715822004407231624,0.176,,,,9.294644152
1715822004414925992,0.176,,,,9.30233852
1715822004422620360,0.174,,,,9.310032888
1715822004430314728,0.166,,,,9.317727256
1715822004438009096,0.159,,,,9.325421624
1715822004445703464,0.154,,,,9.333115992
1715822004453397832,0.154,,,,9.34081036
1715822004461092200,0.157,,,,9.348504728
1715822004468786568,0.154,,,,9.356199096
1715822004476480936,0.157,,,,9.363893464
1715822004484175304,0.154,,,,9.371587832
1715822004491869672,0.142,,,,9.3792822
1715822004499564040,0.147,,,,9.386976568
1715822004507258408,0.154,,,,9.394670936
1715822004514952776,0.147,,,,9.402365304
1715822004522647144,0.142,,,,9.410059672
1715822004530341512,0.147,,,,9.41775404
1715822004538035880,0.149,,,,9.425448408
1715822004545730248,0.147,,,,9.433142776
1715822004553424616,0.147,,,,9.440837144
1715822004561118984,0.147,,,,9.448531512
1715822004568813352,0.142,,,,9.45622588
1715822004576507720,0.137,,,,9.463920248
1715822004584202088,0.137,,,,9.471614616
1715822004591896456,0.14,,,,9.479308984
1715822004599590824,0.137,,,,9.487003352
1715822004607285192,0.135,,,,9.49469772
1715822004614979560,0.132,,,,9.502392088
1715822004622673928,0.135,,,,9.510086456
1715822004630368296,0.135,,,,9.517780824
1715822004638062664,0.13,,,,9.525475192
1715822004645757032,0.116,,,,9.53316956
1715822004653451400,0.094,,,,9.540863928
1715822004661145780,0.089,68.0,,,9.548558308
1715822004668840148,0.096,,,,9.556252676
1715822004676534516,0.106,,,,9.563947044
1715822004684228884,0.116,,,,9.571641412
1715822004691923252,0.12,,,,9.57933578
1715822004699617620,0.118,,,,9.587030148
1715822004707311988,0.118,,,,9.594724516
1715822004715006356,0.118,,,,9.602418884
1715822004722700724,0.12,,,,9.610113252
1715822004730395092,0.118,,,,9.61780762
1715822004738089460,0.111,,,,9.625501988
1715822004745783828,0.108,,933.0,,9.633196356
1715822004753478196,0.101,,,,9.640890724
1715822004761172564,0.099,,,,9.648585092
1715822004768866932,0.079,,,,9.65627946
1715822004776561300,-0.055,,,,9.663973828
1715822004784255668,-0.372,,,,9.671668196
1715822004791950036,-0.669,,,,9.679362564
1715822004799644404,-0.553,,,,9.687056932
1715822004807338772,0.062,,,,9.6947513
1715822004815033140,0.5630000000000001,,,,9.702445668
1715822004822727508,0.435,,,,9.710140036
1715822004830421876,0.128,,,,9.717834404
1715822004838116244,0.099,,,,9.725528772
1715822004845810612,0.125,,,,9.73322314
1715822004853504980,0.074,,,,9.740917508
1715822004861199348,0.074,,,,9.748611876
1715822004868893716,0.096,,,,9.756306244
1715822004876588084,0.077,,,,9.764000612
1715822004884282452,0.065,,,,9.77169498
1715822004891976820,0.07,,,,9.779389348
1715822004899671188,0.07,,,,9.787083716
1715822004907365556,0.06,,,,9.794778084
1715822004915059924,0.058,,,,9.802472452
1715822004922754292,0.055,,,,9.81016682
1715822004930448660,0.041,,,,9.817861188
1715822004938143028,0.026,,,,9.825555556
1715822004945837396,0.016,,,,9.833249924
1715822004953531764,-0.002,,,,9.840944292
1715822004961226132,-0.016,,,,9.84863866
1715822004968920500,-0.029,,,,9.856333028
1715822004976614868,-0.05,,,,9.864027396
1715822004984309236,-0.074,,,,9.871721764
1715822004992003604,-0.094,,,,9.879416132
1715822004999697972,-0.111,,,,9.8871105
1715822005007392340,-0.125,,,,9.894804868
1715822005015086708,-0.135,,,,9.902499236
1715822005022781076,-0.142,,,,9.910193604
1715822005030475444,-0.14,,,,9.917887972
1715822005038169812,-0.125,,,,9.92558234
1715822005045864180,-0.096,,,,9.933276708
1715822005053558548,-0.053,,,,9.940971076
1715822005061252916,0.004,,,,9.948665444
1715822005068947284,0.067,,,,9.956359812
1715822005076641652,0.12,,,,9.96405418
1715822005084336020,0.161,,,,9.971748548
1715822005092030388,0.193,,,,9.979442916
1715822005099724756,0.222,,,,9.987137284
1715822005107419124,0.236,,,,9.994831652
1715822005115113492,0.234,,,,10.00252602
1715822005122807860,0.234,,,,10.010220388
1715822005130502228,0.236,,,,10.017914756
1715822005138196596,0.236,,,,10.025609124
1715822005145890964,0.232,,,,10.033303492
1715822005153585332,0.227,,,,10.04099786
1715822005161279700,0.227,,,,10.048692228
1715822005168974068,0.222,,,,10.056386596
1715822005176668436,0.217,,,,10.064080964
1715822005184362804,0.217,,,,10.071775332
1715822005192057172,0.217,,,,10.0794697
1715822005199751540,0.212,,,,10.087164068
1715822005207445908,0.203,,,,10.094858436
1715822005215140276,0.198,,,,10.102552804
1715822005222834656,0.193,,,,10.110247184
1715822005230528606,0.188,,,,10.117941134
1715822005238222556,0.186,,,,10.125635084
1715822005245916506,0.183,,,,10.133329034
1715822005253610456,0.178,,,,10.141022984
1715822005261304406,0.174,,,,10.148716934
1715822005268998356,0.161,,,,10.156410884
1715822005276692306,0.157,,,,10.164104834
1715822005284386256,0.164,,,,10.171798784
1715822005292080206,0.161,,,,10.179492734
1715822005299774156,0.157,,,,10.187186684
1715822005307468106,0.159,,,,10.194880634
1715822005315162056,0.164,,,,10.202574584
1715822005322856006,0.164,,,,10.210268534
1715822005330549956,0.157,,,,10.217962484
1715822005338243906,0.157,,,,10.225656434
1715822005345937856,0.159,,,,10.233350384
1715822005353631806,0.157,,,,10.241044334
1715822005361325756,0.157,,,,10.248738284
1715822005369019706,0.154,,,,10.256432234
1715822005376713656,0.157,,,,10.264126184
1715822005384407606,0.154,,,,10.271820134
1715822005392101556,0.149,,,,10.279514084
1715822005399795506,0.152,,,,10.287208034
1715822005407489456,0.157,,,,10.294901984
1715822005415183406,0.154,,,,10.302595934
1715822005422877356,0.149,,,,10.310289884
1715822005430571306,0.149,,,,10.317983834
1715822005438265256,0.147,,,,10.325677784
1715822005445959206,0.145,,,,10.333371734
1715822005453653156,0.14,,,,10.341065684
1715822005461347106,0.132,,,,10.348759634
1715822005469041056,0.125,,,,10.356453584
1715822005476735006,0.12,,,,10.364147534
1715822005484428956,0.118,,,,10.371841484
1715822005492122906,0.123,,,,10.379535434
1715822005499816856,0.125,,,,10.387229384
1715822005507510806,0.12,,,,10.394923334
1715822005515204756,0.118,,,,10.402617284
1715822005522898706,0.123,,,,10.410311234
1715822005530592656,0.125,,,,10.418005184
1715822005538286606,0.123,,,,10.425699134
1715822005545980556,0.116,,,,10.433393084
1715822005553674506,0.103,,,,10.441087034
1715822005561368456,0.094,,,,10.448780984
1715822005569062406,0.094,,,,10.456474934
1715822005576756356,0.106,,,,10.464168884
1715822005584450306,0.118,,,,10.471862834
1715822005592144256,0.118,,,,10.479556784
1715822005599838206,0.12,,,,10.487250734
1715822005607532156,0.128,,,,10.494944684
1715822005615226106,0.125,,,,10.502638634
1715822005622920056,0.118,,,,10.510332584
1715822005630614006,0.113,,,,10.518026534
1715822005638307956,0.118,,,,10.525720484
1715822005646001906,0.123,,,,10.533414434
1715822005653695856,0.116,,,,10.541108384
1715822005661389806,0.113,,,,10.548802334
1715822005669083756,0.118,,,,10.556496284
1715822005676777706,0.099,,,,10.564190234
1715822005684471656,-0.041,,937.0,,10.571884184
1715822005692165606,-0.36,,,,10.579578134
1715822005699859556,-0.679,,,,10.587272084
1715822005707553506,-0.616,,,,10.594966034
1715822005715247456,-0.026,,,,10.602659984
1715822005722941406,0.522,,,,10.610353934
1715822005730635356,0.422,,,,10.618047884
1715822005738329306,0.096,,,,10.625741834
1715822005746023256,0.077,,,,10.633435784
1715822005753717206,0.128,,,,10.641129734
1715822005761411156,0.074,,,,10.648823684
1715822005769105106,0.062,,,,10.656517634
1715822005776799056,0.087,,,,10.664211584
1715822005784493014,0.074,68.0,,,10.671905542
1715822005792187312,0.06,,,,10.67959984
1715822005799881610,0.062,,,,10.687294138
1715822005807575908,0.048,,,,10.694988436
1715822005815270206,0.033,,,,10.702682734
1715822005822964504,0.038,,,,10.710377032
1715822005830658802,0.031,,,,10.71807133
1715822005838353100,0.021,,,,10.725765628
1715822005846047398,0.019,,,,10.733459926
1715822005853741696,0.009,,,,10.741154224
1715822005861435994,-0.004,,,,10.748848522
1715822005869130292,-0.014,,,,10.75654282
1715822005876824590,-0.026,,,,10.764237118
1715822005884518888,-0.041,,,,10.771931416
1715822005892213186,-0.065,,,,10.779625714
1715822005899907484,-0.087,,,,10.787320012
1715822005907601782,-0.103,,,,10.79501431
1715822005915296080,-0.113,,,,10.802708608
1715822005922990378,-0.125,,,,10.810402906
1715822005930684676,-0.135,,,,10.818097204
1715822005938378974,-0.13,,,,10.825791502
1715822005946073272,-0.12,,,,10.8334858
1715822005953767570,-0.111,,,,10.841180098
1715822005961461868,-0.079,,,,10.848874396
1715822005969156166,-0.024,,,,10.856568694
1715822005976850464,0.036,,,,10.864262992
1715822005984544762,0.084,,,,10.87195729
1715822005992239060,0.123,,,,10.879651588
1715822005999933358,0.161,,,,10.887345886
1715822006007627656,0.188,,,,10.895040184
1715822006015321954,0.2,,,,10.902734482
1715822006023016252,0.21,,,,10.91042878
1715822006030710550,0.219,,,,10.918123078
1715822006038404848,0.219,,,,10.925817376
1715822006046099146,0.21,,,,10.933511674
1715822006053793444,0.207,,,,10.941205972
1715822006061487742,0.21,,,,10.94890027
1715822006069182040,0.207,,,,10.956594568
1715822006076876338,0.203,,,,10.964288866
1715822006084570636,0.2,,,,10.971983164
1715822006092264934,0.198,,,,10.979677462
1715822006099959232,0.195,,,,10.98737176
1715822006107653530,0.193,,,,10.995066058
1715822006115347828,0.19,,,,11.002760356
1715822006123042126,0.188,,,,11.010454654
1715822006130736424,0.183,,,,11.018148952
1715822006138430722,0.178,,,,11.02584325
1715822006146125020,0.181,,,,11.033537548
1715822006153819318,0.183,,,,11.041231846
1715822006161513616,0.183,,,,11.048926144
1715822006169207914,0.174,,,,11.056620442
1715822006176902212,0.169,,,,11.06431474
1715822006184596510,0.174,,,,11.072009038
1715822006192290808,0.174,,,,11.079703336
1715822006199985106,0.171,,,,11.087397634
1715822006207679404,0.171,,,,11.095091932
1715822006215373702,0.166,,,,11.10278623
1715822006223068000,0.164,,,,11.110480528
1715822006230762298,0.161,,,,11.118174826
1715822006238456596,0.164,,,,11.125869124
1715822006246150894,0.166,,,,11.133563422
1715822006253845192,0.161,,,,11.14125772
1715822006261539490,0.159,,,,11.148952018
1715822006269233788,0.157,,,,11.156646316
1715822006276928086,0.157,,,,11.164340614
1715822006284622384,0.157,,,,11.172034912
1715822006292316682,0.149,,,,11.17972921
1715822006300010980,0.149,,,,11.187423508
1715822006307705278,0.157,,,,11.195117806
1715822006315399576,0.154,,,,11.202812104
1715822006323093874,0.154,,,,11.210506402
1715822006330788172,0.157,,,,11.2182007
1715822006338482470,0.157,,,,11.225894998
1715822006346176806,0.154,,,,11.233589334
1715822006353870825,0.152,,,,11.241283353
1715822006361564844,0.152,,,,11.248977372
1715822006369258863,0.149,,,,11.256671391
1715822006376952882,0.145,,,,11.26436541
1715822006384646901,0.147,,,,11.272059429
1715822006392340920,0.149,,,,11.279753448
1715822006400034939,0.145,,,,11.287447467
1715822006407728958,0.13,,,,11.295141486
1715822006415422977,0.125,,,,11.302835505
1715822006423116996,0.135,,,,11.310529524
1715822006430811015,0.14,,,,11.318223543
1715822006438505034,0.135,,,,11.325917562
1715822006446199053,0.125,,,,11.333611581
1715822006453893072,0.106,,,,11.3413056
1715822006461587091,0.087,,,,11.348999619
1715822006469281110,0.082,,,,11.356693638
1715822006476975129,0.101,,,,11.364387657
1715822006484669148,0.116,,,,11.372081676
1715822006492363167,0.118,,,,11.379775695
1715822006500057186,0.123,,,,11.387469714
1715822006507751205,0.128,,,,11.395163733
1715822006515445224,0.125,,,,11.402857752
1715822006523139243,0.12,,,,11.410551771
1715822006530833262,0.12,,,,11.41824579
1715822006538527281,0.12,,,,11.425939809
1715822006546221300,0.118,,,,11.433633828
1715822006553915319,0.116,,,,11.441327847
1715822006561609338,0.12,,,,11.449021866
1715822006569303357,0.123,,,,11.456715885
1715822006576997376,0.089,,,,11.464409904
1715822006584691395,-0.082,,,,11.472103923
1715822006592385414,-0.408,,,,11.479797942
1715822006600079433,-0.664,,921.0,,11.487491961
1715822006607773452,-0.473,,,,11.49518598
1715822006615467471,0.149,,,,11.502879999
1715822006623161490,0.553,,,,11.510574018
1715822006630855509,0.36,,,,11.518268037
1715822006638549528,0.089,,,,11.525962056
1715822006646243547,0.099,,,,11.533656075
1715822006653937566,0.118,,,,11.541350094
1715822006661631585,0.074,,,,11.549044113
1715822006669325604,0.079,,,,11.556738132
1715822006677019623,0.089,,,,11.564432151
1715822006684713642,0.074,,,,11.57212617
1715822006692407661,0.067,,,,11.579820189
1715822006700101680,0.062,,,,11.587514208
1715822006707795699,0.053,,,,11.595208227
1715822006715489718,0.048,,,,11.602902246
1715822006723183737,0.043,,,,11.610596265
1715822006730877756,0.036,,,,11.618290284
1715822006738571775,0.033,,,,11.625984303
1715822006746265794,0.026,,,,11.633678322
1715822006753959813,0.012,,,,11.641372341
1715822006761653832,-0.002,,,,11.64906636
1715822006769347851,-0.019,,,,11.656760379
1715822006777041870,-0.033,,,,11.664454398
1715822006784735889,-0.041,,,,11.672148417
1715822006792429908,-0.058,,,,11.679842436
1715822006800123927,-0.077,,,,11.687536455
1715822006807817946,-0.094,,,,11.695230474
1715822006815511965,-0.113,,,,11.702924493
1715822006823205984,-0.128,,,,11.710618512
1715822006830900003,-0.13,,,,11.718312531
1715822006838594022,-0.123,,,,11.72600655
1715822006846288041,-0.108,,,,11.733700569
1715822006853982060,-0.084,,,,11.741394588
1715822006861676079,-0.041,,,,11.749088607
1715822006869370098,0.016,,,,11.756782626
1715822006877064117,0.074,,,,11.764476645
1715822006884758136,0.123,,,,11.772170664
1715822006892452155,0.166,,,,11.779864683
1715822006900146174,0.2,,,,11.787558702
1715822006907840250,0.222,67.0,,,11.795252778
1715822006915534409,0.229,,,,11.802946937
1715822006923228568,0.229,,,,11.810641096
1715822006930922727,0.232,,,,11.818335255
1715822006938616886,0.236,,,,11.826029414
1715822006946311045,0.232,,,,11.833723573
1715822006954005204,0.222,,,,11.841417732
1715822006961699363,0.217,,,,11.849111891
1715822006969393522,0.203,,,,11.85680605
1715822006977087681,0.186,,,,11.864500209
1715822006984781840,0.183,,,,11.872194368
1715822006992475999,0.183,,,,11.879888527
1715822007000170158,0.181,,,,11.887582686
1715822007007864317,0.174,,,,11.895276845
1715822007015558476,0.171,,,,11.902971004
1715822007023252635,0.174,,,,11.910665163
1715822007030946794,0.174,,,,11.918359322
1715822007038640953,0.171,,,,11.926053481
1715822007046335112,0.169,,,,11.93374764
1715822007054029271,0.169,,,,11.941441799
1715822007061723430,0.171,,,,11.949135958
1715822007069417589,0.169,,,,11.956830117
1715822007077111748,0.169,,,,11.964524276
1715822007084805907,0.174,,,,11.972218435
1715822007092500066,0.171,,,,11.979912594
1715822007100194225,0.166,,,,11.987606753
1715822007107888384,0.164,,,,11.995300912
1715822007115582543,0.166,,,,12.002995071
1715822007123276702,0.169,,,,12.01068923
1715822007130970861,0.171,,,,12.018383389
1715822007138665020,0.171,,,,12.026077548
1715822007146359179,0.171,,,,12.033771707
1715822007154053338,0.166,,,,12.041465866
1715822007161747497,0.161,,,,12.049160025
1715822007169441656,0.166,,,,12.056854184
1715822007177135815,0.171,,,,12.064548343
1715822007184829974,0.166,,,,12.072242502
1715822007192524133,0.152,,,,12.079936661
1715822007200218292,0.152,,,,12.08763082
1715822007207912451,0.159,,,,12.095324979
1715822007215606610,0.157,,,,12.103019138
1715822007223300769,0.152,,,,12.110713297
1715822007230994928,0.152,,,,12.118407456
1715822007238689087,0.152,,,,12.126101615
1715822007246383246,0.152,,,,12.133795774
1715822007254077405,0.149,,,,12.141489933
1715822007261771564,0.149,,,,12.149184092
1715822007269465723,0.152,,,,12.156878251
1715822007277159882,0.154,,,,12.16457241
1715822007284854041,0.149,,,,12.172266569
1715822007292548200,0.145,,,,12.179960728
1715822007300242359,0.147,,,,12.187654887
1715822007307936518,0.145,,,,12.195349046
1715822007315630677,0.145,,,,12.203043205
1715822007323324836,0.147,,,,12.210737364
1715822007331018995,0.135,,,,12.218431523
1715822007338713154,0.116,,,,12.226125682
1715822007346407313,0.113,,,,12.233819841
1715822007354101472,0.13,,,,12.241514
1715822007361795631,0.142,,,,12.249208159
1715822007369489790,0.145,,,,12.256902318
1715822007377183949,0.149,,,,12.264596477
1715822007384878108,0.154,,,,12.272290636
1715822007392572267,0.149,,,,12.279984795
1715822007400266426,0.145,,,,12.287678954
1715822007407960585,0.147,,,,12.295373113
1715822007415654744,0.147,,,,12.303067272
1715822007423348903,0.137,,,,12.310761431
1715822007431043062,0.132,,,,12.31845559
1715822007438737221,0.132,,,,12.326149749
1715822007446431380,0.132,,,,12.333843908
1715822007454125539,0.099,,,,12.341538067
1715822007461819698,-0.067,,857.0,,12.349232226
1715822007469513868,-0.401,,,,12.356926396
1715822007477208027,-0.664,,,,12.364620555
1715822007484902186,-0.483,,,,12.372314714
1715822007492596345,0.145,,,,12.380008873
1715822007500290504,0.582,,,,12.387703032
1715822007507984663,0.415,,,,12.395397191
1715822007515678822,0.125,,,,12.40309135
1715822007523372981,0.101,,,,12.410785509
1715822007531067140,0.113,,,,12.418479668
1715822007538761299,0.058,,,,12.426173827
1715822007546455458,0.055,,,,12.433867986
1715822007554149617,0.072,,,,12.441562145
1715822007561843776,0.055,,,,12.449256304
1715822007569537935,0.045,,,,12.456950463
1715822007577232094,0.055,,,,12.464644622
1715822007584926253,0.048,,,,12.472338781
1715822007592620412,0.041,,,,12.48003294
1715822007600314571,0.036,,,,12.487727099
1715822007608008730,0.021,,,,12.495421258
1715822007615702889,0.012,,,,12.503115417
1715822007623397048,0.012,,,,12.510809576
1715822007631091207,0.002,,,,12.518503735
1715822007638785366,-0.004,,,,12.526197894
1715822007646479525,-0.012,,,,12.533892053
1715822007654173684,-0.031,,,,12.541586212
1715822007661867843,-0.055,,,,12.549280371
1715822007669562002,-0.072,,,,12.55697453
1715822007677256161,-0.084,,,,12.564668689
1715822007684950320,-0.106,,,,12.572362848
1715822007692644479,-0.132,,,,12.580057007
1715822007700338638,-0.142,,,,12.587751166
1715822007708032797,-0.137,,,,12.595445325
1715822007715726956,-0.132,,,,12.603139484
1715822007723421115,-0.116,,,,12.610833643
1715822007731115274,-0.087,,,,12.618527802
1715822007738809433,-0.045,,,,12.626221961
1715822007746503592,0.012,,,,12.63391612
1715822007754197751,0.074,,,,12.641610279
1715822007761891910,0.13,,,,12.649304438
1715822007769586069,0.171,,,,12.656998597
1715822007777280228,0.207,,,,12.664692756
1715822007784974387,0.229,,,,12.672386915
1715822007792668546,0.241,,,,12.680081074
1715822007800362705,0.248,,,,12.687775233
1715822007808056864,0.251,,,,12.695469392
1715822007815751023,0.248,,,,12.703163551
1715822007823445182,0.248,,,,12.71085771
1715822007831139341,0.248,,,,12.718551869
1715822007838833500,0.248,,,,12.726246028
1715822007846527659,0.241,,,,12.733940187
1715822007854221818,0.236,,,,12.741634346
1715822007861915977,0.239,,,,12.749328505
1715822007869610136,0.236,,,,12.757022664
1715822007877304295,0.232,,,,12.764716823
1715822007884998454,0.227,,,,12.772410982
1715822007892692613,0.227,,,,12.780105141
1715822007900386772,0.227,,,,12.7877993
1715822007908080931,0.219,,,,12.795493459
1715822007915775090,0.217,,,,12.803187618
1715822007923469249,0.224,,,,12.810881777
1715822007931163408,0.219,,,,12.818575936
1715822007938857567,0.212,,,,12.826270095
1715822007946551726,0.212,,,,12.833964254
1715822007954245885,0.212,,,,12.841658413
1715822007961940044,0.212,,,,12.849352572
1715822007969634203,0.207,,,,12.857046731
1715822007977328362,0.198,,,,12.86474089
1715822007985022521,0.195,,,,12.872435049
1715822007992716680,0.2,,,,12.880129208
1715822008000410839,0.203,,,,12.887823367
1715822008008104998,0.203,,,,12.895517526
1715822008015799157,0.203,,,,12.903211685
1715822008023493316,0.203,,,,12.910905844
1715822008031187484,0.203,68.0,,,12.918600012
1715822008038881852,0.207,,,,12.92629438
1715822008046576220,0.207,,,,12.933988748
1715822008054270588,0.2,,,,12.941683116
1715822008061964956,0.2,,,,12.949377484
1715822008069659324,0.205,,,,12.957071852
1715822008077353692,0.203,,,,12.96476622
1715822008085048060,0.195,,,,12.972460588
1715822008092742428,0.188,,,,12.980154956
1715822008100436796,0.19,,,,12.987849324
1715822008108131164,0.193,,,,12.995543692
1715822008115825532,0.186,,,,13.00323806
1715822008123519900,0.183,,,,13.010932428
1715822008131214268,0.188,,,,13.018626796
1715822008138908636,0.19,,,,13.026321164
1715822008146603004,0.188,,,,13.034015532
1715822008154297372,0.186,,,,13.0417099
1715822008161991740,0.186,,,,13.049404268
1715822008169686108,0.188,,,,13.057098636
1715822008177380476,0.183,,,,13.064793004
1715822008185074844,0.174,,,,13.072487372
1715822008192769212,0.171,,,,13.08018174
1715822008200463580,0.171,,,,13.087876108
1715822008208157948,0.154,,,,13.095570476
1715822008215852316,0.142,,,,13.103264844
1715822008223546684,0.157,,,,13.110959212
1715822008231241052,0.174,,,,13.11865358
1715822008238935420,0.178,,,,13.126347948
1715822008246629788,0.183,,,,13.134042316
1715822008254324156,0.181,,,,13.141736684
1715822008262018524,0.178,,,,13.149431052
1715822008269712892,0.174,,,,13.15712542
1715822008277407260,0.178,,,,13.164819788
1715822008285101628,0.183,,,,13.172514156
1715822008292795996,0.178,,,,13.180208524
1715822008300490364,0.166,,,,13.187902892
1715822008308184732,0.169,,,,13.19559726
1715822008315879100,0.178,,,,13.203291628
1715822008323573468,0.161,,,,13.210985996
1715822008331267836,0.055,,,,13.218680364
1715822008338962204,-0.217,,,,13.226374732
1715822008346656572,-0.56,,,,13.2340691
1715822008354350940,-0.592,,,,13.241763468
1715822008362045308,-0.055,,,,13.249457836
1715822008369739676,0.553,,908.0,,13.257152204
1715822008377434044,0.548,,,,13.264846572
1715822008385128412,0.203,,,,13.27254094
1715822008392822780,0.12,,,,13.280235308
1715822008400517148,0.188,,,,13.287929676
1715822008408211516,0.149,,,,13.295624044
1715822008415905884,0.123,,,,13.303318412
1715822008423600252,0.145,,,,13.31101278
1715822008431294620,0.13,,,,13.318707148
1715822008438988988,0.108,,,,13.326401516
1715822008446683356,0.111,,,,13.334095884
1715822008454377724,0.108,,,,13.341790252
1715822008462072092,0.101,,,,13.34948462
1715822008469766460,0.091,,,,13.357178988
1715822008477460828,0.067,,,,13.364873356
1715822008485155196,0.038,,,,13.372567724
1715822008492849564,0.033,,,,13.380262092
1715822008500543932,0.033,,,,13.38795646
1715822008508238300,0.016,,,,13.395650828
1715822008515932668,0.004,,,,13.403345196
1715822008523627036,-0.002,,,,13.411039564
1715822008531321404,-0.024,,,,13.418733932
1715822008539015772,-0.048,,,,13.4264283
1715822008546710140,-0.065,,,,13.434122668
1715822008554404508,-0.082,,,,13.441817036
1715822008562098876,-0.101,,,,13.449511404
1715822008569793244,-0.118,,,,13.457205772
1715822008577487612,-0.123,,,,13.46490014
1715822008585181980,-0.118,,,,13.472594508
1715822008592876360,-0.113,,,,13.480288888
1715822008600570728,-0.099,,,,13.487983256
1715822008608265096,-0.055,,,,13.495677624
1715822008615959464,0.002,,,,13.503371992
1715822008623653832,0.055,,,,13.51106636
1715822008631348200,0.096,,,,13.518760728
1715822008639042568,0.147,,,,13.526455096
1715822008646736936,0.19,,,,13.534149464
1715822008654431304,0.21,,,,13.541843832
1715822008662125672,0.217,,,,13.5495382
1715822008669820040,0.217,,,,13.557232568
1715822008677514408,0.219,,,,13.564926936
1715822008685208776,0.227,,,,13.572621304
1715822008692903144,0.224,,,,13.580315672
1715822008700597512,0.219,,,,13.58801004
1715822008708291880,0.219,,,,13.595704408
1715822008715986248,0.215,,,,13.603398776
1715822008723680616,0.212,,,,13.611093144
1715822008731374984,0.212,,,,13.618787512
1715822008739069352,0.212,,,,13.62648188
1715822008746763720,0.207,,,,13.634176248
1715822008754458088,0.2,,,,13.641870616
1715822008762152456,0.198,,,,13.649564984
1715822008769846824,0.198,,,,13.657259352
1715822008777541192,0.195,,,,13.66495372
1715822008785235560,0.193,,,,13.672648088
1715822008792929928,0.195,,,,13.680342456
1715822008800624296,0.193,,,,13.688036824
1715822008808318664,0.188,,,,13.695731192
1715822008816013032,0.188,,,,13.70342556
1715822008823707400,0.195,,,,13.711119928
1715822008831401768,0.193,,,,13.718814296
1715822008839096136,0.188,,,,13.726508664
1715822008846790504,0.188,,,,13.734203032
1715822008854484872,0.188,,,,13.7418974
1715822008862179240,0.188,,,,13.749591768
1715822008869873608,0.186,,,,13.757286136
1715822008877567976,0.188,,,,13.764980504
1715822008885262344,0.19,,,,13.772674872
1715822008892956712,0.188,,,,13.78036924
1715822008900651080,0.181,,,,13.788063608
1715822008908345448,0.178,,,,13.795757976
1715822008916039816,0.174,,,,13.803452344
1715822008923734184,0.174,,,,13.811146712
1715822008931428552,0.171,,,,13.81884108
1715822008939122920,0.166,,,,13.826535448
1715822008946817288,0.166,,,,13.834229816
1715822008954511656,0.169,,,,13.841924184
1715822008962206024,0.169,,,,13.849618552
1715822008969900392,0.166,,,,13.85731292
1715822008977594760,0.166,,,,13.865007288
1715822008985289128,0.161,,,,13.872701656
1715822008992983496,0.149,,,,13.880396024
1715822009000677864,0.152,,,,13.888090392
1715822009008372232,0.157,,,,13.89578476
1715822009016066600,0.152,,,,13.903479128
1715822009023760968,0.152,,,,13.911173496
1715822009031455336,0.154,,,,13.918867864
1715822009039149704,0.152,,,,13.926562232
1715822009046844072,0.147,,,,13.9342566
1715822009054538440,0.147,,,,13.941950968
1715822009062232808,0.154,,,,13.949645336
1715822009069927176,0.152,,,,13.957339704
1715822009077621544,0.147,,,,13.965034072
1715822009085315912,0.145,,,,13.97272844
1715822009093010280,0.149,,,,13.980422808
1715822009100704648,0.147,,,,13.988117176
1715822009108399016,0.137,,,,13.995811544
1715822009116093384,0.128,,,,14.003505912
1715822009123787752,0.12,,,,14.01120028
1715822009131482120,0.123,,,,14.018894648
1715822009139176488,0.135,,,,14.026589016
1715822009146870856,0.147,,,,14.034283384
1715822009154565236,0.152,68.0,,,14.041977764
1715822009162259186,0.154,,,,14.049671714
1715822009169953136,0.149,,,,14.057365664
1715822009177647086,0.147,,,,14.065059614
1715822009185341036,0.149,,,,14.072753564
1715822009193034986,0.145,,,,14.080447514
1715822009200728936,0.135,,,,14.088141464
1715822009208422886,0.132,,,,14.095835414
1715822009216116836,0.137,,,,14.103529364
1715822009223810786,0.137,,,,14.111223314
1715822009231504736,0.132,,,,14.118917264
1715822009239198686,0.067,,,,14.126611214
1715822009246892636,-0.149,,,,14.134305164
1715822009254586586,-0.485,,,,14.141999114
1715822009262280536,-0.642,,,,14.149693064
1715822009269974486,-0.297,,898.0,,14.157387014
1715822009277668436,0.335,,,,14.165080964
1715822009285362386,0.56,,,,14.172774914
1715822009293056336,0.275,,,,14.180468864
1715822009300750286,0.089,,,,14.188162814
1715822009308444236,0.135,,,,14.195856764
1715822009316138186,0.123,,,,14.203550714
1715822009323832136,0.079,,,,14.211244664
1715822009331526086,0.094,,,,14.218938614
1715822009339220036,0.094,,,,14.226632564
1715822009346913986,0.074,,,,14.234326514
1715822009354607936,0.07,,,,14.242020464
1715822009362301886,0.07,,,,14.249714414
1715822009369995836,0.06,,,,14.257408364
1715822009377689786,0.05,,,,14.265102314
1715822009385383736,0.05,,,,14.272796264
1715822009393077686,0.045,,,,14.280490214
1715822009400771636,0.036,,,,14.288184164
1715822009408465586,0.024,,,,14.295878114
1715822009416159536,0.009,,,,14.303572064
1715822009423853486,0.002,,,,14.311266014
1715822009431547436,-0.009,,,,14.318959964
1715822009439241386,-0.029,,,,14.326653914
1715822009446935336,-0.045,,,,14.334347864
1715822009454629286,-0.062,,,,14.342041814
1715822009462323236,-0.082,,,,14.349735764
1715822009470017186,-0.101,,,,14.357429714
1715822009477711136,-0.116,,,,14.365123664
1715822009485405086,-0.13,,,,14.372817614
1715822009493099036,-0.147,,,,14.380511564
1715822009500792986,-0.142,,,,14.388205514
1715822009508486936,-0.12,,,,14.395899464
1715822009516180886,-0.091,,,,14.403593414
1715822009523874836,-0.045,,,,14.411287364
1715822009531568786,0.012,,,,14.418981314
1715822009539262736,0.07,,,,14.426675264
1715822009546956686,0.118,,,,14.434369214
1715822009554650636,0.157,,,,14.442063164
1715822009562344586,0.188,,,,14.449757114
1715822009570038536,0.207,,,,14.457451064
1715822009577732486,0.217,,,,14.465145014
1715822009585426436,0.222,,,,14.472838964
1715822009593120386,0.222,,,,14.480532914
1715822009600814336,0.224,,,,14.488226864
1715822009608508286,0.219,,,,14.495920814
1715822009616202236,0.217,,,,14.503614764
1715822009623896186,0.217,,,,14.511308714
1715822009631590136,0.212,,,,14.519002664
1715822009639284086,0.207,,,,14.526696614
1715822009646978036,0.203,,,,14.534390564
1715822009654671986,0.195,,,,14.542084514
1715822009662365936,0.19,,,,14.549778464
1715822009670059886,0.19,,,,14.557472414
1715822009677753836,0.188,,,,14.565166364
1715822009685447786,0.183,,,,14.572860314
1715822009693141736,0.178,,,,14.580554264
1715822009700835686,0.176,,,,14.588248214
1715822009708529636,0.176,,,,14.595942164
1715822009716223596,0.178,67.0,,,14.603636124
1715822009723917964,0.178,,,,14.611330492
1715822009731612332,0.174,,,,14.61902486
1715822009739306700,0.171,,,,14.626719228
1715822009747001068,0.174,,,,14.634413596
1715822009754695436,0.174,,,,14.642107964
1715822009762389804,0.171,,,,14.649802332
1715822009770084172,0.169,,,,14.6574967
1715822009777778540,0.169,,,,14.665191068
1715822009785472908,0.171,,,,14.672885436
1715822009793167276,0.164,,,,14.680579804
1715822009800861644,0.157,,,,14.688274172
1715822009808556012,0.159,,,,14.69596854
1715822009816250380,0.161,,,,14.703662908
1715822009823944748,0.157,,,,14.711357276
1715822009831639116,0.152,,,,14.719051644
1715822009839333484,0.154,,,,14.726746012
1715822009847027852,0.157,,,,14.73444038
1715822009854722220,0.157,,,,14.742134748
1715822009862416588,0.157,,,,14.749829116
1715822009870110956,0.152,,,,14.757523484
1715822009877805324,0.149,,,,14.765217852
1715822009885499692,0.152,,,,14.77291222
1715822009893194060,0.149,,,,14.780606588
1715822009900888428,0.147,,,,14.788300956
1715822009908582796,0.14,,,,14.795995324
1715822009916277164,0.135,,,,14.803689692
1715822009923971532,0.135,,,,14.81138406
1715822009931665900,0.137,,,,14.819078428
1715822009939360268,0.14,,,,14.826772796
1715822009947054636,0.137,,,,14.834467164
1715822009954749004,0.137,,,,14.842161532
1715822009962443372,0.14,,,,14.8498559
1715822009970137740,0.135,,,,14.857550268
1715822009977832108,0.125,,,,14.865244636
1715822009985526476,0.116,,,,14.872939004
1715822009993220844,0.101,,,,14.880633372
1715822010000915212,0.094,,,,14.88832774
1715822010008609580,0.106,,,,14.896022108
1715822010016303948,0.123,,,,14.903716476
1715822010023998316,0.128,,,,14.911410844
1715822010031692684,0.128,,,,14.919105212
1715822010039387052,0.13,,,,14.92679958
1715822010047081420,0.128,,,,14.934493948
1715822010054775788,0.125,,,,14.942188316
1715822010062470156,0.128,,,,14.949882684
1715822010070164524,0.125,,,,14.957577052
1715822010077858892,0.123,,,,14.96527142
1715822010085553260,0.128,,,,14.972965788
1715822010093247628,0.13,,,,14.980660156
1715822010100941996,0.106,,,,14.988354524
1715822010108636364,-0.026,,,,14.996048892
1715822010116330732,-0.316,,,,15.00374326
1715822010124025100,-0.621,,,,15.011437628
1715822010131719468,-0.546,,,,15.019131996
1715822010139413836,0.043,,,,15.026826364
1715822010147108204,0.56,,877.0,,15.034520732
1715822010154802572,0.449,,,,15.0422151
1715822010162496940,0.135,,,,15.049909468
1715822010170191308,0.096,,,,15.057603836
1715822010177885676,0.128,,,,15.065298204
1715822010185580044,0.077,,,,15.072992572
1715822010193274412,0.072,,,,15.08068694
1715822010200968780,0.091,,,,15.088381308
1715822010208663148,0.077,,,,15.096075676
1715822010216357516,0.058,,,,15.103770044
1715822010224051884,0.058,,,,15.111464412
1715822010231746252,0.048,,,,15.11915878
1715822010239440620,0.036,,,,15.126853148
1715822010247134988,0.024,,,,15.134547516
1715822010254829356,0.016,,,,15.142241884
1715822010262523724,0.014,,,,15.149936252
1715822010270218092,0.007,,,,15.15763062
1715822010277912472,-0.007,,,,15.165325
1715822010285606840,-0.019,,,,15.173019368
1715822010293301208,-0.031,,,,15.180713736
1715822010300995576,-0.048,,,,15.188408104
1715822010308689944,-0.067,,,,15.196102472
1715822010316384312,-0.084,,,,15.20379684
1715822010324078680,-0.103,,,,15.211491208
1715822010331773048,-0.132,,,,15.219185576
1715822010339467416,-0.157,,,,15.226879944
1715822010347161784,-0.166,,,,15.234574312
1715822010354856152,-0.166,,,,15.24226868
1715822010362550520,-0.164,,,,15.249963048
1715822010370244888,-0.154,,,,15.257657416
1715822010377939256,-0.128,,,,15.265351784
1715822010385633624,-0.084,,,,15.273046152
1715822010393327992,-0.031,,,,15.28074052
1715822010401022360,0.026,,,,15.288434888
1715822010408716728,0.082,,,,15.296129256
1715822010416411096,0.13,,,,15.303823624
1715822010424105464,0.161,,,,15.311517992
1715822010431799832,0.178,,,,15.31921236
1715822010439494200,0.198,,,,15.326906728
1715822010447188568,0.212,,,,15.334601096
1715822010454882936,0.21,,,,15.342295464
1715822010462577304,0.207,,,,15.349989832
1715822010470271672,0.205,,,,15.3576842
1715822010477966040,0.203,,,,15.365378568
1715822010485660408,0.203,,,,15.373072936
1715822010493354776,0.2,,,,15.380767304
1715822010501049144,0.188,,,,15.388461672
1715822010508743512,0.176,,,,15.39615604
1715822010516437880,0.171,,,,15.403850408
1715822010524132248,0.174,,,,15.411544776
1715822010531826616,0.174,,,,15.419239144
1715822010539520984,0.169,,,,15.426933512
1715822010547215352,0.166,,,,15.43462788
1715822010554909720,0.166,,,,15.442322248
1715822010562604088,0.164,,,,15.450016616
1715822010570298456,0.159,,,,15.457710984
1715822010577992824,0.159,,,,15.465405352
1715822010585687192,0.159,,,,15.47309972
1715822010593381560,0.159,,,,15.480794088
1715822010601075928,0.159,,,,15.488488456
1715822010608770296,0.154,,,,15.496182824
1715822010616464664,0.157,,,,15.503877192
1715822010624159032,0.159,,,,15.51157156
1715822010631853400,0.157,,,,15.519265928
1715822010639547768,0.157,,,,15.526960296
1715822010647242136,0.149,,,,15.534654664
1715822010654936504,0.142,,,,15.542349032
1715822010662630872,0.147,,,,15.5500434
1715822010670325240,0.152,,,,15.557737768
1715822010678019608,0.154,,,,15.565432136
1715822010685713976,0.154,,,,15.573126504
1715822010693408344,0.149,,,,15.580820872
1715822010701102712,0.147,,,,15.58851524
1715822010708797080,0.152,,,,15.596209608
1715822010716491448,0.152,,,,15.603903976
1715822010724185816,0.145,,,,15.611598344
1715822010731880184,0.145,,,,15.619292712
1715822010739574552,0.149,,,,15.62698708
1715822010747268920,0.147,,,,15.634681448
1715822010754963288,0.145,,,,15.642375816
1715822010762657656,0.145,,,,15.650070184
1715822010770352024,0.145,,,,15.657764552
1715822010778046392,0.145,,,,15.66545892
1715822010785740760,0.14,,,,15.673153288
1715822010793435128,0.135,,,,15.680847656
1715822010801129496,0.142,,,,15.688542024
1715822010808823864,0.152,,,,15.696236392
1715822010816518232,0.145,,,,15.70393076
1715822010824212600,0.135,,,,15.711625128
1715822010831906968,0.125,,,,15.719319496
1715822010839601348,0.113,67.0,,,15.727013876
1715822010847295437,0.108,,,,15.734707965
1715822010854989526,0.12,,,,15.742402054
1715822010862683615,0.135,,,,15.750096143
1715822010870377704,0.142,,,,15.757790232
1715822010878071793,0.142,,,,15.765484321
1715822010885765882,0.137,,,,15.77317841
1715822010893459971,0.13,,,,15.780872499
1715822010901154060,0.125,,,,15.788566588
1715822010908848149,0.118,,,,15.796260677
1715822010916542238,0.116,,,,15.803954766
1715822010924236327,0.123,,,,15.811648855
1715822010931930416,0.118,,,,15.819342944
1715822010939624505,0.113,,,,15.827037033
1715822010947318594,0.123,,,,15.834731122
1715822010955012683,0.082,,,,15.842425211
1715822010962706772,-0.111,,,,15.8501193
1715822010970400861,-0.464,,,,15.857813389
1715822010978094950,-0.6980000000000001,,,,15.865507478
1715822010985789039,-0.415,,,,15.873201567
1715822010993483128,0.268,,,,15.880895656
1715822011001177217,0.606,,,,15.888589745
1715822011008871306,0.333,,,,15.896283834
1715822011016565395,0.079,,872.0,,15.903977923
1715822011024259484,0.111,,,,15.911672012
1715822011031953573,0.118,,,,15.919366101
1715822011039647662,0.067,,,,15.92706019
1715822011047341751,0.079,,,,15.934754279
1715822011055035840,0.082,,,,15.942448368
1715822011062729929,0.062,,,,15.950142457
1715822011070424018,0.06,,,,15.957836546
1715822011078118107,0.065,,,,15.965530635
1715822011085812196,0.055,,,,15.973224724
1715822011093506285,0.048,,,,15.980918813
1715822011101200374,0.043,,,,15.988612902
1715822011108894463,0.033,,,,15.996306991
1715822011116588552,0.019,,,,16.00400108
1715822011124282641,0.009,,,,16.011695169
1715822011131976730,-0.007,,,,16.019389258
1715822011139670819,-0.029,,,,16.027083347
1715822011147364908,-0.045,,,,16.034777436
1715822011155058997,-0.058,,,,16.042471525
1715822011162753086,-0.079,,,,16.050165614
1715822011170447175,-0.101,,,,16.057859703
1715822011178141264,-0.12,,,,16.065553792
1715822011185835353,-0.137,,,,16.073247881
1715822011193529442,-0.152,,,,16.08094197
1715822011201223531,-0.164,,,,16.088636059
1715822011208917620,-0.169,,,,16.096330148
1715822011216611709,-0.164,,,,16.104024237
1715822011224305798,-0.142,,,,16.111718326
1715822011231999887,-0.111,,,,16.119412415
1715822011239693976,-0.062,,,,16.127106504
1715822011247388065,0.0,,,,16.134800593
1715822011255082154,0.06,,,,16.142494682
1715822011262776243,0.111,,,,16.150188771
1715822011270470332,0.149,,,,16.15788286
1715822011278164421,0.181,,,,16.165576949
1715822011285858510,0.2,,,,16.173271038
1715822011293552599,0.205,,,,16.180965127
1715822011301246688,0.21,,,,16.188659216
1715822011308940777,0.217,,,,16.196353305
1715822011316634866,0.217,,,,16.204047394
1715822011324328955,0.215,,,,16.211741483
1715822011332023044,0.21,,,,16.219435572
1715822011339717133,0.207,,,,16.227129661
1715822011347411222,0.205,,,,16.23482375
1715822011355105311,0.2,,,,16.242517839
1715822011362799400,0.195,,,,16.250211928
1715822011370493489,0.195,,,,16.257906017
1715822011378187578,0.19,,,,16.265600106
1715822011385881667,0.181,,,,16.273294195
1715822011393575756,0.176,,,,16.280988284
1715822011401269880,0.176,,,,16.288682408
1715822011408964178,0.176,,,,16.296376706
1715822011416658476,0.174,,,,16.304071004
1715822011424352774,0.174,,,,16.311765302
1715822011432047072,0.171,,,,16.3194596
1715822011439741370,0.166,,,,16.327153898
1715822011447435668,0.159,,,,16.334848196
1715822011455129966,0.154,,,,16.342542494
1715822011462824264,0.157,,,,16.350236792
1715822011470518562,0.157,,,,16.35793109
1715822011478212860,0.154,,,,16.365625388
1715822011485907158,0.154,,,,16.373319686
1715822011493601456,0.157,,,,16.381013984
1715822011501295754,0.159,,,,16.388708282
1715822011508990052,0.154,,,,16.39640258
1715822011516684350,0.147,,,,16.404096878
1715822011524378648,0.142,,,,16.411791176
1715822011532072946,0.142,,,,16.419485474
1715822011539767244,0.142,,,,16.427179772
1715822011547461542,0.145,,,,16.43487407
1715822011555155840,0.149,,,,16.442568368
1715822011562850138,0.147,,,,16.450262666
1715822011570544436,0.142,,,,16.457956964
1715822011578238734,0.14,,,,16.465651262
1715822011585933032,0.145,,,,16.47334556
1715822011593627330,0.145,,,,16.481039858
1715822011601321628,0.142,,,,16.488734156
1715822011609015926,0.142,,,,16.496428454
1715822011616710224,0.145,,,,16.504122752
1715822011624404522,0.14,,,,16.51181705
1715822011632098820,0.13,,,,16.519511348
1715822011639793118,0.13,,,,16.527205646
1715822011647487416,0.137,,,,16.534899944
1715822011655181714,0.137,,,,16.542594242
1715822011662876012,0.145,,,,16.55028854
1715822011670570310,0.147,,,,16.557982838
1715822011678264608,0.14,,,,16.565677136
1715822011685958906,0.125,,,,16.573371434
1715822011693653204,0.111,,,,16.581065732
1715822011701347502,0.106,,,,16.58876003
1715822011709041800,0.106,,,,16.596454328
1715822011716736098,0.118,,,,16.604148626
1715822011724430396,0.135,,,,16.611842924
1715822011732124694,0.137,,,,16.619537222
1715822011739818992,0.135,,,,16.62723152
1715822011747513290,0.137,,,,16.634925818
1715822011755207588,0.137,,,,16.642620116
1715822011762901886,0.135,,,,16.650314414
1715822011770596184,0.132,,,,16.658008712
1715822011778290482,0.13,,,,16.66570301
1715822011785984780,0.13,,,,16.673397308
1715822011793679078,0.132,,,,16.681091606
1715822011801373376,0.135,,,,16.688785904
1715822011809067674,0.135,,,,16.696480202
1715822011816761972,0.082,,,,16.7041745
1715822011824456270,-0.12,,,,16.711868798
1715822011832150568,-0.48,,,,16.719563096
1715822011839844866,-0.71,,,,16.727257394
1715822011847539164,-0.413,,,,16.734951692
1715822011855233462,0.28,,,,16.74264599
1715822011862927760,0.609,,,,16.750340288
1715822011870622058,0.319,,,,16.758034586
1715822011878316356,0.074,,,,16.765728884
1715822011886010654,0.132,,,,16.773423182
1715822011893704952,0.137,,,,16.78111748
1715822011901399250,0.082,,,,16.788811778
1715822011909093548,0.101,,,,16.796506076
1715822011916787846,0.113,,,,16.804200374
1715822011924482144,0.084,,,,16.811894672
1715822011932176442,0.074,,,,16.81958897
1715822011939870740,0.079,,,,16.827283268
1715822011947565038,0.067,,,,16.834977566
1715822011955259336,0.055,,,,16.842671864
1715822011962953670,0.05,68.0,910.0,,16.850366198
1715822011970647968,0.043,,,,16.858060496
1715822011978342266,0.033,,,,16.865754794
1715822011986036564,0.026,,,,16.873449092
1715822011993730862,0.012,,,,16.88114339
1715822012001425160,-0.007,,,,16.888837688
1715822012009119458,-0.029,,,,16.896531986
1715822012016813756,-0.065,,,,16.904226284
1715822012024508054,-0.094,,,,16.911920582
1715822012032202352,-0.111,,,,16.91961488
1715822012039896650,-0.132,,,,16.927309178
1715822012047590948,-0.152,,,,16.935003476
1715822012055285246,-0.161,,,,16.942697774
1715822012062979544,-0.164,,,,16.950392072
1715822012070673842,-0.166,,,,16.95808637
1715822012078368140,-0.166,,,,16.965780668
1715822012086062438,-0.154,,,,16.973474966
1715822012093756736,-0.123,,,,16.981169264
1715822012101451034,-0.072,,,,16.988863562
1715822012109145332,-0.014,,,,16.99655786
1715822012116839630,0.041,,,,17.004252158
1715822012124533928,0.087,,,,17.011946456
1715822012132228226,0.128,,,,17.019640754
1715822012139922524,0.161,,,,17.027335052
1715822012147616822,0.178,,,,17.03502935
1715822012155311120,0.188,,,,17.042723648
1715822012163005418,0.195,,,,17.050417946
1715822012170699716,0.195,,,,17.058112244
1715822012178394014,0.193,,,,17.065806542
1715822012186088312,0.193,,,,17.07350084
1715822012193782610,0.188,,,,17.081195138
1715822012201476908,0.183,,,,17.088889436
1715822012209171206,0.186,,,,17.096583734
1715822012216865504,0.186,,,,17.104278032
1715822012224559802,0.178,,,,17.11197233
1715822012232254100,0.176,,,,17.119666628
1715822012239948398,0.176,,,,17.127360926
1715822012247642696,0.176,,,,17.135055224
1715822012255336994,0.169,,,,17.142749522
1715822012263031292,0.166,,,,17.15044382
1715822012270725590,0.166,,,,17.158138118
1715822012278419888,0.166,,,,17.165832416
1715822012286114186,0.159,,,,17.173526714
1715822012293808484,0.152,,,,17.181221012
1715822012301502782,0.157,,,,17.18891531
1715822012309197080,0.166,,,,17.196609608
1715822012316891378,0.166,,,,17.204303906
1715822012324585676,0.159,,,,17.211998204
1715822012332279974,0.159,,,,17.219692502
1715822012339974272,0.161,,,,17.2273868
1715822012347668570,0.157,,,,17.235081098
1715822012355362868,0.152,,,,17.242775396
1715822012363057166,0.149,,,,17.250469694
1715822012370751464,0.145,,,,17.258163992
1715822012378445762,0.142,,,,17.26585829
1715822012386140060,0.145,,,,17.273552588
1715822012393834358,0.147,,,,17.281246886
1715822012401528656,0.147,,,,17.288941184
1715822012409222954,0.14,,,,17.296635482
1715822012416917252,0.135,,,,17.30432978
1715822012424611550,0.14,,,,17.312024078
1715822012432305848,0.142,,,,17.319718376
1715822012440000146,0.14,,,,17.327412674
1715822012447694444,0.137,,,,17.335106972
1715822012455388742,0.14,,,,17.34280127
1715822012463083040,0.142,,,,17.350495568
1715822012470777338,0.142,,,,17.358189866
1715822012478471636,0.137,,,,17.365884164
1715822012486165934,0.137,,,,17.373578462
1715822012493860232,0.135,,,,17.38127276
1715822012501554530,0.128,,,,17.388967058
1715822012509248828,0.13,,,,17.396661356
1715822012516943126,0.13,,,,17.404355654
1715822012524637458,0.12,,,,17.412049986
1715822012532331826,0.118,,,,17.419744354
1715822012540026194,0.123,,,,17.427438722
1715822012547720562,0.118,,,,17.43513309
1715822012555414930,0.108,,,,17.442827458
1715822012563109298,0.113,,,,17.450521826
1715822012570803666,0.116,,,,17.458216194
1715822012578498034,0.113,,,,17.465910562
1715822012586192402,0.106,,,,17.47360493
1715822012593886770,0.091,,,,17.481299298
1715822012601581138,0.084,,,,17.488993666
1715822012609275506,0.087,,,,17.496688034
1715822012616969874,0.091,,,,17.504382402
1715822012624664242,0.103,,,,17.51207677
1715822012632358610,0.113,,,,17.519771138
1715822012640052978,0.116,,,,17.527465506
1715822012647747346,0.116,,,,17.535159874
1715822012655441714,0.116,,,,17.542854242
1715822012663136082,0.12,,,,17.55054861
1715822012670830450,0.12,,,,17.558242978
1715822012678524818,0.113,,,,17.565937346
1715822012686219186,0.113,,,,17.573631714
1715822012693913554,0.116,,,,17.581326082
1715822012701607922,0.118,,,,17.58902045
1715822012709302290,0.118,,,,17.596714818
1715822012716996658,0.072,,,,17.604409186
1715822012724691026,-0.116,,,,17.612103554
1715822012732385394,-0.454,,,,17.619797922
1715822012740079762,-0.657,,,,17.62749229
1715822012747774130,-0.367,,,,17.635186658
1715822012755468498,0.273,,,,17.642881026
1715822012763162866,0.5720000000000001,,,,17.650575394
1715822012770857234,0.311,,,,17.658269762
1715822012778551602,0.079,,,,17.66596413
1715822012786245970,0.118,,,,17.673658498
1715822012793940338,0.128,,865.0,,17.681352866
1715822012801634706,0.079,,,,17.689047234
1715822012809329074,0.089,,,,17.696741602
1715822012817023442,0.096,,,,17.70443597
1715822012824717810,0.074,,,,17.712130338
1715822012832412178,0.07,,,,17.719824706
1715822012840106546,0.079,,,,17.727519074
1715822012847800914,0.07,,,,17.735213442
1715822012855495282,0.06,,,,17.74290781
1715822012863189650,0.05,,,,17.750602178
1715822012870884018,0.033,,,,17.758296546
1715822012878578386,0.024,,,,17.765990914
1715822012886272754,0.016,,,,17.773685282
1715822012893967122,0.002,,,,17.78137965
1715822012901661490,-0.007,,,,17.789074018
1715822012909355858,-0.019,,,,17.796768386
1715822012917050226,-0.041,,,,17.804462754
1715822012924744594,-0.058,,,,17.812157122
1715822012932438962,-0.077,,,,17.81985149
1715822012940133330,-0.096,,,,17.827545858
1715822012947827698,-0.118,,,,17.835240226
1715822012955522066,-0.135,,,,17.842934594
1715822012963216434,-0.142,,,,17.850628962
1715822012970910802,-0.14,,,,17.85832333
1715822012978605170,-0.135,,,,17.866017698
1715822012986299538,-0.123,,,,17.873712066
1715822012993993906,-0.099,,,,17.881406434
1715822013001688274,-0.058,,,,17.889100802
1715822013009382642,-0.004,,,,17.89679517
1715822013017077010,0.055,,,,17.904489538
1715822013024771378,0.099,,,,17.912183906
1715822013032465746,0.128,,,,17.919878274
1715822013040160114,0.159,,,,17.927572642
1715822013047854482,0.183,,,,17.93526701
1715822013055548850,0.193,,,,17.942961378
1715822013063243218,0.2,,,,17.950655746
1715822013070937586,0.203,,,,17.958350114
1715822013078631954,0.203,,,,17.966044482
1715822013086326336,0.203,68.0,,,17.973738864
1715822013094020564,0.2,,,,17.981433092
1715822013101714792,0.193,,,,17.98912732
1715822013109409020,0.186,,,,17.996821548
1715822013117103248,0.186,,,,18.004515776
1715822013124797476,0.186,,,,18.012210004
1715822013132491704,0.178,,,,18.019904232
1715822013140185932,0.176,,,,18.02759846
1715822013147880160,0.176,,,,18.035292688
1715822013155574388,0.169,,,,18.042986916
1715822013163268616,0.157,,,,18.050681144
1715822013170962844,0.157,,,,18.058375372
1715822013178657072,0.161,,,,18.0660696
1715822013186351300,0.157,,,,18.073763828
1715822013194045528,0.152,,,,18.081458056
1715822013201739756,0.154,,,,18.089152284
1715822013209433984,0.157,,,,18.096846512
1715822013217128212,0.154,,,,18.10454074
1715822013224822440,0.154,,,,18.112234968
1715822013232516668,0.157,,,,18.119929196
1715822013240210896,0.157,,,,18.127623424
1715822013247905124,0.149,,,,18.135317652
1715822013255599352,0.152,,,,18.14301188
1715822013263293580,0.159,,,,18.150706108
1715822013270987808,0.157,,,,18.158400336
1715822013278682036,0.149,,,,18.166094564
1715822013286376264,0.149,,,,18.173788792
1715822013294070492,0.154,,,,18.18148302
1715822013301764720,0.152,,,,18.189177248
1715822013309458948,0.149,,,,18.196871476
1715822013317153176,0.152,,,,18.204565704
1715822013324847404,0.154,,,,18.212259932
1715822013332541632,0.147,,,,18.21995416
1715822013340235860,0.145,,,,18.227648388
1715822013347930088,0.142,,,,18.235342616
1715822013355624316,0.137,,,,18.243036844
1715822013363318544,0.137,,,,18.250731072
1715822013371012772,0.14,,,,18.2584253
1715822013378707000,0.14,,,,18.266119528
1715822013386401228,0.14,,,,18.273813756
1715822013394095456,0.137,,,,18.281507984
1715822013401789684,0.135,,,,18.289202212
1715822013409483912,0.135,,,,18.29689644
1715822013417178140,0.132,,,,18.304590668
1715822013424872368,0.137,,,,18.312284896
1715822013432566596,0.14,,,,18.319979124
1715822013440260824,0.14,,,,18.327673352
1715822013447955052,0.142,,,,18.33536758
1715822013455649280,0.142,,,,18.343061808
1715822013463343508,0.142,,,,18.350756036
1715822013471037736,0.132,,,,18.358450264
1715822013478731964,0.12,,,,18.366144492
1715822013486426192,0.108,,,,18.37383872
1715822013494120420,0.099,,,,18.381532948
1715822013501814648,0.108,,,,18.389227176
1715822013509508876,0.128,,,,18.396921404
1715822013517203104,0.135,,,,18.404615632
1715822013524897332,0.13,,,,18.41230986
1715822013532591560,0.128,,,,18.420004088
1715822013540285788,0.12,,,,18.427698316
1715822013547980016,0.116,,,,18.435392544
1715822013555674244,0.116,,,,18.443086772
1715822013563368472,0.118,,,,18.450781
1715822013571062700,0.118,,,,18.458475228
1715822013578756928,0.113,,,,18.466169456
1715822013586451156,0.113,,,,18.473863684
1715822013594145384,0.116,,,,18.481557912
1715822013601839612,0.091,,,,18.48925214
1715822013609533840,-0.038,,,,18.496946368
1715822013617228068,-0.321,,,,18.504640596
1715822013624922296,-0.616,,,,18.512334824
1715822013632616524,-0.5650000000000001,,,,18.520029052
1715822013640310752,-0.012,,852.0,,18.52772328
1715822013648005040,0.519,68.0,,,18.535417568
1715822013655699338,0.459,,,,18.543111866
1715822013663393636,0.145,,,,18.550806164
1715822013671087934,0.087,,,,18.558500462
1715822013678782232,0.13,,,,18.56619476
1715822013686476530,0.091,,,,18.573889058
1715822013694170828,0.077,,,,18.581583356
1715822013701865126,0.087,,,,18.589277654
1715822013709559424,0.07,,,,18.596971952
1715822013717253722,0.062,,,,18.60466625
1715822013724948020,0.06,,,,18.612360548
1715822013732642318,0.043,,,,18.620054846
1715822013740336616,0.041,,,,18.627749144
1715822013748030914,0.038,,,,18.635443442
1715822013755725212,0.021,,,,18.64313774
1715822013763419510,0.014,,,,18.650832038
1715822013771113808,0.012,,,,18.658526336
1715822013778808106,0.002,,,,18.666220634
1715822013786502404,-0.016,,,,18.673914932
1715822013794196702,-0.036,,,,18.68160923
1715822013801891000,-0.05,,,,18.689303528
1715822013809585298,-0.065,,,,18.696997826
1715822013817279596,-0.087,,,,18.704692124
1715822013824973894,-0.108,,,,18.712386422
1715822013832668192,-0.125,,,,18.72008072
1715822013840362490,-0.147,,,,18.727775018
1715822013848056788,-0.164,,,,18.735469316
1715822013855751086,-0.169,,,,18.743163614
1715822013863445384,-0.161,,,,18.750857912
1715822013871139682,-0.154,,,,18.75855221
1715822013878833980,-0.132,,,,18.766246508
1715822013886528278,-0.096,,,,18.773940806
1715822013894222576,-0.041,,,,18.781635104
1715822013901916874,0.019,,,,18.789329402
1715822013909611172,0.07,,,,18.7970237
1715822013917305470,0.118,,,,18.804717998
1715822013924999768,0.154,,,,18.812412296
1715822013932694066,0.174,,,,18.820106594
1715822013940388364,0.186,,,,18.827800892
1715822013948082662,0.198,,,,18.83549519
1715822013955776960,0.205,,,,18.843189488
1715822013963471258,0.203,,,,18.850883786
1715822013971165556,0.2,,,,18.858578084
1715822013978859854,0.198,,,,18.866272382
1715822013986554152,0.193,,,,18.87396668
1715822013994248450,0.19,,,,18.881660978
1715822014001942748,0.19,,,,18.889355276
1715822014009637046,0.19,,,,18.897049574
1715822014017331344,0.186,,,,18.904743872
1715822014025025642,0.181,,,,18.91243817
1715822014032719940,0.169,,,,18.920132468
1715822014040414238,0.161,,,,18.927826766
1715822014048108536,0.161,,,,18.935521064
1715822014055802834,0.159,,,,18.943215362
1715822014063497132,0.154,,,,18.95090966
1715822014071191430,0.152,,,,18.958603958
1715822014078885728,0.157,,,,18.966298256
1715822014086580026,0.157,,,,18.973992554
1715822014094274324,0.147,,,,18.981686852
1715822014101968622,0.145,,,,18.98938115
1715822014109662920,0.147,,,,18.997075448
1715822014117357218,0.147,,,,19.004769746
1715822014125051516,0.149,,,,19.012464044
1715822014132745814,0.152,,,,19.020158342
1715822014140440112,0.149,,,,19.02785264
1715822014148134410,0.145,,,,19.035546938
1715822014155828708,0.145,,,,19.043241236
1715822014163523006,0.149,,,,19.050935534
1715822014171217304,0.147,,,,19.058629832
1715822014178911602,0.142,,,,19.06632413
1715822014186605900,0.145,,,,19.074018428
1715822014194300198,0.152,,,,19.081712726
1715822014201994496,0.152,,,,19.089407024
1715822014209688830,0.145,,,,19.097101358
1715822014217383128,0.142,,,,19.104795656
1715822014225077426,0.145,,,,19.112489954
1715822014232771724,0.147,,,,19.120184252
1715822014240466022,0.145,,,,19.12787855
1715822014248160320,0.142,,,,19.135572848
1715822014255854618,0.142,,,,19.143267146
1715822014263548916,0.137,,,,19.150961444
1715822014271243214,0.125,,,,19.158655742
1715822014278937512,0.125,,,,19.16635004
1715822014286631810,0.135,,,,19.174044338
1715822014294326108,0.137,,,,19.181738636
1715822014302020406,0.13,,,,19.189432934
1715822014309714704,0.123,,,,19.197127232
1715822014317409002,0.111,,,,19.20482153
1715822014325103300,0.101,,,,19.212515828
1715822014332797598,0.094,,,,19.220210126
1715822014340491896,0.103,,,,19.227904424
1715822014348186194,0.12,,,,19.235598722
1715822014355880492,0.128,,,,19.24329302
1715822014363574790,0.123,,,,19.250987318
1715822014371269088,0.12,,,,19.258681616
1715822014378963386,0.125,,,,19.266375914
1715822014386657684,0.128,,,,19.274070212
1715822014394351982,0.125,,,,19.28176451
1715822014402046280,0.125,,,,19.289458808
1715822014409740578,0.123,,,,19.297153106
1715822014417434876,0.118,,,,19.304847404
1715822014425129174,0.128,,,,19.312541702
1715822014432823472,0.135,,,,19.320236
1715822014440517770,0.094,,,,19.327930298
1715822014448212068,-0.084,,,,19.335624596
1715822014455906366,-0.418,,,,19.343318894
1715822014463600664,-0.667,,,,19.351013192
1715822014471294962,-0.432,,,,19.35870749
1715822014478989260,0.229,,,,19.366401788
1715822014486683558,0.611,,,,19.374096086
1715822014494377856,0.381,,,,19.381790384
1715822014502072154,0.12,,861.0,,19.389484682
1715822014509766452,0.132,,,,19.39717898
1715822014517460750,0.137,,,,19.404873278
1715822014525155048,0.089,,,,19.412567576
1715822014532849346,0.094,,,,19.420261874
1715822014540543644,0.096,,,,19.427956172
1715822014548237942,0.077,,,,19.43565047
1715822014555932240,0.077,,,,19.443344768
1715822014563626538,0.079,,,,19.451039066
1715822014571320836,0.058,,,,19.458733364
1715822014579015134,0.041,,,,19.466427662
1715822014586709432,0.041,,,,19.47412196
1715822014594403730,0.031,,,,19.481816258
1715822014602098028,0.021,,,,19.489510556
1715822014609792326,0.019,,,,19.497204854
1715822014617486624,0.012,,,,19.504899152
1715822014625180922,-0.004,,,,19.51259345
1715822014632875220,-0.019,,,,19.520287748
1715822014640569518,-0.029,,,,19.527982046
1715822014648263816,-0.055,,,,19.535676344
1715822014655958114,-0.094,,,,19.543370642
1715822014663652412,-0.116,,,,19.55106494
1715822014671346710,-0.125,,,,19.558759238
1715822014679041008,-0.137,,,,19.566453536
1715822014686735306,-0.149,,,,19.574147834
1715822014694429604,-0.152,,,,19.581842132
1715822014702123902,-0.145,,,,19.58953643
1715822014709818200,-0.135,,,,19.597230728
1715822014717512498,-0.111,,,,19.604925026
1715822014725206796,-0.06,,,,19.612619324
1715822014732901094,-0.002,,,,19.620313622
1715822014740595392,0.058,,,,19.62800792
1715822014748289690,0.111,,,,19.635702218
1715822014755983988,0.149,,,,19.643396516
1715822014763678286,0.183,,,,19.651090814
1715822014771372620,0.205,68.0,,,19.658785148
1715822014779066848,0.212,,,,19.666479376
1715822014786761076,0.215,,,,19.674173604
1715822014794455304,0.215,,,,19.681867832
1715822014802149532,0.21,,,,19.68956206
1715822014809843760,0.2,,,,19.697256288
1715822014817537988,0.2,,,,19.704950516
1715822014825232216,0.2,,,,19.712644744
1715822014832926444,0.186,,,,19.720338972
1715822014840620672,0.178,,,,19.7280332
1715822014848314900,0.181,,,,19.735727428
1715822014856009128,0.181,,,,19.743421656
1715822014863703356,0.176,,,,19.751115884
1715822014871397584,0.174,,,,19.758810112
1715822014879091812,0.174,,,,19.76650434
1715822014886786040,0.176,,,,19.774198568
1715822014894480268,0.171,,,,19.781892796
1715822014902174496,0.164,,,,19.789587024
1715822014909868724,0.161,,,,19.797281252
1715822014917562952,0.161,,,,19.80497548
1715822014925257180,0.164,,,,19.812669708
1715822014932951408,0.166,,,,19.820363936
1715822014940645636,0.169,,,,19.828058164
1715822014948339864,0.164,,,,19.835752392
1715822014956034092,0.159,,,,19.84344662
1715822014963728320,0.164,,,,19.851140848
1715822014971422548,0.169,,,,19.858835076
1715822014979116776,0.164,,,,19.866529304
1715822014986811004,0.161,,,,19.874223532
1715822014994505232,0.164,,,,19.88191776
1715822015002199460,0.166,,,,19.889611988
1715822015009893688,0.164,,,,19.897306216
1715822015017587916,0.161,,,,19.905000444
1715822015025282144,0.166,,,,19.912694672
1715822015032976372,0.164,,,,19.9203889
1715822015040670600,0.152,,,,19.928083128
1715822015048364828,0.14,,,,19.935777356
1715822015056059056,0.14,,,,19.943471584
1715822015063753284,0.149,,,,19.951165812
1715822015071447512,0.147,,,,19.95886004
1715822015079141740,0.14,,,,19.966554268
1715822015086835968,0.14,,,,19.974248496
1715822015094530196,0.142,,,,19.981942724
1715822015102224424,0.14,,,,19.989636952
1715822015109918652,0.135,,,,19.99733118
1715822015117612880,0.135,,,,20.005025408
1715822015125307108,0.142,,,,20.012719636
1715822015133001336,0.137,,,,20.020413864
1715822015140695564,0.132,,,,20.028108092
1715822015148389792,0.135,,,,20.03580232
1715822015156084020,0.14,,,,20.043496548
1715822015163778248,0.145,,,,20.051190776
1715822015171472476,0.145,,,,20.058885004
1715822015179166704,0.137,,,,20.066579232
1715822015186860932,0.123,,,,20.07427346
1715822015194555160,0.111,,,,20.081967688
1715822015202249388,0.108,,,,20.089661916
1715822015209943616,0.111,,,,20.097356144
1715822015217637844,0.125,,,,20.105050372
1715822015225332072,0.137,,,,20.1127446
1715822015233026300,0.137,,,,20.120438828
1715822015240720528,0.137,,,,20.128133056
1715822015248414756,0.14,,,,20.135827284
1715822015256108984,0.135,,,,20.143521512
1715822015263803212,0.132,,,,20.15121574
1715822015271497440,0.135,,,,20.158909968
1715822015279191668,0.137,,,,20.166604196
1715822015286885896,0.132,,,,20.174298424
1715822015294580124,0.125,,,,20.181992652
1715822015302274352,0.132,,,,20.18968688
1715822015309968580,0.14,,,,20.197381108
1715822015317662808,0.074,,,,20.205075336
1715822015325357036,-0.142,,,,20.212769564
1715822015333051322,-0.488,,,,20.22046385
1715822015340745690,-0.676,,,,20.228158218
1715822015348440058,-0.348,,,,20.235852586
1715822015356134426,0.319,,,,20.243546954
1715822015363828794,0.584,,,,20.251241322
1715822015371523162,0.287,,,,20.25893569
1715822015379217530,0.074,,,,20.266630058
1715822015386911898,0.125,,,,20.274324426
1715822015394606266,0.128,,,,20.282018794
1715822015402300634,0.079,,900.0,,20.289713162
1715822015409995002,0.087,,,,20.29740753
1715822015417689370,0.091,,,,20.305101898
1715822015425383738,0.074,,,,20.312796266
1715822015433078106,0.072,,,,20.320490634
1715822015440772474,0.07,,,,20.328185002
1715822015448466842,0.06,,,,20.33587937
1715822015456161210,0.055,,,,20.343573738
1715822015463855578,0.048,,,,20.351268106
1715822015471549946,0.038,,,,20.358962474
1715822015479244314,0.033,,,,20.366656842
1715822015486938682,0.021,,,,20.37435121
1715822015494633050,0.007,,,,20.382045578
1715822015502327418,-0.004,,,,20.389739946
1715822015510021786,-0.021,,,,20.397434314
1715822015517716154,-0.043,,,,20.405128682
1715822015525410522,-0.062,,,,20.41282305
1715822015533104890,-0.082,,,,20.420517418
1715822015540799258,-0.108,,,,20.428211786
1715822015548493626,-0.142,,,,20.435906154
1715822015556187994,-0.161,,,,20.443600522
1715822015563882362,-0.164,,,,20.45129489
1715822015571576730,-0.164,,,,20.458989258
1715822015579271098,-0.161,,,,20.466683626
1715822015586965466,-0.149,,,,20.474377994
1715822015594659834,-0.123,,,,20.482072362
1715822015602354202,-0.074,,,,20.48976673
1715822015610048570,-0.012,,,,20.497461098
1715822015617742938,0.043,,,,20.505155466
1715822015625437306,0.096,,,,20.512849834
1715822015633131674,0.14,,,,20.520544202
1715822015640826042,0.159,,,,20.52823857
1715822015648520410,0.174,,,,20.535932938
1715822015656214778,0.193,,,,20.543627306
1715822015663909146,0.2,,,,20.551321674
1715822015671603514,0.198,,,,20.559016042
1715822015679297882,0.195,,,,20.56671041
1715822015686992250,0.193,,,,20.574404778
1715822015694686618,0.195,,,,20.582099146
1715822015702380986,0.193,,,,20.589793514
1715822015710075354,0.186,,,,20.597487882
1715822015717769722,0.186,,,,20.60518225
1715822015725464090,0.183,,,,20.612876618
1715822015733158458,0.174,,,,20.620570986
1715822015740852826,0.169,,,,20.628265354
1715822015748547194,0.174,,,,20.635959722
1715822015756241562,0.174,,,,20.64365409
1715822015763935930,0.171,,,,20.651348458
1715822015771630298,0.166,,,,20.659042826
1715822015779324666,0.164,,,,20.666737194
1715822015787019034,0.164,,,,20.674431562
1715822015794713402,0.164,,,,20.68212593
1715822015802407770,0.164,,,,20.689820298
1715822015810102138,0.161,,,,20.697514666
1715822015817796506,0.157,,,,20.705209034
1715822015825490874,0.154,,,,20.712903402
1715822015833185242,0.154,,,,20.72059777
1715822015840879610,0.157,,,,20.728292138
1715822015848573978,0.157,,,,20.735986506
1715822015856268346,0.154,,,,20.743680874
1715822015863962714,0.154,,,,20.751375242
1715822015871657082,0.157,,,,20.75906961
1715822015879351450,0.154,,,,20.766763978
1715822015887045818,0.152,,,,20.774458346
1715822015894740198,0.152,68.0,,,20.782152726
1715822015902434148,0.154,,,,20.789846676
1715822015910128098,0.147,,,,20.797540626
1715822015917822048,0.137,,,,20.805234576
1715822015925515998,0.135,,,,20.812928526
1715822015933209948,0.14,,,,20.820622476
1715822015940903898,0.142,,,,20.828316426
1715822015948597848,0.135,,,,20.836010376
1715822015956291798,0.132,,,,20.843704326
1715822015963985748,0.137,,,,20.851398276
1715822015971679698,0.135,,,,20.859092226
1715822015979373648,0.132,,,,20.866786176
1715822015987067598,0.137,,,,20.874480126
1715822015994761548,0.14,,,,20.882174076
1715822016002455498,0.137,,,,20.889868026
1715822016010149448,0.128,,,,20.897561976
1715822016017843398,0.13,,,,20.905255926
1715822016025537348,0.142,,,,20.912949876
1715822016033231298,0.147,,,,20.920643826
1715822016040925248,0.137,,,,20.928337776
1715822016048619198,0.118,,,,20.936031726
1715822016056313148,0.096,,,,20.943725676
1715822016064007098,0.082,,,,20.951419626
1715822016071701048,0.077,,,,20.959113576
1715822016079394998,0.094,,,,20.966807526
1715822016087088948,0.118,,,,20.974501476
1715822016094782898,0.123,,,,20.982195426
1715822016102476848,0.118,,,,20.989889376
1715822016110170798,0.125,,,,20.997583326
1715822016117864748,0.128,,,,21.005277276
1715822016125558698,0.123,,,,21.012971226
1715822016133252648,0.12,,,,21.020665176
1715822016140946598,0.125,,,,21.028359126
1715822016148640548,0.123,,,,21.036053076
1715822016156334498,0.12,,,,21.043747026
1715822016164028448,0.125,,,,21.051440976
1715822016171722398,0.13,,,,21.059134926
1715822016179416348,0.089,,,,21.066828876
1715822016187110298,-0.084,,,,21.074522826
1715822016194804248,-0.408,,,,21.082216776
1715822016202498198,-0.642,,,,21.089910726
1715822016210192148,-0.435,,,,21.097604676
1715822016217886098,0.183,,,,21.105298626
1715822016225580048,0.5700000000000001,,,,21.112992576
1715822016233273998,0.369,,,,21.120686526
1715822016240967948,0.099,,,,21.128380476
1715822016248661898,0.113,,,,21.136074426
1715822016256355848,0.142,,,,21.143768376
1715822016264049798,0.099,,,,21.151462326
1715822016271743748,0.099,,,,21.159156276
1715822016279437698,0.108,,,,21.166850226
1715822016287131648,0.084,,,,21.174544176
1715822016294825598,0.074,,888.0,,21.182238126
1715822016302519548,0.077,,,,21.189932076
1715822016310213498,0.067,,,,21.197626026
1715822016317907448,0.058,,,,21.205319976
1715822016325601398,0.058,,,,21.213013926
1715822016333295348,0.045,,,,21.220707876
1715822016340989298,0.038,,,,21.228401826
1715822016348683248,0.029,,,,21.236095776
1715822016356377198,0.016,,,,21.243789726
1715822016364071148,0.002,,,,21.251483676
1715822016371765098,-0.012,,,,21.259177626
1715822016379459048,-0.033,,,,21.266871576
1715822016387152998,-0.05,,,,21.274565526
1715822016394846948,-0.07,,,,21.282259476
1715822016402540898,-0.091,,,,21.289953426
1715822016410234848,-0.111,,,,21.297647376
1715822016417928798,-0.123,,,,21.305341326
1715822016425622748,-0.135,,,,21.313035276
1715822016433316698,-0.14,,,,21.320729226
1715822016441010648,-0.132,,,,21.328423176
1715822016448704598,-0.12,,,,21.336117126
1715822016456398558,-0.101,,,,21.343811086
1715822016464092926,-0.055,,,,21.351505454
1715822016471787294,0.0,,,,21.359199822
1715822016479481662,0.058,,,,21.36689419
1715822016487176030,0.108,,,,21.374588558
1715822016494870398,0.147,,,,21.382282926
1715822016502564766,0.181,,,,21.389977294
1715822016510259134,0.198,,,,21.397671662
1715822016517953502,0.198,,,,21.40536603
1715822016525647870,0.2,,,,21.413060398
1715822016533342238,0.207,,,,21.420754766
1715822016541036606,0.212,,,,21.428449134
1715822016548730974,0.203,,,,21.436143502
1715822016556425342,0.19,,,,21.44383787
1715822016564119710,0.188,,,,21.451532238
1715822016571814078,0.19,,,,21.459226606
1715822016579508446,0.186,,,,21.466920974
1715822016587202814,0.181,,,,21.474615342
1715822016594897182,0.181,,,,21.48230971
1715822016602591550,0.178,,,,21.490004078
1715822016610285918,0.171,,,,21.497698446
1715822016617980286,0.174,,,,21.505392814
1715822016625674654,0.176,,,,21.513087182
1715822016633369022,0.171,,,,21.52078155
1715822016641063390,0.166,,,,21.528475918
1715822016648757758,0.166,,,,21.536170286
1715822016656452126,0.164,,,,21.543864654
1715822016664146494,0.164,,,,21.551559022
1715822016671840862,0.166,,,,21.55925339
1715822016679535230,0.169,,,,21.566947758
1715822016687229598,0.169,,,,21.574642126
1715822016694923966,0.166,,,,21.582336494
1715822016702618334,0.164,,,,21.590030862
1715822016710312702,0.164,,,,21.59772523
1715822016718007070,0.164,,,,21.605419598
1715822016725701438,0.164,,,,21.613113966
1715822016733395806,0.161,,,,21.620808334
1715822016741090174,0.166,,,,21.628502702
1715822016748784542,0.164,,,,21.63619707
1715822016756478910,0.159,,,,21.643891438
1715822016764173278,0.159,,,,21.651585806
1715822016771867646,0.164,,,,21.659280174
1715822016779562014,0.164,,,,21.666974542
1715822016787256382,0.159,,,,21.67466891
1715822016794950750,0.149,,,,21.682363278
1715822016802645118,0.147,,,,21.690057646
1715822016810339486,0.147,,,,21.697752014
1715822016818033854,0.147,,,,21.705446382
1715822016825728222,0.147,,,,21.71314075
1715822016833422590,0.149,,,,21.720835118
1715822016841116958,0.149,,,,21.728529486
1715822016848811326,0.145,,,,21.736223854
1715822016856505694,0.145,,,,21.743918222
1715822016864200062,0.152,,,,21.75161259
1715822016871894430,0.149,,,,21.759306958
1715822016879588798,0.145,,,,21.767001326
1715822016887283166,0.142,,,,21.774695694
1715822016894977534,0.142,,,,21.782390062
1715822016902671902,0.145,,,,21.79008443
1715822016910366270,0.142,,,,21.797778798
1715822016918060638,0.142,,,,21.805473166
1715822016925755006,0.145,,,,21.813167534
1715822016933449374,0.145,,,,21.820861902
1715822016941143742,0.145,,,,21.82855627
1715822016948838110,0.145,,,,21.836250638
1715822016956532478,0.14,,,,21.843945006
1715822016964226846,0.125,,,,21.851639374
1715822016971921214,0.111,,,,21.859333742
1715822016979615582,0.108,,,,21.86702811
1715822016987309950,0.125,,,,21.874722478
1715822016995004318,0.14,,,,21.882416846
1715822017002698686,0.145,,,,21.890111214
1715822017010393054,0.145,,,,21.897805582
1715822017018087434,0.149,68.0,,,21.905499962
1715822017025781802,0.145,,,,21.91319433
1715822017033476170,0.142,,,,21.920888698
1715822017041170538,0.14,,,,21.928583066
1715822017048864906,0.128,,,,21.936277434
1715822017056559274,0.118,,,,21.943971802
1715822017064253642,0.116,,,,21.95166617
1715822017071948010,0.118,,,,21.959360538
1715822017079642378,0.116,,,,21.967054906
1715822017087336746,0.055,,,,21.974749274
1715822017095031114,-0.149,,,,21.982443642
1715822017102725482,-0.473,,,,21.99013801
1715822017110419850,-0.655,,,,21.997832378
1715822017118114218,-0.345,,,,22.005526746
1715822017125808586,0.299,,836.0,,22.013221114
1715822017133502954,0.5750000000000001,,,,22.020915482
1715822017141197322,0.309,,,,22.02860985
1715822017148891690,0.089,,,,22.036304218
1715822017156586058,0.12,,,,22.043998586
1715822017164280426,0.12,,,,22.051692954
1715822017171974794,0.072,,,,22.059387322
1715822017179669162,0.082,,,,22.06708169
1715822017187363530,0.087,,,,22.074776058
1715822017195057898,0.072,,,,22.082470426
1715822017202752266,0.067,,,,22.090164794
1715822017210446634,0.065,,,,22.097859162
1715822017218141002,0.058,,,,22.10555353
1715822017225835370,0.053,,,,22.113247898
1715822017233529738,0.045,,,,22.120942266
1715822017241224106,0.038,,,,22.128636634
1715822017248918474,0.029,,,,22.136331002
1715822017256612842,0.016,,,,22.14402537
1715822017264307210,0.002,,,,22.151719738
1715822017272001578,-0.016,,,,22.159414106
1715822017279695946,-0.031,,,,22.167108474
1715822017287390314,-0.045,,,,22.174802842
1715822017295084682,-0.074,,,,22.18249721
1715822017302779050,-0.096,,,,22.190191578
1715822017310473418,-0.111,,,,22.197885946
1715822017318167786,-0.125,,,,22.205580314
1715822017325862154,-0.142,,,,22.213274682
1715822017333556522,-0.149,,,,22.22096905
1715822017341250890,-0.152,,,,22.228663418
1715822017348945258,-0.152,,,,22.236357786
1715822017356639626,-0.135,,,,22.244052154
