HRV_ULF,HRV_VLF,HRV_LF,HRV_HF,HRV_VHF,HRV_TP,HRV_LFHF,HRV_LFn,HRV_HFn,HRV_LnHF,time
,,0.0431129277104339,0.011527639192624865,0.0006954221897933368,0.0553359890928521,3.739961581901056,0.7791119019864581,0.20832083028789525,-4.463007719124402,0.0
,,0.0431129277104339,0.011527639192624865,0.0006954221897933368,0.0553359890928521,3.739961581901056,0.7791119019864581,0.20832083028789525,-4.463007719124402,0.1
,,0.0431129277104339,0.011527639192624865,0.0006954221897933368,0.0553359890928521,3.739961581901056,0.7791119019864581,0.20832083028789525,-4.463007719124402,0.2
,,0.0431129277104339,0.011527639192624865,0.0006954221897933368,0.0553359890928521,3.739961581901056,0.7791119019864581,0.20832083028789525,-4.463007719124402,0.3
,,0.04314023589031653,0.011763120483320164,0.000573868692058835,0.055477225065695523,3.725452119011777,0.7776206513435078,0.2120351273768723,-4.4427860244889015,0.4
,,0.04343568662908467,0.011984676026009073,0.0007158424297859486,0.056136205084879695,3.7085882218004715,0.7737553075311834,0.21349280750075408,-4.424126443083255,0.5
,,0.04343568662908467,0.011984676026009073,0.0007158424297859486,0.056136205084879695,3.6965425809352532,0.7737553075311834,0.21349280750075408,-4.424126443083255,0.6
,,0.04343568662908467,0.011984676026009073,0.0007158424297859486,0.056136205084879695,3.6875083502863397,0.7737553075311834,0.21349280750075408,-4.424126443083255,0.7
,,0.04343568662908467,0.011984676026009073,0.0007158424297859486,0.056136205084879695,3.680481726448296,0.7737553075311834,0.21349280750075408,-4.424126443083255,0.8
,,0.04343568662908467,0.011984676026009073,0.0007158424297859486,0.056136205084879695,3.674860427377861,0.7737553075311834,0.21349280750075408,-4.424126443083255,0.9
,,0.04343568662908467,0.011984676026009073,0.0007158424297859486,0.056136205084879695,3.670261182683868,0.7737553075311834,0.21349280750075408,-4.424126443083255,1.0
,,0.04356561817470891,0.012316904728145736,0.000600945819926309,0.05648346872278095,3.659160997098614,0.7712985615052709,0.21806211634410608,-4.396782592041279,1.1
,,0.04356561817470891,0.012316904728145736,0.000600945819926309,0.05648346872278095,3.649768532372629,0.7712985615052709,0.21806211634410608,-4.396782592041279,1.2
,,0.04406661267666383,0.01260927400001923,0.00075092649709423,0.05742681317377729,3.6386977761256927,0.7673525700149053,0.21957119511164136,-4.373322704015673,1.3
,,0.04406661267666383,0.01260927400001923,0.00075092649709423,0.05742681317377729,3.629103120711681,0.7673525700149053,0.21957119511164136,-4.373322704015673,1.4
,,0.04406661267666383,0.01260927400001923,0.00075092649709423,0.05742681317377729,3.62070779722442,0.7673525700149053,0.21957119511164136,-4.373322704015673,1.5
,,0.04406661267666383,0.01260927400001923,0.00075092649709423,0.05742681317377729,3.613300158853308,0.7673525700149053,0.21957119511164136,-4.373322704015673,1.6
,,0.04406661267666383,0.01260927400001923,0.00075092649709423,0.05742681317377729,3.6067155914123195,0.7673525700149053,0.21957119511164136,-4.373322704015673,1.7
,,0.044048506373546285,0.010384634929775155,0.0005335752720645354,0.054966716575385974,3.6401358254295806,0.8013668837783764,0.18892587326974122,-4.567427975880519,1.8
,,0.044048506373546285,0.010384634929775155,0.0005335752720645354,0.054966716575385974,3.6702140360451154,0.8013668837783764,0.18892587326974122,-4.567427975880519,1.9
,,0.044998403171946186,0.01339150373139559,0.0007961518818873758,0.05918605878522915,3.6554524312956094,0.7602872043775327,0.22626111632115736,-4.313134823015766,2.0
,,0.044998403171946186,0.01339150373139559,0.0007961518818873758,0.05918605878522915,3.6420327906142393,0.7602872043775327,0.22626111632115736,-4.313134823015766,2.1
,,0.044998403171946186,0.01339150373139559,0.0007961518818873758,0.05918605878522915,3.6297800752095104,0.7602872043775327,0.22626111632115736,-4.313134823015766,2.2
,,0.044998403171946186,0.01339150373139559,0.0007961518818873758,0.05918605878522915,3.618548419421843,0.7602872043775327,0.22626111632115736,-4.313134823015766,2.3
,,0.045453830237521795,0.013934988751457518,0.0006871723789923647,0.060075991367971676,3.6042804458414377,0.7566055790758802,0.23195603491758077,-4.273352425263655,2.4
,,0.045453830237521795,0.013934988751457518,0.0006871723789923647,0.060075991367971676,3.5911100086902943,0.7566055790758802,0.23195603491758077,-4.273352425263655,2.5
,,0.046212934969156454,0.014318409828129689,0.000845749560734445,0.061377094358020585,3.5776436626166936,0.7529345507884486,0.23328588584869364,-4.246209169137318,2.6
,,0.04637284701917481,0.01439520438490709,0.0008554661884809,0.06162351759256279,3.5649210111214877,0.7525186622058628,0.2335991995796815,-4.240860156692493,2.7
,,0.04637311182113297,0.014395197453453194,0.0008554669189711744,0.06162377619355734,3.5530764716709755,0.7525198013746713,0.23359810681251608,-4.240860638203931,2.8
,,0.04637311182113297,0.014395197453453194,0.0008554669189711744,0.06162377619355734,3.542021568183831,0.7525198013746713,0.23359810681251608,-4.240860638203931,2.9
,,0.04637311182113297,0.014395197453453194,0.0008554669189711744,0.06162377619355734,3.531679884276502,0.7525198013746713,0.23359810681251608,-4.240860638203931,3.0
,,0.04706566611339592,0.015048590253331317,0.0007460256013766867,0.06286028196810392,3.5190517550202007,0.748734568789838,0.23939743478985914,-4.196470963049638,3.1
,,0.04706566611339592,0.015048590253331317,0.0007460256013766867,0.06286028196810392,3.5071889669309484,0.748734568789838,0.23939743478985914,-4.196470963049638,3.2
,,0.04706566611339592,0.015048590253331317,0.0007460256013766867,0.06286028196810392,3.4960239899057695,0.748734568789838,0.23939743478985914,-4.196470963049638,3.3
,,0.04819851154492525,0.015585884071135763,0.0009257040798236994,0.06471009969588472,3.4844932024629296,0.7448375411480083,0.24085705545786631,-4.161389641601021,3.4
,,0.04819851154492525,0.015585884071135763,0.0009257040798236994,0.06471009969588472,3.473603014322469,0.7448375411480083,0.24085705545786631,-4.161389641601021,3.5
,,0.04819851154492525,0.015585884071135763,0.0009257040798236994,0.06471009969588472,3.4633014850004122,0.7448375411480083,0.24085705545786631,-4.161389641601021,3.6
,,0.04819851154492525,0.015585884071135763,0.0009257040798236994,0.06471009969588472,3.4535421414321474,0.7448375411480083,0.24085705545786631,-4.161389641601021,3.7
,,0.04926306382724335,0.016400340687046096,0.0009575745084865279,0.06662097902277599,3.4420098546244766,0.7394527151935367,0.2461738168308701,-4.110453170767381,3.8
,,0.04926306382724335,0.016400340687046096,0.0009575745084865279,0.06662097902277599,3.4310541821571894,0.7394527151935367,0.2461738168308701,-4.110453170767381,3.9
,,0.04926306382724335,0.016400340687046096,0.0009575745084865279,0.06662097902277599,3.420632932737087,0.7394527151935367,0.2461738168308701,-4.110453170767381,4.0
,,0.05061256589906077,0.017030264968826328,0.001014020058409968,0.06865685092629706,3.40994926468448,0.737181580806746,0.24804902553873714,-4.072763225483992,4.1
,,0.05061256589906077,0.017030264968826328,0.001014020058409968,0.06865685092629706,3.399762511425017,0.737181580806746,0.24804902553873714,-4.072763225483992,4.2
,,0.05061256589906077,0.017030264968826328,0.001014020058409968,0.06865685092629706,3.3900387924046202,0.737181580806746,0.24804902553873714,-4.072763225483992,4.3
,,0.051178522901700677,0.017679037944170566,0.0010500672504439458,0.06990762809631519,3.3790350494168004,0.7320878178156681,0.2528914000602807,-4.0353756381756645,4.4
,,0.051178522901700677,0.017679037944170566,0.0010500672504439458,0.06990762809631519,3.3685097300371463,0.7320878178156681,0.2528914000602807,-4.0353756381756645,4.5
,,0.051178522901700677,0.017679037944170566,0.0010500672504439458,0.06990762809631519,3.3584322965885414,0.7320878178156681,0.2528914000602807,-4.0353756381756645,4.6
,,0.051178522901700677,0.017679037944170566,0.0010500672504439458,0.06990762809631519,3.3487747562002954,0.7320878178156681,0.2528914000602807,-4.0353756381756645,4.7
,,0.051178522901700677,0.017679037944170566,0.0010500672504439458,0.06990762809631519,3.339511401134018,0.7320878178156681,0.2528914000602807,-4.0353756381756645,4.8
,,0.051246883416223715,0.017886208891544703,0.001069892266087098,0.07020298457385551,3.3300244101773533,0.7299815488942718,0.25477846846707647,-4.023725316073194,4.9
,,0.051246883416223715,0.017886208891544703,0.001069892266087098,0.07020298457385551,3.3209094580817355,0.7299815488942718,0.25477846846707647,-4.023725316073194,5.0
,,0.05151949704755342,0.018381842060707625,0.001109887534005623,0.07101122664226667,3.3109446325957204,0.7255119997728422,0.2588582528409184,-3.996391946145604,5.1
,,0.05151949704755342,0.018381842060707625,0.001109887534005623,0.07101122664226667,3.301355838260121,0.7255119997728422,0.2588582528409184,-3.996391946145604,5.2
,,0.05151949704755342,0.018381842060707625,0.001109887534005623,0.07101122664226667,3.292122184455469,0.7255119997728422,0.2588582528409184,-3.996391946145604,5.3
,,0.05151949704755342,0.018381842060707625,0.001109887534005623,0.07101122664226667,3.283224299880078,0.7255119997728422,0.2588582528409184,-3.996391946145604,5.4
,,0.05151949704755342,0.018381842060707625,0.001109887534005623,0.07101122664226667,3.274644196896664,0.7255119997728422,0.2588582528409184,-3.996391946145604,5.5
,,0.05151949704755342,0.018381842060707625,0.001109887534005623,0.07101122664226667,3.2663651501582835,0.7255119997728422,0.2588582528409184,-3.996391946145604,5.6
,,0.04982484336308816,0.01825435482211255,0.0011185454003398965,0.06919774358554061,3.257108459544672,0.7200356656354823,0.26379985641507153,-4.0033516070292245,5.7
,,0.04982484336308816,0.01825435482211255,0.0011185454003398965,0.06919774358554061,3.248165555053556,0.7200356656354823,0.26379985641507153,-4.0033516070292245,5.8
,,0.04982484336308816,0.01825435482211255,0.0011185454003398965,0.06919774358554061,3.2395207473788106,0.7200356656354823,0.26379985641507153,-4.0033516070292245,5.9
,,0.04982484336308816,0.01825435482211255,0.0011185454003398965,0.06919774358554061,3.23115937602127,0.7200356656354823,0.26379985641507153,-4.0033516070292245,6.0
,,0.04982484336308816,0.01825435482211255,0.0011185454003398965,0.06919774358554061,3.2230677263204237,0.7200356656354823,0.26379985641507153,-4.0033516070292245,6.1
,,0.04982484336308816,0.01825435482211255,0.0011185454003398965,0.06919774358554061,3.215232954387859,0.7200356656354823,0.26379985641507153,-4.0033516070292245,6.2
,,0.04710414612179166,0.017458149267549225,0.0009167878237034674,0.06547908321304435,3.207153032631566,0.7193769950708145,0.2666217731049618,-4.047948732611062,6.3
,,0.04452073005024777,0.016629005930759312,0.0010340531181418943,0.06218378909914898,3.199001348032588,0.715953959950264,0.26741705791271714,-4.096606763224832,6.4
,,0.04452073005024777,0.016629005930759312,0.0010340531181418943,0.06218378909914898,3.191096684179034,0.715953959950264,0.26741705791271714,-4.096606763224832,6.5
,,0.04452073005024777,0.016629005930759312,0.0010340531181418943,0.06218378909914898,3.183427980440511,0.715953959950264,0.26741705791271714,-4.096606763224832,6.6
,,0.04452073005024777,0.016629005930759312,0.0010340531181418943,0.06218378909914898,3.175984826811945,0.715953959950264,0.26741705791271714,-4.096606763224832,6.7
,,0.04452073005024777,0.016629005930759312,0.0010340531181418943,0.06218378909914898,3.168757416766815,0.715953959950264,0.26741705791271714,-4.096606763224832,6.8
,,0.04452073005024777,0.016629005930759312,0.0010340531181418943,0.06218378909914898,3.1617365041515466,0.715953959950264,0.26741705791271714,-4.096606763224832,6.9
,,0.04234963321145873,0.015870593435401186,0.0008477508948605426,0.059067977541720454,3.1547885834111065,0.7169643345507581,0.26868354218140594,-4.143287351607894,7.0
,,0.04234963321145873,0.015870593435401186,0.0008477508948605426,0.059067977541720454,3.1480336604690122,0.7169643345507581,0.26868354218140594,-4.143287351607894,7.1
,,0.029951509553339188,0.014974168237811539,0.0009450955940180741,0.045870773385168796,3.132310074756245,0.6529541000288276,0.3264424628744776,-4.201428679908087,7.2
,,0.029951509553339188,0.014974168237811539,0.0009450955940180741,0.045870773385168796,3.117011450819499,0.6529541000288276,0.3264424628744776,-4.201428679908087,7.3
,,0.029951509553339188,0.014974168237811539,0.0009450955940180741,0.045870773385168796,3.1021207901877323,0.6529541000288276,0.3264424628744776,-4.201428679908087,7.4
,,0.029951509553339188,0.014974168237811539,0.0009450955940180741,0.045870773385168796,3.0876219890462755,0.6529541000288276,0.3264424628744776,-4.201428679908087,7.5
,,0.03819007269831336,0.014314752126969877,0.0007748607087822231,0.05327968553406546,3.082170823228172,0.7167848743006516,0.26867185839183394,-4.246464656197073,7.6
,,0.03819007269831336,0.014314752126969877,0.0007748607087822231,0.05327968553406546,3.0768594308925836,0.7167848743006516,0.26867185839183394,-4.246464656197073,7.7
,,0.03819007269831336,0.014314752126969877,0.0007748607087822231,0.05327968553406546,3.0716825041857447,0.7167848743006516,0.26867185839183394,-4.246464656197073,7.8
,,0.036252562242173034,0.013659875829839106,0.0008733946470186042,0.05078583271903074,3.0664607882045964,0.7138321910115747,0.26897020484849515,-4.29329251493651,7.9
,,0.036252562242173034,0.013659875829839106,0.0008733946470186042,0.05078583271903074,3.0613680034822424,0.7138321910115747,0.26897020484849515,-4.29329251493651,8.0
,,0.036252562242173034,0.013659875829839106,0.0008733946470186042,0.05078583271903074,3.056399433021409,0.7138321910115747,0.26897020484849515,-4.29329251493651,8.1
,,0.036252562242173034,0.013659875829839106,0.0008733946470186042,0.05078583271903074,3.0515505871499933,0.7138321910115747,0.26897020484849515,-4.29329251493651,8.2
,,0.03529282169617492,0.013101582313269173,0.0007149123134435867,0.04910931632288768,3.047291451013756,0.718658379687654,0.2667840502426849,-4.33502226879677,8.3
,,0.03529282169617492,0.013101582313269173,0.0007149123134435867,0.04910931632288768,3.0431325298454306,0.718658379687654,0.2667840502426849,-4.33502226879677,8.4
,,0.034287874352337926,0.012776184685074672,0.0008276332503161142,0.047891692287728715,3.038953470913638,0.7159461842847326,0.2667724625038634,-4.360172412548151,8.5
,,0.03529282169617492,0.013101582313269173,0.0007149123134435867,0.04910931632288768,3.034985995980218,0.718658379687654,0.2667840502426849,-4.33502226879677,8.6
,,0.0336876544380808,0.012566084136620565,0.0008104168324868448,0.04706415540718821,3.0309616037311287,0.7157815570389607,0.26699903627084576,-4.376753829446798,8.7
,,0.0336876544380808,0.012566084136620565,0.0008104168324868448,0.04706415540718821,3.0270276472629183,0.7157815570389607,0.26699903627084576,-4.376753829446798,8.8
,,0.0336876544380808,0.012566084136620565,0.0008104168324868448,0.04706415540718821,3.023181112049557,0.7157815570389607,0.26699903627084576,-4.376753829446798,8.9
,,0.03332782383065442,0.012159428967518274,0.00066807187288042,0.04615532467105311,3.0120804689024245,0.7220797181729366,0.2634458549295876,-4.409650363454804,9.0
,,0.03332782383065442,0.012159428967518274,0.00066807187288042,0.04615532467105311,3.0009798257552927,0.7220797181729366,0.2634458549295876,-4.409650363454804,9.1
,,0.03332782383065442,0.012159428967518274,0.00066807187288042,0.04615532467105311,2.989879182608161,0.7220797181729366,0.2634458549295876,-4.409650363454804,9.2
,,0.03332782383065442,0.012159428967518274,0.00066807187288042,0.04615532467105311,2.978778539461029,0.7220797181729366,0.2634458549295876,-4.409650363454804,9.3
,,0.031974928667455584,0.011723640513450416,0.0007619357429817257,0.04446050492388772,2.9683338147325453,0.7191760130073581,0.26368662554598077,-4.446147919052381,9.4
,,0.031974928667455584,0.011723640513450416,0.0007619357429817257,0.04446050492388772,2.958368484800847,0.7191760130073581,0.26368662554598077,-4.446147919052381,9.5
,,0.031974928667455584,0.011723640513450416,0.0007619357429817257,0.04446050492388772,2.9484031548691494,0.7191760130073581,0.26368662554598077,-4.446147919052381,9.6
,,0.03474390924209425,0.009929162967176698,0.0006671694624158403,0.045340241671686786,2.9470132585091298,0.7662929874454213,0.21899228149410313,-4.6122790978136186,9.7
,,0.03474390924209425,0.009929162967176698,0.0006671694624158403,0.045340241671686786,2.9456233621491106,0.7662929874454213,0.21899228149410313,-4.6122790978136186,9.8
,,0.03474390924209425,0.009929162967176698,0.0006671694624158403,0.045340241671686786,2.9442334657890905,0.7662929874454213,0.21899228149410313,-4.6122790978136186,9.9
,,0.031930627422087764,0.01144099403961231,0.0007482826043337083,0.044119904066033784,2.934973771561959,0.7237238633678246,0.25931593193150865,-4.470552405230837,10.0
,,0.03144163499747224,0.011280513912074151,0.0007368868085166044,0.043459035718063,2.926642583200217,0.7234775111313403,0.25956659474120825,-4.484678474368988,10.1
,,0.03144163499747224,0.011280513912074151,0.0007368868085166044,0.043459035718063,2.9183113948384762,0.7234775111313403,0.25956659474120825,-4.484678474368988,10.2
,,0.03144163499747224,0.011280513912074151,0.0007368868085166044,0.043459035718063,2.910449995485016,0.7234775111313403,0.25956659474120825,-4.484678474368988,10.3
,,0.03259645862598209,0.01137352553207111,0.0006238038832065175,0.04459378804125971,2.90346350983828,0.7309641108717366,0.25504730662369235,-4.47646694610117,10.4
,,0.03259645862598209,0.01137352553207111,0.0006238038832065175,0.04459378804125971,2.896477024191545,0.7309641108717366,0.25504730662369235,-4.47646694610117,10.5
,,0.03259645862598209,0.01137352553207111,0.0006238038832065175,0.04459378804125971,2.8894905385448095,0.7309641108717366,0.25504730662369235,-4.47646694610117,10.6
,,0.03259645862598209,0.01137352553207111,0.0006238038832065175,0.04459378804125971,2.8825040528980748,0.7309641108717366,0.25504730662369235,-4.47646694610117,10.7
,,0.03190620391014644,0.011203759346667763,0.00073240769982732,0.04384237095664152,2.8670164116021373,0.72774813984628,0.2555463836056646,-4.491505901048466,10.8
,,0.03190620391014644,0.011203759346667763,0.00073240769982732,0.04384237095664152,2.8515287703062002,0.72774813984628,0.2555463836056646,-4.491505901048466,10.9
,,0.03190620391014644,0.011203759346667763,0.00073240769982732,0.04384237095664152,2.8458353479150946,0.72774813984628,0.2555463836056646,-4.491505901048466,11.0
,,0.03395773811903617,0.011626963338202073,0.0006335093732938505,0.0462182108305321,2.840950705218833,0.7347263667031315,0.2515667121090982,-4.4544284524612054,11.1
,,0.03395773811903617,0.011626963338202073,0.0006335093732938505,0.0462182108305321,2.836066062522571,0.7347263667031315,0.2515667121090982,-4.4544284524612054,11.2
,,0.03395773811903617,0.011626963338202073,0.0006335093732938505,0.0462182108305321,2.8311814198263088,0.7347263667031315,0.2515667121090982,-4.4544284524612054,11.3
,,0.03395773811903617,0.011626963338202073,0.0006335093732938505,0.0462182108305321,2.8273897910899777,0.7347263667031315,0.2515667121090982,-4.4544284524612054,11.4
,,0.03395773811903617,0.011626963338202073,0.0006335093732938505,0.0462182108305321,2.823598162353647,0.7347263667031315,0.2515667121090982,-4.4544284524612054,11.5
,,0.033686746060890595,0.011621213226330298,0.0007579979131147928,0.04606595720033569,2.819944942199578,0.7312720305450445,0.25227334744811536,-4.454923124546396,11.6
,,0.033686746060890595,0.011621213226330298,0.0007579979131147928,0.04606595720033569,2.816359602533866,0.7312720305450445,0.25227334744811536,-4.454923124546396,11.7
,,0.03649152342784606,0.012359626637436588,0.0006666879562321769,0.049517838021514826,2.8133712519366987,0.7369369279004263,0.24959948033406665,-4.3933200347359795,11.8
,,0.03649152342784606,0.012359626637436588,0.0006666879562321769,0.049517838021514826,2.8103829013395307,0.7369369279004263,0.24959948033406665,-4.3933200347359795,11.9
,,0.03649152342784606,0.012359626637436588,0.0006666879562321769,0.049517838021514826,2.8073945507423637,0.7369369279004263,0.24959948033406665,-4.3933200347359795,12.0
,,0.03649152342784606,0.012359626637436588,0.0006666879562321769,0.049517838021514826,2.8054489736894377,0.7369369279004263,0.24959948033406665,-4.3933200347359795,12.1
,,0.03649152342784606,0.012359626637436588,0.0006666879562321769,0.049517838021514826,2.803503396636512,0.7369369279004263,0.24959948033406665,-4.3933200347359795,12.2
,,0.04306189999648845,0.012284488623349365,0.0008937678482730278,0.05624015646811084,2.8077012669978423,0.7656788796614622,0.218429133110874,-4.399417899976372,12.3
,,0.04306189999648845,0.012284488623349365,0.0008937678482730278,0.05624015646811084,2.8122895075666,0.7656788796614622,0.218429133110874,-4.399417899976372,12.4
,,0.04306189999648845,0.012284488623349365,0.0008937678482730278,0.05624015646811084,2.816877748135358,0.7656788796614622,0.218429133110874,-4.399417899976372,12.5
,,0.039678826293779446,0.013429445102166716,0.0007145477849967875,0.05382281918094295,2.815346276517711,0.7372119650660836,0.24951210855416658,-4.31030558708416,12.6
,,0.039678826293779446,0.013429445102166716,0.0007145477849967875,0.05382281918094295,2.8138148049000637,0.7372119650660836,0.24951210855416658,-4.31030558708416,12.7
,,0.039678826293779446,0.013429445102166716,0.0007145477849967875,0.05382281918094295,2.813268482987676,0.7372119650660836,0.24951210855416658,-4.31030558708416,12.8
,,0.039678826293779446,0.013429445102166716,0.0007145477849967875,0.05382281918094295,2.8127221610752886,0.7372119650660836,0.24951210855416658,-4.31030558708416,12.9
,,0.039952483678945896,0.013653362739256618,0.0008796420230936742,0.054485488441296186,2.8118601393247724,0.7332683402846163,0.25058714035328944,-4.293769433167167,13.0
,,0.039952483678945896,0.013653362739256618,0.0008796420230936742,0.054485488441296186,2.8113521629232046,0.7332683402846163,0.25058714035328944,-4.293769433167167,13.1
,,0.039952483678945896,0.013653362739256618,0.0008796420230936742,0.054485488441296186,2.8108441865216376,0.7332683402846163,0.25058714035328944,-4.293769433167167,13.2
,,0.043203207721154886,0.014758495299048812,0.0007811282054278413,0.05874283122563154,2.810348921474938,0.7354634909443014,0.2512390872404728,-4.215936409515393,13.3
,,0.043203207721154886,0.014758495299048812,0.0007811282054278413,0.05874283122563154,2.810709751056848,0.7354634909443014,0.2512390872404728,-4.215936409515393,13.4
,,0.043203207721154886,0.014758495299048812,0.0007811282054278413,0.05874283122563154,2.8110705806387584,0.7354634909443014,0.2512390872404728,-4.215936409515393,13.5
,,0.04351273524228105,0.014994868299554997,0.0009602597942723495,0.0594678633361084,2.8111480408281793,0.731701675514218,0.25215078293304405,-4.200047249777055,13.6
,,0.04946778156121355,0.014572825531113637,0.000990835017623984,0.06503144210995117,2.816699729318536,0.7606748359905116,0.224088918503065,-4.228596749566084,13.7
,,0.04946778156121355,0.014572825531113637,0.000990835017623984,0.06503144210995117,2.8222514178088938,0.7606748359905116,0.224088918503065,-4.228596749566084,13.8
,,0.04946778156121355,0.014572825531113637,0.000990835017623984,0.06503144210995117,2.8281332007953828,0.7606748359905116,0.224088918503065,-4.228596749566084,13.9
,,0.04946778156121355,0.014572825531113637,0.000990835017623984,0.06503144210995117,2.8340149837818727,0.7606748359905116,0.224088918503065,-4.228596749566084,14.0
,,0.05060104184098581,0.015151243884542608,0.0008383968508270241,0.06659068257635543,2.8399815395810695,0.7598817114235871,0.22752798587354334,-4.189672645806885,14.1
,,0.05060104184098581,0.015151243884542608,0.0008383968508270241,0.06659068257635543,2.845948095380266,0.7598817114235871,0.22752798587354334,-4.189672645806885,14.2
,,0.05060104184098581,0.015151243884542608,0.0008383968508270241,0.06659068257635543,2.8519146511794626,0.7598817114235871,0.22752798587354334,-4.189672645806885,14.3
,,0.05145869604376342,0.015519166473057077,0.001029552427327519,0.06800741494414803,2.857615508736953,0.7566630210253477,0.22819815288968703,-4.165679472302237,14.4
,,0.0515061249218386,0.015554252087773132,0.0010432364578546946,0.06810361346746643,2.863267141773636,0.7562906327495152,0.22839099565845364,-4.163421231577437,14.5
,,0.0515061249218386,0.015554252087773132,0.0010432364578546946,0.06810361346746643,2.868918774810318,0.7562906327495152,0.22839099565845364,-4.163421231577437,14.6
,,0.0515061249218386,0.015554252087773132,0.0010432364578546946,0.06810361346746643,2.875384423827446,0.7562906327495152,0.22839099565845364,-4.163421231577437,14.7
,,0.04788641102442038,0.01706296946199241,0.0009314914711936237,0.0658808719576064,2.8762397046255708,0.7268636495162776,0.2589973228188637,-4.070844692159503,14.8
,,0.04788641102442038,0.01706296946199241,0.0009314914711936237,0.0658808719576064,2.8770949854236956,0.7268636495162776,0.2589973228188637,-4.070844692159503,14.9
,,0.04788641102442038,0.01706296946199241,0.0009314914711936237,0.0658808719576064,2.8779502662218204,0.7268636495162776,0.2589973228188637,-4.070844692159503,15.0
,,0.04788641102442038,0.01706296946199241,0.0009314914711936237,0.0658808719576064,2.8788055470199447,0.7268636495162776,0.2589973228188637,-4.070844692159503,15.1
,,0.04788641102442038,0.01706296946199241,0.0009314914711936237,0.0658808719576064,2.8796608278180695,0.7268636495162776,0.2589973228188637,-4.070844692159503,15.2
,,0.04901175300513588,0.017625150649990033,0.0011852729338587937,0.06782217658898472,2.8805793494886323,0.7226508418058657,0.25987297277116,-4.038428382803169,15.3
,,0.04901175300513588,0.017625150649990033,0.0011852729338587937,0.06782217658898472,2.881729253695717,0.7226508418058657,0.25987297277116,-4.038428382803169,15.4
,,0.04891260180863911,0.017912597090717606,0.0011675884587676712,0.06799278735812439,2.882321835702599,0.7193792710837378,0.2634484889753126,-4.02225106556521,15.5
,,0.04891260180863911,0.017912597090717606,0.0011675884587676712,0.06799278735812439,2.8829144177094803,0.7193792710837378,0.2634484889753126,-4.02225106556521,15.6
,,0.04891260180863911,0.017912597090717606,0.0011675884587676712,0.06799278735812439,2.883506999716362,0.7193792710837378,0.2634484889753126,-4.02225106556521,15.7
,,0.04891260180863911,0.017912597090717606,0.0011675884587676712,0.06799278735812439,2.8840995817232433,0.7193792710837378,0.2634484889753126,-4.02225106556521,15.8
,,0.04891260180863911,0.017912597090717606,0.0011675884587676712,0.06799278735812439,2.884692163730125,0.7193792710837378,0.2634484889753126,-4.02225106556521,15.9
,,0.04891260180863911,0.017912597090717606,0.0011675884587676712,0.06799278735812439,2.8853831835383144,0.7193792710837378,0.2634484889753126,-4.02225106556521,16.0
,,0.03266047005294298,0.018169330830081456,0.0012479201705884097,0.05207772105361285,2.875706809023236,0.6271486038976198,0.3488887467133313,-4.008020225536139,16.1
,,0.03266047005294298,0.018169330830081456,0.0012479201705884097,0.05207772105361285,2.8734551259319727,0.6271486038976198,0.3488887467133313,-4.008020225536139,16.2
,,0.047853868315752585,0.018046324567288875,0.001220259021282827,0.06712045190432428,2.8806941469791254,0.7129550972625315,0.26886476558609446,-4.014813240018597,16.3
,,0.047853868315752585,0.018046324567288875,0.001220259021282827,0.06712045190432428,2.8879331680262794,0.7129550972625315,0.26886476558609446,-4.014813240018597,16.4
,,0.047853868315752585,0.018046324567288875,0.001220259021282827,0.06712045190432428,2.895172189073433,0.7129550972625315,0.26886476558609446,-4.014813240018597,16.5
,,0.047853868315752585,0.018046324567288875,0.001220259021282827,0.06712045190432428,2.8949926510359725,0.7129550972625315,0.26886476558609446,-4.014813240018597,16.6
,,0.0482443692660256,0.018275450863650792,0.0012763343443894944,0.06779615447406588,2.894681133459352,0.7116092297606726,0.26956471212009103,-4.002196602589017,16.7
,,0.047853868315752585,0.018046324567288875,0.001220259021282827,0.06712045190432428,2.8945015954218913,0.7129550972625315,0.26886476558609446,-4.014813240018597,16.8
,,0.04832787027572192,0.018320187538531728,0.001285797782173482,0.06793385559642713,2.8943239504815663,0.7113959578979593,0.26967684047503476,-3.9997516829691313,16.9
,,0.04560825670317511,0.015464142305546049,0.0009952879066149798,0.06206768691533614,2.89760557089929,0.7348148282920124,0.24914964733001924,-4.169231334742217,17.0
,,0.04560825670317511,0.015464142305546049,0.0009952879066149798,0.06206768691533614,2.900887191317012,0.7348148282920124,0.24914964733001924,-4.169231334742217,17.1
,,0.04560825670317511,0.015464142305546049,0.0009952879066149798,0.06206768691533614,2.9041688117347344,0.7348148282920124,0.24914964733001924,-4.169231334742217,17.2
,,0.04560825670317511,0.015464142305546049,0.0009952879066149798,0.06206768691533614,2.9070077885300987,0.7348148282920124,0.24914964733001924,-4.169231334742217,17.3
,,0.04560825670317511,0.015464142305546049,0.0009952879066149798,0.06206768691533614,2.909846765325464,0.7348148282920124,0.24914964733001924,-4.169231334742217,17.4
,,0.04560825670317511,0.015464142305546049,0.0009952879066149798,0.06206768691533614,2.912797405342994,0.7348148282920124,0.24914964733001924,-4.169231334742217,17.5
,,0.04699108297785965,0.018891382730091173,0.001359034706372425,0.06724150041432325,2.910504645970706,0.6988404882150724,0.2809482628092439,-3.969049401095697,17.6
,,0.04699108297785965,0.018891382730091173,0.001359034706372425,0.06724150041432325,2.9083557051944804,0.6988404882150724,0.2809482628092439,-3.969049401095697,17.7
,,0.04699108297785965,0.018891382730091173,0.001359034706372425,0.06724150041432325,2.9062067644182554,0.6988404882150724,0.2809482628092439,-3.969049401095697,17.8
,,0.04699108297785965,0.018891382730091173,0.001359034706372425,0.06724150041432325,2.9040578236420305,0.6988404882150724,0.2809482628092439,-3.969049401095697,17.9
,,0.04699108297785965,0.018891382730091173,0.001359034706372425,0.06724150041432325,2.9012415026369296,0.6988404882150724,0.2809482628092439,-3.969049401095697,18.0
,,0.04699108297785965,0.018891382730091173,0.001359034706372425,0.06724150041432325,2.898425181631829,0.6988404882150724,0.2809482628092439,-3.969049401095697,18.1
,,0.04699108297785965,0.018891382730091173,0.001359034706372425,0.06724150041432325,2.8956088606267283,0.6988404882150724,0.2809482628092439,-3.969049401095697,18.2
,,0.046353329474281786,0.019269502529766325,0.0011553751998914733,0.0667782072039396,2.891882464893428,0.6941385732731555,0.2885597463094145,-3.949231612677039,18.3
,,0.0471730970385715,0.01964748804829279,0.0014438611255381453,0.06826444621240242,2.888255624913078,0.6910346403718572,0.287814362210752,-3.929805783530896,18.4
,,0.0471730970385715,0.01964748804829279,0.0014438611255381453,0.06826444621240242,2.884628784932729,0.6910346403718572,0.287814362210752,-3.929805783530896,18.5
,,0.0471730970385715,0.01964748804829279,0.0014438611255381453,0.06826444621240242,2.8810019449523785,0.6910346403718572,0.287814362210752,-3.929805783530896,18.6
,,0.0471730970385715,0.01964748804829279,0.0014438611255381453,0.06826444621240242,2.8687996714003505,0.6910346403718572,0.287814362210752,-3.929805783530896,18.7
,,0.0471730970385715,0.01964748804829279,0.0014438611255381453,0.06826444621240242,2.8565973978483226,0.6910346403718572,0.287814362210752,-3.929805783530896,18.8
,,0.0471730970385715,0.01964748804829279,0.0014438611255381453,0.06826444621240242,2.8443951242962946,0.6910346403718572,0.287814362210752,-3.929805783530896,18.9
,,0.04675632307338789,0.020204596885905438,0.0012326335041296164,0.06819355346342293,2.8390978640464124,0.6856413942186873,0.2962830921656342,-3.901845131855606,19.0
,,0.04769901424830289,0.02064196020452084,0.0015380331381117923,0.06987900759093552,2.833803722844977,0.6825943282928113,0.29539572635828976,-3.8804293717289835,19.1
,,0.04769901424830289,0.02064196020452084,0.0015380331381117923,0.06987900759093552,2.8285095816435417,0.6825943282928113,0.29539572635828976,-3.8804293717289835,19.2
,,0.04769901424830289,0.02064196020452084,0.0015380331381117923,0.06987900759093552,2.8232154404421066,0.6825943282928113,0.29539572635828976,-3.8804293717289835,19.3
,,0.04769901424830289,0.02064196020452084,0.0015380331381117923,0.06987900759093552,2.8170463855339465,0.6825943282928113,0.29539572635828976,-3.8804293717289835,19.4
,,0.04769901424830289,0.02064196020452084,0.0015380331381117923,0.06987900759093552,2.8108773306257864,0.6825943282928113,0.29539572635828976,-3.8804293717289835,19.5
,,0.04481402612256229,0.017558606146824432,0.0010057446986477528,0.06337837696803447,2.807391330115508,0.7070869950671772,0.2770441116799235,-4.042211070530187,19.6
,,0.04481402612256229,0.017558606146824432,0.0010057446986477528,0.06337837696803447,2.8039053296052288,0.7070869950671772,0.2770441116799235,-4.042211070530187,19.7
,,0.04481402612256229,0.017558606146824432,0.0010057446986477528,0.06337837696803447,2.8006213503794317,0.7070869950671772,0.2770441116799235,-4.042211070530187,19.8
,,0.045588946804488294,0.017734833499766164,0.0012171754426173226,0.06454095574687177,2.797541078032313,0.7063568594070276,0.27478417842651415,-4.0322245790292,19.9
,,0.045588946804488294,0.017734833499766164,0.0012171754426173226,0.06454095574687177,2.794460805685193,0.7063568594070276,0.27478417842651415,-4.0322245790292,20.0
,,0.045588946804488294,0.017734833499766164,0.0012171754426173226,0.06454095574687177,2.79057175364323,0.7063568594070276,0.27478417842651415,-4.0322245790292,20.1
,,0.04853227359076015,0.022894857649350245,0.0018070172598560889,0.07323414849996648,2.7816738289397325,0.6627000461510434,0.3126254366070867,-3.7768429504355283,20.2
,,0.04853227359076015,0.022894857649350245,0.0018070172598560889,0.07323414849996648,2.7727759042362345,0.6627000461510434,0.3126254366070867,-3.7768429504355283,20.3
,,0.04853227359076015,0.022894857649350245,0.0018070172598560889,0.07323414849996648,2.763877979532738,0.6627000461510434,0.3126254366070867,-3.7768429504355283,20.4
,,0.049479812614706443,0.023377969601761618,0.0017493891815226715,0.07460717139799074,2.754943668954254,0.6632045108741248,0.313347486088867,-3.7559611700899174,20.5
,,0.04853227359076015,0.022894857649350245,0.0018070172598560889,0.07323414849996648,2.746288784726368,0.6627000461510434,0.3126254366070867,-3.7768429504355283,20.6
,,0.04966616336142203,0.023471265522594254,0.0017367363290850066,0.07487416521310129,2.7375922545622875,0.6633284420609683,0.31347615637238935,-3.751978349712454,20.7
,,0.04966616336142203,0.023471265522594254,0.0017367363290850066,0.07487416521310129,2.7282985137040443,0.6633284420609683,0.31347615637238935,-3.751978349712454,20.8
,,0.04549063145241352,0.019464251806173297,0.0014016940101584322,0.06635657726874525,2.721461398339202,0.6855481901692383,0.29332814631687154,-3.9391757365637754,20.9
,,0.04549063145241352,0.019464251806173297,0.0014016940101584322,0.06635657726874525,2.7146242829743605,0.6855481901692383,0.29332814631687154,-3.9391757365637754,21.0
,,0.04549063145241352,0.019464251806173297,0.0014016940101584322,0.06635657726874525,2.7077871676095184,0.6855481901692383,0.29332814631687154,-3.9391757365637754,21.1
,,0.04549063145241352,0.019464251806173297,0.0014016940101584322,0.06635657726874525,2.7009500522446768,0.6855481901692383,0.29332814631687154,-3.9391757365637754,21.2
,,0.05082384910531691,0.02527399226109111,0.0018545369641471744,0.07795237833055518,2.6843447953353614,0.6519858687287206,0.32422349134643913,-3.6779793858460943,21.3
,,0.04549063145241352,0.019464251806173297,0.0014016940101584322,0.06635657726874525,2.6713642325562637,0.6855481901692383,0.29332814631687154,-3.9391757365637754,21.4
,,0.04838740767616995,0.025461261510018554,0.001992175571511553,0.07584084475770006,2.6535313922532406,0.6380125093643186,0.3357196454148606,-3.670597138375795,21.5
,,0.04838740767616995,0.025461261510018554,0.001992175571511553,0.07584084475770006,2.6418182641366226,0.6380125093643186,0.3357196454148606,-3.670597138375795,21.6
,,0.04838740767616995,0.025461261510018554,0.001992175571511553,0.07584084475770006,2.6301051360200045,0.6380125093643186,0.3357196454148606,-3.670597138375795,21.7
,,0.04838740767616995,0.025461261510018554,0.001992175571511553,0.07584084475770006,2.6183920079033864,0.6380125093643186,0.3357196454148606,-3.670597138375795,21.8
,,0.04838740767616995,0.025461261510018554,0.001992175571511553,0.07584084475770006,2.6066788797867684,0.6380125093643186,0.3357196454148606,-3.670597138375795,21.9
,,0.04838740767616995,0.025461261510018554,0.001992175571511553,0.07584084475770006,2.595281451508279,0.6380125093643186,0.3357196454148606,-3.670597138375795,22.0
,,0.041961536558774916,0.023568698615174,0.0018250385724471534,0.06735527374639608,2.582550247059458,0.6229881377480129,0.3499161580712167,-3.74783577717005,22.1
,,0.045249905895115926,0.021985175824379224,0.0013919867671315983,0.06862706848662674,2.5729058001202394,0.659359446541618,0.32035720465989953,-3.8173868789112855,22.2
,,0.04567043735945814,0.02207142520847371,0.001650303839800666,0.06939216640773252,2.5633709784436265,0.6581497555661986,0.31806796575260465,-3.813471484066549,22.3
,,0.04567043735945814,0.02207142520847371,0.001650303839800666,0.06939216640773252,2.5538361567670136,0.6581497555661986,0.31806796575260465,-3.813471484066549,22.4
,,0.04567043735945814,0.02207142520847371,0.001650303839800666,0.06939216640773252,2.5443013350904007,0.6581497555661986,0.31806796575260465,-3.813471484066549,22.5
,,0.04567043735945814,0.02207142520847371,0.001650303839800666,0.06939216640773252,2.535049882806277,0.6581497555661986,0.31806796575260465,-3.813471484066549,22.6
,,0.04567043735945814,0.02207142520847371,0.001650303839800666,0.06939216640773252,2.5203242022212167,0.6581497555661986,0.31806796575260465,-3.813471484066549,22.7
,,0.036861064790048005,0.02208852189656266,0.001371890788800113,0.060321477475410785,2.5011493786895906,0.611076955220036,0.36618005428608313,-3.812697176574627,22.8
,,0.036861064790048005,0.02208852189656266,0.001371890788800113,0.060321477475410785,2.4819745551579646,0.611076955220036,0.36618005428608313,-3.812697176574627,22.9
,,0.036861064790048005,0.02208852189656266,0.001371890788800113,0.060321477475410785,2.462799731626338,0.611076955220036,0.36618005428608313,-3.812697176574627,23.0
,,0.03498487420017642,0.021204915919675243,0.001547975735176125,0.057737765855027795,2.444023273724212,0.605927051074664,0.3672624945848805,-3.8535222411813295,23.1
,,0.03498487420017642,0.021204915919675243,0.001547975735176125,0.057737765855027795,2.425246815822085,0.605927051074664,0.3672624945848805,-3.8535222411813295,23.2
,,0.03498487420017642,0.021204915919675243,0.001547975735176125,0.057737765855027795,2.4064703579199582,0.605927051074664,0.3672624945848805,-3.8535222411813295,23.3
,,0.03498487420017642,0.021204915919675243,0.001547975735176125,0.057737765855027795,2.387959598259538,0.605927051074664,0.3672624945848805,-3.8535222411813295,23.4
,,0.030678812878479712,0.019803017705696844,0.0011585582964731083,0.05164038888064967,2.368379746874131,0.5940856283902902,0.3834792520921022,-3.9219209435161484,23.5
,,0.030678812878479712,0.019803017705696844,0.0011585582964731083,0.05164038888064967,2.3487998954887237,0.5940856283902902,0.3834792520921022,-3.9219209435161484,23.6
,,0.029276274769462516,0.019143060396720698,0.0013522892253156787,0.04977162439149889,2.3289994054104164,0.5882121615958946,0.38461795512525765,-3.9558150104037657,23.7
,,0.037071818606018006,0.02101385391567717,0.0015913966377406332,0.05967706915943581,2.3174183886780435,0.6212070922413323,0.3521261049120167,-3.8625733485015346,23.8
,,0.037071818606018006,0.02101385391567717,0.0015913966377406332,0.05967706915943581,2.30583737194567,0.6212070922413323,0.3521261049120167,-3.8625733485015346,23.9
,,0.037071818606018006,0.02101385391567717,0.0015913966377406332,0.05967706915943581,2.2942563552132973,0.6212070922413323,0.3521261049120167,-3.8625733485015346,24.0
,,0.037071818606018006,0.02101385391567717,0.0015913966377406332,0.05967706915943581,2.282675338480924,0.6212070922413323,0.3521261049120167,-3.8625733485015346,24.1
,,0.025272927722172867,0.017638400073453603,0.0009568597543018474,0.043868187549928314,2.2674129300723855,0.5761105970792305,0.4020772468290048,-4.037676931300685,24.2
,,0.025272927722172867,0.017638400073453603,0.0009568597543018474,0.043868187549928314,2.252435715597896,0.5761105970792305,0.4020772468290048,-4.037676931300685,24.3
,,0.025272927722172867,0.017638400073453603,0.0009568597543018474,0.043868187549928314,2.2374585011234056,0.5761105970792305,0.4020772468290048,-4.037676931300685,24.4
,,0.025272927722172867,0.017638400073453603,0.0009568597543018474,0.043868187549928314,2.2230386088491194,0.5761105970792305,0.4020772468290048,-4.037676931300685,24.5
,,0.023668537230358833,0.01688710577351725,0.0010870751331142957,0.04164271813699038,2.208271371175047,0.5683715734524676,0.405523619230724,-4.081204920245592,24.6
,,0.023668537230358833,0.01688710577351725,0.0010870751331142957,0.04164271813699038,2.193504133500975,0.5683715734524676,0.405523619230724,-4.081204920245592,24.7
,,0.023668537230358833,0.01688710577351725,0.0010870751331142957,0.04164271813699038,2.1787368958269027,0.5683715734524676,0.405523619230724,-4.081204920245592,24.8
,,0.020794393941515093,0.01574154911334804,0.0010714839668872047,0.037607427021750336,2.1630742498367606,0.5529331727344339,0.41857554105586325,-4.151451621944466,24.9
,,0.020794393941515093,0.01574154911334804,0.0010714839668872047,0.037607427021750336,2.1474116038466184,0.5529331727344339,0.41857554105586325,-4.151451621944466,25.0
,,0.020794393941515093,0.01574154911334804,0.0010714839668872047,0.037607427021750336,2.1421163521797446,0.5529331727344339,0.41857554105586325,-4.151451621944466,25.1
,,0.020794393941515093,0.01574154911334804,0.0010714839668872047,0.037607427021750336,2.1368211005128703,0.5529331727344339,0.41857554105586325,-4.151451621944466,25.2
,,0.020794393941515093,0.01574154911334804,0.0010714839668872047,0.037607427021750336,2.1220351447075783,0.5529331727344339,0.41857554105586325,-4.151451621944466,25.3
,,0.019166609014559768,0.014963898425261567,0.0008829350470366153,0.03501344248685795,2.106803287664559,0.5474071571726722,0.4273758123291693,-4.202114750459561,25.4
,,0.016983317222239315,0.013992429620090409,0.0008652635324375793,0.0318410103747673,2.090825805606182,0.5333787157614163,0.439446784363942,-4.26923883704236,25.5
,,0.016983317222239315,0.013992429620090409,0.0008652635324375793,0.0318410103747673,2.074848323547805,0.5333787157614163,0.439446784363942,-4.26923883704236,25.6
,,0.016983317222239315,0.013992429620090409,0.0008652635324375793,0.0318410103747673,2.0590028210285887,0.5333787157614163,0.439446784363942,-4.26923883704236,25.7
,,0.016983317222239315,0.013992429620090409,0.0008652635324375793,0.0318410103747673,2.0430253389702115,0.5333787157614163,0.439446784363942,-4.26923883704236,25.8
,,0.016983317222239315,0.013992429620090409,0.0008652635324375793,0.0318410103747673,2.0272008193186806,0.5333787157614163,0.439446784363942,-4.26923883704236,25.9
,,0.016983317222239315,0.013992429620090409,0.0008652635324375793,0.0318410103747673,2.0079170343091026,0.5333787157614163,0.439446784363942,-4.26923883704236,26.0
,,0.016983317222239315,0.013992429620090409,0.0008652635324375793,0.0318410103747673,1.988633249299525,0.5333787157614163,0.439446784363942,-4.26923883704236,26.1
,,0.01372970484858296,0.012383565729871685,0.0006915023509209049,0.02680477292937555,1.9681822783313407,0.5122111977877072,0.4619910701164882,-4.391385029781953,26.2
,,0.01372970484858296,0.012383565729871685,0.0006915023509209049,0.02680477292937555,1.9477313073631566,0.5122111977877072,0.4619910701164882,-4.391385029781953,26.3
,,0.01372970484858296,0.012383565729871685,0.0006915023509209049,0.02680477292937555,1.9272803363949722,0.5122111977877072,0.4619910701164882,-4.391385029781953,26.4
,,0.01372970484858296,0.012383565729871685,0.0006915023509209049,0.02680477292937555,1.9068293654267883,0.5122111977877072,0.4619910701164882,-4.391385029781953,26.5
,,0.01372970484858296,0.012383565729871685,0.0006915023509209049,0.02680477292937555,1.8915101306262572,0.5122111977877072,0.4619910701164882,-4.391385029781953,26.6
,,0.01372970484858296,0.012383565729871685,0.0006915023509209049,0.02680477292937555,1.8761908958257263,0.5122111977877072,0.4619910701164882,-4.391385029781953,26.7
,,0.012295023330496379,0.01161191690184065,0.0004914987557717503,0.02439843898810878,1.8603174874018145,0.5039266379496115,0.47592868164639646,-4.455723389076788,26.8
,,0.012295023330496379,0.01161191690184065,0.0004914987557717503,0.02439843898810878,1.844444078977903,0.5039266379496115,0.47592868164639646,-4.455723389076788,26.9
,,0.011079187896174406,0.010987153332521466,0.0005585011209774244,0.022624842349673296,1.8280100984570438,0.4896912749685697,0.48562342060607205,-4.511028567547407,27.0
,,0.011079187896174406,0.010987153332521466,0.0005585011209774244,0.022624842349673296,1.8115761179361847,0.4896912749685697,0.48562342060607205,-4.511028567547407,27.1
,,0.011079187896174406,0.010987153332521466,0.0005585011209774244,0.022624842349673296,1.7951421374153254,0.4896912749685697,0.48562342060607205,-4.511028567547407,27.2
,,0.011079187896174406,0.010987153332521466,0.0005585011209774244,0.022624842349673296,1.7796182316226663,0.4896912749685697,0.48562342060607205,-4.511028567547407,27.3
,,0.010035615667504133,0.010371505950333534,0.0005356397017047752,0.020942761319542442,1.7636920169842192,0.4791925722869954,0.49523106299528463,-4.568693045458571,27.4
,,0.010035615667504133,0.010371505950333534,0.0005356397017047752,0.020942761319542442,1.7477658023457723,0.4791925722869954,0.49523106299528463,-4.568693045458571,27.5
,,0.010035615667504133,0.010371505950333534,0.0005356397017047752,0.020942761319542442,1.7318395877073252,0.4791925722869954,0.49523106299528463,-4.568693045458571,27.6
,,0.010035615667504133,0.010371505950333534,0.0005356397017047752,0.020942761319542442,1.7159133730688783,0.4791925722869954,0.49523106299528463,-4.568693045458571,27.7
,,0.009067271069349993,0.009934379262754636,0.00046250035068566087,0.019464150682790293,1.6993771839100875,0.46584468118442196,0.5103936680647649,-4.611753884773823,27.8
,,0.009067271069349993,0.009934379262754636,0.00046250035068566087,0.019464150682790293,1.6828409947512966,0.46584468118442196,0.5103936680647649,-4.611753884773823,27.9
,,0.008329848843671425,0.009462007396252404,0.0004480630224919556,0.018239919262415784,1.66690992878959,0.4566823308716872,0.5187527017046242,-4.660470720093883,28.0
,,0.008329848843671425,0.009462007396252404,0.0004480630224919556,0.018239919262415784,1.6510162354705253,0.4566823308716872,0.5187527017046242,-4.660470720093883,28.1
,,0.008329848843671425,0.009462007396252404,0.0004480630224919556,0.018239919262415784,1.635122542151461,0.4566823308716872,0.5187527017046242,-4.660470720093883,28.2
,,0.008329848843671425,0.009462007396252404,0.0004480630224919556,0.018239919262415784,1.619228848832396,0.4566823308716872,0.5187527017046242,-4.660470720093883,28.3
,,0.007682884583776844,0.00925531780211591,0.00040632090585443275,0.017344523291747186,1.602776911020634,0.4429573793724552,0.5336161534355772,-4.682556995122033,28.4
,,0.00469472491780126,0.006192890028152217,0.0004229402592917774,0.011310555205245255,1.585524730443665,0.41507466544384025,0.5475319217999371,-5.084353414627409,28.5
,,0.007011988066615038,0.008821410696270335,0.00038941862902328294,0.016222817391908655,1.5659983822018253,0.43222998183486677,0.5437656408972544,-4.730573478865144,28.6
,,0.007011988066615038,0.008821410696270335,0.00038941862902328294,0.016222817391908655,1.5464720339599858,0.43222998183486677,0.5437656408972544,-4.730573478865144,28.7
,,0.007011988066615038,0.008821410696270335,0.00038941862902328294,0.016222817391908655,1.526945685718146,0.43222998183486677,0.5437656408972544,-4.730573478865144,28.8
,,0.007011988066615038,0.008821410696270335,0.00038941862902328294,0.016222817391908655,1.5072156305976288,0.43222998183486677,0.5437656408972544,-4.730573478865144,28.9
,,0.007011988066615038,0.008821410696270335,0.00038941862902328294,0.016222817391908655,1.4874855754771115,0.43222998183486677,0.5437656408972544,-4.730573478865144,29.0
,,0.007011988066615038,0.008821410696270335,0.00038941862902328294,0.016222817391908655,1.467755520356594,0.43222998183486677,0.5437656408972544,-4.730573478865144,29.1
,,0.006660838379833911,0.008576808310990808,0.00028297271707158705,0.015520619407896306,1.4528313104877102,0.4291606027298838,0.5526073467549402,-4.758693426414364,29.2
,,0.005928708958210645,0.008273384144924699,0.0003472208030878356,0.01454931390622318,1.4372403211199598,0.40749062096149824,0.5686442809778077,-4.794711646282085,29.3
,,0.005928708958210645,0.008273384144924699,0.0003472208030878356,0.01454931390622318,1.4216493317522088,0.40749062096149824,0.5686442809778077,-4.794711646282085,29.4
,,0.005928708958210645,0.008273384144924699,0.0003472208030878356,0.01454931390622318,1.406094728259444,0.40749062096149824,0.5686442809778077,-4.794711646282085,29.5
,,0.005928708958210645,0.008273384144924699,0.0003472208030878356,0.01454931390622318,1.3905037388916932,0.40749062096149824,0.5686442809778077,-4.794711646282085,29.6
,,0.005928708958210645,0.008273384144924699,0.0003472208030878356,0.01454931390622318,1.3749543954601373,0.40749062096149824,0.5686442809778077,-4.794711646282085,29.7
,,0.005928708958210645,0.008273384144924699,0.0003472208030878356,0.01454931390622318,1.3594050520285812,0.40749062096149824,0.5686442809778077,-4.794711646282085,29.8
,,0.0057254630831715045,0.00811009815124142,0.0002561464937890805,0.014091707728202006,1.341280938082093,0.4063001584763942,0.5755227334874768,-4.8146453084321905,29.9
,,0.0057254630831715045,0.00811009815124142,0.0002561464937890805,0.014091707728202006,1.3231568241356049,0.4063001584763942,0.5755227334874768,-4.8146453084321905,30.0
,,0.0050325302913072165,0.007820723669769353,0.0003177009277389074,0.013170954888815476,1.3043384807329932,0.38209304745100486,0.5937856241851198,-4.85097818781534,30.1
,,0.0050325302913072165,0.007820723669769353,0.0003177009277389074,0.013170954888815476,1.2855201373303817,0.38209304745100486,0.5937856241851198,-4.85097818781534,30.2
,,0.0050325302913072165,0.007820723669769353,0.0003177009277389074,0.013170954888815476,1.2703264880579876,0.38209304745100486,0.5937856241851198,-4.85097818781534,30.3
,,0.0050325302913072165,0.007820723669769353,0.0003177009277389074,0.013170954888815476,1.251508144655376,0.38209304745100486,0.5937856241851198,-4.85097818781534,30.4
,,0.002575595284375486,0.005361872168666799,0.0002762861581340156,0.0082137536111763,1.2357294921499216,0.31357104270463165,0.6527919417221135,-5.228442079686271,30.5
,,0.002575595284375486,0.005361872168666799,0.0002762861581340156,0.0082137536111763,1.2199508396444672,0.31357104270463165,0.6527919417221135,-5.228442079686271,30.6
,,0.002575595284375486,0.005361872168666799,0.0002762861581340156,0.0082137536111763,1.2041721871390125,0.31357104270463165,0.6527919417221135,-5.228442079686271,30.7
,,0.002575595284375486,0.005361872168666799,0.0002762861581340156,0.0082137536111763,1.188393534633558,0.31357104270463165,0.6527919417221135,-5.228442079686271,30.8
,,0.002410058770863985,0.005287862751078646,0.00034809907009014386,0.008046020592032774,1.1723417496946686,0.29953425339856105,0.6572022393672128,-5.242341131558039,30.9
,,0.002410058770863985,0.005287862751078646,0.00034809907009014386,0.008046020592032774,1.1562899647557794,0.29953425339856105,0.6572022393672128,-5.242341131558039,31.0
,,0.002410058770863985,0.005287862751078646,0.00034809907009014386,0.008046020592032774,1.141571955987222,0.29953425339856105,0.6572022393672128,-5.242341131558039,31.1
,,0.004455263297634214,0.007624569361438964,0.00023342463896042833,0.012313257298033608,1.1251956121357565,0.3618265410847629,0.6192162785923905,-4.8763794352718906,31.2
,,0.004455263297634214,0.007624569361438964,0.00023342463896042833,0.012313257298033608,1.1086969316668172,0.3618265410847629,0.6192162785923905,-4.8763794352718906,31.3
,,0.004455263297634214,0.007624569361438964,0.00023342463896042833,0.012313257298033608,1.0921982511978783,0.3618265410847629,0.6192162785923905,-4.8763794352718906,31.4
,,0.004455263297634214,0.007624569361438964,0.00023342463896042833,0.012313257298033608,1.0756995707289392,0.3618265410847629,0.6192162785923905,-4.8763794352718906,31.5
,,0.003941018857770439,0.007402373918237028,0.00029851239379663616,0.011641905169804104,1.058623884650158,0.33852009617741574,0.6358387059737223,-4.905954530455494,31.6
,,0.003941018857770439,0.007402373918237028,0.00029851239379663616,0.011641905169804104,1.041548198571377,0.33852009617741574,0.6358387059737223,-4.905954530455494,31.7
,,0.003941018857770439,0.007402373918237028,0.00029851239379663616,0.011641905169804104,1.028921655439162,0.33852009617741574,0.6358387059737223,-4.905954530455494,31.8
,,0.002765207370667842,0.0064424711913517955,0.0003288468154990828,0.00953652537751872,1.0151486234553297,0.2899596300751745,0.675557494613205,-5.0448430871044385,31.9
,,0.002765207370667842,0.0064424711913517955,0.0003288468154990828,0.00953652537751872,1.0013755914714975,0.2899596300751745,0.675557494613205,-5.0448430871044385,32.0
,,0.002765207370667842,0.0064424711913517955,0.0003288468154990828,0.00953652537751872,0.9878130134953683,0.2899596300751745,0.675557494613205,-5.0448430871044385,32.1
,,0.002765207370667842,0.0064424711913517955,0.0003288468154990828,0.00953652537751872,0.9742504355192393,0.2899596300751745,0.675557494613205,-5.0448430871044385,32.2
,,0.002765207370667842,0.0064424711913517955,0.0003288468154990828,0.00953652537751872,0.9606878575431103,0.2899596300751745,0.675557494613205,-5.0448430871044385,32.3
,,0.0036310775208027576,0.0072818180163766386,0.0002942847209512754,0.011207180258130672,0.947896774371842,0.3239956382577549,0.6497457744639887,-4.922374720426006,32.4
,,0.0036317312916847033,0.007283386763913731,0.00029435405968839836,0.011209472115286832,0.9362238114373491,0.3239877180953024,0.6497528776561269,-4.922159310129094,32.5
,,0.0036317312916847033,0.007283386763913731,0.00029435405968839836,0.011209472115286832,0.9245508485028561,0.3239877180953024,0.6497528776561269,-4.922159310129094,32.6
,,0.0036317312916847033,0.007283386763913731,0.00029435405968839836,0.011209472115286832,0.9130985242612633,0.3239877180953024,0.6497528776561269,-4.922159310129094,32.7
,,0.0037966511383155607,0.0073284885442276545,0.0002214648598643704,0.011346604542407586,0.8992530415675225,0.33460680894673767,0.6458750295595175,-4.915985985679193,32.8
,,0.0037966511383155607,0.0073284885442276545,0.0002214648598643704,0.011346604542407586,0.8854075588737818,0.33460680894673767,0.6458750295595175,-4.915985985679193,32.9
,,0.00344424043270032,0.0071345055729743374,0.0002892635690632601,0.010868009574737917,0.8711697505451766,0.3169154764738398,0.6564684659054864,-4.94281232646362,33.0
,,0.0033852128929318737,0.007093804866993293,0.00028335199334707267,0.010762369753272239,0.8568702625075005,0.31454158986710323,0.6591303801689642,-4.948533429776252,33.1
,,0.0033852128929318737,0.007093804866993293,0.00028335199334707267,0.010762369753272239,0.8462521661459896,0.31454158986710323,0.6591303801689642,-4.948533429776252,33.2
,,0.0033852128929318737,0.007093804866993293,0.00028335199334707267,0.010762369753272239,0.8356340697844789,0.31454158986710323,0.6591303801689642,-4.948533429776252,33.3
,,0.0033852128929318737,0.007093804866993293,0.00028335199334707267,0.010762369753272239,0.8250159734229681,0.31454158986710323,0.6591303801689642,-4.948533429776252,33.4
,,0.0033852128929318737,0.007093804866993293,0.00028335199334707267,0.010762369753272239,0.8143978770614572,0.31454158986710323,0.6591303801689642,-4.948533429776252,33.5
,,0.003620420788108053,0.007162815951871814,0.0002137126097579005,0.010996949349737767,0.8044408998509356,0.3292204658735093,0.6513457254436312,-4.9388520859600025,33.6
,,0.003620420788108053,0.007162815951871814,0.0002137126097579005,0.010996949349737767,0.794483922640414,0.3292204658735093,0.6513457254436312,-4.9388520859600025,33.7
,,0.003620420788108053,0.007162815951871814,0.0002137126097579005,0.010996949349737767,0.7845269454298924,0.3292204658735093,0.6513457254436312,-4.9388520859600025,33.8
,,0.003620420788108053,0.007162815951871814,0.0002137126097579005,0.010996949349737767,0.7754653765354405,0.3292204658735093,0.6513457254436312,-4.9388520859600025,33.9
,,0.0032889523107590924,0.006974457364026072,0.0002708703073093183,0.010534279982094483,0.7660274131266522,0.31221424875259157,0.6620725266350261,-4.9655007515733205,34.0
,,0.0032889523107590924,0.006974457364026072,0.0002708703073093183,0.010534279982094483,0.756589449717864,0.31221424875259157,0.6620725266350261,-4.9655007515733205,34.1
,,0.0032889523107590924,0.006974457364026072,0.0002708703073093183,0.010534279982094483,0.7471514863090758,0.31221424875259157,0.6620725266350261,-4.9655007515733205,34.2
,,0.004209797666364264,0.007892873497264401,0.00036960011709564393,0.012472271280724308,0.738400143528623,0.33753256095948114,0.6328336932073237,-4.841795015590137,34.3
,,0.004209797666364264,0.007892873497264401,0.00036960011709564393,0.012472271280724308,0.7300947019858969,0.33753256095948114,0.6328336932073237,-4.841795015590137,34.4
,,0.004209797666364264,0.007892873497264401,0.00036960011709564393,0.012472271280724308,0.7225348854585288,0.33753256095948114,0.6328336932073237,-4.841795015590137,34.5
,,0.004209797666364264,0.007892873497264401,0.00036960011709564393,0.012472271280724308,0.714975068931161,0.33753256095948114,0.6328336932073237,-4.841795015590137,34.6
,,0.004209797666364264,0.007892873497264401,0.00036960011709564393,0.012472271280724308,0.7074152524037933,0.33753256095948114,0.6328336932073237,-4.841795015590137,34.7
,,0.00335352220629233,0.006957118483682901,0.0002589774729414308,0.010569618162916662,0.699284997464162,0.31727940920875547,0.6582185256314974,-4.967989901327111,34.8
,,0.00335352220629233,0.006957118483682901,0.0002589774729414308,0.010569618162916662,0.6911547425245307,0.31727940920875547,0.6582185256314974,-4.967989901327111,34.9
,,0.00335352220629233,0.006957118483682901,0.0002589774729414308,0.010569618162916662,0.6830244875848993,0.31727940920875547,0.6582185256314974,-4.967989901327111,35.0
,,0.0049218953247035895,0.008149138219468263,0.00035602083764259415,0.013427054381814447,0.6762492319058131,0.36656553140723,0.6069192830935001,-4.809843097262772,35.1
,,0.0049218953247035895,0.008149138219468263,0.00035602083764259415,0.013427054381814447,0.6706411621853332,0.36656553140723,0.6069192830935001,-4.809843097262772,35.2
,,0.0049218953247035895,0.008149138219468263,0.00035602083764259415,0.013427054381814447,0.6650330924648533,0.36656553140723,0.6069192830935001,-4.809843097262772,35.3
,,0.0049218953247035895,0.008149138219468263,0.00035602083764259415,0.013427054381814447,0.6594250227443735,0.36656553140723,0.6069192830935001,-4.809843097262772,35.4
,,0.00358646600784305,0.0070671525500428075,0.0002564960000331438,0.010910114557919001,0.6527448028047269,0.32872853798220186,0.6477615347231329,-4.95229763125441,35.5
,,0.003571048780884587,0.007064949750230921,0.00025028544934028324,0.010886283980455791,0.6460420941597813,0.32803193332965697,0.6489771682343274,-4.952609375364794,35.6
,,0.003571048780884587,0.007064949750230921,0.00025028544934028324,0.010886283980455791,0.6393393855148359,0.32803193332965697,0.6489771682343274,-4.952609375364794,35.7
,,0.0039618737509517065,0.00725962731605393,0.0002871834025213616,0.011508684469526997,0.6336384144349195,0.34425079264637604,0.6307955818300662,-4.92542678533993,35.8
,,0.0039618737509517065,0.00725962731605393,0.0002871834025213616,0.011508684469526997,0.6279374433550031,0.34425079264637604,0.6307955818300662,-4.92542678533993,35.9
,,0.0039618737509517065,0.00725962731605393,0.0002871834025213616,0.011508684469526997,0.6227970443720342,0.34425079264637604,0.6307955818300662,-4.92542678533993,36.0
,,0.0039618737509517065,0.00725962731605393,0.0002871834025213616,0.011508684469526997,0.6176566453890655,0.34425079264637604,0.6307955818300662,-4.92542678533993,36.1
,,0.0039618737509517065,0.00725962731605393,0.0002871834025213616,0.011508684469526997,0.6125162464060967,0.34425079264637604,0.6307955818300662,-4.92542678533993,36.2
,,0.0039618737509517065,0.00725962731605393,0.0002871834025213616,0.011508684469526997,0.6073758474231279,0.34425079264637604,0.6307955818300662,-4.92542678533993,36.3
,,0.003889663338231139,0.0072671452163392035,0.0002408710930691967,0.011397679647639538,0.6025716851639284,0.3412680000210998,0.6375986552529778,-4.924391744564056,36.4
,,0.004310463693095146,0.007503694535538021,0.0002773083597623354,0.012091466588395501,0.5982031450709198,0.35648807872752275,0.6205777008671152,-4.892359774991354,36.5
,,0.004310463693095146,0.007503694535538021,0.0002773083597623354,0.012091466588395501,0.5938346049779112,0.35648807872752275,0.6205777008671152,-4.892359774991354,36.6
,,0.004310463693095146,0.007503694535538021,0.0002773083597623354,0.012091466588395501,0.5894660648849025,0.35648807872752275,0.6205777008671152,-4.892359774991354,36.7
,,0.004310463693095146,0.007503694535538021,0.0002773083597623354,0.012091466588395501,0.5857074993122376,0.35648807872752275,0.6205777008671152,-4.892359774991354,36.8
,,0.004310463693095146,0.007503694535538021,0.0002773083597623354,0.012091466588395501,0.5819489337395727,0.35648807872752275,0.6205777008671152,-4.892359774991354,36.9
,,0.004310463693095146,0.007503694535538021,0.0002773083597623354,0.012091466588395501,0.57855002953479,0.35648807872752275,0.6205777008671152,-4.892359774991354,37.0
,,0.004310463693095146,0.007503694535538021,0.0002773083597623354,0.012091466588395501,0.5751511253300071,0.35648807872752275,0.6205777008671152,-4.892359774991354,37.1
,,0.0047481899917169446,0.007866222403687251,0.0002689640796358148,0.012883376475040011,0.5720763549525335,0.36855167594581983,0.6105714925685133,-4.845177331320958,37.2
,,0.0047481899917169446,0.007866222403687251,0.0002689640796358148,0.012883376475040011,0.5690015845750599,0.36855167594581983,0.6105714925685133,-4.845177331320958,37.3
,,0.0047481899917169446,0.007866222403687251,0.0002689640796358148,0.012883376475040011,0.5664850586902836,0.36855167594581983,0.6105714925685133,-4.845177331320958,37.4
,,0.0047481899917169446,0.007866222403687251,0.0002689640796358148,0.012883376475040011,0.5647687755707148,0.36855167594581983,0.6105714925685133,-4.845177331320958,37.5
,,0.0047481899917169446,0.007866222403687251,0.0002689640796358148,0.012883376475040011,0.5626436057181349,0.36855167594581983,0.6105714925685133,-4.845177331320958,37.6
,,0.0047481899917169446,0.007866222403687251,0.0002689640796358148,0.012883376475040011,0.560518435865555,0.36855167594581983,0.6105714925685133,-4.845177331320958,37.7
,,0.0047481899917169446,0.007866222403687251,0.0002689640796358148,0.012883376475040011,0.5583932660129752,0.36855167594581983,0.6105714925685133,-4.845177331320958,37.8
,,0.0052467329601655795,0.00832126212196408,0.0002613142461376069,0.013829309328267267,0.5565670265118486,0.3793922628833818,0.6017120540470756,-4.788941338302448,37.9
,,0.0052467329601655795,0.00832126212196408,0.0002613142461376069,0.013829309328267267,0.5547407870107222,0.3793922628833818,0.6017120540470756,-4.788941338302448,38.0
,,0.0052467329601655795,0.00832126212196408,0.0002613142461376069,0.013829309328267267,0.5529145475095957,0.3793922628833818,0.6017120540470756,-4.788941338302448,38.1
,,0.0052467329601655795,0.00832126212196408,0.0002613142461376069,0.013829309328267267,0.5512913354183696,0.3793922628833818,0.6017120540470756,-4.788941338302448,38.2
,,0.0052467329601655795,0.00832126212196408,0.0002613142461376069,0.013829309328267267,0.5503349028260106,0.3793922628833818,0.6017120540470756,-4.788941338302448,38.3
,,0.0052467329601655795,0.00832126212196408,0.0002613142461376069,0.013829309328267267,0.5493784702336516,0.3793922628833818,0.6017120540470756,-4.788941338302448,38.4
,,0.0052467329601655795,0.00832126212196408,0.0002613142461376069,0.013829309328267267,0.5484220376412926,0.3793922628833818,0.6017120540470756,-4.788941338302448,38.5
,,0.010866347202800249,0.011992157286971358,0.0004932325406907976,0.023351737030462404,0.5505278255339745,0.4653335719148031,0.5135445500832575,-4.423502402276247,38.6
,,0.010866347202800249,0.011992157286971358,0.0004932325406907976,0.023351737030462404,0.5526336134266564,0.4653335719148031,0.5135445500832575,-4.423502402276247,38.7
,,0.010866347202800249,0.011992157286971358,0.0004932325406907976,0.023351737030462404,0.5547394013193384,0.4653335719148031,0.5135445500832575,-4.423502402276247,38.8
,,0.010866347202800249,0.011992157286971358,0.0004932325406907976,0.023351737030462404,0.5569633342335506,0.4653335719148031,0.5135445500832575,-4.423502402276247,38.9
,,0.010866347202800249,0.011992157286971358,0.0004932325406907976,0.023351737030462404,0.5591872671477629,0.4653335719148031,0.5135445500832575,-4.423502402276247,39.0
,,0.010866347202800249,0.011992157286971358,0.0004932325406907976,0.023351737030462404,0.5621054295180985,0.4653335719148031,0.5135445500832575,-4.423502402276247,39.1
,,0.006361439417984364,0.009315375056850985,0.00018911521030380758,0.015865929685139158,0.5625433209948976,0.40094967923265246,0.5871307412622812,-4.67608901198703,39.2
,,0.006361439417984364,0.009315375056850985,0.00018911521030380758,0.015865929685139158,0.5629812124716967,0.40094967923265246,0.5871307412622812,-4.67608901198703,39.3
,,0.006387213409855269,0.00948322726263072,0.0002598969752292325,0.016130337647715223,0.5633149999895606,0.3959751834928256,0.5879125080790835,-4.658230592100312,39.4
,,0.006387213409855269,0.00948322726263072,0.0002598969752292325,0.016130337647715223,0.565461374134193,0.3959751834928256,0.5879125080790835,-4.658230592100312,39.5
,,0.006387213409855269,0.00948322726263072,0.0002598969752292325,0.016130337647715223,0.5676077482788254,0.3959751834928256,0.5879125080790835,-4.658230592100312,39.6
,,0.006387213409855269,0.00948322726263072,0.0002598969752292325,0.016130337647715223,0.5697541224234578,0.3959751834928256,0.5879125080790835,-4.658230592100312,39.7
,,0.006387213409855269,0.00948322726263072,0.0002598969752292325,0.016130337647715223,0.5719004965680903,0.3959751834928256,0.5879125080790835,-4.658230592100312,39.8
,,0.007020159723580543,0.010004310844051,0.0001935008471526347,0.017217971414784178,0.5746331817436441,0.4077228120818401,0.5810388810066683,-4.604739194473179,39.9
,,0.007010777989658552,0.010127449944806674,0.00027286819475970614,0.017411096129224934,0.577260772897288,0.402661494579356,0.5816664194856469,-4.592505725402069,40.0
,,0.007050026313660094,0.010210253631160777,0.00026799682426571563,0.017528276769086585,0.5798686965201929,0.4022087514098214,0.5825018491930649,-4.5843628056683885,40.1
,,0.007050026313660094,0.010210253631160777,0.00026799682426571563,0.017528276769086585,0.5810481977164036,0.4022087514098214,0.5825018491930649,-4.5843628056683885,40.2
,,0.007050026313660094,0.010210253631160777,0.00026799682426571563,0.017528276769086585,0.5822276989126141,0.4022087514098214,0.5825018491930649,-4.5843628056683885,40.3
,,0.007050026313660094,0.010210253631160777,0.00026799682426571563,0.017528276769086585,0.5834072001088247,0.4022087514098214,0.5825018491930649,-4.5843628056683885,40.4
,,0.007050026313660094,0.010210253631160777,0.00026799682426571563,0.017528276769086585,0.5845867013050353,0.4022087514098214,0.5825018491930649,-4.5843628056683885,40.5
,,0.00769266788357538,0.010760544789037388,0.0001992728564663933,0.018652485529079162,0.586614439541127,0.41242052548881686,0.5768960266588458,-4.531869094578772,40.6
,,0.00769266788357538,0.010760544789037388,0.0001992728564663933,0.018652485529079162,0.5886421777772186,0.41242052548881686,0.5768960266588458,-4.531869094578772,40.7
,,0.00769266788357538,0.010760544789037388,0.0001992728564663933,0.018652485529079162,0.5906699160133103,0.41242052548881686,0.5768960266588458,-4.531869094578772,40.8
,,0.007742289796014738,0.011018892303355598,0.00028094252828172404,0.01904212462765206,0.5937079430513816,0.4065874973201129,0.5786587641252222,-4.508143997246413,40.9
,,0.007742289796014738,0.011018892303355598,0.00028094252828172404,0.01904212462765206,0.5967459700894528,0.4065874973201129,0.5786587641252222,-4.508143997246413,41.0
,,0.007742289796014738,0.011018892303355598,0.00028094252828172404,0.01904212462765206,0.599783997127524,0.4065874973201129,0.5786587641252222,-4.508143997246413,41.1
,,0.007742289796014738,0.011018892303355598,0.00028094252828172404,0.01904212462765206,0.6028220241655952,0.4065874973201129,0.5786587641252222,-4.508143997246413,41.2
,,0.008432564409524886,0.011630487312114452,0.00021199596726110875,0.020275047688900445,0.6061089610635648,0.41590848706813577,0.5736355095471145,-4.45412541202979,41.3
,,0.008432564409524886,0.011630487312114452,0.00021199596726110875,0.020275047688900445,0.6086244031566735,0.41590848706813577,0.5736355095471145,-4.45412541202979,41.4
,,0.008409256838164483,0.011769916977314119,0.00030537603460807834,0.020484549850086683,0.6110226047592074,0.41051704331832795,0.5745753293799772,-4.44220841148894,41.5
,,0.008469530422649422,0.01189031560448203,0.0003019365309072811,0.020661782558038733,0.6133967460096457,0.40991286201268445,0.5754738523204499,-4.4320310249410575,41.6
,,0.008469530422649422,0.01189031560448203,0.0003019365309072811,0.020661782558038733,0.6157708872600839,0.40991286201268445,0.5754738523204499,-4.4320310249410575,41.7
,,0.008469530422649422,0.01189031560448203,0.0003019365309072811,0.020661782558038733,0.6179290818357392,0.40991286201268445,0.5754738523204499,-4.4320310249410575,41.8
,,0.0188084405482013,0.019788228209141764,0.00045412390799842874,0.03905079266534149,0.6227337364918499,0.48164042941167334,0.5067305132247492,-3.922668052979428,41.9
,,0.0188084405482013,0.019788228209141764,0.00045412390799842874,0.03905079266534149,0.6279307167828249,0.48164042941167334,0.5067305132247492,-3.922668052979428,42.0
,,0.0188084405482013,0.019788228209141764,0.00045412390799842874,0.03905079266534149,0.6331893767828709,0.48164042941167334,0.5067305132247492,-3.922668052979428,42.1
,,0.0188084405482013,0.019788228209141764,0.00045412390799842874,0.03905079266534149,0.6384480367829168,0.48164042941167334,0.5067305132247492,-3.922668052979428,42.2
,,0.009199223820051906,0.01276128304823647,0.0003304241466932775,0.022290931014981655,0.6411554021538329,0.412689080320115,0.5724876650355993,-4.361339453750914,42.3
,,0.009199223820051906,0.01276128304823647,0.0003304241466932775,0.022290931014981655,0.6438627675247488,0.412689080320115,0.5724876650355993,-4.361339453750914,42.4
,,0.009199223820051906,0.01276128304823647,0.0003304241466932775,0.022290931014981655,0.6465701328956648,0.412689080320115,0.5724876650355993,-4.361339453750914,42.5
,,0.009979269552306227,0.013441268753763983,0.00025653184258890994,0.023677070148659118,0.6492033386008345,0.4214740037365381,0.5676913853517974,-4.309425547020933,42.6
,,0.009979269552306227,0.013441268753763983,0.00025653184258890994,0.023677070148659118,0.6518365443060041,0.4214740037365381,0.5676913853517974,-4.309425547020933,42.7
,,0.009979269552306227,0.013441268753763983,0.00025653184258890994,0.023677070148659118,0.6544697500111737,0.4214740037365381,0.5676913853517974,-4.309425547020933,42.8
,,0.009979269552306227,0.013441268753763983,0.00025653184258890994,0.023677070148659118,0.6571029557163434,0.4214740037365381,0.5676913853517974,-4.309425547020933,42.9
,,0.009907538707576153,0.013592490824257121,0.0003647236049700408,0.023864753136803314,0.6599621432980114,0.41515362219679214,0.5695634371886839,-4.298237784003678,43.0
,,0.009907538707576153,0.013592490824257121,0.0003647236049700408,0.023864753136803314,0.6628213308796795,0.41515362219679214,0.5695634371886839,-4.298237784003678,43.1
,,0.009907538707576153,0.013592490824257121,0.0003647236049700408,0.023864753136803314,0.6656805184613475,0.41515362219679214,0.5695634371886839,-4.298237784003678,43.2
,,0.010660572288904477,0.01419536241114046,0.0002861164985352331,0.025142051198580168,0.6680985503364018,0.4240136258057777,0.5646063759484392,-4.254839958482057,43.3
,,0.010660572288904477,0.01419536241114046,0.0002861164985352331,0.025142051198580168,0.6705165822114562,0.4240136258057777,0.5646063759484392,-4.254839958482057,43.4
,,0.010660572288904477,0.01419536241114046,0.0002861164985352331,0.025142051198580168,0.6729346140865103,0.4240136258057777,0.5646063759484392,-4.254839958482057,43.5
,,0.010469890019615347,0.014183404857026467,0.00040678537272858064,0.025060080249370394,0.6752103025601479,0.4177915599403713,0.5659760350281723,-4.255682669845003,43.6
,,0.010660572288904477,0.01419536241114046,0.0002861164985352331,0.025142051198580168,0.6776283344352022,0.4240136258057777,0.5646063759484392,-4.254839958482057,43.7
,,0.010586432585220181,0.014381928989660685,0.00040613597112113,0.025374497546001996,0.6804512811839522,0.41720757489001703,0.5667867497114913,-4.241782791759394,43.8
,,0.010586432585220181,0.014381928989660685,0.00040613597112113,0.025374497546001996,0.6832742279327021,0.41720757489001703,0.5667867497114913,-4.241782791759394,43.9
,,0.011364416340485444,0.014986848778569303,0.0004973336571140322,0.02684859877616878,0.6863438403744154,0.42327781927199387,0.5581985452392344,-4.200582210543715,44.0
,,0.011364416340485444,0.014986848778569303,0.0004973336571140322,0.02684859877616878,0.6880584535555836,0.42327781927199387,0.5581985452392344,-4.200582210543715,44.1
,,0.011364416340485444,0.014986848778569303,0.0004973336571140322,0.02684859877616878,0.6897730667367518,0.42327781927199387,0.5581985452392344,-4.200582210543715,44.2
,,0.011364416340485444,0.014986848778569303,0.0004973336571140322,0.02684859877616878,0.6914876799179199,0.42327781927199387,0.5581985452392344,-4.200582210543715,44.3
,,0.011364416340485444,0.014986848778569303,0.0004973336571140322,0.02684859877616878,0.6932022930990881,0.42327781927199387,0.5581985452392344,-4.200582210543715,44.4
,,0.02044459621929344,0.025936728582002036,0.000800116133537466,0.047181440934832945,0.6963219037486396,0.4333186060919915,0.5497231129042004,-3.652095222850294,44.5
,,0.011244789131363913,0.015197369506235583,0.0004483922326368701,0.026890550870236365,0.6989269805225303,0.41816879042854177,0.5651564960335824,-4.186632924906599,44.6
,,0.02156702091215744,0.02698497243519667,0.000993834166860852,0.049545827514214956,0.7021910192239359,0.4352943929732478,0.544646719796022,-3.6124751443981866,44.7
,,0.012069145555995846,0.015816443912240165,0.0005483888523444255,0.028433978320580436,0.7046058541672736,0.4244620791336903,0.5562515288545559,-4.146705126218868,44.8
,,0.012069145555995846,0.015816443912240165,0.0005483888523444255,0.028433978320580436,0.7070206891106113,0.4244620791336903,0.5562515288545559,-4.146705126218868,44.9
,,0.012069145555995846,0.015816443912240165,0.0005483888523444255,0.028433978320580436,0.709435524053949,0.4244620791336903,0.5562515288545559,-4.146705126218868,45.0
,,0.012069145555995846,0.015816443912240165,0.0005483888523444255,0.028433978320580436,0.7118503589972869,0.4244620791336903,0.5562515288545559,-4.146705126218868,45.1
,,0.011959198381816654,0.016087756175485683,0.000497617905901011,0.028544572463203348,0.714046270381312,0.4189657560025883,0.5636012308898416,-4.129696782302561,45.2
,,0.011959198381816654,0.016087756175485683,0.000497617905901011,0.028544572463203348,0.716242181765337,0.4189657560025883,0.5636012308898416,-4.129696782302561,45.3
,,0.012891668487965979,0.01679056535265873,0.0006072048250546351,0.030289438665679343,0.7188261026345572,0.4256159590891791,0.5543372902345645,-4.086938136472755,45.4
,,0.012891668487965979,0.01679056535265873,0.0006072048250546351,0.030289438665679343,0.7209744013375865,0.4256159590891791,0.5543372902345645,-4.086938136472755,45.5
,,0.012891668487965979,0.01679056535265873,0.0006072048250546351,0.030289438665679343,0.7231227000406159,0.4256159590891791,0.5543372902345645,-4.086938136472755,45.6
,,0.012891668487965979,0.01679056535265873,0.0006072048250546351,0.030289438665679343,0.7252709987436451,0.4256159590891791,0.5543372902345645,-4.086938136472755,45.7
,,0.012891668487965979,0.01679056535265873,0.0006072048250546351,0.030289438665679343,0.7274192974466744,0.4256159590891791,0.5543372902345645,-4.086938136472755,45.8
,,0.012638841248146782,0.01693401235773031,0.0005471937108134153,0.030120047316690508,0.7293294398465415,0.41961558410777083,0.562217322558674,-4.078431114003825,45.9
,,0.012638841248146782,0.01693401235773031,0.0005471937108134153,0.030120047316690508,0.7312395822464086,0.41961558410777083,0.562217322558674,-4.078431114003825,46.0
,,0.01845192683391549,0.026092442888386812,0.0010823698994506842,0.04562673962175299,0.7327143557755771,0.4044103739798746,0.571867354641027,-3.6461095510858454,46.1
,,0.01845192683391549,0.026092442888386812,0.0010823698994506842,0.04562673962175299,0.7338649954774362,0.4044103739798746,0.571867354641027,-3.6461095510858454,46.2
,,0.01845192683391549,0.026092442888386812,0.0010823698994506842,0.04562673962175299,0.7350156351792954,0.4044103739798746,0.571867354641027,-3.6461095510858454,46.3
,,0.01845192683391549,0.026092442888386812,0.0010823698994506842,0.04562673962175299,0.7361662748811546,0.4044103739798746,0.571867354641027,-3.6461095510858454,46.4
,,0.016519393946480544,0.024998486325828552,0.0009255181705801034,0.042443398442889205,0.7368018105029676,0.38920997263469925,0.5889840880547278,-3.688940002913836,46.5
,,0.013349596200668258,0.017817919436525633,0.0005981339792462767,0.03176564961644017,0.7384196494148425,0.42025257981058994,0.5609178358280464,-4.027550618159524,46.6
,,0.016542652784087918,0.02475069131530695,0.0010964713050061025,0.04238981540440097,0.7391391358625004,0.3902506445538906,0.5838829699819192,-3.6989018584259328,46.7
,,0.016542652784087918,0.02475069131530695,0.0010964713050061025,0.04238981540440097,0.7398586223101582,0.3902506445538906,0.5838829699819192,-3.6989018584259328,46.8
,,0.016542652784087918,0.02475069131530695,0.0010964713050061025,0.04238981540440097,0.7402791784063628,0.3902506445538906,0.5838829699819192,-3.6989018584259328,46.9
,,0.016542652784087918,0.02475069131530695,0.0010964713050061025,0.04238981540440097,0.7406997345025674,0.3902506445538906,0.5838829699819192,-3.6989018584259328,47.0
,,0.016542652784087918,0.02475069131530695,0.0010964713050061025,0.04238981540440097,0.7411202905987718,0.3902506445538906,0.5838829699819192,-3.6989018584259328,47.1
,,0.016542652784087918,0.02475069131530695,0.0010964713050061025,0.04238981540440097,0.7415408466949762,0.3902506445538906,0.5838829699819192,-3.6989018584259328,47.2
,,0.016542652784087918,0.02475069131530695,0.0010964713050061025,0.04238981540440097,0.7419614027911808,0.3902506445538906,0.5838829699819192,-3.6989018584259328,47.3
,,0.01462178919022485,0.02302855946943782,0.0010677618784076246,0.0387181105380703,0.74201051672181,0.37764728151823695,0.594774877942315,-3.7710201172822737,47.4
,,0.01462178919022485,0.02302855946943782,0.0010677618784076246,0.0387181105380703,0.7420596306524387,0.37764728151823695,0.594774877942315,-3.7710201172822737,47.5
,,0.01462178919022485,0.02302855946943782,0.0010677618784076246,0.0387181105380703,0.7390465240980268,0.37764728151823695,0.594774877942315,-3.7710201172822737,47.6
,,0.01462178919022485,0.02302855946943782,0.0010677618784076246,0.0387181105380703,0.7360334175436151,0.37764728151823695,0.594774877942315,-3.7710201172822737,47.7
,,0.01462178919022485,0.02302855946943782,0.0010677618784076246,0.0387181105380703,0.7330203109892032,0.37764728151823695,0.594774877942315,-3.7710201172822737,47.8
,,0.01462178919022485,0.02302855946943782,0.0010677618784076246,0.0387181105380703,0.7300072044347913,0.37764728151823695,0.594774877942315,-3.7710201172822737,47.9
,,0.01462178919022485,0.02302855946943782,0.0010677618784076246,0.0387181105380703,0.7269940978803795,0.37764728151823695,0.594774877942315,-3.7710201172822737,48.0
,,0.01320431989107015,0.021553910184035022,0.0010267631246806681,0.03578499319978584,0.7237329552797639,0.36899042616414895,0.6023170121536872,-3.8371980318369165,48.1
,,0.01320431989107015,0.021553910184035022,0.0010267631246806681,0.03578499319978584,0.7229520835726849,0.36899042616414895,0.6023170121536872,-3.8371980318369165,48.2
,,0.01320431989107015,0.021553910184035022,0.0010267631246806681,0.03578499319978584,0.7221712118656057,0.36899042616414895,0.6023170121536872,-3.8371980318369165,48.3
,,0.01320431989107015,0.021553910184035022,0.0010267631246806681,0.03578499319978584,0.7214944441174621,0.36899042616414895,0.6023170121536872,-3.8371980318369165,48.4
,,0.01320431989107015,0.021553910184035022,0.0010267631246806681,0.03578499319978584,0.7208176763693183,0.36899042616414895,0.6023170121536872,-3.8371980318369165,48.5
,,0.01320431989107015,0.021553910184035022,0.0010267631246806681,0.03578499319978584,0.7201409086211744,0.36899042616414895,0.6023170121536872,-3.8371980318369165,48.6
,,0.01320431989107015,0.021553910184035022,0.0010267631246806681,0.03578499319978584,0.7194641408730306,0.36899042616414895,0.6023170121536872,-3.8371980318369165,48.7
,,0.016413128187368606,0.020730482146669244,0.000841526135689824,0.03798513646972767,0.7207776014688003,0.432093437401471,0.545752472501723,-3.8761500944031244,48.8
,,0.016413128187368606,0.020730482146669244,0.000841526135689824,0.03798513646972767,0.7217778834670835,0.432093437401471,0.545752472501723,-3.8761500944031244,48.9
,,0.016413128187368606,0.020730482146669244,0.000841526135689824,0.03798513646972767,0.7228832594872766,0.432093437401471,0.545752472501723,-3.8761500944031244,49.0
,,0.016413128187368606,0.020730482146669244,0.000841526135689824,0.03798513646972767,0.7240083030382084,0.432093437401471,0.545752472501723,-3.8761500944031244,49.1
,,0.016413128187368606,0.020730482146669244,0.000841526135689824,0.03798513646972767,0.7251333465891406,0.432093437401471,0.545752472501723,-3.8761500944031244,49.2
,,0.016413128187368606,0.020730482146669244,0.000841526135689824,0.03798513646972767,0.7262583901400727,0.432093437401471,0.545752472501723,-3.8761500944031244,49.3
,,0.016413128187368606,0.020730482146669244,0.000841526135689824,0.03798513646972767,0.7273834336910046,0.432093437401471,0.545752472501723,-3.8761500944031244,49.4
,,0.016883305664758652,0.021267015903470403,0.0008527580287402879,0.039003079596969345,0.7285321878532958,0.43287109221166564,0.5452650437665162,-3.8505979556410597,49.5
,,0.016883305664758652,0.021267015903470403,0.0008527580287402879,0.039003079596969345,0.7294097105855479,0.43287109221166564,0.5452650437665162,-3.8505979556410597,49.6
,,0.016883305664758652,0.021267015903470403,0.0008527580287402879,0.039003079596969345,0.7302872333178,0.43287109221166564,0.5452650437665162,-3.8505979556410597,49.7
,,0.016883305664758652,0.021267015903470403,0.0008527580287402879,0.039003079596969345,0.731164756050052,0.43287109221166564,0.5452650437665162,-3.8505979556410597,49.8
,,0.016883305664758652,0.021267015903470403,0.0008527580287402879,0.039003079596969345,0.7321784788319418,0.43287109221166564,0.5452650437665162,-3.8505979556410597,49.9
,,0.016883305664758652,0.021267015903470403,0.0008527580287402879,0.039003079596969345,0.7331922016138314,0.43287109221166564,0.5452650437665162,-3.8505979556410597,50.0
,,0.016883305664758652,0.021267015903470403,0.0008527580287402879,0.039003079596969345,0.7342059243957211,0.43287109221166564,0.5452650437665162,-3.8505979556410597,50.1
,,0.011132755361360706,0.018134031049352968,0.0008450479606115392,0.030111834371325214,0.7332201169963679,0.36971362236111943,0.6022227283045093,-4.009964937542193,50.2
,,0.011132755361360706,0.018134031049352968,0.0008450479606115392,0.030111834371325214,0.7319853997371163,0.36971362236111943,0.6022227283045093,-4.009964937542193,50.3
,,0.011132755361360706,0.018134031049352968,0.0008450479606115392,0.030111834371325214,0.7307506824778645,0.36971362236111943,0.6022227283045093,-4.009964937542193,50.4
,,0.011132755361360706,0.018134031049352968,0.0008450479606115392,0.030111834371325214,0.7296334017182073,0.36971362236111943,0.6022227283045093,-4.009964937542193,50.5
,,0.011132755361360706,0.018134031049352968,0.0008450479606115392,0.030111834371325214,0.7285401813106458,0.36971362236111943,0.6022227283045093,-4.009964937542193,50.6
,,0.011132755361360706,0.018134031049352968,0.0008450479606115392,0.030111834371325214,0.727446960903084,0.36971362236111943,0.6022227283045093,-4.009964937542193,50.7
,,0.011132755361360706,0.018134031049352968,0.0008450479606115392,0.030111834371325214,0.7263537404955225,0.36971362236111943,0.6022227283045093,-4.009964937542193,50.8
,,0.009659091283865714,0.017722081896380058,0.0007761303309635225,0.028157303511209295,0.7218486857498105,0.34304035114798803,0.6293955630135172,-4.032943852197404,50.9
,,0.009659091283865714,0.017722081896380058,0.0007761303309635225,0.028157303511209295,0.7173436310040984,0.34304035114798803,0.6293955630135172,-4.032943852197404,51.0
,,0.009659091283865714,0.017722081896380058,0.0007761303309635225,0.028157303511209295,0.7128385762583865,0.34304035114798803,0.6293955630135172,-4.032943852197404,51.1
,,0.009659091283865714,0.017722081896380058,0.0007761303309635225,0.028157303511209295,0.7083335215126745,0.34304035114798803,0.6293955630135172,-4.032943852197404,51.2
,,0.009659091283865714,0.017722081896380058,0.0007761303309635225,0.028157303511209295,0.7063797613960925,0.34304035114798803,0.6293955630135172,-4.032943852197404,51.3
,,0.009659091283865714,0.017722081896380058,0.0007761303309635225,0.028157303511209295,0.7044260012795105,0.34304035114798803,0.6293955630135172,-4.032943852197404,51.4
,,0.009659091283865714,0.017722081896380058,0.0007761303309635225,0.028157303511209295,0.7024722411629286,0.34304035114798803,0.6293955630135172,-4.032943852197404,51.5
,,0.018831695952823656,0.023145199381209444,0.0006232217243237529,0.042600117058356854,0.7032633280854865,0.44205737573506143,0.5433130465229333,-3.7659678900961953,51.6
,,0.01798031283346808,0.023220528461682353,0.0008043142929579966,0.04200515558810843,0.7036176973472975,0.42805014245818596,0.5528018676892137,-3.7627185440703226,51.7
,,0.01798031283346808,0.023220528461682353,0.0008043142929579966,0.04200515558810843,0.7039720666091084,0.42805014245818596,0.5528018676892137,-3.7627185440703226,51.8
,,0.01798031283346808,0.023220528461682353,0.0008043142929579966,0.04200515558810843,0.7043264358709193,0.42805014245818596,0.5528018676892137,-3.7627185440703226,51.9
,,0.01798031283346808,0.023220528461682353,0.0008043142929579966,0.04200515558810843,0.7048312177705681,0.42805014245818596,0.5528018676892137,-3.7627185440703226,52.0
,,0.01798031283346808,0.023220528461682353,0.0008043142929579966,0.04200515558810843,0.7053359996702169,0.42805014245818596,0.5528018676892137,-3.7627185440703226,52.1
,,0.01798031283346808,0.023220528461682353,0.0008043142929579966,0.04200515558810843,0.7058407815698657,0.42805014245818596,0.5528018676892137,-3.7627185440703226,52.2
,,0.018138859677298485,0.023879886838704675,0.0007674431574494243,0.04278618967345258,0.7059363098404703,0.4239419264892627,0.5581213709600638,-3.734718729216674,52.3
,,0.018138859677298485,0.023879886838704675,0.0007674431574494243,0.04278618967345258,0.7060318381110747,0.4239419264892627,0.5581213709600638,-3.734718729216674,52.4
,,0.018138859677298485,0.023879886838704675,0.0007674431574494243,0.04278618967345258,0.7061273663816792,0.4239419264892627,0.5581213709600638,-3.734718729216674,52.5
,,0.018138859677298485,0.023879886838704675,0.0007674431574494243,0.04278618967345258,0.7063652380537003,0.4239419264892627,0.5581213709600638,-3.734718729216674,52.6
,,0.018138859677298485,0.023879886838704675,0.0007674431574494243,0.04278618967345258,0.7064607663243049,0.4239419264892627,0.5581213709600638,-3.734718729216674,52.7
,,0.018138859677298485,0.023879886838704675,0.0007674431574494243,0.04278618967345258,0.7067218181334772,0.4239419264892627,0.5581213709600638,-3.734718729216674,52.8
,,0.01671429877683993,0.02290556531574104,0.0006533816685821308,0.040273245761163104,0.7066508406839819,0.41502239168808475,0.5687538931324397,-3.7763753710599386,52.9
,,0.017926500179558297,0.02415187664927743,0.0007188937133689134,0.042797270542204634,0.7064724837774435,0.41887017448647884,0.5643321721991592,-3.723393193858055,53.0
,,0.017926500179558297,0.02415187664927743,0.0007188937133689134,0.042797270542204634,0.7062941268709052,0.41887017448647884,0.5643321721991592,-3.723393193858055,53.1
,,0.017926500179558297,0.02415187664927743,0.0007188937133689134,0.042797270542204634,0.7061157699643668,0.41887017448647884,0.5643321721991592,-3.723393193858055,53.2
,,0.017926500179558297,0.02415187664927743,0.0007188937133689134,0.042797270542204634,0.7059374130578284,0.41887017448647884,0.5643321721991592,-3.723393193858055,53.3
,,0.017926500179558297,0.02415187664927743,0.0007188937133689134,0.042797270542204634,0.7057590561512901,0.41887017448647884,0.5643321721991592,-3.723393193858055,53.4
,,0.017926500179558297,0.02415187664927743,0.0007188937133689134,0.042797270542204634,0.7052478519955352,0.41887017448647884,0.5643321721991592,-3.723393193858055,53.5
,,0.017926500179558297,0.02415187664927743,0.0007188937133689134,0.042797270542204634,0.7052736704207397,0.41887017448647884,0.5643321721991592,-3.723393193858055,53.6
,,0.01700769404698667,0.023554124139664123,0.0006482940273160544,0.041210112213966844,0.7044163953592028,0.4127068123154117,0.5715617569146344,-3.748454351148541,53.7
,,0.01700769404698667,0.023554124139664123,0.0006482940273160544,0.041210112213966844,0.7039607601140851,0.4127068123154117,0.5715617569146344,-3.748454351148541,53.8
,,0.01700769404698667,0.023554124139664123,0.0006482940273160544,0.041210112213966844,0.7035051248689675,0.4127068123154117,0.5715617569146344,-3.748454351148541,53.9
,,0.01700769404698667,0.023554124139664123,0.0006482940273160544,0.041210112213966844,0.7030494896238498,0.4127068123154117,0.5715617569146344,-3.748454351148541,54.0
,,0.01700769404698667,0.023554124139664123,0.0006482940273160544,0.041210112213966844,0.7025938543787322,0.4127068123154117,0.5715617569146344,-3.748454351148541,54.1
,,0.01700769404698667,0.023554124139664123,0.0006482940273160544,0.041210112213966844,0.7023571426929274,0.4127068123154117,0.5715617569146344,-3.748454351148541,54.2
,,0.017660009423544794,0.02401409249286278,0.0004457720659362891,0.04211987398234386,0.7022685785815314,0.4192797307738303,0.5701368551797946,-3.7291144337585256,54.3
,,0.0160633567831767,0.022961496467682294,0.0005826521810679486,0.03960750543192695,0.7015106403111517,0.40556345591581483,0.57972589329429,-3.7739365324908474,54.4
,,0.0160633567831767,0.022961496467682294,0.0005826521810679486,0.03960750543192695,0.700752702040772,0.40556345591581483,0.57972589329429,-3.7739365324908474,54.5
,,0.0160633567831767,0.022961496467682294,0.0005826521810679486,0.03960750543192695,0.6999947637703924,0.40556345591581483,0.57972589329429,-3.7739365324908474,54.6
,,0.0160633567831767,0.022961496467682294,0.0005826521810679486,0.03960750543192695,0.6992368255000129,0.40556345591581483,0.57972589329429,-3.7739365324908474,54.7
,,0.0160633567831767,0.022961496467682294,0.0005826521810679486,0.03960750543192695,0.6984788872296332,0.40556345591581483,0.57972589329429,-3.7739365324908474,54.8
,,0.0160633567831767,0.022961496467682294,0.0005826521810679486,0.03960750543192695,0.6979591052624159,0.40556345591581483,0.57972589329429,-3.7739365324908474,54.9
,,0.0160633567831767,0.022961496467682294,0.0005826521810679486,0.03960750543192695,0.6974393232951984,0.40556345591581483,0.57972589329429,-3.7739365324908474,55.0
,,0.015030281371418824,0.022111049922232902,0.0005255538345750851,0.037666885128226815,0.6971347479034103,0.3990317043804461,0.5870156198730465,-3.8116777989338937,55.1
,,0.015030281371418824,0.022111049922232902,0.0005255538345750851,0.037666885128226815,0.6968301725116223,0.3990317043804461,0.5870156198730465,-3.8116777989338937,55.2
,,0.015030281371418824,0.022111049922232902,0.0005255538345750851,0.037666885128226815,0.696525597119834,0.3990317043804461,0.5870156198730465,-3.8116777989338937,55.3
,,0.015030281371418824,0.022111049922232902,0.0005255538345750851,0.037666885128226815,0.696221021728046,0.3990317043804461,0.5870156198730465,-3.8116777989338937,55.4
,,0.015030281371418824,0.022111049922232902,0.0005255538345750851,0.037666885128226815,0.6964315504163041,0.3990317043804461,0.5870156198730465,-3.8116777989338937,55.5
,,0.015030281371418824,0.022111049922232902,0.0005255538345750851,0.037666885128226815,0.6956597758145001,0.3990317043804461,0.5870156198730465,-3.8116777989338937,55.6
,,0.015030281371418824,0.022111049922232902,0.0005255538345750851,0.037666885128226815,0.6957863536769133,0.3990317043804461,0.5870156198730465,-3.8116777989338937,55.7
,,0.013882246387775066,0.02095203796761143,0.0004725353963503067,0.03530681975173681,0.6957219232655129,0.39318880843387694,0.5934275053640525,-3.8655193596548747,55.8
,,0.013882246387775066,0.02095203796761143,0.0004725353963503067,0.03530681975173681,0.6956574928541122,0.39318880843387694,0.5934275053640525,-3.8655193596548747,55.9
,,0.013882246387775066,0.02095203796761143,0.0004725353963503067,0.03530681975173681,0.6955930624427117,0.39318880843387694,0.5934275053640525,-3.8655193596548747,56.0
,,0.013882246387775066,0.02095203796761143,0.0004725353963503067,0.03530681975173681,0.6955286320313111,0.39318880843387694,0.5934275053640525,-3.8655193596548747,56.1
,,0.013882246387775066,0.02095203796761143,0.0004725353963503067,0.03530681975173681,0.6954642016199105,0.39318880843387694,0.5934275053640525,-3.8655193596548747,56.2
,,0.013882246387775066,0.02095203796761143,0.0004725353963503067,0.03530681975173681,0.69539977120851,0.39318880843387694,0.5934275053640525,-3.8655193596548747,56.3
,,0.012505477815604842,0.019597132805163873,0.000387346440399746,0.032489957061168466,0.6954351754705883,0.3849028729727443,0.6031750909448288,-3.9323720088972487,56.4
,,0.012691397159836776,0.01951107914702942,0.00042617698739534475,0.03262865329426154,0.6956077283554566,0.38896478642190346,0.5979737800107389,-3.9367728133688824,56.5
,,0.012691397159836776,0.01951107914702942,0.00042617698739534475,0.03262865329426154,0.695780281240325,0.38896478642190346,0.5979737800107389,-3.9367728133688824,56.6
,,0.012691397159836776,0.01951107914702942,0.00042617698739534475,0.03262865329426154,0.6959528341251934,0.38896478642190346,0.5979737800107389,-3.9367728133688824,56.7
,,0.012691397159836776,0.01951107914702942,0.00042617698739534475,0.03262865329426154,0.6961253870100617,0.38896478642190346,0.5979737800107389,-3.9367728133688824,56.8
,,0.012691397159836776,0.01951107914702942,0.00042617698739534475,0.03262865329426154,0.69629793989493,0.38896478642190346,0.5979737800107389,-3.9367728133688824,56.9
,,0.012691397159836776,0.01951107914702942,0.00042617698739534475,0.03262865329426154,0.6964704927797984,0.38896478642190346,0.5979737800107389,-3.9367728133688824,57.0
,,0.008848690987410437,0.018217866891651512,0.0003507756239354208,0.02741733350299737,0.6950604559338731,0.3227407576467297,0.6644653058496686,-4.0053524691056035,57.1
,,0.011486739738739898,0.01783543603660764,0.0003858621725975302,0.02970803794794507,0.695409589329748,0.38665427043237116,0.600357252399475,-4.0265680121041365,57.2
,,0.011486739738739898,0.01783543603660764,0.0003858621725975302,0.02970803794794507,0.6957587227256227,0.38665427043237116,0.600357252399475,-4.0265680121041365,57.3
,,0.011486739738739898,0.01783543603660764,0.0003858621725975302,0.02970803794794507,0.6961078561214974,0.38665427043237116,0.600357252399475,-4.0265680121041365,57.4
,,0.011486739738739898,0.01783543603660764,0.0003858621725975302,0.02970803794794507,0.6964569895173722,0.38665427043237116,0.600357252399475,-4.0265680121041365,57.5
,,0.011486739738739898,0.01783543603660764,0.0003858621725975302,0.02970803794794507,0.696806122913247,0.38665427043237116,0.600357252399475,-4.0265680121041365,57.6
,,0.011486739738739898,0.01783543603660764,0.0003858621725975302,0.02970803794794507,0.6971552563091218,0.38665427043237116,0.600357252399475,-4.0265680121041365,57.7
,,0.01048549911472238,0.016793752704516475,0.00032136557376857556,0.02760061739300743,0.6952955916116982,0.3799008900930913,0.60845569015319,-4.08674832455745,57.8
,,0.01160116565901592,0.01567078532969802,0.0002263960066781068,0.027498346995392046,0.6947241078321882,0.4218859286690924,0.5698809943857354,-4.1559571071056185,57.9
,,0.01160116565901592,0.01567078532969802,0.0002263960066781068,0.027498346995392046,0.6941526240526781,0.4218859286690924,0.5698809943857354,-4.1559571071056185,58.0
,,0.01160116565901592,0.01567078532969802,0.0002263960066781068,0.027498346995392046,0.693581140273168,0.4218859286690924,0.5698809943857354,-4.1559571071056185,58.1
,,0.01160116565901592,0.01567078532969802,0.0002263960066781068,0.027498346995392046,0.6930096564936579,0.4218859286690924,0.5698809943857354,-4.1559571071056185,58.2
,,0.01160116565901592,0.01567078532969802,0.0002263960066781068,0.027498346995392046,0.6924381727141479,0.4218859286690924,0.5698809943857354,-4.1559571071056185,58.3
,,0.01160116565901592,0.01567078532969802,0.0002263960066781068,0.027498346995392046,0.6918666889346377,0.4218859286690924,0.5698809943857354,-4.1559571071056185,58.4
,,0.009744759333267843,0.0156624577036511,0.00029818423656807226,0.025705401273487014,0.6899589140088797,0.3790938421692235,0.6093060962952415,-4.156488659248762,58.5
,,0.009744759333267843,0.0156624577036511,0.00029818423656807226,0.025705401273487014,0.6880511390831215,0.3790938421692235,0.6093060962952415,-4.156488659248762,58.6
,,0.009759864470151688,0.015198190788674196,0.00020122566305706642,0.02515928092188295,0.6863655832294473,0.38792302929702527,0.6040789017723939,-4.186578885275098,58.7
,,0.009759864470151688,0.015198190788674196,0.00020122566305706642,0.02515928092188295,0.6846800273757732,0.38792302929702527,0.6040789017723939,-4.186578885275098,58.8
,,0.009759864470151688,0.015198190788674196,0.00020122566305706642,0.02515928092188295,0.6829944715220989,0.38792302929702527,0.6040789017723939,-4.186578885275098,58.9
,,0.009759864470151688,0.015198190788674196,0.00020122566305706642,0.02515928092188295,0.6813089156684248,0.38792302929702527,0.6040789017723939,-4.186578885275098,59.0
,,0.009256736262939947,0.014736523605222054,0.0002892189494118695,0.024282478817573873,0.6794675427947864,0.38121051530540623,0.6068788823386863,-4.217426267715671,59.1
,,0.009759864470151688,0.015198190788674196,0.00020122566305706642,0.02515928092188295,0.679781517122355,0.38792302929702527,0.6040789017723939,-4.186578885275098,59.2
,,0.009299664794148585,0.014868526777152008,0.00028619768377018926,0.02445438925507078,0.6799097909026419,0.38028611948344765,0.6080105547542521,-4.208508596911653,59.3
,,0.009375992032797485,0.014474728008506563,0.0002000536532269355,0.024050773694530986,0.680285724306048,0.3898415972759136,0.6018404310959042,-4.235351046130946,59.4
,,0.009375992032797485,0.014474728008506563,0.0002000536532269355,0.024050773694530986,0.6806616577094541,0.3898415972759136,0.6018404310959042,-4.235351046130946,59.5
,,0.009375992032797485,0.014474728008506563,0.0002000536532269355,0.024050773694530986,0.6810375911128602,0.3898415972759136,0.6018404310959042,-4.235351046130946,59.6
,,0.009375992032797485,0.014474728008506563,0.0002000536532269355,0.024050773694530986,0.6814135245162665,0.3898415972759136,0.6018404310959042,-4.235351046130946,59.7
,,0.009375992032797485,0.014474728008506563,0.0002000536532269355,0.024050773694530986,0.6817894579196725,0.3898415972759136,0.6018404310959042,-4.235351046130946,59.8
,,0.009375992032797485,0.014474728008506563,0.0002000536532269355,0.024050773694530986,0.6829307655807738,0.3898415972759136,0.6018404310959042,-4.235351046130946,59.9
,,0.008847293093860321,0.013956397079579646,0.00027611470253121093,0.023079804875971176,0.6839184594582624,0.38333483066277596,0.6047016928687259,-4.271817303813897,60.0
,,0.008847293093860321,0.013956397079579646,0.00027611470253121093,0.023079804875971176,0.6849061533357509,0.38333483066277596,0.6047016928687259,-4.271817303813897,60.1
,,0.008970119300749427,0.013634128067358394,0.00019832916144018212,0.022802576529548004,0.6861604333215402,0.39338183073854743,0.5979205047153788,-4.295179212851217,60.2
,,0.008970119300749427,0.013634128067358394,0.00019832916144018212,0.022802576529548004,0.6874147133073294,0.39338183073854743,0.5979205047153788,-4.295179212851217,60.3
,,0.008970119300749427,0.013634128067358394,0.00019832916144018212,0.022802576529548004,0.6886689932931186,0.39338183073854743,0.5979205047153788,-4.295179212851217,60.4
,,0.008970119300749427,0.013634128067358394,0.00019832916144018212,0.022802576529548004,0.6899232732789079,0.39338183073854743,0.5979205047153788,-4.295179212851217,60.5
,,0.008970119300749427,0.013634128067358394,0.00019832916144018212,0.022802576529548004,0.6881930921401005,0.39338183073854743,0.5979205047153788,-4.295179212851217,60.6
,,0.011576588109432144,0.015263247751215729,0.00034968460708246715,0.02718952046773034,0.6880167958134993,0.42577389782110076,0.5613650953988244,-4.18230744803677,60.7
,,0.011576588109432144,0.015263247751215729,0.00034968460708246715,0.02718952046773034,0.6878404994868983,0.42577389782110076,0.5613650953988244,-4.18230744803677,60.8
,,0.008534738937917265,0.012721966660339111,0.0001949019922324135,0.02145160759048879,0.6866909216735709,0.3978601091743537,0.5930542317947198,-4.3644251213594325,60.9
,,0.008534738937917265,0.012721966660339111,0.0001949019922324135,0.02145160759048879,0.6855413438602436,0.3978601091743537,0.5930542317947198,-4.3644251213594325,61.0
,,0.008534738937917265,0.012721966660339111,0.0001949019922324135,0.02145160759048879,0.6843917660469161,0.3978601091743537,0.5930542317947198,-4.3644251213594325,61.1
,,0.008534738937917265,0.012721966660339111,0.0001949019922324135,0.02145160759048879,0.6832421882335887,0.3978601091743537,0.5930542317947198,-4.3644251213594325,61.2
,,0.008534738937917265,0.012721966660339111,0.0001949019922324135,0.02145160759048879,0.6822563991275843,0.3978601091743537,0.5930542317947198,-4.3644251213594325,61.3
,,0.00814665675623146,0.01239913189461062,0.000256886332714859,0.02080267498355694,0.681116922549868,0.39161582645841564,0.5960354571905424,-4.390128817320999,61.4
,,0.00814665675623146,0.01239913189461062,0.000256886332714859,0.02080267498355694,0.6799774459721518,0.39161582645841564,0.5960354571905424,-4.390128817320999,61.5
,,0.011687810435714065,0.014671848412942496,0.0002563301514819251,0.02661598900013849,0.6803888613423105,0.4391274145647284,0.5512419024844861,-4.221824695245603,61.6
,,0.011687810435714065,0.014671848412942496,0.0002563301514819251,0.02661598900013849,0.6808002767124692,0.4391274145647284,0.5512419024844861,-4.221824695245603,61.7
,,0.011687810435714065,0.014671848412942496,0.0002563301514819251,0.02661598900013849,0.6812116920826279,0.4391274145647284,0.5512419024844861,-4.221824695245603,61.8
,,0.011687810435714065,0.014671848412942496,0.0002563301514819251,0.02661598900013849,0.6819551367114541,0.4391274145647284,0.5512419024844861,-4.221824695245603,61.9
,,0.011687810435714065,0.014671848412942496,0.0002563301514819251,0.02661598900013849,0.6825592951043602,0.4391274145647284,0.5512419024844861,-4.221824695245603,62.0
,,0.007908750747579454,0.011839462140605606,0.0002489757993221763,0.019997188687507238,0.681734391687934,0.3954931301178478,0.5920563297980993,-4.436317077871845,62.1
,,0.007908750747579454,0.011839462140605606,0.0002489757993221763,0.019997188687507238,0.680909488271508,0.3954931301178478,0.5920563297980993,-4.436317077871845,62.2
,,0.007908750747579454,0.011839462140605606,0.0002489757993221763,0.019997188687507238,0.6800845848550819,0.3954931301178478,0.5920563297980993,-4.436317077871845,62.3
,,0.007994302119737829,0.011565981580287921,0.00018847925146131867,0.01974876295148707,0.6795173683212008,0.40480014567878864,0.5856560033000452,-4.459687111821482,62.4
,,0.007994302119737829,0.011565981580287921,0.00018847925146131867,0.01974876295148707,0.6789501517873195,0.40480014567878864,0.5856560033000452,-4.459687111821482,62.5
,,0.007994302119737829,0.011565981580287921,0.00018847925146131867,0.01974876295148707,0.6783829352534384,0.40480014567878864,0.5856560033000452,-4.459687111821482,62.6
,,0.007994302119737829,0.011565981580287921,0.00018847925146131867,0.01974876295148707,0.6780398502787842,0.40480014567878864,0.5856560033000452,-4.459687111821482,62.7
,,0.007994302119737829,0.011565981580287921,0.00018847925146131867,0.01974876295148707,0.6776967653041299,0.40480014567878864,0.5856560033000452,-4.459687111821482,62.8
,,0.007696461532376461,0.011376794827516613,0.00024212468387882345,0.0193153810437719,0.6771905056751549,0.3984628372039354,0.5890018323601737,-4.47617953955776,62.9
,,0.007696461532376461,0.011376794827516613,0.00024212468387882345,0.0193153810437719,0.67668424604618,0.3984628372039354,0.5890018323601737,-4.47617953955776,63.0
,,0.007698874292370948,0.011022850695842546,0.0001844427289107187,0.018906167717124212,0.6764217808091851,0.40721495797362006,0.5830293510968184,-4.5077848248770005,63.1
,,0.007698874292370948,0.011022850695842546,0.0001844427289107187,0.018906167717124212,0.6761593155721902,0.40721495797362006,0.5830293510968184,-4.5077848248770005,63.2
,,0.007698874292370948,0.011022850695842546,0.0001844427289107187,0.018906167717124212,0.6757487027607864,0.40721495797362006,0.5830293510968184,-4.5077848248770005,63.3
,,0.007698874292370948,0.011022850695842546,0.0001844427289107187,0.018906167717124212,0.675736133845217,0.40721495797362006,0.5830293510968184,-4.5077848248770005,63.4
,,0.007698874292370948,0.011022850695842546,0.0001844427289107187,0.018906167717124212,0.6757235649296477,0.40721495797362006,0.5830293510968184,-4.5077848248770005,63.5
,,0.007399754094951564,0.010852244759523047,0.0002335319996523338,0.018485530854126946,0.6755267422399521,0.40029978870201327,0.5870669793126473,-4.523383330115889,63.6
,,0.007399754094951564,0.010852244759523047,0.0002335319996523338,0.018485530854126946,0.6753299195502567,0.40029978870201327,0.5870669793126473,-4.523383330115889,63.7
,,0.007376576935221934,0.01052485072421551,0.00017936513597365325,0.018080792795411096,0.6753443017761938,0.40797862232535004,0.5821011746170066,-4.55401608248667,63.8
,,0.007376576935221934,0.01052485072421551,0.00017936513597365325,0.018080792795411096,0.6753586840021308,0.40797862232535004,0.5821011746170066,-4.55401608248667,63.9
,,0.007376576935221934,0.01052485072421551,0.00017936513597365325,0.018080792795411096,0.6753730662280679,0.40797862232535004,0.5821011746170066,-4.55401608248667,64.0
,,0.007376576935221934,0.01052485072421551,0.00017936513597365325,0.018080792795411096,0.6756076107492744,0.40797862232535004,0.5821011746170066,-4.55401608248667,64.1
,,0.007376576935221934,0.01052485072421551,0.00017936513597365325,0.018080792795411096,0.675842155270481,0.40797862232535004,0.5821011746170066,-4.55401608248667,64.2
,,0.007116324366124925,0.010433920207080314,0.0002248429159314869,0.017775087489136726,0.6758674230829449,0.4003538306336933,0.5869968411383079,-4.562693221806202,64.3
,,0.007116324366124925,0.010433920207080314,0.0002248429159314869,0.017775087489136726,0.6758926908954086,0.4003538306336933,0.5869968411383079,-4.562693221806202,64.4
,,0.00700572621724676,0.010060056919187038,0.00017196913572178722,0.017237752272155585,0.6760774349602815,0.4064176179491349,0.5836060734807755,-4.599182456355671,64.5
,,0.00700572621724676,0.010060056919187038,0.00017196913572178722,0.017237752272155585,0.6762621790251542,0.4064176179491349,0.5836060734807755,-4.599182456355671,64.6
,,0.00700572621724676,0.010060056919187038,0.00017196913572178722,0.017237752272155585,0.6764469230900271,0.4064176179491349,0.5836060734807755,-4.599182456355671,64.7
,,0.00700572621724676,0.010060056919187038,0.00017196913572178722,0.017237752272155585,0.6768226754287135,0.4064176179491349,0.5836060734807755,-4.599182456355671,64.8
,,0.00700572621724676,0.010060056919187038,0.00017196913572178722,0.017237752272155585,0.6771984277674002,0.4064176179491349,0.5836060734807755,-4.599182456355671,64.9
,,0.006805576765690345,0.010050658325318972,0.00021528075224096482,0.01707151584325028,0.6773601483973218,0.39865099433341344,0.5887384821361831,-4.600117141615549,65.0
,,0.006805576765690345,0.010050658325318972,0.00021528075224096482,0.01707151584325028,0.6775218690272433,0.39865099433341344,0.5887384821361831,-4.600117141615549,65.1
,,0.006805576765690345,0.010050658325318972,0.00021528075224096482,0.01707151584325028,0.6776835896571647,0.39865099433341344,0.5887384821361831,-4.600117141615549,65.2
,,0.006682424649133692,0.009747582051200502,0.0001646492101305717,0.016594655910464766,0.6779388595857421,0.4026853394965354,0.5873928392244381,-4.630736019476831,65.3
,,0.006682424649133692,0.009747582051200502,0.0001646492101305717,0.016594655910464766,0.678465737006416,0.4026853394965354,0.5873928392244381,-4.630736019476831,65.4
,,0.006682424649133692,0.009747582051200502,0.0001646492101305717,0.016594655910464766,0.6788554658042999,0.4026853394965354,0.5873928392244381,-4.630736019476831,65.5
,,0.006682424649133692,0.009747582051200502,0.0001646492101305717,0.016594655910464766,0.6792451946021837,0.4026853394965354,0.5873928392244381,-4.630736019476831,65.6
,,0.009035109580851686,0.01285242935735855,0.00027483253987048195,0.022162371478080718,0.6798287185725188,0.4076779233570601,0.5799212133083324,-4.354222430462204,65.7
,,0.009035109580851686,0.01285242935735855,0.00027483253987048195,0.022162371478080718,0.6804122425428539,0.4076779233570601,0.5799212133083324,-4.354222430462204,65.8
,,0.009035109580851686,0.01285242935735855,0.00027483253987048195,0.022162371478080718,0.6809957665131889,0.4076779233570601,0.5799212133083324,-4.354222430462204,65.9
,,0.009035109580851686,0.01285242935735855,0.00027483253987048195,0.022162371478080718,0.681579290483524,0.4076779233570601,0.5799212133083324,-4.354222430462204,66.0
,,0.006428541114644985,0.009607866023900088,0.0001584940404315264,0.0161949011789766,0.6836168068566164,0.39694846196345995,0.5932648750195854,-4.645173138525231,66.1
,,0.006428541114644985,0.009607866023900088,0.0001584940404315264,0.0161949011789766,0.6838951529879088,0.39694846196345995,0.5932648750195854,-4.645173138525231,66.2
,,0.006428541114644985,0.009607866023900088,0.0001584940404315264,0.0161949011789766,0.6841734991192012,0.39694846196345995,0.5932648750195854,-4.645173138525231,66.3
,,0.006311630218149805,0.009714467788818756,0.00020026048882416906,0.01622635849579273,0.6842365452678998,0.38897391671620735,0.5986844054590303,-4.634138980070354,66.4
,,0.006311630218149805,0.009714467788818756,0.00020026048882416906,0.01622635849579273,0.6842995914165985,0.38897391671620735,0.5986844054590303,-4.634138980070354,66.5
,,0.006311630218149805,0.009714467788818756,0.00020026048882416906,0.01622635849579273,0.6843626375652971,0.38897391671620735,0.5986844054590303,-4.634138980070354,66.6
,,0.006311630218149805,0.009714467788818756,0.00020026048882416906,0.01622635849579273,0.6844256837139957,0.38897391671620735,0.5986844054590303,-4.634138980070354,66.7
,,0.0062067107362435035,0.009542969549031667,0.00015358039580413649,0.015903260681079306,0.6847148740127913,0.3902791295893084,0.6000637064564558,-4.651950568474079,66.8
,,0.0062067107362435035,0.009542969549031667,0.00015358039580413649,0.015903260681079306,0.6837158833936733,0.3902791295893084,0.6000637064564558,-4.651950568474079,66.9
,,0.0062067107362435035,0.009542969549031667,0.00015358039580413649,0.015903260681079306,0.6827168927745554,0.3902791295893084,0.6000637064564558,-4.651950568474079,67.0
,,0.006100712527206616,0.009665686766159219,0.00019555508815014442,0.01596195438151598,0.6815043023241246,0.3822033556411658,0.6055453195225349,-4.639173111819971,67.1
,,0.006100712527206616,0.009665686766159219,0.00019555508815014442,0.01596195438151598,0.6802917118736939,0.3822033556411658,0.6055453195225349,-4.639173111819971,67.2
,,0.006100712527206616,0.009665686766159219,0.00019555508815014442,0.01596195438151598,0.6790791214232631,0.3822033556411658,0.6055453195225349,-4.639173111819971,67.3
,,0.006100712527206616,0.009665686766159219,0.00019555508815014442,0.01596195438151598,0.6778665309728324,0.3822033556411658,0.6055453195225349,-4.639173111819971,67.4
,,0.006100712527206616,0.009665686766159219,0.00019555508815014442,0.01596195438151598,0.6779665210572905,0.3822033556411658,0.6055453195225349,-4.639173111819971,67.5
,,0.006010563028860767,0.009540738630245774,0.00015071795666712077,0.015702019615773662,0.6780533678409463,0.3827891682686971,0.607612196628611,-4.652184371965004,67.6
,,0.006010563028860767,0.009540738630245774,0.00015071795666712077,0.015702019615773662,0.6779179955525182,0.3827891682686971,0.607612196628611,-4.652184371965004,67.7
,,0.005936387915019618,0.009691696949364387,0.00019492437663839248,0.0158230092410224,0.6775885542389359,0.37517439474338826,0.6125065593868136,-4.636485744638426,67.8
,,0.005936387915019618,0.009691696949364387,0.00019492437663839248,0.0158230092410224,0.6772591129253538,0.37517439474338826,0.6125065593868136,-4.636485744638426,67.9
,,0.005936387915019618,0.009691696949364387,0.00019492437663839248,0.0158230092410224,0.6769296716117716,0.37517439474338826,0.6125065593868136,-4.636485744638426,68.0
,,0.005936387915019618,0.009691696949364387,0.00019492437663839248,0.0158230092410224,0.6767560473181535,0.37517439474338826,0.6125065593868136,-4.636485744638426,68.1
,,0.005936387915019618,0.009691696949364387,0.00019492437663839248,0.0158230092410224,0.6764266060045713,0.37517439474338826,0.6125065593868136,-4.636485744638426,68.2
,,0.005860865797187434,0.009599123846078512,0.00015095604906780572,0.015610945692333752,0.6762610820500632,0.3754331039704787,0.6148970110627228,-4.646083450706833,68.3
,,0.0036637941280101673,0.01115947088957642,0.00019361153488966706,0.015016876552476254,0.6727117868403281,0.24397844086998335,0.7431286293511047,-4.4954667344812025,68.4
,,0.005811711470511407,0.009775328929185405,0.00019801936510322962,0.015785059764800043,0.6721204466474077,0.3681779833023665,0.61927728338311,-4.627893523632315,68.5
,,0.005811711470511407,0.009775328929185405,0.00019801936510322962,0.015785059764800043,0.6715291064544872,0.3681779833023665,0.61927728338311,-4.627893523632315,68.6
,,0.005811711470511407,0.009775328929185405,0.00019801936510322962,0.015785059764800043,0.6709377662615666,0.3681779833023665,0.61927728338311,-4.627893523632315,68.7
,,0.005811711470511407,0.009775328929185405,0.00019801936510322962,0.015785059764800043,0.6703464260686461,0.3681779833023665,0.61927728338311,-4.627893523632315,68.8
,,0.005811711470511407,0.009775328929185405,0.00019801936510322962,0.015785059764800043,0.6697550858757256,0.3681779833023665,0.61927728338311,-4.627893523632315,68.9
,,0.005767120908054702,0.00971752198342505,0.00015441749790131394,0.015639060389381065,0.6693056707449114,0.36876390041760965,0.6213622648342259,-4.633824632989357,69.0
,,0.005732296254744716,0.009868148974807369,0.00020379900277339014,0.015804244232325473,0.6687163912294725,0.36270612947249126,0.624398663406086,-4.61844298367104,69.1
,,0.005736510441087465,0.009920217980393936,0.00020461826208790585,0.015861346683569307,0.6678313684162794,0.36166603980921047,0.6254335258096491,-4.613180384096743,69.2
,,0.005736510441087465,0.009920217980393936,0.00020461826208790585,0.015861346683569307,0.6669463456030864,0.36166603980921047,0.6254335258096491,-4.613180384096743,69.3
,,0.005736510441087465,0.009920217980393936,0.00020461826208790585,0.015861346683569307,0.6660613227898934,0.36166603980921047,0.6254335258096491,-4.613180384096743,69.4
,,0.005736510441087465,0.009920217980393936,0.00020461826208790585,0.015861346683569307,0.6651762999767004,0.36166603980921047,0.6254335258096491,-4.613180384096743,69.5
,,0.005736510441087465,0.009920217980393936,0.00020461826208790585,0.015861346683569307,0.6642912771635073,0.36166603980921047,0.6254335258096491,-4.613180384096743,69.6
,,0.005736510441087465,0.009920217980393936,0.00020461826208790585,0.015861346683569307,0.662289087198855,0.36166603980921047,0.6254335258096491,-4.613180384096743,69.7
,,0.005734913030124337,0.009889798393188891,0.0001608324029947924,0.01578554382630802,0.6603048654222005,0.36330158106853383,0.6265098308939256,-4.616251518470469,69.8
,,0.005734913030124337,0.009889798393188891,0.0001608324029947924,0.01578554382630802,0.6592939251322724,0.36330158106853383,0.6265098308939256,-4.616251518470469,69.9
,,0.005710623335694677,0.0100958590049594,0.00021403934802570007,0.01602052168867978,0.6581247456291099,0.3564567650583967,0.6301829117146173,-4.595629938716673,70.0
,,0.005710623335694677,0.0100958590049594,0.00021403934802570007,0.01602052168867978,0.6569555661259474,0.3564567650583967,0.6301829117146173,-4.595629938716673,70.1
,,0.005710623335694677,0.0100958590049594,0.00021403934802570007,0.01602052168867978,0.655786386622785,0.3564567650583967,0.6301829117146173,-4.595629938716673,70.2
,,0.005710623335694677,0.0100958590049594,0.00021403934802570007,0.01602052168867978,0.6546172071196225,0.3564567650583967,0.6301829117146173,-4.595629938716673,70.3
,,0.005710623335694677,0.0100958590049594,0.00021403934802570007,0.01602052168867978,0.6536017150881718,0.3564567650583967,0.6301829117146173,-4.595629938716673,70.4
,,0.0057529187613620525,0.010094916076728333,0.0001691366866621106,0.016016971524752496,0.6526333631588612,0.35917643684834794,0.6302637212738833,-4.59572334060223,70.5
,,0.0057529187613620525,0.010094916076728333,0.0001691366866621106,0.016016971524752496,0.6501141192816757,0.35917643684834794,0.6302637212738833,-4.59572334060223,70.6
,,0.0050468810528054835,0.010678115221469631,0.00018577055526863796,0.015910766829543753,0.6465143758838352,0.31719910843229954,0.671125115204509,-4.539558938414539,70.7
,,0.0050468810528054835,0.010678115221469631,0.00018577055526863796,0.015910766829543753,0.6429146324859948,0.31719910843229954,0.671125115204509,-4.539558938414539,70.8
,,0.0050468810528054835,0.010678115221469631,0.00018577055526863796,0.015910766829543753,0.6393148890881543,0.31719910843229954,0.671125115204509,-4.539558938414539,70.9
,,0.0050468810528054835,0.010678115221469631,0.00018577055526863796,0.015910766829543753,0.6357151456903137,0.31719910843229954,0.671125115204509,-4.539558938414539,71.0
,,0.0050468810528054835,0.010678115221469631,0.00018577055526863796,0.015910766829543753,0.6335444641018053,0.31719910843229954,0.671125115204509,-4.539558938414539,71.1
,,0.005817179809189661,0.010304532807063454,0.0001791420317608816,0.016300854648013997,0.6323947657062681,0.3568634856760957,0.6321467818448955,-4.5751714021969505,71.2
,,0.005817179809189661,0.010304532807063454,0.0001791420317608816,0.016300854648013997,0.6312450673107308,0.3568634856760957,0.6321467818448955,-4.5751714021969505,71.3
,,0.005780690139198826,0.010472476125247527,0.00023702068997520789,0.01649018695442156,0.6296983770913063,0.35055334152223383,0.6350732198605858,-4.559004784902424,71.4
,,0.005780690139198826,0.010472476125247527,0.00023702068997520789,0.01649018695442156,0.6281516868718817,0.35055334152223383,0.6350732198605858,-4.559004784902424,71.5
,,0.005780690139198826,0.010472476125247527,0.00023702068997520789,0.01649018695442156,0.6266049966524572,0.35055334152223383,0.6350732198605858,-4.559004784902424,71.6
