HRV_ULF,HRV_VLF,HRV_LF,HRV_HF,HRV_VHF,HRV_TP,HRV_LFHF,HRV_LFn,HRV_HFn,HRV_LnHF,time
,,0.01654326139691643,0.010245709154989792,0.00024180414105845453,0.02703077469296468,1.6146526459673753,0.6120158073465115,0.3790386798516896,-4.580896280068511,0.0
,,0.016783565345553485,0.010433571287973046,0.00027812253255219993,0.02749525916607873,1.611632196893812,0.6104166992635441,0.3794680102832084,-4.5627266632102526,0.1
,,0.01683004239190897,0.010472533571108306,0.00028315507635552633,0.027585731039372802,1.6101098052007945,0.6100995608159755,0.3796358906044932,-4.558999299504078,0.2
,,0.01683004239190897,0.010472533571108306,0.00028315507635552633,0.027585731039372802,1.609348609354286,0.6100995608159755,0.3796358906044932,-4.558999299504078,0.3
,,0.01683004239190897,0.010472533571108306,0.00028315507635552633,0.027585731039372802,1.6088918918463804,0.6100995608159755,0.3796358906044932,-4.558999299504078,0.4
,,0.01683004239190897,0.010472533571108306,0.00028315507635552633,0.027585731039372802,1.6085874135077771,0.6100995608159755,0.3796358906044932,-4.558999299504078,0.5
,,0.01683004239190897,0.010472533571108306,0.00028315507635552633,0.027585731039372802,1.6083699289802031,0.6100995608159755,0.3796358906044932,-4.558999299504078,0.6
,,0.009186825975972084,0.011130897740965085,0.00011877862010692384,0.020436502337044093,1.5104917587285673,0.44953024859443014,0.5446576697612652,-4.498030457381895,0.7
,,0.009186825975972084,0.011130897740965085,0.00011877862010692384,0.020436502337044093,1.434364292977295,0.44953024859443014,0.5446576697612652,-4.498030457381895,0.8
,,0.009186825975972084,0.011130897740965085,0.00011877862010692384,0.020436502337044093,1.373462320376277,0.44953024859443014,0.5446576697612652,-4.498030457381895,0.9
,,0.01670823297906997,0.010357970532242432,0.0002902905904799845,0.027356494101792386,1.3952457271278158,0.6107592923603195,0.3786293116983796,-4.569998955911841,1.0
,,0.01670823297906997,0.010357970532242432,0.0002902905904799845,0.027356494101792386,1.4133985660874313,0.6107592923603195,0.3786293116983796,-4.569998955911841,1.1
,,0.01670823297906997,0.010357970532242432,0.0002902905904799845,0.027356494101792386,1.4287586605917217,0.6107592923603195,0.3786293116983796,-4.569998955911841,1.2
,,0.01670823297906997,0.010357970532242432,0.0002902905904799845,0.027356494101792386,1.441924455881113,0.6107592923603195,0.3786293116983796,-4.569998955911841,1.3
,,0.01629030212311687,0.010003776760247272,0.00025430617997076446,0.026548385063334907,1.4543571720845556,0.6136080249044928,0.3768130052499184,-4.604792581265002,1.4
,,0.01629030212311687,0.010003776760247272,0.00025430617997076446,0.026548385063334907,1.4652357987625675,0.6136080249044928,0.3768130052499184,-4.604792581265002,1.5
,,0.01629030212311687,0.010003776760247272,0.00025430617997076446,0.026548385063334907,1.4748345870078723,0.6136080249044928,0.3768130052499184,-4.604792581265002,1.6
,,0.01634417008095761,0.010147887109453281,0.00029777909843856115,0.026789836288849452,1.4823770174447854,0.6100884643240777,0.37879615985847087,-4.590489761720333,1.7
,,0.01634417008095761,0.010147887109453281,0.00029777909843856115,0.026789836288849452,1.4891255078357075,0.6100884643240777,0.37879615985847087,-4.590489761720333,1.8
,,0.01634417008095761,0.010147887109453281,0.00029777909843856115,0.026789836288849452,1.4951991491875378,0.6100884643240777,0.37879615985847087,-4.590489761720333,1.9
,,0.01634417008095761,0.010147887109453281,0.00029777909843856115,0.026789836288849452,1.5006943485058601,0.6100884643240777,0.37879615985847087,-4.590489761720333,2.0
,,0.015853404542038367,0.009767620212077346,0.00026145380868386703,0.02588247856279958,1.506256288064003,0.6125149298809496,0.3773834947212579,-4.628682423757075,2.1
,,0.015853404542038367,0.009767620212077346,0.00026145380868386703,0.02588247856279958,1.5113345807040461,0.6125149298809496,0.3773834947212579,-4.628682423757075,2.2
,,0.015853404542038367,0.009767620212077346,0.00026145380868386703,0.02588247856279958,1.5159896822907524,0.6125149298809496,0.3773834947212579,-4.628682423757075,2.3
,,0.015736972312484134,0.009824318299267165,0.00030527043017250207,0.0258665610419238,1.5194236391702554,0.608390589184936,0.3798076707353631,-4.622894507932521,2.4
,,0.015736972312484134,0.009824318299267165,0.00030527043017250207,0.0258665610419238,1.5225934455205659,0.608390589184936,0.3798076707353631,-4.622894507932521,2.5
,,0.015736972312484134,0.009824318299267165,0.00030527043017250207,0.0258665610419238,1.525528451400483,0.608390589184936,0.3798076707353631,-4.622894507932521,2.6
,,0.015736972312484134,0.009824318299267165,0.00030527043017250207,0.0258665610419238,1.5282538140032629,0.608390589184936,0.3798076707353631,-4.622894507932521,2.7
,,0.015736972312484134,0.009824318299267165,0.00030527043017250207,0.0258665610419238,1.530791220564472,0.608390589184936,0.3798076707353631,-4.622894507932521,2.8
,,0.015185700249860101,0.009436482545262897,0.0002724730550879283,0.024894655850210928,1.5334066570296672,0.6099984005093783,0.37905655744114025,-4.663171979992353,2.9
,,0.015185700249860101,0.009436482545262897,0.0002724730550879283,0.024894655850210928,1.5358533556583984,0.6099984005093783,0.37905655744114025,-4.663171979992353,3.0
,,0.015185700249860101,0.009436482545262897,0.0002724730550879283,0.024894655850210928,1.5381471356228338,0.6099984005093783,0.37905655744114025,-4.663171979992353,3.1
,,0.005628788923141122,0.006677874472548913,9.354975406912426e-05,0.01240021314975916,1.5170790793126552,0.453926787802873,0.5385290068726449,-5.00895553479983,3.2
,,0.005628788923141122,0.006677874472548913,9.354975406912426e-05,0.01240021314975916,1.497250320432487,0.453926787802873,0.5385290068726449,-5.00895553479983,3.3
,,0.005628788923141122,0.006677874472548913,9.354975406912426e-05,0.01240021314975916,1.4785546334883286,0.453926787802873,0.5385290068726449,-5.00895553479983,3.4
,,0.005628788923141122,0.006677874472548913,9.354975406912426e-05,0.01240021314975916,1.4608975958188457,0.453926787802873,0.5385290068726449,-5.00895553479983,3.5
,,0.014342721464048195,0.009019425556364669,0.0002887590394903705,0.023650906059903234,1.4643923481170478,0.6064343339625474,0.38135644924216366,-4.708374632482769,3.6
,,0.014342721464048195,0.009019425556364669,0.0002887590394903705,0.023650906059903234,1.4677031660837654,0.6064343339625474,0.38135644924216366,-4.708374632482769,3.7
,,0.014342721464048195,0.009019425556364669,0.0002887590394903705,0.023650906059903234,1.4708441985137284,0.6064343339625474,0.38135644924216366,-4.708374632482769,3.8
,,0.014071199750843252,0.008970665606450228,0.00033619134080176925,0.02337805669809525,1.4732875743044804,0.6018977510645578,0.38372161220659207,-4.7137954020467445,3.9
,,0.014094051002070767,0.00899722186194105,0.0003440607995294372,0.023435333663541252,1.4755607850270673,0.6014017638672293,0.3839169516898401,-4.7108394313045645,4.0
,,0.014094051002070767,0.00899722186194105,0.0003440607995294372,0.023435333663541252,1.4777257476200074,0.6014017638672293,0.3839169516898401,-4.7108394313045645,4.1
,,0.004121189037662053,0.004735667797848777,7.947928574045945e-05,0.00893633612125129,1.4635982776426029,0.46117211592584917,0.5299339386515461,-5.352632527895949,4.2
,,0.004121189037662053,0.004735667797848777,7.947928574045945e-05,0.00893633612125129,1.4501129653914437,0.46117211592584917,0.5299339386515461,-5.352632527895949,4.3
,,0.004121189037662053,0.004735667797848777,7.947928574045945e-05,0.00893633612125129,1.4372270003514476,0.46117211592584917,0.5299339386515461,-5.352632527895949,4.4
,,0.004121189037662053,0.004735667797848777,7.947928574045945e-05,0.00893633612125129,1.4249012946610162,0.46117211592584917,0.5299339386515461,-5.352632527895949,4.5
,,0.004121189037662053,0.004735667797848777,7.947928574045945e-05,0.00893633612125129,1.4131000870850714,0.46117211592584917,0.5299339386515461,-5.352632527895949,4.6
,,0.005532500835467227,0.008049214642161785,0.00034390181170244427,0.013925617289331454,1.3979799652883995,0.39728945012051475,0.5780149256527654,-4.822180752290852,4.7
,,0.004002900661285506,0.004268627441415629,7.79827100763817e-05,0.008349510812777518,1.3885874944419538,0.4794173875623637,0.5112428185473111,-5.456462945706672,4.8
,,0.011282550468081385,0.007243175496629375,0.0003208412549398241,0.018846567219650584,1.3919693469291219,0.5986528122913285,0.384323331257758,-4.927695564236533,4.9
,,0.011282550468081385,0.007243175496629375,0.0003208412549398241,0.018846567219650584,1.3952185777501263,0.5986528122913285,0.384323331257758,-4.927695564236533,5.0
,,0.011282550468081385,0.007243175496629375,0.0003208412549398241,0.018846567219650584,1.3983428381549379,0.5986528122913285,0.384323331257758,-4.927695564236533,5.1
,,0.011282550468081385,0.007243175496629375,0.0003208412549398241,0.018846567219650584,1.4013492019407003,0.5986528122913285,0.384323331257758,-4.927695564236533,5.2
,,0.011282550468081385,0.007243175496629375,0.0003208412549398241,0.018846567219650584,1.4042442189195827,0.5986528122913285,0.384323331257758,-4.927695564236533,5.3
,,0.011282550468081385,0.007243175496629375,0.0003208412549398241,0.018846567219650584,1.4070339625537782,0.5986528122913285,0.384323331257758,-4.927695564236533,5.4
,,0.011282550468081385,0.007243175496629375,0.0003208412549398241,0.018846567219650584,1.4097240724867528,0.5986528122913285,0.384323331257758,-4.927695564236533,5.5
,,0.009612929649910538,0.006153821531923096,0.0003151824226406,0.016081933604474234,1.4123974627624143,0.5977471295638279,0.3826543302113255,-5.0906820028402935,5.6
,,0.009612929649910538,0.006153821531923096,0.0003151824226406,0.016081933604474234,1.4149786671665014,0.5977471295638279,0.3826543302113255,-5.0906820028402935,5.7
,,0.009612929649910538,0.006153821531923096,0.0003151824226406,0.016081933604474234,1.4174723731162129,0.5977471295638279,0.3826543302113255,-5.0906820028402935,5.8
,,0.009612929649910538,0.006153821531923096,0.0003151824226406,0.016081933604474234,1.4198829555342671,0.5977471295638279,0.3826543302113255,-5.0906820028402935,5.9
,,0.009612929649910538,0.006153821531923096,0.0003151824226406,0.016081933604474234,1.422214502463205,0.5977471295638279,0.3826543302113255,-5.0906820028402935,6.0
,,0.009612929649910538,0.006153821531923096,0.0003151824226406,0.016081933604474234,1.4244708382008866,0.5977471295638279,0.3826543302113255,-5.0906820028402935,6.1
,,0.00917266628730073,0.005831162054165633,0.0003299710623653687,0.01533379940383173,1.4268291200487175,0.5981991837592835,0.38028161844275177,-5.144538975297463,6.2
,,0.008375382300109788,0.005276753760944859,0.00031246901664404346,0.01396460507769869,1.4293352666216446,0.5997579060424112,0.37786630782504355,-5.244444188344926,6.3
,,0.008375382300109788,0.005276753760944859,0.00031246901664404346,0.01396460507769869,1.431764300992328,0.5997579060424112,0.37786630782504355,-5.244444188344926,6.4
,,0.008375382300109788,0.005276753760944859,0.00031246901664404346,0.01396460507769869,1.4341197282608695,0.5997579060424112,0.37786630782504355,-5.244444188344926,6.5
,,0.008375382300109788,0.005276753760944859,0.00031246901664404346,0.01396460507769869,1.4364048442676633,0.5997579060424112,0.37786630782504355,-5.244444188344926,6.6
,,0.008375382300109788,0.005276753760944859,0.00031246901664404346,0.01396460507769869,1.4386227509801397,0.5997579060424112,0.37786630782504355,-5.244444188344926,6.7
,,0.008375382300109788,0.005276753760944859,0.00031246901664404346,0.01396460507769869,1.44077637054153,0.5997579060424112,0.37786630782504355,-5.244444188344926,6.8
,,0.008375382300109788,0.005276753760944859,0.00031246901664404346,0.01396460507769869,1.442868458115452,0.5997579060424112,0.37786630782504355,-5.244444188344926,6.9
,,0.0031863155158221106,0.002183507640289991,6.954006310027326e-05,0.005439363219212375,1.4430993904170735,0.5857883335622313,0.40142707009850415,-6.126822685942426,7.0
,,0.007563978267604185,0.00459548710741134,0.0003103623611769077,0.012469827736192433,1.4459168695923552,0.6065824185887101,0.3685285157607588,-5.382680520651203,7.1
,,0.007563978267604185,0.00459548710741134,0.0003103623611769077,0.012469827736192433,1.4486571575573552,0.6065824185887101,0.3685285157607588,-5.382680520651203,7.2
,,0.007563978267604185,0.00459548710741134,0.0003103623611769077,0.012469827736192433,1.4513233836854635,0.6065824185887101,0.3685285157607588,-5.382680520651203,7.3
,,0.007563978267604185,0.00459548710741134,0.0003103623611769077,0.012469827736192433,1.4539185104501557,0.6065824185887101,0.3685285157607588,-5.382680520651203,7.4
,,0.007563978267604185,0.00459548710741134,0.0003103623611769077,0.012469827736192433,1.4564453444052505,0.6065824185887101,0.3685285157607588,-5.382680520651203,7.5
,,0.007563978267604185,0.00459548710741134,0.0003103623611769077,0.012469827736192433,1.4589065463095638,0.6065824185887101,0.3685285157607588,-5.382680520651203,7.6
,,0.007181838421132794,0.004307924267679409,0.0002785029090687096,0.011768265597880911,1.4615759844291727,0.6102716123628289,0.3660628010006104,-5.44729909930412,7.7
,,0.007181838421132794,0.004307924267679409,0.0002785029090687096,0.011768265597880911,1.464177841836893,0.6102716123628289,0.3660628010006104,-5.44729909930412,7.8
,,0.007232085929557569,0.004165235833002973,0.00030932416039199123,0.011706645922952532,1.4675793296586293,0.6177760886555937,0.3558009578846525,-5.480982382396587,7.9
,,0.007232085929557569,0.004165235833002973,0.00030932416039199123,0.011706645922952532,1.4708968301267424,0.6177760886555937,0.3558009578846525,-5.480982382396587,8.0
,,0.007232085929557569,0.004165235833002973,0.00030932416039199123,0.011706645922952532,1.474133415949292,0.6177760886555937,0.3558009578846525,-5.480982382396587,8.1
,,0.007232085929557569,0.004165235833002973,0.00030932416039199123,0.011706645922952532,1.4772920117520212,0.6177760886555937,0.3558009578846525,-5.480982382396587,8.2
,,0.007232085929557569,0.004165235833002973,0.00030932416039199123,0.011706645922952532,1.4803754028927805,0.6177760886555937,0.3558009578846525,-5.480982382396587,8.3
,,0.007013112786387869,0.003974894323075549,0.0002773694888105855,0.011265376598274004,1.4837163041467445,0.6225369143418042,0.35284167274838835,-5.527757116619038,8.4
,,0.007316998947152699,0.004003209261667162,0.00030969168258097315,0.011629899891400834,1.4877170829134756,0.62915407832211,0.3442170009242419,-5.520658924128421,8.5
,,0.007311672683964528,0.003974476094088616,0.00030936426835683834,0.011595513046409982,1.4917623690742494,0.6305605154942456,0.3427598311675506,-5.527862339791534,8.6
,,0.007311672683964528,0.003974476094088616,0.00030936426835683834,0.011595513046409982,1.4957157169131876,0.6305605154942456,0.3427598311675506,-5.527862339791534,8.7
,,0.007311672683964528,0.003974476094088616,0.00030936426835683834,0.011595513046409982,1.499580225474846,0.6305605154942456,0.3427598311675506,-5.527862339791534,8.8
,,0.007311672683964528,0.003974476094088616,0.00030936426835683834,0.011595513046409982,1.503358856068468,0.6305605154942456,0.3427598311675506,-5.527862339791534,8.9
,,0.007311672683964528,0.003974476094088616,0.00030936426835683834,0.011595513046409982,1.5058589042121728,0.6305605154942456,0.3427598311675506,-5.527862339791534,9.0
,,0.007239692485555479,0.0038769807836259817,0.000276431431263548,0.011393104700445009,1.5087338092733997,0.6354450938445866,0.3402918594678191,-5.552698576811695,9.1
,,0.007765867301638919,0.004035384899912189,0.00031327587443808944,0.012114528075989197,1.5122602287165017,0.6410375421086971,0.3331029384388698,-5.512653591496782,9.2
,,0.007239692485555479,0.0038769807836259817,0.000276431431263548,0.011393104700445009,1.5151523196222343,0.6354450938445866,0.3402918594678191,-5.552698576811695,9.3
,,0.007795730045466965,0.004030267151177954,0.0003135127300062734,0.012139509926651193,1.5187882205267584,0.6421783163051868,0.33199586931675623,-5.513922614605794,9.4
,,0.007795730045466965,0.004030267151177954,0.0003135127300062734,0.012139509926651193,1.522424121431283,0.6421783163051868,0.33199586931675623,-5.513922614605794,9.5
,,0.007795730045466965,0.004030267151177954,0.0003135127300062734,0.012139509926651193,1.5260600223358074,0.6421783163051868,0.33199586931675623,-5.513922614605794,9.6
,,0.007795730045466965,0.004030267151177954,0.0003135127300062734,0.012139509926651193,1.5383817060719722,0.6421783163051868,0.33199586931675623,-5.513922614605794,9.7
,,0.00782867559885108,0.0040036253549849184,0.0002790142202999371,0.012111315174135936,1.5509378403052987,0.6463935160047228,0.33056900075846235,-5.520554989592976,9.8
,,0.00782867559885108,0.0040036253549849184,0.0002790142202999371,0.012111315174135936,1.5634939745386247,0.6463935160047228,0.33056900075846235,-5.520554989592976,9.9
,,0.00782867559885108,0.0040036253549849184,0.0002790142202999371,0.012111315174135936,1.5672974951311056,0.6463935160047228,0.33056900075846235,-5.520554989592976,10.0
,,0.008565043078996288,0.0042733116678620306,0.0003200852430170726,0.013158439989875391,1.5716445020150127,0.6509163005330846,0.3247582290263953,-5.455366186093657,10.1
,,0.008565043078996288,0.0042733116678620306,0.0003200852430170726,0.013158439989875391,1.57599150889892,0.6509163005330846,0.3247582290263953,-5.455366186093657,10.2
,,0.008565043078996288,0.0042733116678620306,0.0003200852430170726,0.013158439989875391,1.5803385157828274,0.6509163005330846,0.3247582290263953,-5.455366186093657,10.3
,,0.008565043078996288,0.0042733116678620306,0.0003200852430170726,0.013158439989875391,1.5845151292857398,0.6509163005330846,0.3247582290263953,-5.455366186093657,10.4
,,0.006716686999902571,0.002465700840957024,0.00011159697547282884,0.009293984816332423,1.5966888250723181,0.7226918412971002,0.2653007175806894,-6.005279195079585,10.5
,,0.006716686999902571,0.002465700840957024,0.00011159697547282884,0.009293984816332423,1.608862520858896,0.7226918412971002,0.2653007175806894,-6.005279195079585,10.6
,,0.006716686999902571,0.002465700840957024,0.00011159697547282884,0.009293984816332423,1.6212341818017018,0.7226918412971002,0.2653007175806894,-6.005279195079585,10.7
,,0.007426016827513792,0.002709682411261407,0.0001356085707522068,0.010271307809527406,1.6337891867522554,0.7229864945363245,0.2638108468278961,-5.910923842374433,10.8
,,0.007426016827513792,0.002709682411261407,0.0001356085707522068,0.010271307809527406,1.6463441917028092,0.7229864945363245,0.2638108468278961,-5.910923842374433,10.9
,,0.007426016827513792,0.002709682411261407,0.0001356085707522068,0.010271307809527406,1.658899196653363,0.7229864945363245,0.2638108468278961,-5.910923842374433,11.0
,,0.007426016827513792,0.002709682411261407,0.0001356085707522068,0.010271307809527406,1.6713157717826648,0.7229864945363245,0.2638108468278961,-5.910923842374433,11.1
,,0.007673561025617541,0.0027882331939404017,0.0001244690072095582,0.010586263226767501,1.683860950639715,0.7248602137735292,0.263382190128271,-5.882347147565732,11.2
,,0.007673561025617541,0.0027882331939404017,0.0001244690072095582,0.010586263226767501,1.6964061294967656,0.7248602137735292,0.263382190128271,-5.882347147565732,11.3
,,0.007673561025617541,0.0027882331939404017,0.0001244690072095582,0.010586263226767501,1.7091870685150012,0.7248602137735292,0.263382190128271,-5.882347147565732,11.4
,,0.007673561025617541,0.0027882331939404017,0.0001244690072095582,0.010586263226767501,1.7219680075332369,0.7248602137735292,0.263382190128271,-5.882347147565732,11.5
,,0.010500239645894091,0.005151507233258439,0.00032940950022709723,0.015981156379379628,1.7268174113369024,0.6570387897237822,0.3223488407825977,-5.268465940472899,11.6
,,0.010500239645894091,0.005151507233258439,0.00032940950022709723,0.015981156379379628,1.7316668151405679,0.6570387897237822,0.3223488407825977,-5.268465940472899,11.7
,,0.010500239645894091,0.005151507233258439,0.00032940950022709723,0.015981156379379628,1.7365162189442336,0.6570387897237822,0.3223488407825977,-5.268465940472899,11.8
,,0.010970773407834722,0.005417535562125539,0.0002911251534449748,0.016679434123405237,1.7411361566848569,0.6577425425026922,0.3248033189881089,-5.218114260269714,11.9
,,0.010970773407834722,0.005417535562125539,0.0002911251534449748,0.016679434123405237,1.74575609442548,0.6577425425026922,0.3248033189881089,-5.218114260269714,12.0
,,0.010970773407834722,0.005417535562125539,0.0002911251534449748,0.016679434123405237,1.7503760321661028,0.6577425425026922,0.3248033189881089,-5.218114260269714,12.1
,,0.010970773407834722,0.005417535562125539,0.0002911251534449748,0.016679434123405237,1.763511003652653,0.6577425425026922,0.3248033189881089,-5.218114260269714,12.2
,,0.010970773407834722,0.005417535562125539,0.0002911251534449748,0.016679434123405237,1.7766459751392027,0.6577425425026922,0.3248033189881089,-5.218114260269714,12.3
,,0.011756551702086039,0.005869848367971023,0.0003367802954423015,0.017963180365499362,1.7895345325938425,0.6544805242097349,0.32677110893151384,-5.137926477167254,12.4
,,0.011756551702086039,0.005869848367971023,0.0003367802954423015,0.017963180365499362,1.8024230900484821,0.6544805242097349,0.32677110893151384,-5.137926477167254,12.5
,,0.012633296806144327,0.006383252684523972,0.00030145900982648415,0.019318008500494782,1.8067445136408358,0.6539647606957393,0.3304301623203283,-5.054077486381634,12.6
,,0.012633296806144327,0.006383252684523972,0.00030145900982648415,0.019318008500494782,1.8110659372331892,0.6539647606957393,0.3304301623203283,-5.054077486381634,12.7
,,0.012633296806144327,0.006383252684523972,0.00030145900982648415,0.019318008500494782,1.8153873608255426,0.6539647606957393,0.3304301623203283,-5.054077486381634,12.8
,,0.012633296806144327,0.006383252684523972,0.00030145900982648415,0.019318008500494782,1.8199490533146574,0.6539647606957393,0.3304301623203283,-5.054077486381634,12.9
,,0.013456816417428519,0.006909311039478327,0.0003522822320636976,0.020718409688970544,1.824184007154238,0.6495101033064454,0.33348655341806965,-4.9748853510246,13.0
,,0.012633296806144327,0.006383252684523972,0.00030145900982648415,0.019318008500494782,1.8287689220457222,0.6539647606957393,0.3304301623203283,-5.054077486381634,13.1
,,0.010986117208641495,0.004122808751781477,0.00019931595319922646,0.015308241913622199,1.8487075012850687,0.7176602819991618,0.2693195453171375,-5.491220612027748,13.2
,,0.012189745382353019,0.004637392767904397,0.00019440406080248083,0.017021542211059896,1.8682445320187908,0.7161363659770279,0.2724425736753283,-5.37360297413977,13.3
,,0.012189745382353019,0.004637392767904397,0.00019440406080248083,0.017021542211059896,1.8877815627525132,0.7161363659770279,0.2724425736753283,-5.37360297413977,13.4
,,0.012189745382353019,0.004637392767904397,0.00019440406080248083,0.017021542211059896,1.907318593486235,0.7161363659770279,0.2724425736753283,-5.37360297413977,13.5
,,0.012189745382353019,0.004637392767904397,0.00019440406080248083,0.017021542211059896,1.9268556242199568,0.7161363659770279,0.2724425736753283,-5.37360297413977,13.6
,,0.012189745382353019,0.004637392767904397,0.00019440406080248083,0.017021542211059896,1.9484249915953105,0.7161363659770279,0.2724425736753283,-5.37360297413977,13.7
,,0.012189745382353019,0.004637392767904397,0.00019440406080248083,0.017021542211059896,1.967211973937688,0.7161363659770279,0.2724425736753283,-5.37360297413977,13.8
,,0.012189745382353019,0.004637392767904397,0.00019440406080248083,0.017021542211059896,1.97911083155798,0.7161363659770279,0.2724425736753283,-5.37360297413977,13.9
,,0.014878300638984071,0.00798547195550081,0.0003635729128726878,0.02322734550735757,1.9825051758932053,0.6405510536824439,0.34379614979986867,-4.830131393801845,14.0
,,0.014878300638984071,0.00798547195550081,0.0003635729128726878,0.02322734550735757,1.98589952022843,0.6405510536824439,0.34379614979986867,-4.830131393801845,14.1
,,0.013473224935101544,0.00527499867141056,0.00022136065259825797,0.018969584259110363,1.9969715912170944,0.7102540968250726,0.27807666205848347,-5.2447768514853355,14.2
,,0.013473224935101544,0.00527499867141056,0.00022136065259825797,0.018969584259110363,2.008043662205759,0.7102540968250726,0.27807666205848347,-5.2447768514853355,14.3
,,0.013473224935101544,0.00527499867141056,0.00022136065259825797,0.018969584259110363,2.0191157331944227,0.7102540968250726,0.27807666205848347,-5.2447768514853355,14.4
,,0.013473224935101544,0.00527499867141056,0.00022136065259825797,0.018969584259110363,2.0301878041830874,0.7102540968250726,0.27807666205848347,-5.2447768514853355,14.5
,,0.015804602384534957,0.008871561340577093,0.00036484500398693305,0.02504100872909898,2.0326253952624764,0.6311487909897644,0.35428130857475676,-4.724904473283441,14.6
,,0.013473224935101544,0.00527499867141056,0.00022136065259825797,0.018969584259110363,2.043648275146706,0.7102540968250726,0.27807666205848347,-5.2447768514853355,14.7
,,0.015629809627053945,0.008811000964363101,0.00036293198221225016,0.024803742573629297,2.0460014956611103,0.6301391647110206,0.355228689307989,-4.731754228647647,14.8
,,0.015629809627053945,0.008811000964363101,0.00036293198221225016,0.024803742573629297,2.0483547161755147,0.6301391647110206,0.355228689307989,-4.731754228647647,14.9
,,0.013964509829771484,0.005654590483696425,0.0002408783943562057,0.019859978707824116,2.0584378368788783,0.7031482780125021,0.2847228875159227,-5.175287588712408,15.0
,,0.013964509829771484,0.005654590483696425,0.0002408783943562057,0.019859978707824116,2.068520957582242,0.7031482780125021,0.2847228875159227,-5.175287588712408,15.1
,,0.013964509829771484,0.005654590483696425,0.0002408783943562057,0.019859978707824116,2.0784825752143306,0.7031482780125021,0.2847228875159227,-5.175287588712408,15.2
,,0.013964509829771484,0.005654590483696425,0.0002408783943562057,0.019859978707824116,2.0882866383341763,0.7031482780125021,0.2847228875159227,-5.175287588712408,15.3
,,0.013964509829771484,0.005654590483696425,0.0002408783943562057,0.019859978707824116,2.0980907014540224,0.7031482780125021,0.2847228875159227,-5.175287588712408,15.4
,,0.013964509829771484,0.005654590483696425,0.0002408783943562057,0.019859978707824116,2.107894764573868,0.7031482780125021,0.2847228875159227,-5.175287588712408,15.5
,,0.013964509829771484,0.005654590483696425,0.0002408783943562057,0.019859978707824116,2.1176988276937143,0.7031482780125021,0.2847228875159227,-5.175287588712408,15.6
,,0.015437864995832929,0.009487633272428592,0.00031845878733186445,0.025243957055593385,2.1181425397887854,0.6115469520818374,0.3758377995785089,-4.65776608919925,15.7
,,0.015437864995832929,0.009487633272428592,0.00031845878733186445,0.025243957055593385,2.1185862518838565,0.6115469520818374,0.3758377995785089,-4.65776608919925,15.8
,,0.015437864995832929,0.009487633272428592,0.00031845878733186445,0.025243957055593385,2.1190299639789276,0.6115469520818374,0.3758377995785089,-4.65776608919925,15.9
,,0.015437864995832929,0.009487633272428592,0.00031845878733186445,0.025243957055593385,2.120895429953838,0.6115469520818374,0.3758377995785089,-4.65776608919925,16.0
,,0.015437864995832929,0.009487633272428592,0.00031845878733186445,0.025243957055593385,2.1206865266008945,0.6115469520818374,0.3758377995785089,-4.65776608919925,16.1
,,0.015437864995832929,0.009487633272428592,0.00031845878733186445,0.025243957055593385,2.120477623247951,0.6115469520818374,0.3758377995785089,-4.65776608919925,16.2
,,0.015437864995832929,0.009487633272428592,0.00031845878733186445,0.025243957055593385,2.1202687198950083,0.6115469520818374,0.3758377995785089,-4.65776608919925,16.3
,,0.015437864995832929,0.009487633272428592,0.00031845878733186445,0.025243957055593385,2.1200598165420645,0.6115469520818374,0.3758377995785089,-4.65776608919925,16.4
,,0.01543490299311316,0.009642341466742648,0.00041392187366548917,0.025491166333521297,2.119557420090778,0.6055000697561654,0.37826207481384694,-4.6415913091119245,16.5
,,0.014347221932209555,0.009364892800884973,0.0002958097191446698,0.024007924452239197,2.1182914659044445,0.5976035937946899,0.39007506956777005,-4.67078738993377,16.6
,,0.014347221932209555,0.009364892800884973,0.0002958097191446698,0.024007924452239197,2.1167903469558698,0.5976035937946899,0.39007506956777005,-4.67078738993377,16.7
,,0.014347221932209555,0.009364892800884973,0.0002958097191446698,0.024007924452239197,2.115289228007295,0.5976035937946899,0.39007506956777005,-4.67078738993377,16.8
,,0.014347221932209555,0.009364892800884973,0.0002958097191446698,0.024007924452239197,2.1130195074149793,0.5976035937946899,0.39007506956777005,-4.67078738993377,16.9
,,0.014347221932209555,0.009364892800884973,0.0002958097191446698,0.024007924452239197,2.110749786822663,0.5976035937946899,0.39007506956777005,-4.67078738993377,17.0
,,0.014347221932209555,0.009364892800884973,0.0002958097191446698,0.024007924452239197,2.1084800662303467,0.5976035937946899,0.39007506956777005,-4.67078738993377,17.1
,,0.01345069546414295,0.00925730908832724,0.00027828096739690954,0.0229862855198671,2.1053321136436978,0.5851617675468915,0.4027318411374524,-4.682341867768061,17.2
,,0.007368686829751394,0.00931006646086849,0.00038027431943448234,0.017059027610054366,2.094834095253067,0.4319523362168889,0.5457559876027904,-4.676659049064669,17.3
,,0.013195823955908143,0.009119688934781212,0.0002791995619035649,0.02259471245259292,2.0913075159747323,0.5840226550169626,0.40362049102929193,-4.697319583505965,17.4
,,0.013195823955908143,0.009119688934781212,0.0002791995619035649,0.02259471245259292,2.087076144822999,0.5840226550169626,0.40362049102929193,-4.697319583505965,17.5
,,0.013195823955908143,0.009119688934781212,0.0002791995619035649,0.02259471245259292,2.082712843662208,0.5840226550169626,0.40362049102929193,-4.697319583505965,17.6
,,0.013195823955908143,0.009119688934781212,0.0002791995619035649,0.02259471245259292,2.078349542501417,0.5840226550169626,0.40362049102929193,-4.697319583505965,17.7
,,0.013195823955908143,0.009119688934781212,0.0002791995619035649,0.02259471245259292,2.0739862413406263,0.5840226550169626,0.40362049102929193,-4.697319583505965,17.8
,,0.013195823955908143,0.009119688934781212,0.0002791995619035649,0.02259471245259292,2.069622940179835,0.5840226550169626,0.40362049102929193,-4.697319583505965,17.9
,,0.012030939069671245,0.008736011726021562,0.00026160810966836936,0.021028558905361178,2.0644841524729194,0.5721238019122645,0.41543558763764543,-4.740301517716116,18.0
,,0.01183156950389257,0.008607948356971097,0.0002636008913269353,0.020703118752190604,2.059007934113554,0.5714873032180559,0.41578027252827726,-4.7550692750032075,18.1
,,0.01183156950389257,0.008607948356971097,0.0002636008913269353,0.020703118752190604,2.0528973872168184,0.5714873032180559,0.41578027252827726,-4.7550692750032075,18.2
,,0.01183156950389257,0.008607948356971097,0.0002636008913269353,0.020703118752190604,2.047421168857453,0.5714873032180559,0.41578027252827726,-4.7550692750032075,18.3
,,0.01183156950389257,0.008607948356971097,0.0002636008913269353,0.020703118752190604,2.0412011404992954,0.5714873032180559,0.41578027252827726,-4.7550692750032075,18.4
,,0.01183156950389257,0.008607948356971097,0.0002636008913269353,0.020703118752190604,2.034981112141138,0.5714873032180559,0.41578027252827726,-4.7550692750032075,18.5
,,0.01183156950389257,0.008607948356971097,0.0002636008913269353,0.020703118752190604,2.02876108378298,0.5714873032180559,0.41578027252827726,-4.7550692750032075,18.6
,,0.011136812962732789,0.008393177336241025,0.00021905689745282432,0.019749047196426638,2.02201211369272,0.5639164690814991,0.42499150732495455,-4.7803361250398435,18.7
,,0.011136812962732789,0.008393177336241025,0.00021905689745282432,0.019749047196426638,2.015028693105297,0.5639164690814991,0.42499150732495455,-4.7803361250398435,18.8
,,0.011136812962732789,0.008393177336241025,0.00021905689745282432,0.019749047196426638,2.0080452725178755,0.5639164690814991,0.42499150732495455,-4.7803361250398435,18.9
,,0.010361060972228006,0.007886969070786507,0.0002523942647455778,0.018500424307760093,2.0009152389059217,0.5600445049188417,0.42631287475273094,-4.842543366117461,19.0
,,0.010361060972228006,0.007886969070786507,0.0002523942647455778,0.018500424307760093,1.9932417190025413,0.5600445049188417,0.42631287475273094,-4.842543366117461,19.1
,,0.010361060972228006,0.007886969070786507,0.0002523942647455778,0.018500424307760093,1.9855681990991614,0.5600445049188417,0.42631287475273094,-4.842543366117461,19.2
,,0.010361060972228006,0.007886969070786507,0.0002523942647455778,0.018500424307760093,1.9778946791957812,0.5600445049188417,0.42631287475273094,-4.842543366117461,19.3
,,0.010361060972228006,0.007886969070786507,0.0002523942647455778,0.018500424307760093,1.970221159292401,0.5600445049188417,0.42631287475273094,-4.842543366117461,19.4
,,0.007802898810093035,0.003957864958014107,0.0002264737705421764,0.011987237538649317,1.9618594271431875,0.6509338606943331,0.3301732317602898,-5.5320505511270985,19.5
,,0.007802898810093035,0.003957864958014107,0.0002264737705421764,0.011987237538649317,1.9534976949939742,0.6509338606943331,0.3301732317602898,-5.5320505511270985,19.6
,,0.009131545533584964,0.007165927142632288,0.00024210373970975904,0.016539576415927012,1.9373893929808061,0.5521027445897355,0.43325941139168234,-4.938417827241168,19.7
,,0.008996915017621163,0.0070476428078197,0.00024353609997604535,0.016288093925416906,1.9211231286337596,0.5523614401303177,0.4326867735470349,-4.955062071567306,19.8
,,0.008996915017621163,0.0070476428078197,0.00024353609997604535,0.016288093925416906,1.9048568642867132,0.5523614401303177,0.4326867735470349,-4.955062071567306,19.9
,,0.008996915017621163,0.0070476428078197,0.00024353609997604535,0.016288093925416906,1.8885905999396666,0.5523614401303177,0.4326867735470349,-4.955062071567306,20.0
,,0.008996915017621163,0.0070476428078197,0.00024353609997604535,0.016288093925416906,1.8723243355926205,0.5523614401303177,0.4326867735470349,-4.955062071567306,20.1
,,0.008431751407583014,0.006781646335355108,0.0002110033556949289,0.01542440109863305,1.8555598481478748,0.5466501651289564,0.4396699937967844,-4.993535384182639,20.2
,,0.008431751407583014,0.006781646335355108,0.0002110033556949289,0.01542440109863305,1.8387953607031293,0.5466501651289564,0.4396699937967844,-4.993535384182639,20.3
,,0.008431751407583014,0.006781646335355108,0.0002110033556949289,0.01542440109863305,1.8220308732583839,0.5466501651289564,0.4396699937967844,-4.993535384182639,20.4
,,0.006114888880881019,0.0031543807464124948,0.00023715123531804866,0.009506420862611564,1.8129910454617515,0.6432377620615003,0.3318158108083105,-5.7589630791436495,20.5
,,0.008431751407583014,0.006781646335355108,0.0002110033556949289,0.01542440109863305,1.8041580932315762,0.5466501651289564,0.4396699937967844,-4.993535384182639,20.6
,,0.00595842839310174,0.003067418807763373,0.00023393927956781398,0.009259786480432927,1.803093697811624,0.643473627139528,0.33126236919665564,-5.786918850266304,20.7
,,0.00595842839310174,0.003067418807763373,0.00023393927956781398,0.009259786480432927,1.8020293023916716,0.643473627139528,0.33126236919665564,-5.786918850266304,20.8
,,0.007515762821102409,0.006039789732063289,0.00021005870816472242,0.01376561126133042,1.79335514907626,0.5459810449693046,0.43875928336215086,-5.109386080213688,20.9
,,0.007515762821102409,0.006039789732063289,0.00021005870816472242,0.01376561126133042,1.7846809957608485,0.5459810449693046,0.43875928336215086,-5.109386080213688,21.0
,,0.007515762821102409,0.006039789732063289,0.00021005870816472242,0.01376561126133042,1.7760068424454372,0.5459810449693046,0.43875928336215086,-5.109386080213688,21.1
,,0.007515762821102409,0.006039789732063289,0.00021005870816472242,0.01376561126133042,1.7673326891300254,0.5459810449693046,0.43875928336215086,-5.109386080213688,21.2
,,0.007515762821102409,0.006039789732063289,0.00021005870816472242,0.01376561126133042,1.7586585358146136,0.5459810449693046,0.43875928336215086,-5.109386080213688,21.3
,,0.007515762821102409,0.006039789732063289,0.00021005870816472242,0.01376561126133042,1.750230796531112,0.5459810449693046,0.43875928336215086,-5.109386080213688,21.4
,,0.007223243350648338,0.005641176659939053,0.00023824072217814625,0.013102660732765538,1.7422038889823805,0.5512806519202113,0.430536726470547,-5.177662607583123,21.5
,,0.006931848772150298,0.005464479225120493,0.00022093429386051404,0.012617262291131305,1.734308301804437,0.5493940454121101,0.43309547658064335,-5.209486454644416,21.6
,,0.006931848772150298,0.005464479225120493,0.00022093429386051404,0.012617262291131305,1.7264127146264932,0.5493940454121101,0.43309547658064335,-5.209486454644416,21.7
,,0.006931848772150298,0.005464479225120493,0.00022093429386051404,0.012617262291131305,1.7185171274485496,0.5493940454121101,0.43309547658064335,-5.209486454644416,21.8
,,0.006931848772150298,0.005464479225120493,0.00022093429386051404,0.012617262291131305,1.7106215402706062,0.5493940454121101,0.43309547658064335,-5.209486454644416,21.9
,,0.006931848772150298,0.005464479225120493,0.00022093429386051404,0.012617262291131305,1.7030759141445664,0.5493940454121101,0.43309547658064335,-5.209486454644416,22.0
,,0.006931848772150298,0.005464479225120493,0.00022093429386051404,0.012617262291131305,1.6951803269666228,0.5493940454121101,0.43309547658064335,-5.209486454644416,22.1
,,0.006931848772150298,0.005464479225120493,0.00022093429386051404,0.012617262291131305,1.6796671273890271,0.5493940454121101,0.43309547658064335,-5.209486454644416,22.2
,,0.006650772511282493,0.005094513748740959,0.00022546275439036068,0.011970749014413811,1.664966017224889,0.5555853274740278,0.42558019908417816,-5.279591053811607,22.3
,,0.006650772511282493,0.005094513748740959,0.00022546275439036068,0.011970749014413811,1.6502649070607507,0.5555853274740278,0.42558019908417816,-5.279591053811607,22.4
,,0.006650772511282493,0.005094513748740959,0.00022546275439036068,0.011970749014413811,1.6355637968966126,0.5555853274740278,0.42558019908417816,-5.279591053811607,22.5
,,0.006650772511282493,0.005094513748740959,0.00022546275439036068,0.011970749014413811,1.6208626867324745,0.5555853274740278,0.42558019908417816,-5.279591053811607,22.6
,,0.006650772511282493,0.005094513748740959,0.00022546275439036068,0.011970749014413811,1.6061615765683361,0.5555853274740278,0.42558019908417816,-5.279591053811607,22.7
,,0.006650772511282493,0.005094513748740959,0.00022546275439036068,0.011970749014413811,1.591460466404198,0.5555853274740278,0.42558019908417816,-5.279591053811607,22.8
,,0.006650772511282493,0.005094513748740959,0.00022546275439036068,0.011970749014413811,1.5767593562400604,0.5555853274740278,0.42558019908417816,-5.279591053811607,22.9
,,0.006574034768700139,0.005021734803813305,0.0001981505772869422,0.011793920149800387,1.5706031914365162,0.5574087907328595,0.42579013084960543,-5.293979826528113,23.0
,,0.002284319064147549,0.002378140330846602,0.00021952435543612738,0.004881983750430278,1.5605740510404553,0.4679079613786544,0.48712581860539833,-6.041436470324079,23.1
,,0.002284319064147549,0.002378140330846602,0.00021952435543612738,0.004881983750430278,1.542867183990955,0.4679079613786544,0.48712581860539833,-6.041436470324079,23.2
,,0.002284319064147549,0.002378140330846602,0.00021952435543612738,0.004881983750430278,1.5251603169414543,0.4679079613786544,0.48712581860539833,-6.041436470324079,23.3
,,0.002284319064147549,0.002378140330846602,0.00021952435543612738,0.004881983750430278,1.507453449891954,0.4679079613786544,0.48712581860539833,-6.041436470324079,23.4
,,0.002284319064147549,0.002378140330846602,0.00021952435543612738,0.004881983750430278,1.4897465828424536,0.4679079613786544,0.48712581860539833,-6.041436470324079,23.5
,,0.002284319064147549,0.002378140330846602,0.00021952435543612738,0.004881983750430278,1.4806250045977938,0.4679079613786544,0.48712581860539833,-6.041436470324079,23.6
,,0.006648628182425104,0.004903285800728101,0.00020436683395932522,0.01175628081711253,1.4673115281825475,0.5655383948252845,0.4170779753398577,-5.317849727021052,23.7
,,0.006648628182425104,0.004903285800728101,0.00020436683395932522,0.01175628081711253,1.4626677111371265,0.5655383948252845,0.4170779753398577,-5.317849727021052,23.8
,,0.0066895953163566,0.004860445607374605,0.0002385849946798972,0.011788625918411103,1.458250339834975,0.5674618367446033,0.4122995878411677,-5.326625156512685,23.9
,,0.0066895953163566,0.004860445607374605,0.0002385849946798972,0.011788625918411103,1.4461030683438647,0.5674618367446033,0.4122995878411677,-5.326625156512685,24.0
,,0.0066895953163566,0.004860445607374605,0.0002385849946798972,0.011788625918411103,1.433955796852754,0.5674618367446033,0.4122995878411677,-5.326625156512685,24.1
,,0.0066895953163566,0.004860445607374605,0.0002385849946798972,0.011788625918411103,1.4218085253616433,0.5674618367446033,0.4122995878411677,-5.326625156512685,24.2
,,0.0066895953163566,0.004860445607374605,0.0002385849946798972,0.011788625918411103,1.4096612538705326,0.5674618367446033,0.4122995878411677,-5.326625156512685,24.3
,,0.006849431319446808,0.00493082549360352,0.00021104541310931928,0.011991302226159647,1.3976558783642352,0.5711999572910788,0.41120016830587997,-5.312248862022933,24.4
,,0.006849431319446808,0.00493082549360352,0.00021104541310931928,0.011991302226159647,1.3856505028579376,0.5711999572910788,0.41120016830587997,-5.312248862022933,24.5
,,0.006849431319446808,0.00493082549360352,0.00021104541310931928,0.011991302226159647,1.37364512735164,0.5711999572910788,0.41120016830587997,-5.312248862022933,24.6
,,0.005806007281473754,0.002665902470188522,0.00022640673131770704,0.008698316482979983,1.3797642413901172,0.6674863225354449,0.3064848784710122,-5.927212640719798,24.7
,,0.005806007281473754,0.002665902470188522,0.00022640673131770704,0.008698316482979983,1.3858833554285943,0.6674863225354449,0.3064848784710122,-5.927212640719798,24.8
,,0.005806007281473754,0.002665902470188522,0.00022640673131770704,0.008698316482979983,1.3920024694670716,0.6674863225354449,0.3064848784710122,-5.927212640719798,24.9
,,0.005806007281473754,0.002665902470188522,0.00022640673131770704,0.008698316482979983,1.3981215835055487,0.6674863225354449,0.3064848784710122,-5.927212640719798,25.0
,,0.006204536644960165,0.0028380756426632,0.0002057864064564909,0.009248398694079856,1.4043329251245646,0.6708768566532337,0.30687211230198447,-5.864629047088844,25.1
,,0.006204536644960165,0.0028380756426632,0.0002057864064564909,0.009248398694079856,1.4105442667435806,0.6708768566532337,0.30687211230198447,-5.864629047088844,25.2
,,0.006204536644960165,0.0028380756426632,0.0002057864064564909,0.009248398694079856,1.4167556083625963,0.6708768566532337,0.30687211230198447,-5.864629047088844,25.3
,,0.006204536644960165,0.0028380756426632,0.0002057864064564909,0.009248398694079856,1.4229669499816124,0.6708768566532337,0.30687211230198447,-5.864629047088844,25.4
,,0.007185342843721593,0.0052001139288448215,0.00025179165319932147,0.012637248425765737,1.420533885721947,0.5685844419321215,0.41149099500508773,-5.259074744241528,25.5
,,0.007185342843721593,0.0052001139288448215,0.00025179165319932147,0.012637248425765737,1.4188643791973286,0.5685844419321215,0.41149099500508773,-5.259074744241528,25.6
,,0.007185342843721593,0.0052001139288448215,0.00025179165319932147,0.012637248425765737,1.41719487267271,0.5685844419321215,0.41149099500508773,-5.259074744241528,25.7
,,0.007092895144277302,0.0032493043807490735,0.00021255454517801972,0.010554754070204396,1.4244268113487208,0.6720095131633841,0.3078522113482223,-5.729314342242206,25.8
,,0.007092895144277302,0.0032493043807490735,0.00021255454517801972,0.010554754070204396,1.431658750024732,0.6720095131633841,0.3078522113482223,-5.729314342242206,25.9
,,0.007092895144277302,0.0032493043807490735,0.00021255454517801972,0.010554754070204396,1.4388906887007427,0.6720095131633841,0.3078522113482223,-5.729314342242206,26.0
,,0.007092895144277302,0.0032493043807490735,0.00021255454517801972,0.010554754070204396,1.4461226273767538,0.6720095131633841,0.3078522113482223,-5.729314342242206,26.1
,,0.007092895144277302,0.0032493043807490735,0.00021255454517801972,0.010554754070204396,1.4542327980470975,0.6720095131633841,0.3078522113482223,-5.729314342242206,26.2
,,0.007545808738357166,0.003477261832963383,0.0002453484021028138,0.011268418973423363,1.4695502212277083,0.6696421881502634,0.30858471283012523,-5.661510124516865,26.3
,,0.007545808738357166,0.003477261832963383,0.0002453484021028138,0.011268418973423363,1.4775844814970909,0.6696421881502634,0.30858471283012523,-5.661510124516865,26.4
,,0.007974535854679853,0.005881422862010309,0.0002540417311491217,0.014110000447839284,1.4765725437705135,0.5651690716920581,0.41682655388653467,-5.13595656300976,26.5
,,0.007974535854679853,0.005881422862010309,0.0002540417311491217,0.014110000447839284,1.4755606060439361,0.5651690716920581,0.41682655388653467,-5.13595656300976,26.6
,,0.007974535854679853,0.005881422862010309,0.0002540417311491217,0.014110000447839284,1.474548668317359,0.5651690716920581,0.41682655388653467,-5.13595656300976,26.7
,,0.007974535854679853,0.005881422862010309,0.0002540417311491217,0.014110000447839284,1.4735367305907814,0.5651690716920581,0.41682655388653467,-5.13595656300976,26.8
,,0.007974535854679853,0.005881422862010309,0.0002540417311491217,0.014110000447839284,1.472524792864204,0.5651690716920581,0.41682655388653467,-5.13595656300976,26.9
,,0.007974535854679853,0.005881422862010309,0.0002540417311491217,0.014110000447839284,1.4722883416837513,0.5651690716920581,0.41682655388653467,-5.13595656300976,27.0
,,0.008380562469371316,0.006409150602580101,0.00026044684112019027,0.015050159913071607,1.4715450057051174,0.5568420879098098,0.4258526580181731,-5.050028528127912,27.1
,,0.008380562469371316,0.006409150602580101,0.00026044684112019027,0.015050159913071607,1.4708016697264832,0.5568420879098098,0.4258526580181731,-5.050028528127912,27.2
,,0.008380562469371316,0.006409150602580101,0.00026044684112019027,0.015050159913071607,1.4700583337478492,0.5568420879098098,0.4258526580181731,-5.050028528127912,27.3
,,0.008380562469371316,0.006409150602580101,0.00026044684112019027,0.015050159913071607,1.4693149977692148,0.5568420879098098,0.4258526580181731,-5.050028528127912,27.4
,,0.008380562469371316,0.006409150602580101,0.00026044684112019027,0.015050159913071607,1.4685716617905806,0.5568420879098098,0.4258526580181731,-5.050028528127912,27.5
,,0.008380562469371316,0.006409150602580101,0.00026044684112019027,0.015050159913071607,1.4678283258119467,0.5568420879098098,0.4258526580181731,-5.050028528127912,27.6
,,0.008380562469371316,0.006409150602580101,0.00026044684112019027,0.015050159913071607,1.4676139315654155,0.5568420879098098,0.4258526580181731,-5.050028528127912,27.7
,,0.00877282070515159,0.007007538894165104,0.0002653113507856963,0.01604567095010239,1.4667808539603642,0.5467406587379638,0.43672457923115937,-4.960768724578251,27.8
,,0.00877282070515159,0.007007538894165104,0.0002653113507856963,0.01604567095010239,1.465947776355313,0.5467406587379638,0.43672457923115937,-4.960768724578251,27.9
,,0.00877282070515159,0.007007538894165104,0.0002653113507856963,0.01604567095010239,1.4652613117747932,0.5467406587379638,0.43672457923115937,-4.960768724578251,28.0
,,0.00877282070515159,0.007007538894165104,0.0002653113507856963,0.01604567095010239,1.4645748471942734,0.5467406587379638,0.43672457923115937,-4.960768724578251,28.1
,,0.00877282070515159,0.007007538894165104,0.0002653113507856963,0.01604567095010239,1.4638883826137539,0.5467406587379638,0.43672457923115937,-4.960768724578251,28.2
,,0.00877282070515159,0.007007538894165104,0.0002653113507856963,0.01604567095010239,1.463201918033234,0.5467406587379638,0.43672457923115937,-4.960768724578251,28.3
,,0.00877282070515159,0.007007538894165104,0.0002653113507856963,0.01604567095010239,1.4625154534527143,0.5467406587379638,0.43672457923115937,-4.960768724578251,28.4
,,0.009144430455621258,0.007669535059950925,0.00026902812397704883,0.01708299363954923,1.4538578288425597,0.5352943780562428,0.44895732105144665,-4.870499283438893,28.5
,,0.009144430455621258,0.007669535059950925,0.00026902812397704883,0.01708299363954923,1.4452002042324046,0.5352943780562428,0.44895732105144665,-4.870499283438893,28.6
,,0.009144430455621258,0.007669535059950925,0.00026902812397704883,0.01708299363954923,1.4442891494862042,0.5352943780562428,0.44895732105144665,-4.870499283438893,28.7
,,0.009144430455621258,0.007669535059950925,0.00026902812397704883,0.01708299363954923,1.443352713066134,0.5352943780562428,0.44895732105144665,-4.870499283438893,28.8
,,0.009144430455621258,0.007669535059950925,0.00026902812397704883,0.01708299363954923,1.4424162766460638,0.5352943780562428,0.44895732105144665,-4.870499283438893,28.9
,,0.009144430455621258,0.007669535059950925,0.00026902812397704883,0.01708299363954923,1.4414798402259938,0.5352943780562428,0.44895732105144665,-4.870499283438893,29.0
,,0.009144430455621258,0.007669535059950925,0.00026902812397704883,0.01708299363954923,1.4405434038059235,0.5352943780562428,0.44895732105144665,-4.870499283438893,29.1
,,0.009449777902038275,0.008360925509945459,0.0002708951411033932,0.01808159855308713,1.4392868686733724,0.5226184993707254,0.4623996869191619,-4.784186151081812,29.2
,,0.009449777902038275,0.008360925509945459,0.0002708951411033932,0.01808159855308713,1.4380303335408209,0.5226184993707254,0.4623996869191619,-4.784186151081812,29.3
,,0.009449777902038275,0.008360925509945459,0.0002708951411033932,0.01808159855308713,1.43677379840827,0.5226184993707254,0.4623996869191619,-4.784186151081812,29.4
,,0.009449777902038275,0.008360925509945459,0.0002708951411033932,0.01808159855308713,1.4277926036276056,0.5226184993707254,0.4623996869191619,-4.784186151081812,29.5
,,0.009449777902038275,0.008360925509945459,0.0002708951411033932,0.01808159855308713,1.4265360684950545,0.5226184993707254,0.4623996869191619,-4.784186151081812,29.6
,,0.009449777902038275,0.008360925509945459,0.0002708951411033932,0.01808159855308713,1.4175109765522804,0.5226184993707254,0.4623996869191619,-4.784186151081812,29.7
,,0.009449777902038275,0.008360925509945459,0.0002708951411033932,0.01808159855308713,1.4084858846095063,0.5226184993707254,0.4623996869191619,-4.784186151081812,29.8
,,0.00962739608105085,0.009037531024309639,0.0002712677111687047,0.018936194816529195,1.4064958120814604,0.5084123908910781,0.47726225421069696,-4.706369258661139,29.9
,,0.00962739608105085,0.009037531024309639,0.0002712677111687047,0.018936194816529195,1.4045057395534146,0.5084123908910781,0.47726225421069696,-4.706369258661139,30.0
,,0.00962739608105085,0.009037531024309639,0.0002712677111687047,0.018936194816529195,1.4025156670253685,0.5084123908910781,0.47726225421069696,-4.706369258661139,30.1
,,0.00962739608105085,0.009037531024309639,0.0002712677111687047,0.018936194816529195,1.4005255944973227,0.5084123908910781,0.47726225421069696,-4.706369258661139,30.2
,,0.00962739608105085,0.009037531024309639,0.0002712677111687047,0.018936194816529195,1.3985355219692768,0.5084123908910781,0.47726225421069696,-4.706369258661139,30.3
,,0.00962739608105085,0.009037531024309639,0.0002712677111687047,0.018936194816529195,1.3965454494412308,0.5084123908910781,0.47726225421069696,-4.706369258661139,30.4
,,0.019801635879481416,0.011613670796648013,0.00034416884460140764,0.031759475520730836,1.401262987244504,0.6234874964026406,0.36567577411872715,-4.455572357823374,30.5
,,0.019801635879481416,0.011613670796648013,0.00034416884460140764,0.031759475520730836,1.4061129812785487,0.6234874964026406,0.36567577411872715,-4.455572357823374,30.6
,,0.009709385791069091,0.009683575415375697,0.0002724815337405653,0.019665442740185352,1.4031589442617678,0.4937283090620912,0.49241583539778605,-4.637324084798137,30.7
,,0.009709385791069091,0.009683575415375697,0.0002724815337405653,0.019665442740185352,1.4002049072449867,0.4937283090620912,0.49241583539778605,-4.637324084798137,30.8
,,0.009709385791069091,0.009683575415375697,0.0002724815337405653,0.019665442740185352,1.3972508702282058,0.4937283090620912,0.49241583539778605,-4.637324084798137,30.9
,,0.009709385791069091,0.009683575415375697,0.0002724815337405653,0.019665442740185352,1.394296833211425,0.4937283090620912,0.49241583539778605,-4.637324084798137,31.0
,,0.009709385791069091,0.009683575415375697,0.0002724815337405653,0.019665442740185352,1.3913427961946438,0.4937283090620912,0.49241583539778605,-4.637324084798137,31.1
,,0.005270707679118045,0.010350512948745767,0.0002368135270840318,0.015858034154947843,1.3829060536772506,0.3323682890084796,0.6526983639719504,-4.570719200233537,31.2
,,0.005270707679118045,0.010350512948745767,0.0002368135270840318,0.015858034154947843,1.3740587702520248,0.3323682890084796,0.6526983639719504,-4.570719200233537,31.3
,,0.005270707679118045,0.010350512948745767,0.0002368135270840318,0.015858034154947843,1.3652114868267988,0.3323682890084796,0.6526983639719504,-4.570719200233537,31.4
,,0.023692857624751276,0.014822162449766346,0.0004903998276170684,0.03900541990213469,1.368467016955006,0.6074247549237282,0.380002637760481,-4.211631755469424,31.5
,,0.023692857624751276,0.014822162449766346,0.0004903998276170684,0.03900541990213469,1.3717225470832135,0.6074247549237282,0.380002637760481,-4.211631755469424,31.6
,,0.023692857624751276,0.014822162449766346,0.0004903998276170684,0.03900541990213469,1.374978077211421,0.6074247549237282,0.380002637760481,-4.211631755469424,31.7
,,0.023692857624751276,0.014822162449766346,0.0004903998276170684,0.03900541990213469,1.3782336073396284,0.6074247549237282,0.380002637760481,-4.211631755469424,31.8
,,0.009975829980951874,0.011029811855182231,0.00024185790151205424,0.02124749973764616,1.3737776634865198,0.4695060644371617,0.5191110479526065,-4.50715350341595,31.9
,,0.009975829980951874,0.011029811855182231,0.00024185790151205424,0.02124749973764616,1.3692812875578835,0.4695060644371617,0.5191110479526065,-4.50715350341595,32.0
,,0.009975829980951874,0.011029811855182231,0.00024185790151205424,0.02124749973764616,1.3686578872217645,0.4695060644371617,0.5191110479526065,-4.50715350341595,32.1
,,0.009975829980951874,0.011029811855182231,0.00024185790151205424,0.02124749973764616,1.3680344868856456,0.4695060644371617,0.5191110479526065,-4.50715350341595,32.2
,,0.009802938624028975,0.011047839418306227,0.0002846032852318794,0.02113538132756708,1.367220806760175,0.46381650144361997,0.5227177710721701,-4.5055203978915115,32.3
,,0.009802938624028975,0.011047839418306227,0.0002846032852318794,0.02113538132756708,1.3664071266347044,0.46381650144361997,0.5227177710721701,-4.5055203978915115,32.4
,,0.009802938624028975,0.011047839418306227,0.0002846032852318794,0.02113538132756708,1.3655934465092336,0.46381650144361997,0.5227177710721701,-4.5055203978915115,32.5
,,0.00993488285699252,0.011722082300136659,0.0002823791868334594,0.021939344343962636,1.3643377486764545,0.45283408205981523,0.5342950143066784,-4.446280839954708,32.6
,,0.00993488285699252,0.011722082300136659,0.0002823791868334594,0.021939344343962636,1.3586886602094208,0.45283408205981523,0.5342950143066784,-4.446280839954708,32.7
,,0.00993488285699252,0.011722082300136659,0.0002823791868334594,0.021939344343962636,1.3530395717423875,0.45283408205981523,0.5342950143066784,-4.446280839954708,32.8
,,0.00993488285699252,0.011722082300136659,0.0002823791868334594,0.021939344343962636,1.3471640375320841,0.45283408205981523,0.5342950143066784,-4.446280839954708,32.9
,,0.00993488285699252,0.011722082300136659,0.0002823791868334594,0.021939344343962636,1.3412885033217812,0.45283408205981523,0.5342950143066784,-4.446280839954708,33.0
,,0.009867871833041041,0.011758858831053287,0.0002977241588318079,0.021924454822926136,1.3353201970273525,0.4500851634733616,0.5363352897950827,-4.443148379395906,33.1
,,0.0099213632445335,0.01242099130249845,0.00029643304678545596,0.022638787593817405,1.328902686106322,0.4382462268979015,0.5486597394416382,-4.388367390645875,33.2
,,0.0099213632445335,0.01242099130249845,0.00029643304678545596,0.022638787593817405,1.3224851751852915,0.4382462268979015,0.5486597394416382,-4.388367390645875,33.3
,,0.0099213632445335,0.01242099130249845,0.00029643304678545596,0.022638787593817405,1.315925768279448,0.4382462268979015,0.5486597394416382,-4.388367390645875,33.4
,,0.0099213632445335,0.01242099130249845,0.00029643304678545596,0.022638787593817405,1.3093663613736044,0.4382462268979015,0.5486597394416382,-4.388367390645875,33.5
,,0.0099213632445335,0.01242099130249845,0.00029643304678545596,0.022638787593817405,1.302806954467761,0.4382462268979015,0.5486597394416382,-4.388367390645875,33.6
,,0.0099213632445335,0.01242099130249845,0.00029643304678545596,0.022638787593817405,1.2874834090419174,0.4382462268979015,0.5486597394416382,-4.388367390645875,33.7
,,0.0335857889412955,0.024402600418183523,0.0008091010685599623,0.05879749042803898,1.2785772226697822,0.571211265936604,0.4150279245004403,-3.713065577845923,33.8
,,0.009851627428799217,0.012988105436180612,0.00031296744668942784,0.023152700311669258,1.2628064966071906,0.42550662757181157,0.560975837001373,-4.343721306805547,33.9
,,0.009851627428799217,0.012988105436180612,0.00031296744668942784,0.023152700311669258,1.247035770544599,0.42550662757181157,0.560975837001373,-4.343721306805547,34.0
,,0.009851627428799217,0.012988105436180612,0.00031296744668942784,0.023152700311669258,1.2311728169014684,0.42550662757181157,0.560975837001373,-4.343721306805547,34.1
,,0.009851627428799217,0.012988105436180612,0.00031296744668942784,0.023152700311669258,1.215309863258338,0.42550662757181157,0.560975837001373,-4.343721306805547,34.2
,,0.009851627428799217,0.012988105436180612,0.00031296744668942784,0.023152700311669258,1.1994469096152076,0.42550662757181157,0.560975837001373,-4.343721306805547,34.3
,,0.009851627428799217,0.012988105436180612,0.00031296744668942784,0.023152700311669258,1.1835839559720773,0.42550662757181157,0.560975837001373,-4.343721306805547,34.4
,,0.009851627428799217,0.012988105436180612,0.00031296744668942784,0.023152700311669258,1.1766589013059714,0.42550662757181157,0.560975837001373,-4.343721306805547,34.5
,,0.00978960057423134,0.01344705353722373,0.00033484456609907625,0.023571498677554144,1.1693949502008005,0.4153151527676704,0.5704793624356447,-4.308995264797566,34.6
,,0.00978960057423134,0.01344705353722373,0.00033484456609907625,0.023571498677554144,1.1621309990956292,0.4153151527676704,0.5704793624356447,-4.308995264797566,34.7
,,0.00978960057423134,0.01344705353722373,0.00033484456609907625,0.023571498677554144,1.1459656027898288,0.4153151527676704,0.5704793624356447,-4.308995264797566,34.8
,,0.00978960057423134,0.01344705353722373,0.00033484456609907625,0.023571498677554144,1.1298002064840285,0.4153151527676704,0.5704793624356447,-4.308995264797566,34.9
,,0.00978960057423134,0.01344705353722373,0.00033484456609907625,0.023571498677554144,1.1136348101782279,0.4153151527676704,0.5704793624356447,-4.308995264797566,35.0
,,0.00978960057423134,0.01344705353722373,0.00033484456609907625,0.023571498677554144,1.0974694138724275,0.4153151527676704,0.5704793624356447,-4.308995264797566,35.1
,,0.00965805779165883,0.014019509964826081,0.0003094365472792486,0.023987004303764162,1.0808694665876586,0.4026370975446583,0.5844627277040205,-4.267305350566714,35.2
,,0.00987045983420799,0.013948998918637654,0.0003648058722569973,0.024184264625102644,1.0646202146509904,0.4081356198841253,0.5767799490648541,-4.272347535394613,35.3
,,0.00987045983420799,0.013948998918637654,0.0003648058722569973,0.024184264625102644,1.048370962714322,0.4081356198841253,0.5767799490648541,-4.272347535394613,35.4
,,0.00987045983420799,0.013948998918637654,0.0003648058722569973,0.024184264625102644,1.0411679087736136,0.4081356198841253,0.5767799490648541,-4.272347535394613,35.5
,,0.00987045983420799,0.013948998918637654,0.0003648058722569973,0.024184264625102644,1.0339648548329055,0.4081356198841253,0.5767799490648541,-4.272347535394613,35.6
,,0.00987045983420799,0.013948998918637654,0.0003648058722569973,0.024184264625102644,1.026761800892197,0.4081356198841253,0.5767799490648541,-4.272347535394613,35.7
,,0.00987045983420799,0.013948998918637654,0.0003648058722569973,0.024184264625102644,1.0195587469514884,0.4081356198841253,0.5767799490648541,-4.272347535394613,35.8
,,0.009718942102217661,0.01447949453195947,0.0003405293291446279,0.02453896596332176,1.011951364850937,0.3960615992028557,0.5900613152812503,-4.235021800647714,35.9
,,0.010090566030604617,0.014463532509713746,0.0004036417593581822,0.024957740299676547,1.0046377007416323,0.40430607536754404,0.5795209155975228,-4.236124796809175,36.0
,,0.010090566030604617,0.014463532509713746,0.0004036417593581822,0.024957740299676547,0.9978606162559602,0.40430607536754404,0.5795209155975228,-4.236124796809175,36.1
,,0.010090566030604617,0.014463532509713746,0.0004036417593581822,0.024957740299676547,0.9910835317702881,0.40430607536754404,0.5795209155975228,-4.236124796809175,36.2
,,0.010090566030604617,0.014463532509713746,0.0004036417593581822,0.024957740299676547,0.9843064472846159,0.40430607536754404,0.5795209155975228,-4.236124796809175,36.3
,,0.010090566030604617,0.014463532509713746,0.0004036417593581822,0.024957740299676547,0.977529362798944,0.40430607536754404,0.5795209155975228,-4.236124796809175,36.4
,,0.009978590703151201,0.014985857662540528,0.0003797613075795777,0.025344209673271306,0.9703990723750768,0.3937227016265926,0.5912931535736552,-4.200648345113916,36.5
,,0.009978590703151201,0.014985857662540528,0.0003797613075795777,0.025344209673271306,0.9632687819512095,0.3937227016265926,0.5912931535736552,-4.200648345113916,36.6
,,0.009978590703151201,0.014985857662540528,0.0003797613075795777,0.025344209673271306,0.9561384915273425,0.3937227016265926,0.5912931535736552,-4.200648345113916,36.7
,,0.03808336603800427,0.03344323813892017,0.0013811064442418822,0.07290771062116633,0.9548810977444916,0.5223503208856489,0.45870646402125587,-3.397905661155922,36.8
,,0.03808336603800427,0.03344323813892017,0.0013811064442418822,0.07290771062116633,0.9536237039616406,0.5223503208856489,0.45870646402125587,-3.397905661155922,36.9
,,0.03808336603800427,0.03344323813892017,0.0013811064442418822,0.07290771062116633,0.9523663101787896,0.5223503208856489,0.45870646402125587,-3.397905661155922,37.0
,,0.03808336603800427,0.03344323813892017,0.0013811064442418822,0.07290771062116633,0.9511089163959384,0.5223503208856489,0.45870646402125587,-3.397905661155922,37.1
,,0.03781643377705195,0.034701998598320835,0.0013042972122570258,0.07382272958762981,0.9493070963444417,0.5122600314062175,0.4700720061716021,-3.360957997194542,37.2
,,0.03781643377705195,0.034701998598320835,0.0013042972122570258,0.07382272958762981,0.9475052762929445,0.5122600314062175,0.4700720061716021,-3.360957997194542,37.3
,,0.03781643377705195,0.034701998598320835,0.0013042972122570258,0.07382272958762981,0.9457034562414474,0.5122600314062175,0.4700720061716021,-3.360957997194542,37.4
,,0.011103492776576776,0.015753915099406185,0.0005056818938990703,0.02736308976988203,0.9402868202111818,0.4057835891324727,0.5757359725050561,-4.150666366860747,37.5
,,0.011103492776576776,0.015753915099406185,0.0005056818938990703,0.02736308976988203,0.9348701841809166,0.4057835891324727,0.5757359725050561,-4.150666366860747,37.6
,,0.011103492776576776,0.015753915099406185,0.0005056818938990703,0.02736308976988203,0.9294535481506512,0.4057835891324727,0.5757359725050561,-4.150666366860747,37.7
,,0.011194098366724234,0.01638503480148617,0.0004750648188719979,0.0280541979870824,0.9237967112806784,0.39901687340620373,0.584049303745225,-4.111386872849106,37.8
,,0.011194098366724234,0.01638503480148617,0.0004750648188719979,0.0280541979870824,0.918139874410706,0.39901687340620373,0.584049303745225,-4.111386872849106,37.9
,,0.011194098366724234,0.01638503480148617,0.0004750648188719979,0.0280541979870824,0.9124830375407333,0.39901687340620373,0.584049303745225,-4.111386872849106,38.0
,,0.011194098366724234,0.01638503480148617,0.0004750648188719979,0.0280541979870824,0.9068262006707608,0.39901687340620373,0.584049303745225,-4.111386872849106,38.1
,,0.01188490240334054,0.01657922775707063,0.0005652256770399353,0.029029355837451108,0.9022331331311856,0.40940978745410844,0.5711193817012493,-4.099604707134712,38.2
,,0.01188490240334054,0.01657922775707063,0.0005652256770399353,0.029029355837451108,0.8976400655916102,0.40940978745410844,0.5711193817012493,-4.099604707134712,38.3
,,0.01188490240334054,0.01657922775707063,0.0005652256770399353,0.029029355837451108,0.8930469980520352,0.40940978745410844,0.5711193817012493,-4.099604707134712,38.4
,,0.01210606542746602,0.017287408180123916,0.0005682272197117264,0.029961700827301662,0.8882697889981519,0.40405134198639175,0.576983539077705,-4.057776893350331,38.5
,,0.01210606542746602,0.017287408180123916,0.0005682272197117264,0.029961700827301662,0.8834925799442688,0.40405134198639175,0.576983539077705,-4.057776893350331,38.6
,,0.01210606542746602,0.017287408180123916,0.0005682272197117264,0.029961700827301662,0.8787153708903856,0.40405134198639175,0.576983539077705,-4.057776893350331,38.7
,,0.012668245780891972,0.017428921810105653,0.0006143670156999747,0.0307115346066976,0.8742333804982425,0.4124914610463415,0.567504100114383,-4.049624279647753,38.8
,,0.012973703424719436,0.017740428557324262,0.0006330556470390747,0.03134718762908277,0.8705227008433823,0.41387136792721113,0.5659336578208803,-4.031909144707926,38.9
,,0.012973703424719436,0.017740428557324262,0.0006330556470390747,0.03134718762908277,0.8668120211885221,0.41387136792721113,0.5659336578208803,-4.031909144707926,39.0
,,0.007250522635503798,0.018540357750586434,0.0006346527998789127,0.026425533185969144,0.8593208950158188,0.27437564209124543,0.7016077072166926,-3.987805422882461,39.1
,,0.007250522635503798,0.018540357750586434,0.0006346527998789127,0.026425533185969144,0.8518297688431152,0.27437564209124543,0.7016077072166926,-3.987805422882461,39.2
,,0.007250522635503798,0.018540357750586434,0.0006346527998789127,0.026425533185969144,0.8443386426704118,0.27437564209124543,0.7016077072166926,-3.987805422882461,39.3
,,0.007250522635503798,0.018540357750586434,0.0006346527998789127,0.026425533185969144,0.8368475164977083,0.27437564209124543,0.7016077072166926,-3.987805422882461,39.4
,,0.007250522635503798,0.018540357750586434,0.0006346527998789127,0.026425533185969144,0.8222479482589159,0.27437564209124543,0.7016077072166926,-3.987805422882461,39.5
,,0.007250522635503798,0.018540357750586434,0.0006346527998789127,0.026425533185969144,0.8076483800201236,0.27437564209124543,0.7016077072166926,-3.987805422882461,39.6
,,0.014258022693030574,0.01918477028501353,0.0007020320023035011,0.034144824980347606,0.8047653742952867,0.41757492390829126,0.5618646543379712,-3.9536385290315534,39.7
,,0.014846508678060548,0.02022772455205656,0.000706847781568762,0.035781081011685874,0.8017798512631136,0.4149262196190152,0.5653189892572087,-3.9007011130186453,39.8
,,0.014846508678060548,0.02022772455205656,0.000706847781568762,0.035781081011685874,0.7987943282309405,0.4149262196190152,0.5653189892572087,-3.9007011130186453,39.9
,,0.014846508678060548,0.02022772455205656,0.000706847781568762,0.035781081011685874,0.7958088051987673,0.4149262196190152,0.5653189892572087,-3.9007011130186453,40.0
,,0.014846508678060548,0.02022772455205656,0.000706847781568762,0.035781081011685874,0.7928232821665944,0.4149262196190152,0.5653189892572087,-3.9007011130186453,40.1
,,0.014846508678060548,0.02022772455205656,0.000706847781568762,0.035781081011685874,0.7953204646350334,0.4149262196190152,0.5653189892572087,-3.9007011130186453,40.2
,,0.014846508678060548,0.02022772455205656,0.000706847781568762,0.035781081011685874,0.7978176471034726,0.4149262196190152,0.5653189892572087,-3.9007011130186453,40.3
,,0.01629442644344867,0.02200814422593575,0.0007634116306093036,0.03906598229999372,0.8003860891302677,0.41710013377677924,0.5633582705519038,-3.816342702040018,40.4
,,0.01629442644344867,0.02200814422593575,0.0007634116306093036,0.03906598229999372,0.7908517176036294,0.41710013377677924,0.5633582705519038,-3.816342702040018,40.5
,,0.01629442644344867,0.02200814422593575,0.0007634116306093036,0.03906598229999372,0.7813173460769909,0.41710013377677924,0.5633582705519038,-3.816342702040018,40.6
,,0.01629442644344867,0.02200814422593575,0.0007634116306093036,0.03906598229999372,0.7717829745503525,0.41710013377677924,0.5633582705519038,-3.816342702040018,40.7
,,0.01629442644344867,0.02200814422593575,0.0007634116306093036,0.03906598229999372,0.7622486030237144,0.41710013377677924,0.5633582705519038,-3.816342702040018,40.8
,,0.01629442644344867,0.02200814422593575,0.0007634116306093036,0.03906598229999372,0.7604257054783921,0.41710013377677924,0.5633582705519038,-3.816342702040018,40.9
,,0.017039654109979596,0.023210582986212317,0.0006675067763274732,0.04091774387251938,0.7585333779456361,0.4164367948308004,0.5672498234146456,-3.7631469411218688,41.0
,,0.01743081371383605,0.023576924927857405,0.0007937311836851072,0.04180146982537856,0.7566986471748558,0.41699045001650714,0.564021433369392,-3.747486802561224,41.1
,,0.01743081371383605,0.023576924927857405,0.0007937311836851072,0.04180146982537856,0.7548639164040754,0.41699045001650714,0.564021433369392,-3.747486802561224,41.2
,,0.01743081371383605,0.023576924927857405,0.0007937311836851072,0.04180146982537856,0.7532194654226465,0.41699045001650714,0.564021433369392,-3.747486802561224,41.3
,,0.01743081371383605,0.023576924927857405,0.0007937311836851072,0.04180146982537856,0.7515750144412175,0.41699045001650714,0.564021433369392,-3.747486802561224,41.4
,,0.01743081371383605,0.023576924927857405,0.0007937311836851072,0.04180146982537856,0.7499305634597888,0.41699045001650714,0.564021433369392,-3.747486802561224,41.5
,,0.018200987316114622,0.024870036598618427,0.000680403077876013,0.04375142699260907,0.7486451005902672,0.4160089982708294,0.5684394386226471,-3.694091549570865,41.6
,,0.018200987316114622,0.024870036598618427,0.000680403077876013,0.04375142699260907,0.7473596377207457,0.4160089982708294,0.5684394386226471,-3.694091549570865,41.7
,,0.018200987316114622,0.024870036598618427,0.000680403077876013,0.04375142699260907,0.7460741748512241,0.4160089982708294,0.5684394386226471,-3.694091549570865,41.8
,,0.018335981038218402,0.025128758382729197,0.0008074325896740765,0.044272172010621676,0.7447646800803261,0.41416493037249846,0.5675971437927275,-3.6837423364176662,41.9
,,0.018335981038218402,0.025128758382729197,0.0008074325896740765,0.044272172010621676,0.7434551853094283,0.41416493037249846,0.5675971437927275,-3.6837423364176662,42.0
,,0.018335981038218402,0.025128758382729197,0.0008074325896740765,0.044272172010621676,0.7422384626226558,0.41416493037249846,0.5675971437927275,-3.6837423364176662,42.1
,,0.019028173101157994,0.02640305128769096,0.000790575554825032,0.046221799943673994,0.7413709412069066,0.411670967473049,0.5712250782069453,-3.6342756964294107,42.2
,,0.019028173101157994,0.02640305128769096,0.000790575554825032,0.046221799943673994,0.7405034197911577,0.411670967473049,0.5712250782069453,-3.6342756964294107,42.3
,,0.019028173101157994,0.02640305128769096,0.000790575554825032,0.046221799943673994,0.7396358983754087,0.411670967473049,0.5712250782069453,-3.6342756964294107,42.4
,,0.018780046704381242,0.026319055223550387,0.0007936036104430462,0.04589270553837468,0.7386891812584737,0.40921637728849297,0.573491035553414,-3.637462068931052,42.5
,,0.018172847133395887,0.02325165855457866,0.0008353338967585362,0.04225983958473308,0.7384982292063464,0.430026410700363,0.5502069762465124,-3.7613788138122377,42.6
,,0.018172847133395887,0.02325165855457866,0.0008353338967585362,0.04225983958473308,0.7383072771542192,0.430026410700363,0.5502069762465124,-3.7613788138122377,42.7
,,0.019561529982482825,0.027888281524095355,0.000780974122080064,0.04823078562865824,0.7308084397986812,0.40558182346628757,0.5782257361266042,-3.579548695444202,42.8
,,0.019561529982482825,0.027888281524095355,0.000780974122080064,0.04823078562865824,0.7301741421335997,0.40558182346628757,0.5782257361266042,-3.579548695444202,42.9
,,0.019561529982482825,0.027888281524095355,0.000780974122080064,0.04823078562865824,0.729539844468518,0.40558182346628757,0.5782257361266042,-3.579548695444202,43.0
,,0.019561529982482825,0.027888281524095355,0.000780974122080064,0.04823078562865824,0.7289055468034368,0.40558182346628757,0.5782257361266042,-3.579548695444202,43.1
,,0.019561529982482825,0.027888281524095355,0.000780974122080064,0.04823078562865824,0.7282712491383552,0.40558182346628757,0.5782257361266042,-3.579548695444202,43.2
,,0.019561529982482825,0.027888281524095355,0.000780974122080064,0.04823078562865824,0.7276369514732736,0.40558182346628757,0.5782257361266042,-3.579548695444202,43.3
,,0.01970857313073854,0.029121391994281664,0.0007516543773266226,0.04958161950234683,0.7267287463373285,0.39749756721451346,0.5873424927740263,-3.5362822547947004,43.4
,,0.01970857313073854,0.029121391994281664,0.0007516543773266226,0.04958161950234683,0.7258205412013834,0.39749756721451346,0.5873424927740263,-3.5362822547947004,43.5
,,0.01970857313073854,0.029121391994281664,0.0007516543773266226,0.04958161950234683,0.7252512325045035,0.39749756721451346,0.5873424927740263,-3.5362822547947004,43.6
,,0.01970857313073854,0.029121391994281664,0.0007516543773266226,0.04958161950234683,0.7246819238076239,0.39749756721451346,0.5873424927740263,-3.5362822547947004,43.7
,,0.01970857313073854,0.029121391994281664,0.0007516543773266226,0.04958161950234683,0.724112615110744,0.39749756721451346,0.5873424927740263,-3.5362822547947004,43.8
,,0.01970857313073854,0.029121391994281664,0.0007516543773266226,0.04958161950234683,0.7235433064138642,0.39749756721451346,0.5873424927740263,-3.5362822547947004,43.9
,,0.019368280513474306,0.029664830223007158,0.0007015820037311914,0.04973469274021265,0.722708783935512,0.38943199296804365,0.5964615158670088,-3.517793102429416,44.0
,,0.019402824183370894,0.029822491798795297,0.0007038101005430035,0.04992912608270919,0.7218487795068902,0.38860732613724297,0.597296490817672,-3.512492411808788,44.1
,,0.019402824183370894,0.029822491798795297,0.0007038101005430035,0.04992912608270919,0.7214233260572366,0.38860732613724297,0.597296490817672,-3.512492411808788,44.2
,,0.019402824183370894,0.029822491798795297,0.0007038101005430035,0.04992912608270919,0.7207899905531968,0.38860732613724297,0.597296490817672,-3.512492411808788,44.3
,,0.019402824183370894,0.029822491798795297,0.0007038101005430035,0.04992912608270919,0.7201566550491573,0.38860732613724297,0.597296490817672,-3.512492411808788,44.4
,,0.019402824183370894,0.029822491798795297,0.0007038101005430035,0.04992912608270919,0.7195233195451174,0.38860732613724297,0.597296490817672,-3.512492411808788,44.5
,,0.019508205077820258,0.030610571353556815,0.0005358192865450595,0.050654595717922135,0.7187421223112693,0.3851221157988247,0.6042999834411169,-3.486409860614017,44.6
,,0.019508205077820258,0.030610571353556815,0.0005358192865450595,0.050654595717922135,0.7179609250774213,0.3851221157988247,0.6042999834411169,-3.486409860614017,44.7
,,0.015015033859200947,0.024304939427359024,0.0005955928425049979,0.03991556612906497,0.7169627742873145,0.3761698834647765,0.6089087988573237,-3.7170756806763023,44.8
,,0.015015033859200947,0.024304939427359024,0.0005955928425049979,0.03991556612906497,0.7163689516570506,0.3761698834647765,0.6089087988573237,-3.7170756806763023,44.9
,,0.015015033859200947,0.024304939427359024,0.0005955928425049979,0.03991556612906497,0.7154814110355404,0.3761698834647765,0.6089087988573237,-3.7170756806763023,45.0
,,0.015015033859200947,0.024304939427359024,0.0005955928425049979,0.03991556612906497,0.7145938704140301,0.3761698834647765,0.6089087988573237,-3.7170756806763023,45.1
,,0.018349153866739906,0.03017815353302124,0.00047046966824218863,0.04899777706800334,0.7135980038600885,0.37448951696876714,0.6159086256329016,-3.5006370093225585,45.2
,,0.018349153866739906,0.03017815353302124,0.00047046966824218863,0.04899777706800334,0.7126021373061469,0.37448951696876714,0.6159086256329016,-3.5006370093225585,45.3
,,0.01377835368487035,0.023907128845908603,0.0005230275226265665,0.038208510053405524,0.7112540544050366,0.360609551788641,0.6257016777804912,-3.7335785864492426,45.4
,,0.017393952701664855,0.02929698514272902,0.0005621768053599793,0.047253114649753854,0.7104523230573346,0.3681017183859956,0.6200011440490649,-3.5302706644058808,45.5
,,0.017393952701664855,0.02929698514272902,0.0005621768053599793,0.047253114649753854,0.7096505917096325,0.3681017183859956,0.6200011440490649,-3.5302706644058808,45.6
,,0.017393952701664855,0.02929698514272902,0.0005621768053599793,0.047253114649753854,0.7088488603619305,0.3681017183859956,0.6200011440490649,-3.5302706644058808,45.7
,,0.017393952701664855,0.02929698514272902,0.0005621768053599793,0.047253114649753854,0.7027929157317327,0.3681017183859956,0.6200011440490649,-3.5302706644058808,45.8
,,0.016977142224102976,0.029267832667038363,0.00041036651704172194,0.04665534140818306,0.6965853057993326,0.3638842137188881,0.6273200834814803,-3.5312662272433926,45.9
,,0.016977142224102976,0.029267832667038363,0.00041036651704172194,0.04665534140818306,0.6903776958669325,0.3638842137188881,0.6273200834814803,-3.5312662272433926,46.0
,,0.016977142224102976,0.029267832667038363,0.00041036651704172194,0.04665534140818306,0.6841700859345325,0.3638842137188881,0.6273200834814803,-3.5312662272433926,46.1
,,0.016058485888758453,0.02836957851568922,0.0004921854631416652,0.044920249867589336,0.6783511745405636,0.35748879260675936,0.6315543346110886,-3.5624378869622846,46.2
,,0.016058485888758453,0.02836957851568922,0.0004921854631416652,0.044920249867589336,0.6725322631465948,0.35748879260675936,0.6315543346110886,-3.5624378869622846,46.3
,,0.016058485888758453,0.02836957851568922,0.0004921854631416652,0.044920249867589336,0.6667133517526259,0.35748879260675936,0.6315543346110886,-3.5624378869622846,46.4
,,0.016058485888758453,0.02836957851568922,0.0004921854631416652,0.044920249867589336,0.6651715463292279,0.35748879260675936,0.6315543346110886,-3.5624378869622846,46.5
,,0.016058485888758453,0.02836957851568922,0.0004921854631416652,0.044920249867589336,0.6636297409058299,0.35748879260675936,0.6315543346110886,-3.5624378869622846,46.6
,,0.015798875977318366,0.028485234526815895,0.000364024475203617,0.04464813497933788,0.6619611342984872,0.3538529881400358,0.6379938275136957,-3.558369412739249,46.7
,,0.015798875977318366,0.028485234526815895,0.000364024475203617,0.04464813497933788,0.6605327285308515,0.3538529881400358,0.6379938275136957,-3.558369412739249,46.8
,,0.015798875977318366,0.028485234526815895,0.000364024475203617,0.04464813497933788,0.6591043227632158,0.3538529881400358,0.6379938275136957,-3.558369412739249,46.9
,,0.015133514959266514,0.027912181951053217,0.00044367813680617194,0.043489375047125904,0.6575375757076707,0.3479818908151141,0.6418161199329043,-3.578692056379544,47.0
,,0.015133514959266514,0.027912181951053217,0.00044367813680617194,0.043489375047125904,0.6559708286521254,0.3479818908151141,0.6418161199329043,-3.578692056379544,47.1
,,0.015133514959266514,0.027912181951053217,0.00044367813680617194,0.043489375047125904,0.6540300303486141,0.3479818908151141,0.6418161199329043,-3.578692056379544,47.2
,,0.015133514959266514,0.027912181951053217,0.00044367813680617194,0.043489375047125904,0.6520892320451026,0.3479818908151141,0.6418161199329043,-3.578692056379544,47.3
,,0.0148859890453964,0.027980156240851317,0.0003307001906875831,0.043196845476935294,0.6500355043312964,0.3446082435196498,0.6477361004472227,-3.5762597257414033,47.4
,,0.0148859890453964,0.027980156240851317,0.0003307001906875831,0.043196845476935294,0.648165918131798,0.3446082435196498,0.6477361004472227,-3.5762597257414033,47.5
,,0.0148859890453964,0.027980156240851317,0.0003307001906875831,0.043196845476935294,0.6462963319322996,0.3446082435196498,0.6477361004472227,-3.5762597257414033,47.6
,,0.014377152673999988,0.027493179107180493,0.00040598076056872157,0.0422763125417492,0.6443258095721867,0.34007584412197955,0.6503211243892217,-3.593817337540915,47.7
,,0.0148859890453964,0.027980156240851317,0.0003307001906875831,0.043196845476935294,0.6421610047109481,0.3446082435196498,0.6477361004472227,-3.5762597257414033,47.8
,,0.014471128495241434,0.027722926078042637,0.00040975139818418395,0.042603805971468255,0.6398352732178877,0.3396675054086187,0.6507147764359049,-3.585495551860381,47.9
,,0.014471128495241434,0.027722926078042637,0.00040975139818418395,0.042603805971468255,0.6375095417248272,0.3396675054086187,0.6507147764359049,-3.585495551860381,48.0
,,0.014471128495241434,0.027722926078042637,0.00040975139818418395,0.042603805971468255,0.6389642567496101,0.3396675054086187,0.6507147764359049,-3.585495551860381,48.1
,,0.011203260631643232,0.02421917966613677,0.00031846602749069505,0.035740906325270695,0.6397588235172988,0.313457653526876,0.6776319393168981,-3.720610411532498,48.2
,,0.011203260631643232,0.02421917966613677,0.00031846602749069505,0.035740906325270695,0.6405533902849875,0.313457653526876,0.6776319393168981,-3.720610411532498,48.3
,,0.011203260631643232,0.02421917966613677,0.00031846602749069505,0.035740906325270695,0.6413479570526761,0.313457653526876,0.6776319393168981,-3.720610411532498,48.4
,,0.013909529768623103,0.02735732880577446,0.00038345154358563705,0.041650310117983196,0.642652088783689,0.33395981276541414,0.6568337361301541,-3.598770822361932,48.5
,,0.011531578056694717,0.02471716341665657,0.000400339944235461,0.03664908141758675,0.6434906920133308,0.31464848805626744,0.6744279108942571,-3.7002574014938907,48.6
,,0.011531578056694717,0.02471716341665657,0.000400339944235461,0.03664908141758675,0.6404167637798429,0.31464848805626744,0.6744279108942571,-3.7002574014938907,48.7
,,0.011531578056694717,0.02471716341665657,0.000400339944235461,0.03664908141758675,0.6374453528536912,0.31464848805626744,0.6744279108942571,-3.7002574014938907,48.8
,,0.013807961743950468,0.02749131542715159,0.0003032759005672516,0.04160255307166931,0.6348708863322472,0.3319017878581465,0.6608083734618861,-3.593885126834802,48.9
,,0.013807961743950468,0.02749131542715159,0.0003032759005672516,0.04160255307166931,0.6322964198108032,0.3319017878581465,0.6608083734618861,-3.593885126834802,49.0
,,0.013807961743950468,0.02749131542715159,0.0003032759005672516,0.04160255307166931,0.6297219532893592,0.3319017878581465,0.6608083734618861,-3.593885126834802,49.1
,,0.013807961743950468,0.02749131542715159,0.0003032759005672516,0.04160255307166931,0.6271474867679153,0.3319017878581465,0.6608083734618861,-3.593885126834802,49.2
,,0.013608764732839236,0.02717996308459125,0.0003727440003024851,0.04116147181773297,0.6245555174768969,0.33061900199050653,0.6603253451418547,-3.6052752284428706,49.3
,,0.013737091385617732,0.027426547217858054,0.0003794245505663599,0.041543063154042145,0.6218942592161775,0.33067112395348514,0.660195593092404,-3.5962438580819,49.4
,,0.013737091385617732,0.027426547217858054,0.0003794245505663599,0.041543063154042145,0.6192330009554582,0.33067112395348514,0.660195593092404,-3.5962438580819,49.5
,,0.013737091385617732,0.027426547217858054,0.0003794245505663599,0.041543063154042145,0.6165717426947389,0.33067112395348514,0.660195593092404,-3.5962438580819,49.6
,,0.013736291613343181,0.027533440295822154,0.0003090054016786246,0.04157873731084396,0.6138885558915248,0.330368176182221,0.6622000107887183,-3.5923540022947047,49.7
,,0.013736291613343181,0.027533440295822154,0.0003090054016786246,0.04157873731084396,0.6112053690883106,0.330368176182221,0.6622000107887183,-3.5923540022947047,49.8
,,0.013736291613343181,0.027533440295822154,0.0003090054016786246,0.04157873731084396,0.6085221822850965,0.330368176182221,0.6622000107887183,-3.5923540022947047,49.9
,,0.013736291613343181,0.027533440295822154,0.0003090054016786246,0.04157873731084396,0.6059084254693158,0.330368176182221,0.6622000107887183,-3.5923540022947047,50.0
,,0.013760840099687493,0.027447512576560626,0.00038150035279090635,0.041589853029039024,0.6032643633276192,0.3308701305118666,0.6599569504945382,-3.5954797316512606,50.1
,,0.013736291613343181,0.027533440295822154,0.0003090054016786246,0.04157873731084396,0.6005930097498632,0.330368176182221,0.6622000107887183,-3.5923540022947047,50.2
,,0.013905034313654675,0.027701847923488607,0.00038890942706474007,0.04199579166420802,0.5979556390642371,0.33110542182029146,0.6596339020106676,-3.5862561559746933,50.3
,,0.013905034313654675,0.027701847923488607,0.00038890942706474007,0.04199579166420802,0.5953182683786111,0.33110542182029146,0.6596339020106676,-3.5862561559746933,50.4
,,0.012984962395136497,0.027355493256121483,0.0003854246738046282,0.04072588032506261,0.5923778027516587,0.3188381022458975,0.6716980219402889,-3.598837919966643,50.5
,,0.012984962395136497,0.027355493256121483,0.0003854246738046282,0.04072588032506261,0.5895203667201081,0.3188381022458975,0.6716980219402889,-3.598837919966643,50.6
,,0.012984962395136497,0.027355493256121483,0.0003854246738046282,0.04072588032506261,0.5866629306885573,0.3188381022458975,0.6716980219402889,-3.598837919966643,50.7
,,0.012984962395136497,0.027355493256121483,0.0003854246738046282,0.04072588032506261,0.5838054946570066,0.3188381022458975,0.6716980219402889,-3.598837919966643,50.8
,,0.012984962395136497,0.027355493256121483,0.0003854246738046282,0.04072588032506261,0.5809720905268321,0.3188381022458975,0.6716980219402889,-3.598837919966643,50.9
,,0.012984962395136497,0.027355493256121483,0.0003854246738046282,0.04072588032506261,0.5781386863966578,0.3188381022458975,0.6716980219402889,-3.598837919966643,51.0
,,0.014507836653030464,0.028394143385198793,0.0004201527280793371,0.0433221327663086,0.5757082813543271,0.33488278915744274,0.655418871881598,-3.561572373912032,51.1
,,0.014824177735151033,0.028740996096738497,0.00041037321288932765,0.04397554704477886,0.5734316621275953,0.3371004735894714,0.6535676763150321,-3.5494307400335168,51.2
,,0.014824177735151033,0.028740996096738497,0.00041037321288932765,0.04397554704477886,0.5711550429008638,0.3371004735894714,0.6535676763150321,-3.5494307400335168,51.3
,,0.014824177735151033,0.028740996096738497,0.00041037321288932765,0.04397554704477886,0.5688784236741323,0.3371004735894714,0.6535676763150321,-3.5494307400335168,51.4
,,0.014824177735151033,0.028740996096738497,0.00041037321288932765,0.04397554704477886,0.5666810001485866,0.3371004735894714,0.6535676763150321,-3.5494307400335168,51.5
,,0.014824177735151033,0.028740996096738497,0.00041037321288932765,0.04397554704477886,0.5637278115582333,0.3371004735894714,0.6535676763150321,-3.5494307400335168,51.6
,,0.014824177735151033,0.028740996096738497,0.00041037321288932765,0.04397554704477886,0.5607746229678798,0.3371004735894714,0.6535676763150321,-3.5494307400335168,51.7
,,0.014824177735151033,0.028740996096738497,0.00041037321288932765,0.04397554704477886,0.5587119606272288,0.3371004735894714,0.6535676763150321,-3.5494307400335168,51.8
,,0.015925822083585683,0.02995954711365794,0.000461246307081117,0.046346615504324735,0.556824769668593,0.34362427353728986,0.64642362312006,-3.5079072368139292,51.9
,,0.015925822083585683,0.02995954711365794,0.000461246307081117,0.046346615504324735,0.554937578709957,0.34362427353728986,0.64642362312006,-3.5079072368139292,52.0
,,0.015925822083585683,0.02995954711365794,0.000461246307081117,0.046346615504324735,0.553050387751321,0.34362427353728986,0.64642362312006,-3.5079072368139292,52.1
,,0.015925822083585683,0.02995954711365794,0.000461246307081117,0.046346615504324735,0.5511631967926851,0.34362427353728986,0.64642362312006,-3.5079072368139292,52.2
,,0.015925822083585683,0.02995954711365794,0.000461246307081117,0.046346615504324735,0.5492760058340491,0.34362427353728986,0.64642362312006,-3.5079072368139292,52.3
,,0.015925822083585683,0.02995954711365794,0.000461246307081117,0.046346615504324735,0.5476627223462769,0.34362427353728986,0.64642362312006,-3.5079072368139292,52.4
,,0.015925822083585683,0.02995954711365794,0.000461246307081117,0.046346615504324735,0.5460494388585045,0.34362427353728986,0.64642362312006,-3.5079072368139292,52.5
,,0.016576436309104492,0.030732769733080274,0.0005189086098229122,0.047828114652007675,0.5445227753448145,0.3465835195410251,0.6425670331496165,-3.4824257756588772,52.6
,,0.0172727743456267,0.031593562841336714,0.0005266591816678564,0.049392996368631266,0.5430777209985859,0.3497008810058013,0.639636490273777,-3.454801886693108,52.7
,,0.0172727743456267,0.031593562841336714,0.0005266591816678564,0.049392996368631266,0.5416326666523572,0.3497008810058013,0.639636490273777,-3.454801886693108,52.8
,,0.0172727743456267,0.031593562841336714,0.0005266591816678564,0.049392996368631266,0.5401876123061286,0.3497008810058013,0.639636490273777,-3.454801886693108,52.9
,,0.0172727743456267,0.031593562841336714,0.0005266591816678564,0.049392996368631266,0.5390077717413722,0.3497008810058013,0.639636490273777,-3.454801886693108,53.0
,,0.0172727743456267,0.031593562841336714,0.0005266591816678564,0.049392996368631266,0.5378534131268856,0.3497008810058013,0.639636490273777,-3.454801886693108,53.1
,,0.0172727743456267,0.031593562841336714,0.0005266591816678564,0.049392996368631266,0.536699054512399,0.3497008810058013,0.639636490273777,-3.454801886693108,53.2
,,0.0172727743456267,0.031593562841336714,0.0005266591816678564,0.049392996368631266,0.5355446958979124,0.3497008810058013,0.639636490273777,-3.454801886693108,53.3
,,0.0172727743456267,0.031593562841336714,0.0005266591816678564,0.049392996368631266,0.5343903372834258,0.3497008810058013,0.639636490273777,-3.454801886693108,53.4
,,0.018661477725885982,0.03347079000477926,0.0005933331398427419,0.05272560087050799,0.5333562789902783,0.35393580002469466,0.6348109732686065,-3.3970821606678943,53.5
,,0.018661477725885982,0.03347079000477926,0.0005933331398427419,0.05272560087050799,0.5324700824269392,0.35393580002469466,0.6348109732686065,-3.3970821606678943,53.6
,,0.018661477725885982,0.03347079000477926,0.0005933331398427419,0.05272560087050799,0.5315838858636,0.35393580002469466,0.6348109732686065,-3.3970821606678943,53.7
,,0.018661477725885982,0.03347079000477926,0.0005933331398427419,0.05272560087050799,0.5309146428565193,0.35393580002469466,0.6348109732686065,-3.3970821606678943,53.8
,,0.018661477725885982,0.03347079000477926,0.0005933331398427419,0.05272560087050799,0.5302453998494389,0.35393580002469466,0.6348109732686065,-3.3970821606678943,53.9
,,0.018661477725885982,0.03347079000477926,0.0005933331398427419,0.05272560087050799,0.5295761568423583,0.35393580002469466,0.6348109732686065,-3.3970821606678943,54.0
,,0.01938743060326043,0.03444995405751759,0.0006525271836490666,0.054489911844427086,0.5289649770240697,0.3557985312696604,0.6322262762302658,-3.3682476151222676,54.1
,,0.019936179235305267,0.035320511681215125,0.0006540517469178525,0.05591074266343824,0.5284806280170758,0.35657153322597784,0.6317303258486726,-3.343291416340693,54.2
,,0.019936179235305267,0.035320511681215125,0.0006540517469178525,0.05591074266343824,0.5279962790100817,0.35657153322597784,0.6317303258486726,-3.343291416340693,54.3
,,0.019936179235305267,0.035320511681215125,0.0006540517469178525,0.05591074266343824,0.5278641463502562,0.35657153322597784,0.6317303258486726,-3.343291416340693,54.4
,,0.019936179235305267,0.035320511681215125,0.0006540517469178525,0.05591074266343824,0.5275388680752175,0.35657153322597784,0.6317303258486726,-3.343291416340693,54.5
,,0.019936179235305267,0.035320511681215125,0.0006540517469178525,0.05591074266343824,0.527213589800179,0.35657153322597784,0.6317303258486726,-3.343291416340693,54.6
,,0.019936179235305267,0.035320511681215125,0.0006540517469178525,0.05591074266343824,0.5268883115251402,0.35657153322597784,0.6317303258486726,-3.343291416340693,54.7
,,0.019936179235305267,0.035320511681215125,0.0006540517469178525,0.05591074266343824,0.5265630332501015,0.35657153322597784,0.6317303258486726,-3.343291416340693,54.8
,,0.020038489650785658,0.0353119255924409,0.0006684213557841232,0.056018836599010684,0.5264231377864309,0.35770985024597146,0.6303580676836927,-3.34353453661653,54.9
,,0.020038489650785658,0.0353119255924409,0.0006684213557841232,0.056018836599010684,0.5262832423227602,0.35770985024597146,0.6303580676836927,-3.34353453661653,55.0
,,0.020038489650785658,0.0353119255924409,0.0006684213557841232,0.056018836599010684,0.5261433468590896,0.35770985024597146,0.6303580676836927,-3.34353453661653,55.1
,,0.020038489650785658,0.0353119255924409,0.0006684213557841232,0.056018836599010684,0.5261591791256339,0.35770985024597146,0.6303580676836927,-3.34353453661653,55.2
,,0.020038489650785658,0.0353119255924409,0.0006684213557841232,0.056018836599010684,0.5261750113921781,0.35770985024597146,0.6303580676836927,-3.34353453661653,55.3
,,0.020038489650785658,0.0353119255924409,0.0006684213557841232,0.056018836599010684,0.5261908436587225,0.35770985024597146,0.6303580676836927,-3.34353453661653,55.4
,,0.020038489650785658,0.0353119255924409,0.0006684213557841232,0.056018836599010684,0.5262066759252668,0.35770985024597146,0.6303580676836927,-3.34353453661653,55.5
,,0.02532631889584589,0.04051116187173682,0.0009697289587936765,0.06680720972637638,0.526863597359645,0.3790955946158416,0.6063890714439234,-3.2061777410695558,55.6
,,0.015282841097950787,0.04071038999212122,0.0009804817306768813,0.05697371282074888,0.5248721537293481,0.2682437275245476,0.714546902010837,-3.2012719367508846,55.7
,,0.015282841097950787,0.04071038999212122,0.0009804817306768813,0.05697371282074888,0.5228807100990512,0.2682437275245476,0.714546902010837,-3.2012719367508846,55.8
,,0.015282841097950787,0.04071038999212122,0.0009804817306768813,0.05697371282074888,0.5208892664687542,0.2682437275245476,0.714546902010837,-3.2012719367508846,55.9
,,0.015282841097950787,0.04071038999212122,0.0009804817306768813,0.05697371282074888,0.5190361641263668,0.2682437275245476,0.714546902010837,-3.2012719367508846,56.0
,,0.015282841097950787,0.04071038999212122,0.0009804817306768813,0.05697371282074888,0.5171830617839794,0.2682437275245476,0.714546902010837,-3.2012719367508846,56.1
,,0.015282841097950787,0.04071038999212122,0.0009804817306768813,0.05697371282074888,0.5153299594415921,0.2682437275245476,0.714546902010837,-3.2012719367508846,56.2
,,0.02494761563980565,0.04045520356752115,0.0007914474903886216,0.06619426669771541,0.5161576199271691,0.3768848404006366,0.6111587239460634,-3.2075600017853922,56.3
,,0.02494761563980565,0.04045520356752115,0.0007914474903886216,0.06619426669771541,0.5170982098230412,0.3768848404006366,0.6111587239460634,-3.2075600017853922,56.4
,,0.01979338726915433,0.035023462935955166,0.00065387889072338,0.05547072909583288,0.5174662874048265,0.35682579969263944,0.6313863817338257,-3.351737072491334,56.5
,,0.01979338726915433,0.035023462935955166,0.00065387889072338,0.05547072909583288,0.517834364986612,0.35682579969263944,0.6313863817338257,-3.351737072491334,56.6
,,0.01979338726915433,0.035023462935955166,0.00065387889072338,0.05547072909583288,0.518303378729012,0.35682579969263944,0.6313863817338257,-3.351737072491334,56.7
,,0.01979338726915433,0.035023462935955166,0.00065387889072338,0.05547072909583288,0.5186714563107973,0.35682579969263944,0.6313863817338257,-3.351737072491334,56.8
,,0.01979338726915433,0.035023462935955166,0.00065387889072338,0.05547072909583288,0.5191509575504283,0.35682579969263944,0.6313863817338257,-3.351737072491334,56.9
,,0.01979338726915433,0.035023462935955166,0.00065387889072338,0.05547072909583288,0.5196304587900595,0.35682579969263944,0.6313863817338257,-3.351737072491334,57.0
,,0.019662988856567833,0.03500354551022287,0.0006321083426604554,0.05529864270945115,0.5200721409562423,0.35557814610171634,0.6329910427302472,-3.3523059223311695,57.1
,,0.019254540662843194,0.034560687953617296,0.0005127512857610411,0.054327979902221525,0.5211226361873766,0.35441296910905123,0.6361489607347627,-3.36503842917909,57.2
,,0.019681006193253157,0.03497822756830207,0.0006317341415963214,0.05529096790315155,0.5222347077456958,0.3559533670621699,0.6326210029379561,-3.3530294805353025,57.3
,,0.019681006193253157,0.03497822756830207,0.0006317341415963214,0.05529096790315155,0.5233467793040151,0.3559533670621699,0.6326210029379561,-3.3530294805353025,57.4
,,0.019681006193253157,0.03497822756830207,0.0006317341415963214,0.05529096790315155,0.5239492858990101,0.3559533670621699,0.6326210029379561,-3.3530294805353025,57.5
,,0.019681006193253157,0.03497822756830207,0.0006317341415963214,0.05529096790315155,0.5250173209953762,0.3559533670621699,0.6326210029379561,-3.3530294805353025,57.6
,,0.019681006193253157,0.03497822756830207,0.0006317341415963214,0.05529096790315155,0.5260853560917423,0.3559533670621699,0.6326210029379561,-3.3530294805353025,57.7
,,0.01906809896331693,0.034499293343326506,0.0004862676054827473,0.054053659912126184,0.5270427841065477,0.35276240303275497,0.6382415806702308,-3.3668164379567287,57.8
,,0.01906809896331693,0.034499293343326506,0.0004862676054827473,0.054053659912126184,0.5276032677166453,0.35276240303275497,0.6382415806702308,-3.3668164379567287,57.9
,,0.012803171015822982,0.03506074635927146,0.000603762623424737,0.04846767999851918,0.5260799874350697,0.2641589408903862,0.7233840439720379,-3.3506731116588346,58.0
,,0.012803171015822982,0.03506074635927146,0.000603762623424737,0.04846767999851918,0.5245567071534938,0.2641589408903862,0.7233840439720379,-3.3506731116588346,58.1
,,0.012803171015822982,0.03506074635927146,0.000603762623424737,0.04846767999851918,0.5230334268719181,0.2641589408903862,0.7233840439720379,-3.3506731116588346,58.2
,,0.012803171015822982,0.03506074635927146,0.000603762623424737,0.04846767999851918,0.5215276493599168,0.2641589408903862,0.7233840439720379,-3.3506731116588346,58.3
,,0.012803171015822982,0.03506074635927146,0.000603762623424737,0.04846767999851918,0.5200199012592605,0.2641589408903862,0.7233840439720379,-3.3506731116588346,58.4
,,0.01901094811361133,0.03463967998658623,0.0004594419794299933,0.05411007007962755,0.5205526962477715,0.351338449305926,0.6401706731410809,-3.362755433593098,58.5
,,0.01901094811361133,0.03463967998658623,0.0004594419794299933,0.05411007007962755,0.5210854912362823,0.351338449305926,0.6401706731410809,-3.362755433593098,58.6
,,0.01901094811361133,0.03463967998658623,0.0004594419794299933,0.05411007007962755,0.5216402147672882,0.351338449305926,0.6401706731410809,-3.362755433593098,58.7
,,0.019630425410382832,0.03521523916363651,0.0005716186710738656,0.05541728324509321,0.5222907298217586,0.35422929925243063,0.635455892124675,-3.3462763592804508,58.8
,,0.019630425410382832,0.03521523916363651,0.0005716186710738656,0.05541728324509321,0.5229412448762292,0.35422929925243063,0.635455892124675,-3.3462763592804508,58.9
,,0.019630425410382832,0.03521523916363651,0.0005716186710738656,0.05541728324509321,0.5235917599306997,0.35422929925243063,0.635455892124675,-3.3462763592804508,59.0
,,0.019183469096264918,0.037915139862707926,0.0005960369444961677,0.05769464590346901,0.523642948143319,0.33249998844540046,0.6571691232171719,-3.2724047779870924,59.1
,,0.019183469096264918,0.037915139862707926,0.0005960369444961677,0.05769464590346901,0.5237214277919978,0.33249998844540046,0.6571691232171719,-3.2724047779870924,59.2
,,0.019183469096264918,0.037915139862707926,0.0005960369444961677,0.05769464590346901,0.5237659245485465,0.33249998844540046,0.6571691232171719,-3.2724047779870924,59.3
,,0.019183469096264918,0.037915139862707926,0.0005960369444961677,0.05769464590346901,0.5238104213050954,0.33249998844540046,0.6571691232171719,-3.2724047779870924,59.4
,,0.019183469096264918,0.037915139862707926,0.0005960369444961677,0.05769464590346901,0.5241580130029704,0.33249998844540046,0.6571691232171719,-3.2724047779870924,59.5
,,0.019183469096264918,0.037915139862707926,0.0005960369444961677,0.05769464590346901,0.5245056047008454,0.33249998844540046,0.6571691232171719,-3.2724047779870924,59.6
,,0.019778392452836698,0.035498324043541654,0.0005386757851496904,0.05581539228152804,0.5254221530567942,0.3543537301158108,0.6359952441880398,-3.338269793656276,59.7
,,0.019778392452836698,0.035498324043541654,0.0005386757851496904,0.05581539228152804,0.5263387014127429,0.3543537301158108,0.6359952441880398,-3.338269793656276,59.8
,,0.0192364488916636,0.03513196925192515,0.0004042218413539655,0.05477263998494272,0.5271484069688337,0.3512054357239636,0.6414145686894609,-3.34864375814326,59.9
,,0.0192364488916636,0.03513196925192515,0.0004042218413539655,0.05477263998494272,0.5279581125249244,0.3512054357239636,0.6414145686894609,-3.34864375814326,60.0
,,0.0192364488916636,0.03513196925192515,0.0004042218413539655,0.05477263998494272,0.5283648189931716,0.3512054357239636,0.6414145686894609,-3.34864375814326,60.1
,,0.0192364488916636,0.03513196925192515,0.0004042218413539655,0.05477263998494272,0.5287177430013981,0.3512054357239636,0.6414145686894609,-3.34864375814326,60.2
,,0.019877297950328596,0.035673662541922,0.0005102102372236564,0.05606117072947425,0.5291778876722695,0.3545644461519972,0.6363345980423223,-3.3333426063872627,60.3
,,0.0192364488916636,0.03513196925192515,0.0004042218413539655,0.05477263998494272,0.5295308116804958,0.3512054357239636,0.6414145686894609,-3.34864375814326,60.4
,,0.020051320776171777,0.03586587645430355,0.0005100074071528924,0.05642720463762822,0.5300116884047541,0.3553484689688251,0.6356132061588349,-3.327968952108479,60.5
,,0.01962925988904897,0.03560407569101959,0.0004988076743846158,0.05573214325445317,0.5304065270696154,0.3522071598687447,0.6388427505553487,-3.3352951619743427,60.6
,,0.01962925988904897,0.03560407569101959,0.0004988076743846158,0.05573214325445317,0.5308013657344768,0.3522071598687447,0.6388427505553487,-3.3352951619743427,60.7
,,0.01962925988904897,0.03560407569101959,0.0004988076743846158,0.05573214325445317,0.5311962043993381,0.3522071598687447,0.6388427505553487,-3.3352951619743427,60.8
,,0.01962925988904897,0.03560407569101959,0.0004988076743846158,0.05573214325445317,0.5314155716821845,0.3522071598687447,0.6388427505553487,-3.3352951619743427,60.9
,,0.01962925988904897,0.03560407569101959,0.0004988076743846158,0.05573214325445317,0.5316349389650307,0.3522071598687447,0.6388427505553487,-3.3352951619743427,61.0
,,0.020187511093235036,0.0359219475346368,0.0004830714255589702,0.05659253005343081,0.53197277356668,0.35671688603028284,0.6347471565721086,-3.3264068183476274,61.1
,,0.02037821427697574,0.036129929837964994,0.00048344442660420907,0.056991588541544944,0.5323333104108902,0.35756529688799094,0.6339519701513057,-3.3206336757573554,61.2
,,0.019550547086955937,0.035059157793850756,0.0004649502768961891,0.055074655157702886,0.532622943580337,0.3549826509303444,0.6365751668069644,-3.350718421630095,61.3
,,0.019550547086955937,0.035059157793850756,0.0004649502768961891,0.055074655157702886,0.5329125767497839,0.3549826509303444,0.6365751668069644,-3.350718421630095,61.4
,,0.019550547086955937,0.035059157793850756,0.0004649502768961891,0.055074655157702886,0.5332022099192307,0.3549826509303444,0.6365751668069644,-3.350718421630095,61.5
,,0.019550547086955937,0.035059157793850756,0.0004649502768961891,0.055074655157702886,0.5334052231145953,0.3549826509303444,0.6365751668069644,-3.350718421630095,61.6
,,0.019550547086955937,0.035059157793850756,0.0004649502768961891,0.055074655157702886,0.5335266271424985,0.3549826509303444,0.6365751668069644,-3.350718421630095,61.7
,,0.019550547086955937,0.035059157793850756,0.0004649502768961891,0.055074655157702886,0.5336480311704018,0.3549826509303444,0.6365751668069644,-3.350718421630095,61.8
,,0.019940800260061373,0.035060367302051164,0.00044681621449203486,0.05544798377660458,0.5338928980290575,0.35963075484225426,0.6323109500844347,-3.3506839231591234,61.9
,,0.01888625802254769,0.033328782327611245,0.00032492963812784696,0.05253996998828678,0.534114530849661,0.35946457576504476,0.6343509966800807,-3.4013339211549103,62.0
,,0.01888625802254769,0.033328782327611245,0.00032492963812784696,0.05253996998828678,0.5343361636702646,0.35946457576504476,0.6343509966800807,-3.4013339211549103,62.1
,,0.01888625802254769,0.033328782327611245,0.00032492963812784696,0.05253996998828678,0.534557796490868,0.35946457576504476,0.6343509966800807,-3.4013339211549103,62.2
,,0.01888625802254769,0.033328782327611245,0.00032492963812784696,0.05253996998828678,0.5347794293114715,0.35946457576504476,0.6343509966800807,-3.4013339211549103,62.3
,,0.01888625802254769,0.033328782327611245,0.00032492963812784696,0.05253996998828678,0.535001062132075,0.35946457576504476,0.6343509966800807,-3.4013339211549103,62.4
,,0.01888625802254769,0.033328782327611245,0.00032492963812784696,0.05253996998828678,0.5351023946313395,0.35946457576504476,0.6343509966800807,-3.4013339211549103,62.5
,,0.01888625802254769,0.033328782327611245,0.00032492963812784696,0.05253996998828678,0.5352037271306039,0.35946457576504476,0.6343509966800807,-3.4013339211549103,62.6
,,0.019135145562883246,0.033134442716891165,0.00040505786597308145,0.05267464614574749,0.5354254489647217,0.3632705098756142,0.6290396830613766,-3.4071819721470997,62.7
,,0.018373813954167706,0.0317066248340622,0.0003047141803344058,0.05038515296856431,0.5356693300057818,0.3646672257923137,0.6292850763764518,-3.4512296346316416,62.8
,,0.018373813954167706,0.0317066248340622,0.0003047141803344058,0.05038515296856431,0.5359132110468421,0.3646672257923137,0.6292850763764518,-3.4512296346316416,62.9
,,0.018373813954167706,0.0317066248340622,0.0003047141803344058,0.05038515296856431,0.5361570920879024,0.3646672257923137,0.6292850763764518,-3.4512296346316416,63.0
,,0.018373813954167706,0.0317066248340622,0.0003047141803344058,0.05038515296856431,0.5363429099401705,0.3646672257923137,0.6292850763764518,-3.4512296346316416,63.1
,,0.018373813954167706,0.0317066248340622,0.0003047141803344058,0.05038515296856431,0.5365102229135758,0.3646672257923137,0.6292850763764518,-3.4512296346316416,63.2
,,0.018373813954167706,0.0317066248340622,0.0003047141803344058,0.05038515296856431,0.5366775358869811,0.3646672257923137,0.6292850763764518,-3.4512296346316416,63.3
,,0.018373813954167706,0.0317066248340622,0.0003047141803344058,0.05038515296856431,0.5368448488603862,0.3646672257923137,0.6292850763764518,-3.4512296346316416,63.4
,,0.018373813954167706,0.0317066248340622,0.0003047141803344058,0.05038515296856431,0.5370121618337914,0.3646672257923137,0.6292850763764518,-3.4512296346316416,63.5
,,0.00799372020713431,0.024631786213857004,0.0003335214838532054,0.03295902790484452,0.5343465211272891,0.24253507203588806,0.7473456524558624,-3.703717547601199,63.6
,,0.018116479578887502,0.030476704377703473,0.0003654781874798853,0.04895866214407086,0.5346798617254708,0.3700362466109891,0.6224987171426284,-3.490792678100616,63.7
,,0.018116479578887502,0.030476704377703473,0.0003654781874798853,0.04895866214407086,0.5350132023236522,0.3700362466109891,0.6224987171426284,-3.490792678100616,63.8
,,0.018116479578887502,0.030476704377703473,0.0003654781874798853,0.04895866214407086,0.5353128254126679,0.3700362466109891,0.6224987171426284,-3.490792678100616,63.9
,,0.018116479578887502,0.030476704377703473,0.0003654781874798853,0.04895866214407086,0.5356124485016837,0.3700362466109891,0.6224987171426284,-3.490792678100616,64.0
,,0.018116479578887502,0.030476704377703473,0.0003654781874798853,0.04895866214407086,0.5359120715906993,0.3700362466109891,0.6224987171426284,-3.490792678100616,64.1
,,0.018116479578887502,0.030476704377703473,0.0003654781874798853,0.04895866214407086,0.5362116946797151,0.3700362466109891,0.6224987171426284,-3.490792678100616,64.2
,,0.00694600828815667,0.02299264610528958,0.0002997774730262155,0.030238431866472466,0.5332630954202402,0.22970795307207087,0.7603782566113552,-3.7725808487316046,64.3
,,0.00694600828815667,0.02299264610528958,0.0002997774730262155,0.030238431866472466,0.5303144961607652,0.22970795307207087,0.7603782566113552,-3.7725808487316046,64.4
,,0.006447912115080082,0.022067187648575782,0.00029163345676160376,0.028806733220417467,0.5272558702971192,0.22383350676188332,0.7660426984110482,-3.813663495533908,64.5
,,0.006447912115080082,0.022067187648575782,0.00029163345676160376,0.028806733220417467,0.523556155265639,0.22383350676188332,0.7660426984110482,-3.813663495533908,64.6
,,0.006447912115080082,0.022067187648575782,0.00029163345676160376,0.028806733220417467,0.5226316064827791,0.22383350676188332,0.7660426984110482,-3.813663495533908,64.7
,,0.006447912115080082,0.022067187648575782,0.00029163345676160376,0.028806733220417467,0.521707057699919,0.22383350676188332,0.7660426984110482,-3.813663495533908,64.8
,,0.006447912115080082,0.022067187648575782,0.00029163345676160376,0.028806733220417467,0.520782508917059,0.22383350676188332,0.7660426984110482,-3.813663495533908,64.9
,,0.01800483313108862,0.02929746383590828,0.00035604939002959645,0.047658346357026496,0.5234397163809792,0.3777897159126689,0.6147394124091092,-3.5302543252069425,65.0
,,0.01800483313108862,0.02929746383590828,0.00035604939002959645,0.047658346357026496,0.526096923844899,0.3777897159126689,0.6147394124091092,-3.5302543252069425,65.1
,,0.018031719977020626,0.02879134130783402,0.0002994720204266548,0.0471225333052813,0.5288845431138799,0.38265599729545324,0.610988826116596,-3.547680586077759,65.2
,,0.018031719977020626,0.02879134130783402,0.0002994720204266548,0.0471225333052813,0.5289913995548959,0.38265599729545324,0.610988826116596,-3.547680586077759,65.3
,,0.018031719977020626,0.02879134130783402,0.0002994720204266548,0.0471225333052813,0.5290982559959122,0.38265599729545324,0.610988826116596,-3.547680586077759,65.4
,,0.018031719977020626,0.02879134130783402,0.0002994720204266548,0.0471225333052813,0.5297776247510151,0.38265599729545324,0.610988826116596,-3.547680586077759,65.5
,,0.018031719977020626,0.02879134130783402,0.0002994720204266548,0.0471225333052813,0.5304569935061179,0.38265599729545324,0.610988826116596,-3.547680586077759,65.6
,,0.018031719977020626,0.02879134130783402,0.0002994720204266548,0.0471225333052813,0.5311363622612209,0.38265599729545324,0.610988826116596,-3.547680586077759,65.7
,,0.005773240122562764,0.02087502620118513,0.0002590770747353364,0.02690734339848323,0.5279298684882846,0.21456001943648598,0.7758114910133365,-3.8692017530994125,65.8
,,0.005773240122562764,0.02087502620118513,0.0002590770747353364,0.02690734339848323,0.5247233747153485,0.21456001943648598,0.7758114910133365,-3.8692017530994125,65.9
,,0.0183195104081766,0.028580015215997772,0.0003110371447099557,0.04721056276888433,0.5255660828523876,0.3880383823818909,0.6053733219811218,-3.5550475740803553,66.0
,,0.0183195104081766,0.028580015215997772,0.0003110371447099557,0.04721056276888433,0.5264466100628752,0.3880383823818909,0.6053733219811218,-3.5550475740803553,66.1
,,0.0183195104081766,0.028580015215997772,0.0003110371447099557,0.04721056276888433,0.5273784724655055,0.3880383823818909,0.6053733219811218,-3.5550475740803553,66.2
,,0.018246339957155494,0.028650427864543127,0.0003659479028104591,0.047262715724509075,0.5282028781826948,0.38606202960304015,0.6061951249594794,-3.5525869017429152,66.3
,,0.0183195104081766,0.028580015215997772,0.0003110371447099557,0.04721056276888433,0.5290731642581402,0.3880383823818909,0.6053733219811218,-3.5550475740803553,66.4
,,0.005669164448467683,0.020544472545283677,0.0002503326332419727,0.026463969626993333,0.5258874030700329,0.21422199799855868,0.7763186262248521,-3.885163350119003,66.5
,,0.005669164448467683,0.020544472545283677,0.0002503326332419727,0.026463969626993333,0.5227016418819256,0.21422199799855868,0.7763186262248521,-3.885163350119003,66.6
,,0.005669164448467683,0.020544472545283677,0.0002503326332419727,0.026463969626993333,0.5195158806938183,0.21422199799855868,0.7763186262248521,-3.885163350119003,66.7
,,0.013136792452635236,0.029067930648390403,0.0003322927438321654,0.042537015844857806,0.5183961515207759,0.3088320182249764,0.6833561327952052,-3.538119752071023,66.8
,,0.013136792452635236,0.029067930648390403,0.0003322927438321654,0.042537015844857806,0.5172764223477334,0.3088320182249764,0.6833561327952052,-3.538119752071023,66.9
,,0.013136792452635236,0.029067930648390403,0.0003322927438321654,0.042537015844857806,0.5182404570663645,0.3088320182249764,0.6833561327952052,-3.538119752071023,67.0
,,0.013136792452635236,0.029067930648390403,0.0003322927438321654,0.042537015844857806,0.5192044917849956,0.3088320182249764,0.6833561327952052,-3.538119752071023,67.1
,,0.01898041801887248,0.02955198683117987,0.000397942807079973,0.04893034765713232,0.5222833923977275,0.3879068702285381,0.6039602873508755,-3.5216043011405436,67.2
,,0.01898041801887248,0.02955198683117987,0.000397942807079973,0.04893034765713232,0.5253622930104596,0.3879068702285381,0.6039602873508755,-3.5216043011405436,67.3
,,0.01898041801887248,0.02955198683117987,0.000397942807079973,0.04893034765713232,0.5284411936231916,0.3879068702285381,0.6039602873508755,-3.5216043011405436,67.4
,,0.01406899654800247,0.03032339623091941,0.00036327967725842294,0.044755672456180305,0.5274983613673869,0.3143511375407719,0.6775319097396795,-3.4958357115878216,67.5
,,0.01406899654800247,0.03032339623091941,0.00036327967725842294,0.044755672456180305,0.5265555291115823,0.3143511375407719,0.6775319097396795,-3.4958357115878216,67.6
,,0.01406899654800247,0.03032339623091941,0.00036327967725842294,0.044755672456180305,0.5256126968557777,0.3143511375407719,0.6775319097396795,-3.4958357115878216,67.7
,,0.01406899654800247,0.03032339623091941,0.00036327967725842294,0.044755672456180305,0.5245740730765084,0.3143511375407719,0.6775319097396795,-3.4958357115878216,67.8
,,0.020114892799886076,0.031186105069841142,0.0004375242576418493,0.05173852212736907,0.5255468969080836,0.3887798099521968,0.6027637394254843,-3.4677826336902142,67.9
,,0.020114892799886076,0.031186105069841142,0.0004375242576418493,0.05173852212736907,0.526519720739659,0.3887798099521968,0.6027637394254843,-3.4677826336902142,68.0
,,0.020114892799886076,0.031186105069841142,0.0004375242576418493,0.05173852212736907,0.5280645799770259,0.3887798099521968,0.6027637394254843,-3.4677826336902142,68.1
,,0.020114892799886076,0.031186105069841142,0.0004375242576418493,0.05173852212736907,0.5296094392143931,0.3887798099521968,0.6027637394254843,-3.4677826336902142,68.2
,,0.021325683211346574,0.03233975991541111,0.0004015942344379437,0.05406703736119563,0.5313146406023479,0.3944304007057024,0.5981418900274649,-3.4314578486266227,68.3
,,0.021325683211346574,0.03233975991541111,0.0004015942344379437,0.05406703736119563,0.5330198419903028,0.3944304007057024,0.5981418900274649,-3.4314578486266227,68.4
,,0.021325683211346574,0.03233975991541111,0.0004015942344379437,0.05406703736119563,0.5347250433782577,0.3944304007057024,0.5981418900274649,-3.4314578486266227,68.5
,,0.007426024759564526,0.02307463408669676,0.0002682823294342634,0.03076894117569555,0.532679135689122,0.2413480762032318,0.7499326660263325,-3.7690213562835577,68.6
,,0.007426024759564526,0.02307463408669676,0.0002682823294342634,0.03076894117569555,0.5300642713419125,0.2413480762032318,0.7499326660263325,-3.7690213562835577,68.7
,,0.007426024759564526,0.02307463408669676,0.0002682823294342634,0.03076894117569555,0.527449406994703,0.2413480762032318,0.7499326660263325,-3.7690213562835577,68.8
,,0.007426024759564526,0.02307463408669676,0.0002682823294342634,0.03076894117569555,0.5249413854473514,0.2413480762032318,0.7499326660263325,-3.7690213562835577,68.9
,,0.023407919830619912,0.03537485652890744,0.0004475310177878141,0.05923030737731517,0.526209856530286,0.39520172808667536,0.5972424945148231,-3.341753978746891,69.0
,,0.023407919830619912,0.03537485652890744,0.0004475310177878141,0.05923030737731517,0.5274783276132206,0.39520172808667536,0.5972424945148231,-3.341753978746891,69.1
,,0.008976639107971685,0.02546624190421399,0.00028386297790032936,0.034726743990086004,0.5253110325108192,0.25849354349300324,0.7333322672429134,-3.6704015507707717,69.2
,,0.02421920544455866,0.03727554074820306,0.0005547941887067972,0.06204954038146852,0.5263392146165435,0.3903204648360599,0.6007383861192247,-3.2894179114425146,69.3
,,0.02421920544455866,0.03727554074820306,0.0005547941887067972,0.06204954038146852,0.5274746173849127,0.3903204648360599,0.6007383861192247,-3.2894179114425146,69.4
,,0.02421920544455866,0.03727554074820306,0.0005547941887067972,0.06204954038146852,0.5284820674372501,0.3903204648360599,0.6007383861192247,-3.2894179114425146,69.5
,,0.02421920544455866,0.03727554074820306,0.0005547941887067972,0.06204954038146852,0.5295755555489844,0.3903204648360599,0.6007383861192247,-3.2894179114425146,69.6
,,0.02635531343625802,0.03961236657199587,0.0005033387087216114,0.06647101871697551,0.5308423317434403,0.3964932980563354,0.595934398728864,-3.228613922301579,69.7
,,0.02635531343625802,0.03961236657199587,0.0005033387087216114,0.06647101871697551,0.5321091079378965,0.3964932980563354,0.595934398728864,-3.228613922301579,69.8
,,0.02635531343625802,0.03961236657199587,0.0005033387087216114,0.06647101871697551,0.5333758841323525,0.3964932980563354,0.595934398728864,-3.228613922301579,69.9
,,0.02635531343625802,0.03961236657199587,0.0005033387087216114,0.06647101871697551,0.5346426603268084,0.3964932980563354,0.595934398728864,-3.228613922301579,70.0
,,0.026362640299036316,0.040120220034231775,0.0006031039053884432,0.06708596423865652,0.5356994211538941,0.3929680462704826,0.5980419375281716,-3.2158748315008547,70.1
,,0.026362640299036316,0.040120220034231775,0.0006031039053884432,0.06708596423865652,0.5367334797384191,0.3929680462704826,0.5980419375281716,-3.2158748315008547,70.2
,,0.026362640299036316,0.040120220034231775,0.0006031039053884432,0.06708596423865652,0.5378384419977074,0.3929680462704826,0.5980419375281716,-3.2158748315008547,70.3
,,0.026362640299036316,0.040120220034231775,0.0006031039053884432,0.06708596423865652,0.5389434042569955,0.3929680462704826,0.5980419375281716,-3.2158748315008547,70.4
,,0.028471610977303947,0.042216187742353105,0.0005298306856972035,0.07121762940535425,0.5402409542808676,0.3997831887277535,0.5927772111322092,-3.1649515357038687,70.5
,,0.028471610977303947,0.042216187742353105,0.0005298306856972035,0.07121762940535425,0.5415385043047397,0.3997831887277535,0.5927772111322092,-3.1649515357038687,70.6
,,0.028471610977303947,0.042216187742353105,0.0005298306856972035,0.07121762940535425,0.5428360543286118,0.3997831887277535,0.5927772111322092,-3.1649515357038687,70.7
,,0.028704341887393833,0.04274220989258173,0.0006420573997427934,0.07208860917971835,0.5441018815965779,0.398181380026813,0.5929121171699199,-3.1525683249392427,70.8
,,0.028704341887393833,0.04274220989258173,0.0006420573997427934,0.07208860917971835,0.5452442460337916,0.398181380026813,0.5929121171699199,-3.1525683249392427,70.9
,,0.028704341887393833,0.04274220989258173,0.0006420573997427934,0.07208860917971835,0.5464098445090575,0.398181380026813,0.5929121171699199,-3.1525683249392427,71.0
,,0.028704341887393833,0.04274220989258173,0.0006420573997427934,0.07208860917971835,0.5475754429843234,0.398181380026813,0.5929121171699199,-3.1525683249392427,71.1
,,0.028704341887393833,0.04274220989258173,0.0006420573997427934,0.07208860917971835,0.5487410414595894,0.398181380026813,0.5929121171699199,-3.1525683249392427,71.2
,,0.03121836251945738,0.045154166391122456,0.0005531237964476188,0.07692565270702745,0.5501266825039064,0.4058251236210241,0.5869845077960248,-3.0976727245034317,71.3
,,0.03121836251945738,0.045154166391122456,0.0005531237964476188,0.07692565270702745,0.5515123235482237,0.4058251236210241,0.5869845077960248,-3.0976727245034317,71.4
,,0.03164600711291271,0.045575023235798755,0.0006760533027500161,0.07789708365146149,0.5529312858695611,0.40625406792516006,0.585067130878958,-3.0883954485810343,71.5
