HRV_ULF,HRV_VLF,HRV_LF,HRV_HF,HRV_VHF,HRV_TP,HRV_LFHF,HRV_LFn,HRV_HFn,HRV_LnHF,time
,,0.014228276918745474,0.0027989362895015782,0.00031947575169237507,0.017346688959939426,5.083458659675022,0.8202301287354816,0.16135276858687342,-5.878515830586555,0.0
,,0.010895605707353153,0.0038207251377281146,0.00031487926786878185,0.015031210112950048,3.9675850659337115,0.7248655048715013,0.25418613065866147,-5.5673150477480515,0.1
,,0.010895605707353153,0.0038207251377281146,0.00031487926786878185,0.015031210112950048,3.595627201353274,0.7248655048715013,0.25418613065866147,-5.5673150477480515,0.2
,,0.010895605707353153,0.0038207251377281146,0.00031487926786878185,0.015031210112950048,3.4096482690630556,0.7248655048715013,0.25418613065866147,-5.5673150477480515,0.3
,,0.010895605707353153,0.0038207251377281146,0.00031487926786878185,0.015031210112950048,3.2980609096889246,0.7248655048715013,0.25418613065866147,-5.5673150477480515,0.4
,,0.010895605707353153,0.0038207251377281146,0.00031487926786878185,0.015031210112950048,3.223669336772837,0.7248655048715013,0.25418613065866147,-5.5673150477480515,0.5
,,0.010895605707353153,0.0038207251377281146,0.00031487926786878185,0.015031210112950048,3.170532498975632,0.7248655048715013,0.25418613065866147,-5.5673150477480515,0.6
,,0.010895605707353153,0.0038207251377281146,0.00031487926786878185,0.015031210112950048,3.130679870627728,0.7248655048715013,0.25418613065866147,-5.5673150477480515,0.7
,,0.013211199455634511,0.0024967244719933303,0.00030025893052897063,0.016008182858156812,3.3707612906009,0.8252778952298683,0.15596551426954428,-5.992775617387811,0.8
,,0.013211199455634511,0.0024967244719933303,0.00030025893052897063,0.016008182858156812,3.5628264265794387,0.8252778952298683,0.15596551426954428,-5.992775617387811,0.9
,,0.013199196553898415,0.0036961495507266563,0.00032172285746708636,0.017217068962092158,3.563575541731984,0.7666343547185569,0.214679371899171,-5.600463663162355,1.0
,,0.013199196553898415,0.0036961495507266563,0.00032172285746708636,0.017217068962092158,3.5641998043591054,0.7666343547185569,0.214679371899171,-5.600463663162355,1.1
,,0.013199196553898415,0.0036961495507266563,0.00032172285746708636,0.017217068962092158,3.5647280265820545,0.7666343547185569,0.214679371899171,-5.600463663162355,1.2
,,0.013199196553898415,0.0036961495507266563,0.00032172285746708636,0.017217068962092158,3.5651807884874387,0.7666343547185569,0.214679371899171,-5.600463663162355,1.3
,,0.013199196553898415,0.0036961495507266563,0.00032172285746708636,0.017217068962092158,3.565573182138772,0.7666343547185569,0.214679371899171,-5.600463663162355,1.4
,,0.013199196553898415,0.0036961495507266563,0.00032172285746708636,0.017217068962092158,3.565916526583689,0.7666343547185569,0.214679371899171,-5.600463663162355,1.5
,,0.009755445757823496,0.003524049138899903,0.0004950415297379211,0.013774536426461322,3.518994911597853,0.7082231630737842,0.25583794835593104,-5.64814462693621,1.6
,,0.01171482830884957,0.0021445720516428284,0.0002054234240389941,0.014064823784531392,3.626970097094407,0.8329168205956219,0.15247770498208774,-6.144815256230492,1.7
,,0.01171482830884957,0.0021445720516428284,0.0002054234240389941,0.014064823784531392,3.7235794735913244,0.8329168205956219,0.15247770498208774,-6.144815256230492,1.8
,,0.01171482830884957,0.0021445720516428284,0.0002054234240389941,0.014064823784531392,3.8105279124385496,0.8329168205956219,0.15247770498208774,-6.144815256230492,1.9
,,0.01171482830884957,0.0021445720516428284,0.0002054234240389941,0.014064823784531392,3.889195547586039,0.8329168205956219,0.15247770498208774,-6.144815256230492,2.0
,,0.01171482830884957,0.0021445720516428284,0.0002054234240389941,0.014064823784531392,3.960711579538302,0.8329168205956219,0.15247770498208774,-6.144815256230492,2.1
,,0.01171482830884957,0.0021445720516428284,0.0002054234240389941,0.014064823784531392,4.026008826103412,0.8329168205956219,0.15247770498208774,-6.144815256230492,2.2
,,0.01171482830884957,0.0021445720516428284,0.0002054234240389941,0.014064823784531392,4.0858646354547625,0.8329168205956219,0.15247770498208774,-6.144815256230492,2.3
,,0.011684841407386973,0.001905243431720938,0.000246723075097697,0.013836807914205607,4.167749702377953,0.8444752199956964,0.13769385565907244,-6.263145492887085,2.4
,,0.011273940404885597,0.0018705370187636328,0.00018568020553937306,0.013330157629188603,4.239263725166351,0.8457469685279209,0.1403236983985681,-6.281529713533293,2.5
,,0.011273940404885597,0.0018705370187636328,0.00018568020553937306,0.013330157629188603,4.305480412933386,0.8457469685279209,0.1403236983985681,-6.281529713533293,2.6
,,0.011273940404885597,0.0018705370187636328,0.00018568020553937306,0.013330157629188603,4.36696733728849,0.8457469685279209,0.1403236983985681,-6.281529713533293,2.7
,,0.011273940404885597,0.0018705370187636328,0.00018568020553937306,0.013330157629188603,4.424213784101863,0.8457469685279209,0.1403236983985681,-6.281529713533293,2.8
,,0.011273940404885597,0.0018705370187636328,0.00018568020553937306,0.013330157629188603,4.4776438011276785,0.8457469685279209,0.1403236983985681,-6.281529713533293,2.9
,,0.011273940404885597,0.0018705370187636328,0.00018568020553937306,0.013330157629188603,4.5276267202808596,0.8457469685279209,0.1403236983985681,-6.281529713533293,3.0
,,0.011273940404885597,0.0018705370187636328,0.00018568020553937306,0.013330157629188603,4.574485706986967,0.8457469685279209,0.1403236983985681,-6.281529713533293,3.1
,,0.020385342868885686,0.0029623869637092617,0.00028415577101850123,0.02363188560361345,4.644391926742455,0.8626202416014003,0.1253555054132581,-5.821759928958789,3.2
,,0.020385342868885686,0.0029623869637092617,0.00028415577101850123,0.02363188560361345,4.710186015924091,0.8626202416014003,0.1253555054132581,-5.821759928958789,3.3
,,0.020385342868885686,0.0029623869637092617,0.00028415577101850123,0.02363188560361345,4.772220442866776,0.8626202416014003,0.1253555054132581,-5.821759928958789,3.4
,,0.020385342868885686,0.0029623869637092617,0.00028415577101850123,0.02363188560361345,4.830808512757091,0.8626202416014003,0.1253555054132581,-5.821759928958789,3.5
,,0.020385342868885686,0.0029623869637092617,0.00028415577101850123,0.02363188560361345,4.886229659950631,0.8626202416014003,0.1253555054132581,-5.821759928958789,3.6
,,0.020385342868885686,0.0029623869637092617,0.00028415577101850123,0.02363188560361345,4.9387339046603005,0.8626202416014003,0.1253555054132581,-5.821759928958789,3.7
,,0.020385342868885686,0.0029623869637092617,0.00028415577101850123,0.02363188560361345,4.988545624000244,0.8626202416014003,0.1253555054132581,-5.821759928958789,3.8
,,0.020385342868885686,0.0029623869637092617,0.00028415577101850123,0.02363188560361345,5.0358667573731895,0.8626202416014003,0.1253555054132581,-5.821759928958789,3.9
,,0.010880306474135551,0.001419561609008284,0.00014835218017153566,0.01244822026331537,5.099981078054282,0.8740451441239012,0.11403731448998382,-6.5574071810851695,4.0
,,0.010880306474135551,0.001419561609008284,0.00014835218017153566,0.01244822026331537,5.161042335845799,0.8740451441239012,0.11403731448998382,-6.5574071810851695,4.1
,,0.010880306474135551,0.001419561609008284,0.00014835218017153566,0.01244822026331537,5.219263535135385,0.8740451441239012,0.11403731448998382,-6.5574071810851695,4.2
,,0.010880306474135551,0.001419561609008284,0.00014835218017153566,0.01244822026331537,5.274838316275444,0.8740451441239012,0.11403731448998382,-6.5574071810851695,4.3
,,0.010880306474135551,0.001419561609008284,0.00014835218017153566,0.01244822026331537,5.3279431071426115,0.8740451441239012,0.11403731448998382,-6.5574071810851695,4.4
,,0.010880306474135551,0.001419561609008284,0.00014835218017153566,0.01244822026331537,5.3787389940590336,0.8740451441239012,0.11403731448998382,-6.5574071810851695,4.5
,,0.010880306474135551,0.001419561609008284,0.00014835218017153566,0.01244822026331537,5.427373353872628,0.8740451441239012,0.11403731448998382,-6.5574071810851695,4.6
,,0.010910632434945581,0.0012555230024568968,0.00013246918605554954,0.012298624623458028,5.495347024642709,0.8871424869846802,0.10208645607917408,-6.680203058182898,4.7
,,0.010910632434945581,0.0012555230024568968,0.00013246918605554954,0.012298624623458028,5.5605462598711535,0.8871424869846802,0.10208645607917408,-6.680203058182898,4.8
,,0.010910632434945581,0.0012555230024568968,0.00013246918605554954,0.012298624623458028,5.62313752569046,0.8871424869846802,0.10208645607917408,-6.680203058182898,4.9
,,0.010910632434945581,0.0012555230024568968,0.00013246918605554954,0.012298624623458028,5.683274232065872,0.8871424869846802,0.10208645607917408,-6.680203058182898,5.0
,,0.010910632434945581,0.0012555230024568968,0.00013246918605554954,0.012298624623458028,5.741097988196076,0.8871424869846802,0.10208645607917408,-6.680203058182898,5.1
,,0.010910632434945581,0.0012555230024568968,0.00013246918605554954,0.012298624623458028,5.796739715793065,0.8871424869846802,0.10208645607917408,-6.680203058182898,5.2
,,0.010910632434945581,0.0012555230024568968,0.00013246918605554954,0.012298624623458028,5.85032063866424,0.8871424869846802,0.10208645607917408,-6.680203058182898,5.3
,,0.021050446886110807,0.0019371372502998037,0.000158671067505152,0.023146255203915764,5.941529014691123,0.9094536762279196,0.08369117307460124,-6.246544039917397,5.4
,,0.011033632554666663,0.0011217501088750148,0.00011809701072245003,0.012273479674264128,6.0110747071922015,0.8989816129978803,0.09139625751181038,-6.7928652160500045,5.5
,,0.011033632554666663,0.0011217501088750148,0.00011809701072245003,0.012273479674264128,6.078180199956399,0.8989816129978803,0.09139625751181038,-6.7928652160500045,5.6
,,0.011033632554666663,0.0011217501088750148,0.00011809701072245003,0.012273479674264128,6.142971710211486,0.8989816129978803,0.09139625751181038,-6.7928652160500045,5.7
,,0.011033632554666663,0.0011217501088750148,0.00011809701072245003,0.012273479674264128,6.205566898085046,0.8989816129978803,0.09139625751181038,-6.7928652160500045,5.8
,,0.011033632554666663,0.0011217501088750148,0.00011809701072245003,0.012273479674264128,6.266075579696152,0.8989816129978803,0.09139625751181038,-6.7928652160500045,5.9
,,0.011033632554666663,0.0011217501088750148,0.00011809701072245003,0.012273479674264128,6.324600370106895,0.8989816129978803,0.09139625751181038,-6.7928652160500045,6.0
,,0.011075824078952632,0.0010753649464138252,9.469387417957069e-05,0.012245882899546028,6.3887131965226,0.904452881822284,0.08781440711422209,-6.835095189978401,6.1
,,0.01125845204916279,0.001027589920937339,0.00010578373921015191,0.012391825709310281,6.4612125446161945,0.9085386054698978,0.08292482036487049,-6.8805391011287895,6.2
,,0.01125845204916279,0.001027589920937339,0.00010578373921015191,0.012391825709310281,6.531446288081864,0.9085386054698978,0.08292482036487049,-6.8805391011287895,6.3
,,0.01125845204916279,0.001027589920937339,0.00010578373921015191,0.012391825709310281,6.599518993287051,0.9085386054698978,0.08292482036487049,-6.8805391011287895,6.4
,,0.01125845204916279,0.001027589920937339,0.00010578373921015191,0.012391825709310281,6.665528889243595,0.9085386054698978,0.08292482036487049,-6.8805391011287895,6.5
,,0.01125845204916279,0.001027589920937339,0.00010578373921015191,0.012391825709310281,6.729568340544721,0.9085386054698978,0.08292482036487049,-6.8805391011287895,6.6
,,0.006780874771059867,0.0009972108919062024,8.496549211871294e-05,0.007863051155084783,6.730601751133285,0.8623719517168463,0.12682238386066433,-6.910548283885349,6.7
,,0.006780874771059867,0.0009972108919062024,8.496549211871294e-05,0.007863051155084783,6.731605207791748,0.8623719517168463,0.12682238386066433,-6.910548283885349,6.8
,,0.006780874771059867,0.0009972108919062024,8.496549211871294e-05,0.007863051155084783,6.732579994259968,0.8623719517168463,0.12682238386066433,-6.910548283885349,6.9
,,0.023116070007891613,0.0015894030484262932,0.00013920405143273836,0.024844677107750644,6.842598151781556,0.9304234427212673,0.06397358442346014,-6.44439677448703,7.0
,,0.023116070007891613,0.0015894030484262932,0.00013920405143273836,0.024844677107750644,6.949560249371988,0.9304234427212673,0.06397358442346014,-6.44439677448703,7.1
,,0.023116070007891613,0.0015894030484262932,0.00013920405143273836,0.024844677107750644,7.053591878535286,0.9304234427212673,0.06397358442346014,-6.44439677448703,7.2
,,0.023116070007891613,0.0015894030484262932,0.00013920405143273836,0.024844677107750644,7.154811842045521,0.9304234427212673,0.06397358442346014,-6.44439677448703,7.3
,,0.022804563064273118,0.0015365929651210246,0.00010534773441047431,0.024446503763804618,7.257294236877095,0.9328353569330208,0.06285532606082089,-6.478187673752189,7.4
,,0.022804563064273118,0.0015365929651210246,0.00010534773441047431,0.024446503763804618,7.357079726581521,0.9328353569330208,0.06285532606082089,-6.478187673752189,7.5
,,0.022804563064273118,0.0015365929651210246,0.00010534773441047431,0.024446503763804618,7.454273385384535,0.9328353569330208,0.06285532606082089,-6.478187673752189,7.6
,,0.022804563064273118,0.0015365929651210246,0.00010534773441047431,0.024446503763804618,7.548974899090036,0.9328353569330208,0.06285532606082089,-6.478187673752189,7.7
,,0.011976784047467584,0.0009755761057499677,8.665822473721482e-05,0.013039018377954768,7.608818597699559,0.9185341795143784,0.07481975080266674,-6.932482383773641,7.8
,,0.011976784047467584,0.0009755761057499677,8.665822473721482e-05,0.013039018377954768,7.667166203843843,0.9185341795143784,0.07481975080266674,-6.932482383773641,7.9
,,0.011976784047467584,0.0009755761057499677,8.665822473721482e-05,0.013039018377954768,7.724073128354935,0.9185341795143784,0.07481975080266674,-6.932482383773641,8.0
,,0.012081726038429063,0.000985129743058753,6.99403631155727e-05,0.01313679614460339,7.779439264613848,0.91968588881485,0.07499010658420283,-6.922737206624976,8.1
,,0.012081726038429063,0.000985129743058753,6.99403631155727e-05,0.01313679614460339,7.833471277107487,0.91968588881485,0.07499010658420283,-6.922737206624976,8.2
,,0.012081726038429063,0.000985129743058753,6.99403631155727e-05,0.01313679614460339,7.886216813113181,0.91968588881485,0.07499010658420283,-6.922737206624976,8.3
,,0.012081726038429063,0.000985129743058753,6.99403631155727e-05,0.01313679614460339,7.9377212776834485,0.91968588881485,0.07499010658420283,-6.922737206624976,8.4
,,0.012081726038429063,0.000985129743058753,6.99403631155727e-05,0.01313679614460339,7.988027964007895,0.91968588881485,0.07499010658420283,-6.922737206624976,8.5
,,0.012462738185677358,0.001029423024433383,8.186111249607776e-05,0.013574022322606818,8.035367039483074,0.9181315522755054,0.0758377288594062,-6.878756804147704,8.6
,,0.012462738185677358,0.001029423024433383,8.186111249607776e-05,0.013574022322606818,8.081630226879271,0.9181315522755054,0.0758377288594062,-6.878756804147704,8.7
,,0.012582591676816685,0.0010628904898113607,6.641953850025962e-05,0.013711901705128305,8.123837623128471,0.9176401601617918,0.07751590644890893,-6.846763204862112,8.8
,,0.012582591676816685,0.0010628904898113607,6.641953850025962e-05,0.013711901705128305,8.1651070772388,0.9176401601617918,0.07751590644890893,-6.846763204862112,8.9
,,0.012582591676816685,0.0010628904898113607,6.641953850025962e-05,0.013711901705128305,8.240158519831944,0.9176401601617918,0.07751590644890893,-6.846763204862112,9.0
,,0.012582591676816685,0.0010628904898113607,6.641953850025962e-05,0.013711901705128305,8.340007153397119,0.9176401601617918,0.07751590644890893,-6.846763204862112,9.1
,,0.012582591676816685,0.0010628904898113607,6.641953850025962e-05,0.013711901705128305,8.439855786962292,0.9176401601617918,0.07751590644890893,-6.846763204862112,9.2
,,0.012582591676816685,0.0010628904898113607,6.641953850025962e-05,0.013711901705128305,8.539704420527464,0.9176401601617918,0.07751590644890893,-6.846763204862112,9.3
,,0.023490277519653824,0.0017026649562526066,0.00011426845418206492,0.025307210930088496,8.661309661001143,0.9282049130007264,0.0672798342320788,-6.375560634030611,9.4
,,0.013175575393147383,0.0012006536538654259,7.761657738684904e-05,0.014453845624399659,8.751553629941586,0.9115619286057396,0.08306811108031985,-6.724889158935148,9.5
,,0.013175575393147383,0.0012006536538654259,7.761657738684904e-05,0.014453845624399659,8.841797598882032,0.9115619286057396,0.08306811108031985,-6.724889158935148,9.6
,,0.013175575393147383,0.0012006536538654259,7.761657738684904e-05,0.014453845624399659,8.932041567822477,0.9115619286057396,0.08306811108031985,-6.724889158935148,9.7
,,0.013175575393147383,0.0012006536538654259,7.761657738684904e-05,0.014453845624399659,8.9951777458941,0.9115619286057396,0.08306811108031985,-6.724889158935148,9.8
,,0.013175575393147383,0.0012006536538654259,7.761657738684904e-05,0.014453845624399659,9.058313923965724,0.9115619286057396,0.08306811108031985,-6.724889158935148,9.9
,,0.013175575393147383,0.0012006536538654259,7.761657738684904e-05,0.014453845624399659,9.140565057116557,0.9115619286057396,0.08306811108031985,-6.724889158935148,10.0
,,0.023543526527913104,0.0018626893349619118,0.00011774872891916423,0.025523964591794183,9.241325813005568,0.9224086815839817,0.0729780566911128,-6.2857339565218275,10.1
,,0.01332702210603031,0.001233879785499637,9.050232019265937e-05,0.014651404211722608,9.321657383618888,0.9096071552900945,0.08421580400548966,-6.697591776802268,10.2
,,0.022414986192644957,0.0018987716329520157,0.00011642529935335376,0.024430183124950326,9.413145455783155,0.917512000544635,0.07772236594546102,-6.26654811085941,10.3
,,0.022414986192644957,0.0018987716329520157,0.00011642529935335376,0.024430183124950326,9.504633527947421,0.917512000544635,0.07772236594546102,-6.26654811085941,10.4
,,0.022414986192644957,0.0018987716329520157,0.00011642529935335376,0.024430183124950326,9.596121600111688,0.917512000544635,0.07772236594546102,-6.26654811085941,10.5
,,0.022414986192644957,0.0018987716329520157,0.00011642529935335376,0.024430183124950326,9.696529868069655,0.917512000544635,0.07772236594546102,-6.26654811085941,10.6
,,0.022414986192644957,0.0018987716329520157,0.00011642529935335376,0.024430183124950326,9.767001478486385,0.917512000544635,0.07772236594546102,-6.26654811085941,10.7
,,0.022414986192644957,0.0018987716329520157,0.00011642529935335376,0.024430183124950326,9.837473088903115,0.917512000544635,0.07772236594546102,-6.26654811085941,10.8
,,0.022414986192644957,0.0018987716329520157,0.00011642529935335376,0.024430183124950326,9.907944699319843,0.917512000544635,0.07772236594546102,-6.26654811085941,10.9
,,0.022126667049452847,0.0020003750040693993,9.167595840320716e-05,0.024218718011925454,9.97015260227012,0.913618426811755,0.08259623829322435,-6.214420613963801,11.0
,,0.014724387770744347,0.0016583434429296483,9.206520352017366e-05,0.01647479641719417,10.008112884743152,0.8937523352565994,0.10065941945108912,-6.401936100819289,11.1
,,0.014724387770744347,0.0016583434429296483,9.206520352017366e-05,0.01647479641719417,10.04607316721618,0.8937523352565994,0.10065941945108912,-6.401936100819289,11.2
,,0.014724387770744347,0.0016583434429296483,9.206520352017366e-05,0.01647479641719417,10.084033449689208,0.8937523352565994,0.10065941945108912,-6.401936100819289,11.3
,,0.014724387770744347,0.0016583434429296483,9.206520352017366e-05,0.01647479641719417,10.114544364851142,0.8937523352565994,0.10065941945108912,-6.401936100819289,11.4
,,0.014724387770744347,0.0016583434429296483,9.206520352017366e-05,0.01647479641719417,10.146231691275942,0.8937523352565994,0.10065941945108912,-6.401936100819289,11.5
,,0.014724387770744347,0.0016583434429296483,9.206520352017366e-05,0.01647479641719417,10.177919017700743,0.8937523352565994,0.10065941945108912,-6.401936100819289,11.6
,,0.014955677236843242,0.0017833793975431352,7.343600430037838e-05,0.016812492638686755,10.204130463868115,0.8895573998604557,0.10607465745082029,-6.329245176677911,11.7
,,0.02158478595963574,0.0023023087497603765,0.0001436159181768453,0.024030710627572963,10.241332289516384,0.8982167150258655,0.09580693577653486,-6.073842855277973,11.8
,,0.01569237155813572,0.0019647022476380685,0.00010613960499845506,0.017763213410772243,10.263110464022924,0.883419637835309,0.1106051141876505,-6.232414573061986,11.9
,,0.01569237155813572,0.0019647022476380685,0.00010613960499845506,0.017763213410772243,10.284888638529463,0.883419637835309,0.1106051141876505,-6.232414573061986,12.0
,,0.01569237155813572,0.0019647022476380685,0.00010613960499845506,0.017763213410772243,10.306666813036003,0.883419637835309,0.1106051141876505,-6.232414573061986,12.1
,,0.01569237155813572,0.0019647022476380685,0.00010613960499845506,0.017763213410772243,10.318953024608744,0.883419637835309,0.1106051141876505,-6.232414573061986,12.2
,,0.01569237155813572,0.0019647022476380685,0.00010613960499845506,0.017763213410772243,10.331239236181487,0.883419637835309,0.1106051141876505,-6.232414573061986,12.3
,,0.020963984974107692,0.0023994149706743897,0.0001124524262520266,0.023475852371034108,10.35185848685827,0.8930020790203254,0.10220778921045395,-6.03253033356208,12.4
,,0.020963984974107692,0.0023994149706743897,0.0001124524262520266,0.023475852371034108,10.372477737535052,0.8930020790203254,0.10220778921045395,-6.03253033356208,12.5
,,0.020963984974107692,0.0023994149706743897,0.0001124524262520266,0.023475852371034108,10.393096988211832,0.8930020790203254,0.10220778921045395,-6.03253033356208,12.6
,,0.020963984974107692,0.0023994149706743897,0.0001124524262520266,0.023475852371034108,10.413716238888615,0.8930020790203254,0.10220778921045395,-6.03253033356208,12.7
,,0.016846501052623985,0.0023115980346644954,0.0001240650407739651,0.019282164128062444,10.418232072245944,0.8736831063535188,0.11988270711275058,-6.069816203726717,12.8
,,0.016846501052623985,0.0023115980346644954,0.0001240650407739651,0.019282164128062444,10.422747905603275,0.8736831063535188,0.11988270711275058,-6.069816203726717,12.9
,,0.016846501052623985,0.0023115980346644954,0.0001240650407739651,0.019282164128062444,10.418561928445273,0.8736831063535188,0.11988270711275058,-6.069816203726717,13.0
,,0.017225581580004947,0.0024932295571151956,0.00010073211123681162,0.019819543248356955,10.41016625476791,0.8691210167738327,0.12579651941887637,-5.994176398007921,13.1
,,0.017225581580004947,0.0024932295571151956,0.00010073211123681162,0.019819543248356955,10.401770581090545,0.8691210167738327,0.12579651941887637,-5.994176398007921,13.2
,,0.017225581580004947,0.0024932295571151956,0.00010073211123681162,0.019819543248356955,10.39337490741318,0.8691210167738327,0.12579651941887637,-5.994176398007921,13.3
,,0.017225581580004947,0.0024932295571151956,0.00010073211123681162,0.019819543248356955,10.38497923373582,0.8691210167738327,0.12579651941887637,-5.994176398007921,13.4
,,0.019441166617721183,0.0025744479981654506,0.00017052047382868775,0.02218613508971532,10.383724039781784,0.8762754999510209,0.11603859742830423,-5.96212013749138,13.5
,,0.009229444714168185,0.002678502775528418,0.0001462590242628607,0.012054206513959463,10.336848415012769,0.7656617383715766,0.2222048189091964,-5.9224973064188875,13.6
,,0.009229444714168185,0.002678502775528418,0.0001462590242628607,0.012054206513959463,10.278577727515545,0.7656617383715766,0.2222048189091964,-5.9224973064188875,13.7
,,0.018563704201849322,0.002873617011403134,0.0001560903746393438,0.0215934115878918,10.253799267287889,0.8596929728444882,0.1330784160579088,-5.852183759981401,13.8
,,0.018563704201849322,0.002873617011403134,0.0001560903746393438,0.0215934115878918,10.229020807060232,0.8596929728444882,0.1330784160579088,-5.852183759981401,13.9
,,0.018563704201849322,0.002873617011403134,0.0001560903746393438,0.0215934115878918,10.204242346832576,0.8596929728444882,0.1330784160579088,-5.852183759981401,14.0
,,0.018563704201849322,0.002873617011403134,0.0001560903746393438,0.0215934115878918,10.17946388660492,0.8596929728444882,0.1330784160579088,-5.852183759981401,14.1
,,0.018563704201849322,0.002873617011403134,0.0001560903746393438,0.0215934115878918,10.154685426377265,0.8596929728444882,0.1330784160579088,-5.852183759981401,14.2
,,0.018563704201849322,0.002873617011403134,0.0001560903746393438,0.0215934115878918,10.129906966149607,0.8596929728444882,0.1330784160579088,-5.852183759981401,14.3
,,0.018563704201849322,0.002873617011403134,0.0001560903746393438,0.0215934115878918,10.08094326404077,0.8596929728444882,0.1330784160579088,-5.852183759981401,14.4
,,0.01828229239517516,0.002726537898217067,0.0002001443820137502,0.021208974675405976,10.046156887136494,0.8620073659843344,0.12855585618567278,-5.904722643743518,14.5
,,0.01828229239517516,0.002726537898217067,0.0002001443820137502,0.021208974675405976,10.01137051023222,0.8620073659843344,0.12855585618567278,-5.904722643743518,14.6
,,0.01828229239517516,0.002726537898217067,0.0002001443820137502,0.021208974675405976,9.976584133327945,0.8620073659843344,0.12855585618567278,-5.904722643743518,14.7
,,0.01828229239517516,0.002726537898217067,0.0002001443820137502,0.021208974675405976,9.941797756423671,0.8620073659843344,0.12855585618567278,-5.904722643743518,14.8
,,0.01828229239517516,0.002726537898217067,0.0002001443820137502,0.021208974675405976,9.907011379519398,0.8620073659843344,0.12855585618567278,-5.904722643743518,14.9
,,0.01828229239517516,0.002726537898217067,0.0002001443820137502,0.021208974675405976,9.872225002615123,0.8620073659843344,0.12855585618567278,-5.904722643743518,15.0
,,0.01828229239517516,0.002726537898217067,0.0002001443820137502,0.021208974675405976,9.8322885388983,0.8620073659843344,0.12855585618567278,-5.904722643743518,15.1
,,0.0204323386325534,0.0032467278629461443,0.00023215052409720978,0.023911217019596753,9.780477843054491,0.8545085185671565,0.1357826270526191,-5.730107601216725,15.2
,,0.0204323386325534,0.0032467278629461443,0.00023215052409720978,0.023911217019596753,9.728667147210682,0.8545085185671565,0.1357826270526191,-5.730107601216725,15.3
,,0.02140294567290459,0.0034574534162888746,0.0002007099136454588,0.02506110900283892,9.675713885915977,0.8540302693899167,0.13796091050468734,-5.667222967751448,15.4
,,0.02140294567290459,0.0034574534162888746,0.0002007099136454588,0.02506110900283892,9.622760624621272,0.8540302693899167,0.13796091050468734,-5.667222967751448,15.5
,,0.02140294567290459,0.0034574534162888746,0.0002007099136454588,0.02506110900283892,9.569807363326564,0.8540302693899167,0.13796091050468734,-5.667222967751448,15.6
,,0.02140294567290459,0.0034574534162888746,0.0002007099136454588,0.02506110900283892,9.56303556720799,0.8540302693899167,0.13796091050468734,-5.667222967751448,15.7
,,0.02140294567290459,0.0034574534162888746,0.0002007099136454588,0.02506110900283892,9.556263771089416,0.8540302693899167,0.13796091050468734,-5.667222967751448,15.8
,,0.02140294567290459,0.0034574534162888746,0.0002007099136454588,0.02506110900283892,9.54949197497084,0.8540302693899167,0.13796091050468734,-5.667222967751448,15.9
,,0.021841066987573602,0.0035903016083566187,0.00016200736640711454,0.025593375962337336,9.455486223958237,0.8533874944717902,0.14028245486801075,-5.629519066541073,16.0
,,0.022450708342603813,0.003584193640992218,0.00021461171815715627,0.026249513701753185,9.363485567575546,0.8552809243511565,0.13654323968496346,-5.631221756034279,16.1
,,0.022599991809758354,0.003580190173722619,0.00021576247704664585,0.02639594446052762,9.272026038331754,0.8561918230868489,0.13563410012005517,-5.632339358828837,16.2
,,0.022599991809758354,0.003580190173722619,0.00021576247704664585,0.02639594446052762,9.180566509087965,0.8561918230868489,0.13563410012005517,-5.632339358828837,16.3
,,0.022599991809758354,0.003580190173722619,0.00021576247704664585,0.02639594446052762,9.08580562122061,0.8561918230868489,0.13563410012005517,-5.632339358828837,16.4
,,0.022599991809758354,0.003580190173722619,0.00021576247704664585,0.02639594446052762,8.991044733353254,0.8561918230868489,0.13563410012005517,-5.632339358828837,16.5
,,0.022599991809758354,0.003580190173722619,0.00021576247704664585,0.02639594446052762,8.896283845485897,0.8561918230868489,0.13563410012005517,-5.632339358828837,16.6
,,0.023026625990451365,0.0036652255624820347,0.0001750788283212094,0.02686693038125461,8.801189030337149,0.8570620336485231,0.13642144861622554,-5.608865400521777,16.7
,,0.023026625990451365,0.0036652255624820347,0.0001750788283212094,0.02686693038125461,8.734587152579193,0.8570620336485231,0.13642144861622554,-5.608865400521777,16.8
,,0.023026625990451365,0.0036652255624820347,0.0001750788283212094,0.02686693038125461,8.667985274821236,0.8570620336485231,0.13642144861622554,-5.608865400521777,16.9
,,0.023026625990451365,0.0036652255624820347,0.0001750788283212094,0.02686693038125461,8.60138339706328,0.8570620336485231,0.13642144861622554,-5.608865400521777,17.0
,,0.02343470010128836,0.003560386438818934,0.00022275663516779415,0.027217843175275088,8.538249731962345,0.8610050381426487,0.1308107485185754,-5.63788618977931,17.1
,,0.02343470010128836,0.003560386438818934,0.00022275663516779415,0.027217843175275088,8.47511606686141,0.8610050381426487,0.1308107485185754,-5.63788618977931,17.2
,,0.02343470010128836,0.003560386438818934,0.00022275663516779415,0.027217843175275088,8.411982401760476,0.8610050381426487,0.1308107485185754,-5.63788618977931,17.3
,,0.02343470010128836,0.003560386438818934,0.00022275663516779415,0.027217843175275088,8.34884873665954,0.8610050381426487,0.1308107485185754,-5.63788618977931,17.4
,,0.02380885104092534,0.003597832058315471,0.00018127116980982527,0.027587954269050637,8.28610938736404,0.8630161848439462,0.13041315145109092,-5.627423820942431,17.5
,,0.02380885104092534,0.003597832058315471,0.00018127116980982527,0.027587954269050637,8.225120802193398,0.8630161848439462,0.13041315145109092,-5.627423820942431,17.6
,,0.02380885104092534,0.003597832058315471,0.00018127116980982527,0.027587954269050637,8.164132217022757,0.8630161848439462,0.13041315145109092,-5.627423820942431,17.7
,,0.02380885104092534,0.003597832058315471,0.00018127116980982527,0.027587954269050637,8.10612628782201,0.8630161848439462,0.13041315145109092,-5.627423820942431,17.8
,,0.015424573973358776,0.0021375318942907207,0.00018453895164092385,0.01774664481929042,8.054770496623046,0.8691543742731823,0.12044709949721007,-6.14810343595908,17.9
,,0.023678271070128112,0.0033899476582020314,0.00022037255728213646,0.02728859128561228,8.000845608645973,0.8676985492692807,0.12422582106645269,-5.686940797767375,18.0
,,0.023678271070128112,0.0033899476582020314,0.00022037255728213646,0.02728859128561228,7.946920720668896,0.8676985492692807,0.12422582106645269,-5.686940797767375,18.1
,,0.023989271195717782,0.003386366397085641,0.00021802989216901256,0.027593667484972436,7.894098340850173,0.869375961306426,0.12272259201970388,-5.687997791708505,18.2
,,0.023989271195717782,0.003386366397085641,0.00021802989216901256,0.027593667484972436,7.841275961031448,0.869375961306426,0.12272259201970388,-5.687997791708505,18.3
,,0.023989271195717782,0.003386366397085641,0.00021802989216901256,0.027593667484972436,7.766696974304218,0.869375961306426,0.12272259201970388,-5.687997791708505,18.4
,,0.023989271195717782,0.003386366397085641,0.00021802989216901256,0.027593667484972436,7.723479259110222,0.869375961306426,0.12272259201970388,-5.687997791708505,18.5
,,0.023989271195717782,0.003386366397085641,0.00021802989216901256,0.027593667484972436,7.680261543916228,0.869375961306426,0.12272259201970388,-5.687997791708505,18.6
,,0.023989271195717782,0.003386366397085641,0.00021802989216901256,0.027593667484972436,7.637043828722232,0.869375961306426,0.12272259201970388,-5.687997791708505,18.7
,,0.014912820794932877,0.00187606428386781,0.0001667726958862961,0.016955657774686984,7.6034363148938535,0.8795188599050491,0.1106453261087032,-6.278579162531129,18.8
,,0.024189117294037752,0.0032392685112538743,0.00024730478769983315,0.027675690592991457,7.564478472459503,0.8740203686249969,0.11704381866713674,-5.73240774279888,18.9
,,0.023348053906175014,0.0030553340881748674,0.00020397479170928512,0.026607362786059165,7.527456988862856,0.8775034975810585,0.11483039911703309,-5.79086633450633,19.0
,,0.023348053906175014,0.0030553340881748674,0.00020397479170928512,0.026607362786059165,7.47192588252803,0.8775034975810585,0.11483039911703309,-5.79086633450633,19.1
,,0.023348053906175014,0.0030553340881748674,0.00020397479170928512,0.026607362786059165,7.436823961468897,0.8775034975810585,0.11483039911703309,-5.79086633450633,19.2
,,0.023348053906175014,0.0030553340881748674,0.00020397479170928512,0.026607362786059165,7.390565538858815,0.8775034975810585,0.11483039911703309,-5.79086633450633,19.3
,,0.023348053906175014,0.0030553340881748674,0.00020397479170928512,0.026607362786059165,7.344307116248735,0.8775034975810585,0.11483039911703309,-5.79086633450633,19.4
,,0.023348053906175014,0.0030553340881748674,0.00020397479170928512,0.026607362786059165,7.298048693638653,0.8775034975810585,0.11483039911703309,-5.79086633450633,19.5
,,0.023482754318612232,0.003002265367693863,0.00016481567449707797,0.026649835360803172,7.253789640960217,0.8811594518572856,0.11265605685915879,-5.8083881527110055,19.6
,,0.022604371246948345,0.0027588268615650864,0.00018966561554846552,0.025552863724061896,7.213661630191816,0.8846120533121656,0.10796546685948286,-5.89294973977008,19.7
,,0.023482754318612232,0.003002265367693863,0.00016481567449707797,0.026649835360803172,7.16940257751338,0.8811594518572856,0.11265605685915879,-5.8083881527110055,19.8
,,0.022139083139118252,0.002682735299120099,0.00018558204724966834,0.02500740048548802,7.12992964439902,0.8853012591998807,0.10727765569543743,-5.920918370952091,19.9
,,0.022139083139118252,0.002682735299120099,0.00018558204724966834,0.02500740048548802,7.098720418751112,0.8853012591998807,0.10727765569543743,-5.920918370952091,20.0
,,0.022139083139118252,0.002682735299120099,0.00018558204724966834,0.02500740048548802,7.091758813580452,0.8853012591998807,0.10727765569543743,-5.920918370952091,20.1
,,0.022139083139118252,0.002682735299120099,0.00018558204724966834,0.02500740048548802,7.084797208409793,0.8853012591998807,0.10727765569543743,-5.920918370952091,20.2
,,0.022124214146826665,0.0026153043716803256,0.0001505958246043374,0.024890114343111325,7.080136588711345,0.8888755528336831,0.10507401997549064,-5.946374793714543,20.3
,,0.022124214146826665,0.0026153043716803256,0.0001505958246043374,0.024890114343111325,7.075475969012896,0.8888755528336831,0.10507401997549064,-5.946374793714543,20.4
,,0.022124214146826665,0.0026153043716803256,0.0001505958246043374,0.024890114343111325,7.070815349314447,0.8888755528336831,0.10507401997549064,-5.946374793714543,20.5
,,0.014544098780315309,0.0013620210678386769,0.00012492539467686212,0.016031045242830846,7.0908081023605245,0.9072458195961672,0.08496146366050453,-6.598785603064114,20.6
,,0.022124214146826665,0.0026153043716803256,0.0001505958246043374,0.024890114343111325,7.091623362919505,0.8888755528336831,0.10507401997549064,-5.946374793714543,20.7
,,0.020396914482527784,0.0023010725128964882,0.00016426582202784824,0.02286225281745212,7.085943492600595,0.8921655553978304,0.10064942117777398,-6.0743799547807384,20.8
,,0.020396914482527784,0.0023010725128964882,0.00016426582202784824,0.02286225281745212,7.095687273423413,0.8921655553978304,0.10064942117777398,-6.0743799547807384,20.9
,,0.020340375141058374,0.0022435414435728264,0.0001573793625645932,0.022741295947195792,7.107676617353634,0.89442462682372,0.09865495127376307,-6.099699659987486,21.0
,,0.020340375141058374,0.0022435414435728264,0.0001573793625645932,0.022741295947195792,7.119665961283854,0.89442462682372,0.09865495127376307,-6.099699659987486,21.1
,,0.020340375141058374,0.0022435414435728264,0.0001573793625645932,0.022741295947195792,7.131655305214075,0.89442462682372,0.09865495127376307,-6.099699659987486,21.2
,,0.020340375141058374,0.0022435414435728264,0.0001573793625645932,0.022741295947195792,7.143644649144294,0.89442462682372,0.09865495127376307,-6.099699659987486,21.3
,,0.020340375141058374,0.0022435414435728264,0.0001573793625645932,0.022741295947195792,7.1473009539704755,0.89442462682372,0.09865495127376307,-6.099699659987486,21.4
,,0.020340375141058374,0.0022435414435728264,0.0001573793625645932,0.022741295947195792,7.150957258796654,0.89442462682372,0.09865495127376307,-6.099699659987486,21.5
,,0.020340375141058374,0.0022435414435728264,0.0001573793625645932,0.022741295947195792,7.154613563622835,0.89442462682372,0.09865495127376307,-6.099699659987486,21.6
,,0.014349663997805077,0.001157724744489853,9.9444630061447e-05,0.015606833372356375,7.195253428086773,0.9194475045284932,0.07418063080884009,-6.761298627145082,21.7
,,0.014349663997805077,0.001157724744489853,9.9444630061447e-05,0.015606833372356375,7.251996709870164,0.9194475045284932,0.07418063080884009,-6.761298627145082,21.8
,,0.014349663997805077,0.001157724744489853,9.9444630061447e-05,0.015606833372356375,7.308739991653553,0.9194475045284932,0.07418063080884009,-6.761298627145082,21.9
,,0.014349663997805077,0.001157724744489853,9.9444630061447e-05,0.015606833372356375,7.365483273436944,0.9194475045284932,0.07418063080884009,-6.761298627145082,22.0
,,0.014349663997805077,0.001157724744489853,9.9444630061447e-05,0.015606833372356375,7.426436251739696,0.9194475045284932,0.07418063080884009,-6.761298627145082,22.1
,,0.014349663997805077,0.001157724744489853,9.9444630061447e-05,0.015606833372356375,7.487389230042448,0.9194475045284932,0.07418063080884009,-6.761298627145082,22.2
,,0.014349663997805077,0.001157724744489853,9.9444630061447e-05,0.015606833372356375,7.5483422083452,0.9194475045284932,0.07418063080884009,-6.761298627145082,22.3
,,0.018482525892972248,0.0019101983013652692,0.00011210680184244215,0.02050483099617996,7.579084067172285,0.9013742125655917,0.09315845137768453,-6.260548219608473,22.4
,,0.018482525892972248,0.0019101983013652692,0.00011210680184244215,0.02050483099617996,7.602685446276042,0.9013742125655917,0.09315845137768453,-6.260548219608473,22.5
,,0.016872332342680926,0.0017086103655977734,0.00012150533479977052,0.01870244804307847,7.674120315006937,0.90214566049417,0.09135757851925205,-6.37207489054517,22.6
,,0.016872332342680926,0.0017086103655977734,0.00012150533479977052,0.01870244804307847,7.745555183737833,0.90214566049417,0.09135757851925205,-6.37207489054517,22.7
,,0.016872332342680926,0.0017086103655977734,0.00012150533479977052,0.01870244804307847,7.783497825199162,0.90214566049417,0.09135757851925205,-6.37207489054517,22.8
,,0.016872332342680926,0.0017086103655977734,0.00012150533479977052,0.01870244804307847,7.821440466660491,0.90214566049417,0.09135757851925205,-6.37207489054517,22.9
,,0.016872332342680926,0.0017086103655977734,0.00012150533479977052,0.01870244804307847,7.85938310812182,0.90214566049417,0.09135757851925205,-6.37207489054517,23.0
,,0.014983478213280221,0.0011506243929761944,7.236485575944584e-05,0.016206467462015862,7.932294141864237,0.9245369633078869,0.07099785290489656,-6.767450533537141,23.1
,,0.014983478213280221,0.0011506243929761944,7.236485575944584e-05,0.016206467462015862,8.005205175606655,0.9245369633078869,0.07099785290489656,-6.767450533537141,23.2
,,0.01588991353599068,0.0015992639910191067,0.00011232647299615054,0.01760150400000594,8.043824268251013,0.9027588515154908,0.09085950785901972,-6.438211761184499,23.3
,,0.014983478213280221,0.0011506243929761944,7.236485575944584e-05,0.016206467462015862,8.11673530199343,0.9245369633078869,0.07099785290489656,-6.767450533537141,23.4
,,0.015415662257114007,0.001550890417186447,0.00010924206523959595,0.017075794739540053,8.152674908550997,0.9027786110252364,0.09082390839445176,-6.46892605029058,23.5
,,0.015415662257114007,0.001550890417186447,0.00010924206523959595,0.017075794739540053,8.188614515108561,0.9027786110252364,0.09082390839445176,-6.46892605029058,23.6
,,0.015415662257114007,0.001550890417186447,0.00010924206523959595,0.017075794739540053,8.224554121666127,0.9027786110252364,0.09082390839445176,-6.46892605029058,23.7
,,0.01526849629129759,0.0015607977593313658,8.884802661291115e-05,0.016918142077241866,8.258745023177292,0.9024924972013703,0.0922558607325409,-6.462558204246251,23.8
,,0.01526849629129759,0.0015607977593313658,8.884802661291115e-05,0.016918142077241866,8.292935924688459,0.9024924972013703,0.0922558607325409,-6.462558204246251,23.9
,,0.01526849629129759,0.0015607977593313658,8.884802661291115e-05,0.016918142077241866,8.327126826199624,0.9024924972013703,0.0922558607325409,-6.462558204246251,24.0
,,0.01526849629129759,0.0015607977593313658,8.884802661291115e-05,0.016918142077241866,8.36131772771079,0.9024924972013703,0.0922558607325409,-6.462558204246251,24.1
,,0.014304595492589965,0.0014638636180598107,9.987947308637691e-05,0.015868338583736152,8.399968831855798,0.9014551471224023,0.09225059134799155,-6.526676024845377,24.2
,,0.01526849629129759,0.0015607977593313658,8.884802661291115e-05,0.016918142077241866,8.438738670843525,0.9024924972013703,0.0922558607325409,-6.462558204246251,24.3
,,0.007770910340307435,0.0014318313181368055,9.78816271356324e-05,0.009300623285579873,8.430259493702223,0.8355257601236061,0.1539500390642404,-6.548801011979214,24.4
,,0.01376774686146392,0.0014526823462450212,9.549660446226896e-05,0.01531592581217121,8.466782681694873,0.8989170508075335,0.09484783120917237,-6.53434353753415,24.5
,,0.01376774686146392,0.0014526823462450212,9.549660446226896e-05,0.01531592581217121,8.503305869687523,0.8989170508075335,0.09484783120917237,-6.53434353753415,24.6
,,0.01376774686146392,0.0014526823462450212,9.549660446226896e-05,0.01531592581217121,8.539829057680175,0.8989170508075335,0.09484783120917237,-6.53434353753415,24.7
,,0.01376774686146392,0.0014526823462450212,9.549660446226896e-05,0.01531592581217121,8.576352245672824,0.8989170508075335,0.09484783120917237,-6.53434353753415,24.8
,,0.01376774686146392,0.0014526823462450212,9.549660446226896e-05,0.01531592581217121,8.612875433665476,0.8989170508075335,0.09484783120917237,-6.53434353753415,24.9
,,0.01376774686146392,0.0014526823462450212,9.549660446226896e-05,0.01531592581217121,8.650587810799648,0.8989170508075335,0.09484783120917237,-6.53434353753415,25.0
,,0.01376774686146392,0.0014526823462450212,9.549660446226896e-05,0.01531592581217121,8.686295093303908,0.8989170508075335,0.09484783120917237,-6.53434353753415,25.1
,,0.017829005509759167,0.0016086532048697837,9.818859416523877e-05,0.01953584730879419,8.739302606785174,0.912630265170701,0.0823436618562041,-6.432357968777209,25.2
,,0.017829005509759167,0.0016086532048697837,9.818859416523877e-05,0.01953584730879419,8.792310120266437,0.912630265170701,0.0823436618562041,-6.432357968777209,25.3
,,0.017829005509759167,0.0016086532048697837,9.818859416523877e-05,0.01953584730879419,8.845317633747701,0.912630265170701,0.0823436618562041,-6.432357968777209,25.4
,,0.017829005509759167,0.0016086532048697837,9.818859416523877e-05,0.01953584730879419,8.898325147228965,0.912630265170701,0.0823436618562041,-6.432357968777209,25.5
,,0.017829005509759167,0.0016086532048697837,9.818859416523877e-05,0.01953584730879419,8.95133266071023,0.912630265170701,0.0823436618562041,-6.432357968777209,25.6
,,0.017829005509759167,0.0016086532048697837,9.818859416523877e-05,0.01953584730879419,9.004674101472887,0.912630265170701,0.0823436618562041,-6.432357968777209,25.7
,,0.017829005509759167,0.0016086532048697837,9.818859416523877e-05,0.01953584730879419,9.058015542235543,0.912630265170701,0.0823436618562041,-6.432357968777209,25.8
,,0.012206942659818849,0.0014257581356880375,8.896270607431602e-05,0.013721663501581204,9.083340680124381,0.8896109905633667,0.10390563327279827,-6.553051581692434,25.9
,,0.011990470678670425,0.001401529146295456,8.733790116219294e-05,0.013479337726128075,9.10859422838183,0.8895444956044346,0.10397611327585927,-6.570191391075172,26.0
,,0.011990470678670425,0.001401529146295456,8.733790116219294e-05,0.013479337726128075,9.13051879495622,0.8895444956044346,0.10397611327585927,-6.570191391075172,26.1
,,0.011990470678670425,0.001401529146295456,8.733790116219294e-05,0.013479337726128075,9.15244336153061,0.8895444956044346,0.10397611327585927,-6.570191391075172,26.2
,,0.011990470678670425,0.001401529146295456,8.733790116219294e-05,0.013479337726128075,9.174367928104997,0.8895444956044346,0.10397611327585927,-6.570191391075172,26.3
,,0.011990470678670425,0.001401529146295456,8.733790116219294e-05,0.013479337726128075,9.196292494679385,0.8895444956044346,0.10397611327585927,-6.570191391075172,26.4
,,0.011990470678670425,0.001401529146295456,8.733790116219294e-05,0.013479337726128075,9.21782274544834,0.8895444956044346,0.10397611327585927,-6.570191391075172,26.5
,,0.011990470678670425,0.001401529146295456,8.733790116219294e-05,0.013479337726128075,9.239352996217294,0.8895444956044346,0.10397611327585927,-6.570191391075172,26.6
,,0.02090579352494775,0.0021952983626748307,9.358066285013118e-05,0.023194672550472712,9.2716355540153,0.9013187609980589,0.0946466632757051,-6.121437313366757,26.7
,,0.02090579352494775,0.0021952983626748307,9.358066285013118e-05,0.023194672550472712,9.303918111813305,0.9013187609980589,0.0946466632757051,-6.121437313366757,26.8
,,0.011011129093127323,0.0013650086487199484,8.353569673367262e-05,0.012459673438580945,9.31336969896983,0.8837413875576984,0.10955412719672465,-6.596594514306717,26.9
,,0.011011129093127323,0.0013650086487199484,8.353569673367262e-05,0.012459673438580945,9.325390382904464,0.8837413875576984,0.10955412719672465,-6.596594514306717,27.0
,,0.011011129093127323,0.0013650086487199484,8.353569673367262e-05,0.012459673438580945,9.3374110668391,0.8837413875576984,0.10955412719672465,-6.596594514306717,27.1
,,0.011011129093127323,0.0013650086487199484,8.353569673367262e-05,0.012459673438580945,9.348329242615383,0.8837413875576984,0.10955412719672465,-6.596594514306717,27.2
,,0.011011129093127323,0.0013650086487199484,8.353569673367262e-05,0.012459673438580945,9.35924741839167,0.8837413875576984,0.10955412719672465,-6.596594514306717,27.3
,,0.010948662189660008,0.001442030999149127,6.835842811327757e-05,0.012459051616922411,9.364896915029098,0.8787717176473586,0.11574163455511327,-6.541702743020952,27.4
,,0.010948662189660008,0.001442030999149127,6.835842811327757e-05,0.012459051616922411,9.370546411666528,0.8787717176473586,0.11574163455511327,-6.541702743020952,27.5
,,0.010948662189660008,0.001442030999149127,6.835842811327757e-05,0.012459051616922411,9.376195908303956,0.8787717176473586,0.11574163455511327,-6.541702743020952,27.6
,,0.010077176203262221,0.001320754178632767,8.020905341282849e-05,0.011478139435307818,9.382260250338184,0.8779450938070935,0.11506692230711234,-6.629552358091602,27.7
,,0.010077176203262221,0.001320754178632767,8.020905341282849e-05,0.011478139435307818,9.378714391006799,0.8779450938070935,0.11506692230711234,-6.629552358091602,27.8
,,0.010077176203262221,0.001320754178632767,8.020905341282849e-05,0.011478139435307818,9.380518860281382,0.8779450938070935,0.11506692230711234,-6.629552358091602,27.9
,,0.010077176203262221,0.001320754178632767,8.020905341282849e-05,0.011478139435307818,9.380386970718265,0.8779450938070935,0.11506692230711234,-6.629552358091602,28.0
,,0.010077176203262221,0.001320754178632767,8.020905341282849e-05,0.011478139435307818,9.380255081155145,0.8779450938070935,0.11506692230711234,-6.629552358091602,28.1
,,0.025392721138180113,0.0031566886800582445,0.00013549119462822563,0.02868490101286658,9.38472580775441,0.8852295194182555,0.11004704804950574,-5.75823168685728,28.2
,,0.025392721138180113,0.0031566886800582445,0.00013549119462822563,0.02868490101286658,9.389196534353676,0.8852295194182555,0.11004704804950574,-5.75823168685728,28.3
,,0.009377714702842412,0.001294000295636381,7.854014361341549e-05,0.010750255142092208,9.384811400163297,0.8723248498655937,0.12036926366238257,-6.65001685443639,28.4
,,0.025392721138180113,0.0031566886800582445,0.00013549119462822563,0.02868490101286658,9.389282126762563,0.8852295194182555,0.11004704804950574,-5.75823168685728,28.5
,,0.025766473297271764,0.0031915339366931786,0.00018943345535308925,0.02914744068931803,9.392078835206286,0.8840046565980209,0.10949619799253296,-5.747253619862946,28.6
,,0.025766473297271764,0.0031915339366931786,0.00018943345535308925,0.02914744068931803,9.390744501739976,0.8840046565980209,0.10949619799253296,-5.747253619862946,28.7
,,0.025766473297271764,0.0031915339366931786,0.00018943345535308925,0.02914744068931803,9.3935412101837,0.8840046565980209,0.10949619799253296,-5.747253619862946,28.8
,,0.009155261071149478,0.0013355261995523528,6.336598892514888e-05,0.01055415325962698,9.378016123963617,0.8674557632369512,0.12654034546391976,-6.618429907821321,28.9
,,0.009155261071149478,0.0013355261995523528,6.336598892514888e-05,0.01055415325962698,9.362491037743537,0.8674557632369512,0.12654034546391976,-6.618429907821321,29.0
,,0.009155261071149478,0.0013355261995523528,6.336598892514888e-05,0.01055415325962698,9.346965951523456,0.8674557632369512,0.12654034546391976,-6.618429907821321,29.1
,,0.009155261071149478,0.0013355261995523528,6.336598892514888e-05,0.01055415325962698,9.331440865303374,0.8674557632369512,0.12654034546391976,-6.618429907821321,29.2
,,0.009155261071149478,0.0013355261995523528,6.336598892514888e-05,0.01055415325962698,9.313614793611082,0.8674557632369512,0.12654034546391976,-6.618429907821321,29.3
,,0.008665707624590147,0.0012330096465644703,7.546284833316465e-05,0.009974180119487782,9.297710082938135,0.868814029902958,0.12362015040768994,-6.698297231177274,29.4
,,0.008665707624590147,0.0012330096465644703,7.546284833316465e-05,0.009974180119487782,9.281805372265188,0.868814029902958,0.12362015040768994,-6.698297231177274,29.5
,,0.008479993372612916,0.0012766661542231179,6.195405794972214e-05,0.009818613584785757,9.236960635352668,0.863665047960837,0.13002509399100412,-6.663503165849586,29.6
,,0.008479993372612916,0.0012766661542231179,6.195405794972214e-05,0.009818613584785757,9.216769271184676,0.863665047960837,0.13002509399100412,-6.663503165849586,29.7
,,0.008479993372612916,0.0012766661542231179,6.195405794972214e-05,0.009818613584785757,9.192082658413675,0.863665047960837,0.13002509399100412,-6.663503165849586,29.8
,,0.008479993372612916,0.0012766661542231179,6.195405794972214e-05,0.009818613584785757,9.167396045642676,0.863665047960837,0.13002509399100412,-6.663503165849586,29.9
,,0.008479993372612916,0.0012766661542231179,6.195405794972214e-05,0.009818613584785757,9.140463869764275,0.863665047960837,0.13002509399100412,-6.663503165849586,30.0
,,0.028679319088322903,0.003947623506509467,0.00024196070233133412,0.0328689032971637,9.120450170593411,0.8725365379257323,0.12010207553381048,-5.534641525051091,30.1
,,0.008479993372612916,0.0012766661542231179,6.195405794972214e-05,0.009818613584785757,9.093517994715011,0.863665047960837,0.13002509399100412,-6.663503165849586,30.2
,,0.008197204410203942,0.0011929735623658329,7.405962692951896e-05,0.009464237599499293,9.069129620505445,0.8661241144915484,0.12605067759805053,-6.731306296744068,30.3
,,0.007967469911116793,0.0012219276166469462,7.68714517578309e-05,0.009266268979521571,9.040843173281342,0.8598358118812307,0.1318683516901358,-6.707325653500245,30.4
,,0.007967469911116793,0.0012219276166469462,7.68714517578309e-05,0.009266268979521571,9.01255672605724,0.8598358118812307,0.1318683516901358,-6.707325653500245,30.5
,,0.007967469911116793,0.0012219276166469462,7.68714517578309e-05,0.009266268979521571,8.984270278833137,0.8598358118812307,0.1318683516901358,-6.707325653500245,30.6
,,0.007967469911116793,0.0012219276166469462,7.68714517578309e-05,0.009266268979521571,8.919000271971274,0.8598358118812307,0.1318683516901358,-6.707325653500245,30.7
,,0.007967469911116793,0.0012219276166469462,7.68714517578309e-05,0.009266268979521571,8.853730265109416,0.8598358118812307,0.1318683516901358,-6.707325653500245,30.8
,,0.007967469911116793,0.0012219276166469462,7.68714517578309e-05,0.009266268979521571,8.788460258247554,0.8598358118812307,0.1318683516901358,-6.707325653500245,30.9
,,0.028846297589694942,0.004110319324386607,0.00025754865578242735,0.03321416556986397,8.728719228329995,0.8684938216803464,0.12375199719351074,-5.494254558994097,31.0
,,0.007694060843306819,0.0011974650900029931,8.589423392037468e-05,0.008977420167230186,8.662392328237923,0.8570458661823641,0.13338632565890568,-6.727548381502479,31.1
,,0.0038885937214997246,0.001176172154565788,7.504007731708626e-05,0.0051398059533825985,8.561408239421304,0.7565643054949519,0.22883590649793462,-6.745490050282768,31.2
,,0.0038885937214997246,0.001176172154565788,7.504007731708626e-05,0.0051398059533825985,8.460424150604686,0.7565643054949519,0.22883590649793462,-6.745490050282768,31.3
,,0.0038885937214997246,0.001176172154565788,7.504007731708626e-05,0.0051398059533825985,8.389651181263732,0.7565643054949519,0.22883590649793462,-6.745490050282768,31.4
,,0.0038885937214997246,0.001176172154565788,7.504007731708626e-05,0.0051398059533825985,8.318878211922781,0.7565643054949519,0.22883590649793462,-6.745490050282768,31.5
,,0.0038885937214997246,0.001176172154565788,7.504007731708626e-05,0.0051398059533825985,8.245892183769673,0.7565643054949519,0.22883590649793462,-6.745490050282768,31.6
,,0.0038885937214997246,0.001176172154565788,7.504007731708626e-05,0.0051398059533825985,8.172906155616564,0.7565643054949519,0.22883590649793462,-6.745490050282768,31.7
,,0.0038885937214997246,0.001176172154565788,7.504007731708626e-05,0.0051398059533825985,8.099920127463456,0.7565643054949519,0.22883590649793462,-6.745490050282768,31.8
,,0.00369106627369456,0.0011411617963289428,7.415783046004873e-05,0.0049063859004835515,8.026137852442854,0.752298402237538,0.23258704461393365,-6.775708415938756,31.9
,,0.027880254402153568,0.00426461907497466,0.0003115646283832537,0.032456438105511486,7.989056587693823,0.8590053631738219,0.13139516607185794,-5.4574024162184145,32.0
,,0.007397904304416485,0.0011415091712325103,7.403168821027041e-05,0.008613445163859266,7.916376243848787,0.8588786674415705,0.13252643390847985,-6.775404057657439,32.1
,,0.007397904304416485,0.0011415091712325103,7.403168821027041e-05,0.008613445163859266,7.843695900003751,0.8588786674415705,0.13252643390847985,-6.775404057657439,32.2
,,0.007397904304416485,0.0011415091712325103,7.403168821027041e-05,0.008613445163859266,7.805307497256774,0.8588786674415705,0.13252643390847985,-6.775404057657439,32.3
,,0.007397904304416485,0.0011415091712325103,7.403168821027041e-05,0.008613445163859266,7.732627153411739,0.8588786674415705,0.13252643390847985,-6.775404057657439,32.4
,,0.007397904304416485,0.0011415091712325103,7.403168821027041e-05,0.008613445163859266,7.694193061829118,0.8588786674415705,0.13252643390847985,-6.775404057657439,32.5
,,0.02562022794463893,0.004090126876851093,0.00021393317600698592,0.02992428799749701,7.653349079982531,0.856168338801642,0.1366825127867105,-5.499179288173589,32.6
,,0.02562022794463893,0.004090126876851093,0.00021393317600698592,0.02992428799749701,7.612505098135945,0.856168338801642,0.1366825127867105,-5.499179288173589,32.7
,,0.02562022794463893,0.004090126876851093,0.00021393317600698592,0.02992428799749701,7.573409821335758,0.856168338801642,0.1366825127867105,-5.499179288173589,32.8
,,0.02562022794463893,0.004090126876851093,0.00021393317600698592,0.02992428799749701,7.534314544535573,0.856168338801642,0.1366825127867105,-5.499179288173589,32.9
,,0.0073395809115117585,0.001122976435696608,7.385634758899672e-05,0.008536413694797363,7.498240467442695,0.8597967687513749,0.13155131368352282,-6.79177258679718,33.0
,,0.007343753749307062,0.0011235176748761943,7.387375387519193e-05,0.008541145178058448,7.4621726741017484,0.8598090298444531,0.13154180750403655,-6.791290734485606,33.1
,,0.0073395809115117585,0.001122976435696608,7.385634758899672e-05,0.008536413694797363,7.426217331851592,0.8597967687513749,0.13155131368352282,-6.79177258679718,33.2
,,0.0073395809115117585,0.001122976435696608,7.385634758899672e-05,0.008536413694797363,7.390143254758716,0.8597967687513749,0.13155131368352282,-6.79177258679718,33.3
,,0.007095676049238811,0.001118690686520404,6.115318556345035e-05,0.008275519921322664,7.400316447496093,0.857429637859505,0.13518071337584373,-6.795596307416087,33.4
,,0.007095676049238811,0.001118690686520404,6.115318556345035e-05,0.008275519921322664,7.365487275099521,0.857429637859505,0.13518071337584373,-6.795596307416087,33.5
,,0.007097096467760371,0.0011189221100380673,6.116568717523417e-05,0.008277184264973671,7.330657631378051,0.85742883576882,0.13518149097791365,-6.795389458832771,33.6
,,0.007097096467760371,0.0011189221100380673,6.116568717523417e-05,0.008277184264973671,7.29582798765658,0.85742883576882,0.13518149097791365,-6.795389458832771,33.7
,,0.007314210376633277,0.0011114206218920258,7.437201974593058e-05,0.008500003018271234,7.263644550107098,0.860495032873632,0.13075532085141203,-6.802116242412038,33.8
,,0.007388561012243388,0.0011151993377692601,7.429622511669821e-05,0.008578056575129346,7.231954129271147,0.8613327444896198,0.13000605999762183,-6.798722111780591,33.9
,,0.00738976027723309,0.001115386409693713,7.430765049810852e-05,0.008579454337424911,7.200263308496024,0.861332199764478,0.13000668408808058,-6.798554378327524,34.0
,,0.00738976027723309,0.001115386409693713,7.430765049810852e-05,0.008579454337424911,7.168572487720899,0.861332199764478,0.13000668408808058,-6.798554378327524,34.1
,,0.018960493096448764,0.003003354059494354,0.00017381676474297514,0.02213766392068609,7.115571581364254,0.8564812061642835,0.13566716299672119,-5.808025595001308,34.2
,,0.018960493096448764,0.003003354059494354,0.00017381676474297514,0.02213766392068609,7.062570675007607,0.8564812061642835,0.13566716299672119,-5.808025595001308,34.3
,,0.018960493096448764,0.003003354059494354,0.00017381676474297514,0.02213766392068609,7.009569768650961,0.8564812061642835,0.13566716299672119,-5.808025595001308,34.4
,,0.018960493096448764,0.003003354059494354,0.00017381676474297514,0.02213766392068609,6.956568862294315,0.8564812061642835,0.13566716299672119,-5.808025595001308,34.5
,,0.018960493096448764,0.003003354059494354,0.00017381676474297514,0.02213766392068609,6.903567955937669,0.8564812061642835,0.13566716299672119,-5.808025595001308,34.6
,,0.007444304189939982,0.00111204951384483,7.518195649583316e-05,0.008631535660280644,6.854801648429851,0.8624542008435542,0.12883565075935433,-6.801550557306161,34.7
,,0.018105614864040838,0.002781590775517244,0.00019832821019640125,0.021085533849754482,6.803978300695181,0.8586747195045127,0.13191939058017413,-5.884732293526753,34.8
,,0.007341955841254305,0.0011119030530630548,7.830616365670997e-05,0.00853216505797407,6.782215338964291,0.8605032592978955,0.1303189806465221,-6.801682269451614,34.9
,,0.007341955841254305,0.0011119030530630548,7.830616365670997e-05,0.00853216505797407,6.760523966864792,0.8605032592978955,0.1303189806465221,-6.801682269451614,35.0
,,0.007341955841254305,0.0011119030530630548,7.830616365670997e-05,0.00853216505797407,6.7388325947652925,0.8605032592978955,0.1303189806465221,-6.801682269451614,35.1
,,0.007341955841254305,0.0011119030530630548,7.830616365670997e-05,0.00853216505797407,6.717141222665792,0.8605032592978955,0.1303189806465221,-6.801682269451614,35.2
,,0.007341955841254305,0.0011119030530630548,7.830616365670997e-05,0.00853216505797407,6.695449850566293,0.8605032592978955,0.1303189806465221,-6.801682269451614,35.3
,,0.007341955841254305,0.0011119030530630548,7.830616365670997e-05,0.00853216505797407,6.673758478466794,0.8605032592978955,0.1303189806465221,-6.801682269451614,35.4
,,0.007341955841254305,0.0011119030530630548,7.830616365670997e-05,0.00853216505797407,6.652067106367294,0.8605032592978955,0.1303189806465221,-6.801682269451614,35.5
,,0.007341955841254305,0.0011119030530630548,7.830616365670997e-05,0.00853216505797407,6.630375734267796,0.8605032592978955,0.1303189806465221,-6.801682269451614,35.6
,,0.007599681087540309,0.001122802525593035,7.95938688917299e-05,0.008802077482025075,6.5997702673801095,0.8633962951427993,0.12756108178846823,-6.7919274641087215,35.7
,,0.007599681087540309,0.001122802525593035,7.95938688917299e-05,0.008802077482025075,6.569164800492426,0.8633962951427993,0.12756108178846823,-6.7919274641087215,35.8
,,0.007599681087540309,0.001122802525593035,7.95938688917299e-05,0.008802077482025075,6.5547401662444384,0.8633962951427993,0.12756108178846823,-6.7919274641087215,35.9
,,0.007599681087540309,0.001122802525593035,7.95938688917299e-05,0.008802077482025075,6.540315531996453,0.8633962951427993,0.12756108178846823,-6.7919274641087215,36.0
,,0.007599681087540309,0.001122802525593035,7.95938688917299e-05,0.008802077482025075,6.525890897748465,0.8633962951427993,0.12756108178846823,-6.7919274641087215,36.1
,,0.007599681087540309,0.001122802525593035,7.95938688917299e-05,0.008802077482025075,6.51146626350048,0.8633962951427993,0.12756108178846823,-6.7919274641087215,36.2
,,0.007599681087540309,0.001122802525593035,7.95938688917299e-05,0.008802077482025075,6.497041629252492,0.8633962951427993,0.12756108178846823,-6.7919274641087215,36.3
,,0.00782935908185166,0.0011367537051443976,8.101597599811094e-05,0.009047128762994168,6.489207660231265,0.8653971096196177,0.12564800777392565,-6.779578705845599,36.4
,,0.0074641256505483585,0.0011183990189772835,6.48220112677828e-05,0.008647346680793425,6.479001092880025,0.8631694699053627,0.12933435656758777,-6.795857063651347,36.5
,,0.012826091140670855,0.002000664238460824,0.00014900716787303775,0.014975762547004716,6.4658720637131255,0.8564566312008056,0.13359348027730145,-6.214276034331163,36.6
,,0.012826091140670855,0.002000664238460824,0.00014900716787303775,0.014975762547004716,6.452328189149427,0.8564566312008056,0.13359348027730145,-6.214276034331163,36.7
,,0.012826091140670855,0.002000664238460824,0.00014900716787303775,0.014975762547004716,6.4387843145857255,0.8564566312008056,0.13359348027730145,-6.214276034331163,36.8
,,0.012826091140670855,0.002000664238460824,0.00014900716787303775,0.014975762547004716,6.425240440022027,0.8564566312008056,0.13359348027730145,-6.214276034331163,36.9
,,0.012826091140670855,0.002000664238460824,0.00014900716787303775,0.014975762547004716,6.411696565458326,0.8564566312008056,0.13359348027730145,-6.214276034331163,37.0
,,0.007809580087456389,0.0011424061002239159,6.555201614323581e-05,0.009017538203823542,6.402876736873434,0.8660434711709939,0.1266871372654149,-6.7746186265613515,37.1
,,0.007809580087456389,0.0011424061002239159,6.555201614323581e-05,0.009017538203823542,6.389454292126157,0.8660434711709939,0.1266871372654149,-6.7746186265613515,37.2
,,0.008200049391461692,0.0011632660556030745,8.259743020679218e-05,0.009445912877271558,6.378399405210266,0.8681055497761766,0.12315019953254985,-6.756523664968059,37.3
,,0.011377291616095055,0.001785117999264917,0.0001323086591385112,0.013294718274498482,6.368692054557052,0.8557753072450301,0.13427272112182137,-6.328270759904676,37.4
,,0.011377291616095055,0.001785117999264917,0.0001323086591385112,0.013294718274498482,6.350128843114192,0.8557753072450301,0.13427272112182137,-6.328270759904676,37.5
,,0.011377291616095055,0.001785117999264917,0.0001323086591385112,0.013294718274498482,6.331240279895227,0.8557753072450301,0.13427272112182137,-6.328270759904676,37.6
,,0.011377291616095055,0.001785117999264917,0.0001323086591385112,0.013294718274498482,6.312351716676263,0.8557753072450301,0.13427272112182137,-6.328270759904676,37.7
,,0.008196295225212898,0.0011763715888105475,6.582461959556497e-05,0.00943849143361901,6.300063439353499,0.8683903866266671,0.12463555188707631,-6.745320502536165,37.8
,,0.008196295225212898,0.0011763715888105475,6.582461959556497e-05,0.00943849143361901,6.301310837130463,0.8683903866266671,0.12463555188707631,-6.745320502536165,37.9
,,0.008196295225212898,0.0011763715888105475,6.582461959556497e-05,0.00943849143361901,6.302558234907427,0.8683903866266671,0.12463555188707631,-6.745320502536165,38.0
,,0.008196295225212898,0.0011763715888105475,6.582461959556497e-05,0.00943849143361901,6.303805632684389,0.8683903866266671,0.12463555188707631,-6.745320502536165,38.1
,,0.008196295225212898,0.0011763715888105475,6.582461959556497e-05,0.00943849143361901,6.305053030461354,0.8683903866266671,0.12463555188707631,-6.745320502536165,38.2
,,0.008667477712855302,0.001200956586344529,8.25641934239738e-05,0.009950998492623804,6.309074957804492,0.8710158803943229,0.12068704333889109,-6.724636884460599,38.3
,,0.008667477712855302,0.001200956586344529,8.25641934239738e-05,0.009950998492623804,6.311175524128286,0.8710158803943229,0.12068704333889109,-6.724636884460599,38.4
,,0.008583807434743872,0.0012165574194611846,8.684148296303087e-05,0.009887206337168088,6.3114835664707645,0.8681731868460694,0.12304359573117124,-6.711730196311094,38.5
,,0.008583807434743872,0.0012165574194611846,8.684148296303087e-05,0.009887206337168088,6.31607826230829,0.8681731868460694,0.12304359573117124,-6.711730196311094,38.6
,,0.008583807434743872,0.0012165574194611846,8.684148296303087e-05,0.009887206337168088,6.320672958145816,0.8681731868460694,0.12304359573117124,-6.711730196311094,38.7
,,0.008583807434743872,0.0012165574194611846,8.684148296303087e-05,0.009887206337168088,6.3252676539833415,0.8681731868460694,0.12304359573117124,-6.711730196311094,38.8
,,0.008583807434743872,0.0012165574194611846,8.684148296303087e-05,0.009887206337168088,6.329862349820866,0.8681731868460694,0.12304359573117124,-6.711730196311094,38.9
,,0.009109573426271002,0.0014957214995224481,0.0001027327834770827,0.010708027709270533,6.3237304135775325,0.8507237442413732,0.1396822589679628,-6.505146580181235,39.0
,,0.008583807434743872,0.0012165574194611846,8.684148296303087e-05,0.009887206337168088,6.321406632707521,0.8681731868460694,0.12304359573117124,-6.711730196311094,39.1
,,0.008945247028413521,0.0012595108300728964,8.608533105442111e-05,0.010290843189540839,6.326516238824648,0.8692433519446762,0.12239141213938698,-6.677031863500442,39.2
,,0.008945247028413521,0.0012595108300728964,8.608533105442111e-05,0.010290843189540839,6.329082043272941,0.8692433519446762,0.12239141213938698,-6.677031863500442,39.3
,,0.008945247028413521,0.0012595108300728964,8.608533105442111e-05,0.010290843189540839,6.335545920735772,0.8692433519446762,0.12239141213938698,-6.677031863500442,39.4
,,0.008945247028413521,0.0012595108300728964,8.608533105442111e-05,0.010290843189540839,6.342009798198601,0.8692433519446762,0.12239141213938698,-6.677031863500442,39.5
,,0.008945247028413521,0.0012595108300728964,8.608533105442111e-05,0.010290843189540839,6.348473675661431,0.8692433519446762,0.12239141213938698,-6.677031863500442,39.6
,,0.008945247028413521,0.0012595108300728964,8.608533105442111e-05,0.010290843189540839,6.354937553124262,0.8692433519446762,0.12239141213938698,-6.677031863500442,39.7
,,0.008945247028413521,0.0012595108300728964,8.608533105442111e-05,0.010290843189540839,6.361401430587091,0.8692433519446762,0.12239141213938698,-6.677031863500442,39.8
,,0.004943691764818648,0.0012968679979789544,8.556194235125859e-05,0.006326121705148861,6.331308243544907,0.7814727561746011,0.2050020626260521,-6.647803153708544,39.9
,,0.004264009437648564,0.0012675816245204911,7.41789167250586e-05,0.005605769978894114,6.290706851909609,0.7606465220126196,0.22612087711286274,-6.670644426528621,40.0
,,0.004264009437648564,0.0012675816245204911,7.41789167250586e-05,0.005605769978894114,6.256691330448826,0.7606465220126196,0.22612087711286274,-6.670644426528621,40.1
,,0.004264009437648564,0.0012675816245204911,7.41789167250586e-05,0.005605769978894114,6.257332997712587,0.7606465220126196,0.22612087711286274,-6.670644426528621,40.2
,,0.004264009437648564,0.0012675816245204911,7.41789167250586e-05,0.005605769978894114,6.2579746649763495,0.7606465220126196,0.22612087711286274,-6.670644426528621,40.3
,,0.004264009437648564,0.0012675816245204911,7.41789167250586e-05,0.005605769978894114,6.258616332240113,0.7606465220126196,0.22612087711286274,-6.670644426528621,40.4
,,0.004264009437648564,0.0012675816245204911,7.41789167250586e-05,0.005605769978894114,6.259257999503873,0.7606465220126196,0.22612087711286274,-6.670644426528621,40.5
,,0.006725002347718874,0.0012381494553499375,5.654970611792272e-05,0.008019701509186733,6.28287301603222,0.8385601808265863,0.1543884711833242,-6.694137388783305,40.6
,,0.009313405103428237,0.0013247033273142556,8.29636246207691e-05,0.01072107205536326,6.324255414091582,0.8687009149210192,0.12356071486820829,-6.626566748527945,40.7
,,0.006725002347718874,0.0012381494553499375,5.654970611792272e-05,0.008019701509186733,6.347870430619929,0.8385601808265863,0.1543884711833242,-6.694137388783305,40.8
,,0.006677496591477152,0.0012159833066524048,6.455760381657897e-05,0.007958037501946135,6.3729477262356085,0.8390883543642729,0.15279939386501212,-6.712202223614296,40.9
,,0.006677496591477152,0.0012159833066524048,6.455760381657897e-05,0.007958037501946135,6.36132401157972,0.8390883543642729,0.15279939386501212,-6.712202223614296,41.0
,,0.006677496591477152,0.0012159833066524048,6.455760381657897e-05,0.007958037501946135,6.350330983738747,0.8390883543642729,0.15279939386501212,-6.712202223614296,41.1
,,0.006677496591477152,0.0012159833066524048,6.455760381657897e-05,0.007958037501946135,6.339337955897772,0.8390883543642729,0.15279939386501212,-6.712202223614296,41.2
,,0.006677496591477152,0.0012159833066524048,6.455760381657897e-05,0.007958037501946135,6.328344928056799,0.8390883543642729,0.15279939386501212,-6.712202223614296,41.3
,,0.009219372710332885,0.0013503861259630714,6.020757308709249e-05,0.01062996640938305,6.332193839562349,0.8673002674961384,0.12703578487050424,-6.607364708195597,41.4
,,0.009219372710332885,0.0013503861259630714,6.020757308709249e-05,0.01062996640938305,6.336042751067898,0.8673002674961384,0.12703578487050424,-6.607364708195597,41.5
,,0.009219372710332885,0.0013503861259630714,6.020757308709249e-05,0.01062996640938305,6.342301552837414,0.8673002674961384,0.12703578487050424,-6.607364708195597,41.6
,,0.006365416213771754,0.001182556497987493,5.75530544213464e-05,0.007605525766180593,6.332510870043135,0.836946242701166,0.15548648894806902,-6.740076660314598,41.7
,,0.006365416213771754,0.001182556497987493,5.75530544213464e-05,0.007605525766180593,6.322720187248858,0.836946242701166,0.15548648894806902,-6.740076660314598,41.8
,,0.006365416213771754,0.001182556497987493,5.75530544213464e-05,0.007605525766180593,6.312929504454579,0.836946242701166,0.15548648894806902,-6.740076660314598,41.9
,,0.006365416213771754,0.001182556497987493,5.75530544213464e-05,0.007605525766180593,6.3001176219529915,0.836946242701166,0.15548648894806902,-6.740076660314598,42.0
,,0.00917174879000919,0.0013562587713850558,5.676771842626727e-05,0.010584775279820513,6.30263031537989,0.866503874436975,0.1281329773689871,-6.6030252733157315,42.1
,,0.00917174879000919,0.0013562587713850558,5.676771842626727e-05,0.010584775279820513,6.305149292558718,0.866503874436975,0.1281329773689871,-6.6030252733157315,42.2
,,0.00917174879000919,0.0013562587713850558,5.676771842626727e-05,0.010584775279820513,6.307668269737547,0.866503874436975,0.1281329773689871,-6.6030252733157315,42.3
,,0.0037499041851114783,0.001158099041213726,5.18958691758339e-05,0.004959899095501039,6.273169850583195,0.75604445028184,0.23349246001076907,-6.7609753756702125,42.4
,,0.00917174879000919,0.0013562587713850558,5.676771842626727e-05,0.010584775279820513,6.277833139511694,0.866503874436975,0.1281329773689871,-6.6030252733157315,42.5
,,0.009154566885252123,0.0013300356437657007,7.315701140872554e-05,0.010557759540426549,6.283834816626364,0.8670937096264143,0.1259770729455319,-6.622549537283748,42.6
,,0.009154566885252123,0.0013300356437657007,7.315701140872554e-05,0.010557759540426549,6.289836493741034,0.8670937096264143,0.1259770729455319,-6.622549537283748,42.7
,,0.009154566885252123,0.0013300356437657007,7.315701140872554e-05,0.010557759540426549,6.293191964683717,0.8670937096264143,0.1259770729455319,-6.622549537283748,42.8
,,0.008965265528135516,0.0013436092580541045,5.274994736997362e-05,0.010361624733559595,6.293716372722084,0.8652374273986684,0.12967167723246872,-6.612395809766023,42.9
,,0.008965265528135516,0.0013436092580541045,5.274994736997362e-05,0.010361624733559595,6.294241180699625,0.8652374273986684,0.12967167723246872,-6.612395809766023,43.0
,,0.008965265528135516,0.0013436092580541045,5.274994736997362e-05,0.010361624733559595,6.294765988677167,0.8652374273986684,0.12967167723246872,-6.612395809766023,43.1
,,0.008965265528135516,0.0013436092580541045,5.274994736997362e-05,0.010361624733559595,6.298759524120325,0.8652374273986684,0.12967167723246872,-6.612395809766023,43.2
,,0.008885123798445157,0.0013211959633102563,6.991899667246039e-05,0.010276238758427874,6.303336802776237,0.8646280032330098,0.12856804852132311,-6.629217919773033,43.3
,,0.005880491918516064,0.0010787208469360578,4.7045045284507326e-05,0.007006257810736629,6.293761806431942,0.8393199447363466,0.15396533728504666,-6.831979340788307,43.4
,,0.005880491918516064,0.0010787208469360578,4.7045045284507326e-05,0.007006257810736629,6.284186810087644,0.8393199447363466,0.15396533728504666,-6.831979340788307,43.5
,,0.005880491918516064,0.0010787208469360578,4.7045045284507326e-05,0.007006257810736629,6.274611813743347,0.8393199447363466,0.15396533728504666,-6.831979340788307,43.6
,,0.008695464124102789,0.0013281608800362991,4.932249542195132e-05,0.010072947499561039,6.272975991886158,0.863249225162915,0.13185424426109418,-6.623960090659663,43.7
,,0.008695464124102789,0.0013281608800362991,4.932249542195132e-05,0.010072947499561039,6.273397210255821,0.863249225162915,0.13185424426109418,-6.623960090659663,43.8
,,0.008695464124102789,0.0013281608800362991,4.932249542195132e-05,0.010072947499561039,6.27277434549552,0.863249225162915,0.13185424426109418,-6.623960090659663,43.9
,,0.008695464124102789,0.0013281608800362991,4.932249542195132e-05,0.010072947499561039,6.27215148073522,0.863249225162915,0.13185424426109418,-6.623960090659663,44.0
,,0.008695464124102789,0.0013281608800362991,4.932249542195132e-05,0.010072947499561039,6.271528615974919,0.863249225162915,0.13185424426109418,-6.623960090659663,44.1
,,0.008695464124102789,0.0013281608800362991,4.932249542195132e-05,0.010072947499561039,6.2709057512146185,0.863249225162915,0.13185424426109418,-6.623960090659663,44.2
,,0.008612847712224606,0.0013216895218288059,6.520418446957081e-05,0.009999741418522983,6.269944527826058,0.8613070430271956,0.13217236991554396,-6.628844420030375,44.3
,,0.008612847712224606,0.0013216895218288059,6.520418446957081e-05,0.009999741418522983,6.268983304437499,0.8613070430271956,0.13217236991554396,-6.628844420030375,44.4
,,0.008417219845537376,0.0013245815558589663,4.7160200753170295e-05,0.009788961602149513,6.266222989334244,0.8598685118643307,0.13531379626293635,-6.6266586763203446,44.5
,,0.008417219845537376,0.0013245815558589663,4.7160200753170295e-05,0.009788961602149513,6.263462674230991,0.8598685118643307,0.13531379626293635,-6.6266586763203446,44.6
,,0.008417219845537376,0.0013245815558589663,4.7160200753170295e-05,0.009788961602149513,6.258864146886871,0.8598685118643307,0.13531379626293635,-6.6266586763203446,44.7
,,0.008417219845537376,0.0013245815558589663,4.7160200753170295e-05,0.009788961602149513,6.25426561954275,0.8598685118643307,0.13531379626293635,-6.6266586763203446,44.8
,,0.008417219845537376,0.0013245815558589663,4.7160200753170295e-05,0.009788961602149513,6.2496670921986315,0.8598685118643307,0.13531379626293635,-6.6266586763203446,44.9
,,0.008332900305106316,0.0013321152876894944,6.35260765511196e-05,0.009728541669346929,6.243965944360618,0.8565415648433665,0.1369285688405669,-6.620987158289935,45.0
,,0.008417219845537376,0.0013245815558589663,4.7160200753170295e-05,0.009788961602149513,6.2393674170165,0.8598685118643307,0.13531379626293635,-6.6266586763203446,45.1
,,0.008353073079329674,0.001340103599849229,6.273233239986135e-05,0.009755909011578762,6.233419213389368,0.856206537946988,0.1373632737101927,-6.615008354687518,45.2
,,0.008353073079329674,0.001340103599849229,6.273233239986135e-05,0.009755909011578762,6.2274710097622386,0.856206537946988,0.1373632737101927,-6.615008354687518,45.3
,,0.008171009383020992,0.0013416987214521032,4.59203752642773e-05,0.009558628479737373,6.218610743452616,0.8548307322898999,0.14036519196203417,-6.613818765299581,45.4
,,0.008171009383020992,0.0013416987214521032,4.59203752642773e-05,0.009558628479737373,6.212123075473007,0.8548307322898999,0.14036519196203417,-6.613818765299581,45.5
,,0.008171009383020992,0.0013416987214521032,4.59203752642773e-05,0.009558628479737373,6.208557869309055,0.8548307322898999,0.14036519196203417,-6.613818765299581,45.6
,,0.008171009383020992,0.0013416987214521032,4.59203752642773e-05,0.009558628479737373,6.204992663145103,0.8548307322898999,0.14036519196203417,-6.613818765299581,45.7
,,0.008171009383020992,0.0013416987214521032,4.59203752642773e-05,0.009558628479737373,6.201427456981154,0.8548307322898999,0.14036519196203417,-6.613818765299581,45.8
,,0.008171009383020992,0.0013416987214521032,4.59203752642773e-05,0.009558628479737373,6.197862250817203,0.8548307322898999,0.14036519196203417,-6.613818765299581,45.9
,,0.008128375797838606,0.0013826695671502092,6.153972793205155e-05,0.009572585092920867,6.191949347914711,0.8491306913374649,0.14444056163812252,-6.583739179539113,46.0
,,0.008128375797838606,0.0013826695671502092,6.153972793205155e-05,0.009572585092920867,6.181312399033412,0.8491306913374649,0.14444056163812252,-6.583739179539113,46.1
,,0.005896001061853534,0.0009880651780323775,3.618427922124788e-05,0.006920250519107159,6.17165837942816,0.8519924308483311,0.14277881635993955,-6.919761892723911,46.2
,,0.005896001061853534,0.0009880651780323775,3.618427922124788e-05,0.006920250519107159,6.15963680199152,0.8519924308483311,0.14277881635993955,-6.919761892723911,46.3
,,0.005896001061853534,0.0009880651780323775,3.618427922124788e-05,0.006920250519107159,6.15512354908185,0.8519924308483311,0.14277881635993955,-6.919761892723911,46.4
,,0.005896001061853534,0.0009880651780323775,3.618427922124788e-05,0.006920250519107159,6.1506102961721805,0.8519924308483311,0.14277881635993955,-6.919761892723911,46.5
,,0.005896001061853534,0.0009880651780323775,3.618427922124788e-05,0.006920250519107159,6.146097043262512,0.8519924308483311,0.14277881635993955,-6.919761892723911,46.6
,,0.005896001061853534,0.0009880651780323775,3.618427922124788e-05,0.006920250519107159,6.141583790352842,0.8519924308483311,0.14277881635993955,-6.919761892723911,46.7
,,0.007978046531156302,0.0014550428120071795,6.184630809255606e-05,0.009494935651256038,6.125090400478045,0.8402422959128665,0.15324409405709866,-6.532719954731643,46.8
,,0.007978046531156302,0.0014550428120071795,6.184630809255606e-05,0.009494935651256038,6.1085970106032494,0.8402422959128665,0.15324409405709866,-6.532719954731643,46.9
,,0.006121943181697581,0.0009889305518515543,3.770849715292968e-05,0.007148582230702065,6.09996402172687,0.8563856418136695,0.13833939653155966,-6.91888644938191,47.0
,,0.006121943181697581,0.0009889305518515543,3.770849715292968e-05,0.007148582230702065,6.0913310328504915,0.8563856418136695,0.13833939653155966,-6.91888644938191,47.1
,,0.006121943181697581,0.0009889305518515543,3.770849715292968e-05,0.007148582230702065,6.082698043974111,0.8563856418136695,0.13833939653155966,-6.91888644938191,47.2
,,0.006121943181697581,0.0009889305518515543,3.770849715292968e-05,0.007148582230702065,6.071290525531559,0.8563856418136695,0.13833939653155966,-6.91888644938191,47.3
,,0.006121943181697581,0.0009889305518515543,3.770849715292968e-05,0.007148582230702065,6.059883007089005,0.8563856418136695,0.13833939653155966,-6.91888644938191,47.4
,,0.006121943181697581,0.0009889305518515543,3.770849715292968e-05,0.007148582230702065,6.050268012627767,0.8563856418136695,0.13833939653155966,-6.91888644938191,47.5
,,0.006121943181697581,0.0009889305518515543,3.770849715292968e-05,0.007148582230702065,6.0406530181665286,0.8563856418136695,0.13833939653155966,-6.91888644938191,47.6
,,0.007886446388684656,0.0015644869041691483,6.305884170513752e-05,0.009513992134558941,6.018265216121116,0.8289313546978524,0.16444063459819921,-6.460197365507726,47.7
,,0.0078083297567992805,0.0015895683492212753,4.900469441727093e-05,0.009446902800437825,5.994447605377589,0.8265491793180508,0.16826343858937612,-6.444292778084135,47.8
,,0.0078083297567992805,0.0015895683492212753,4.900469441727093e-05,0.009446902800437825,5.970629994634061,0.8265491793180508,0.16826343858937612,-6.444292778084135,47.9
,,0.0078083297567992805,0.0015895683492212753,4.900469441727093e-05,0.009446902800437825,5.957539015971394,0.8265491793180508,0.16826343858937612,-6.444292778084135,48.0
,,0.0078083297567992805,0.0015895683492212753,4.900469441727093e-05,0.009446902800437825,5.933721405227866,0.8265491793180508,0.16826343858937612,-6.444292778084135,48.1
,,0.0078083297567992805,0.0015895683492212753,4.900469441727093e-05,0.009446902800437825,5.909388884204736,0.8265491793180508,0.16826343858937612,-6.444292778084135,48.2
,,0.006706408126715425,0.0010110178945824735,4.915565061850387e-05,0.0077665816719164026,5.904179586414536,0.8634954745876792,0.1301754024216686,-6.896797639216691,48.3
,,0.0078083297567992805,0.0015895683492212753,4.900469441727093e-05,0.009446902800437825,5.879847065391406,0.8265491793180508,0.16826343858937612,-6.444292778084135,48.4
,,0.007904710637179197,0.0017258027725435075,6.582832223370097e-05,0.009696341731956404,5.851826506615447,0.8152260775966159,0.17798493702586296,-6.362062961364814,48.5
,,0.006757445382138546,0.001026488316404905,4.290888496706634e-05,0.007826842583510516,5.84605885373888,0.8633679941864473,0.13114973317177686,-6.881611703542877,48.6
,,0.006757445382138546,0.001026488316404905,4.290888496706634e-05,0.007826842583510516,5.840291200862311,0.8633679941864473,0.13114973317177686,-6.881611703542877,48.7
,,0.006757445382138546,0.001026488316404905,4.290888496706634e-05,0.007826842583510516,5.834523547985743,0.8633679941864473,0.13114973317177686,-6.881611703542877,48.8
,,0.006757445382138546,0.001026488316404905,4.290888496706634e-05,0.007826842583510516,5.865312959614189,0.8633679941864473,0.13114973317177686,-6.881611703542877,48.9
,,0.006757445382138546,0.001026488316404905,4.290888496706634e-05,0.007826842583510516,5.901081598891446,0.8633679941864473,0.13114973317177686,-6.881611703542877,49.0
,,0.006757445382138546,0.001026488316404905,4.290888496706634e-05,0.007826842583510516,5.936850238168703,0.8633679941864473,0.13114973317177686,-6.881611703542877,49.1
,,0.007986219130965713,0.0019116575188873391,7.043908184212481e-05,0.009968315731695179,5.945891880126553,0.8011603309847815,0.1917733717852704,-6.259784602318023,49.2
,,0.00712962956533632,0.0010382398663945273,5.2946803204894554e-05,0.008220816234935742,5.98481567657335,0.8672654103418295,0.1262940122639346,-6.870228435775998,49.3
,,0.008091687868818085,0.002028185841098413,5.6358859113890005e-05,0.010176232569030389,5.991768178520425,0.7951555562363761,0.19930616044201344,-6.200613559829179,49.4
,,0.008091687868818085,0.002028185841098413,5.6358859113890005e-05,0.010176232569030389,5.9987206804675,0.7951555562363761,0.19930616044201344,-6.200613559829179,49.5
,,0.008091687868818085,0.002028185841098413,5.6358859113890005e-05,0.010176232569030389,5.982699833149991,0.7951555562363761,0.19930616044201344,-6.200613559829179,49.6
,,0.008091687868818085,0.002028185841098413,5.6358859113890005e-05,0.010176232569030389,5.948911604301467,0.7951555562363761,0.19930616044201344,-6.200613559829179,49.7
,,0.008091687868818085,0.002028185841098413,5.6358859113890005e-05,0.010176232569030389,5.932890756983958,0.7951555562363761,0.19930616044201344,-6.200613559829179,49.8
,,0.008091687868818085,0.002028185841098413,5.6358859113890005e-05,0.010176232569030389,5.916203877446609,0.7951555562363761,0.19930616044201344,-6.200613559829179,49.9
,,0.008091687868818085,0.002028185841098413,5.6358859113890005e-05,0.010176232569030389,5.89951699790926,0.7951555562363761,0.19930616044201344,-6.200613559829179,50.0
,,0.008091687868818085,0.002028185841098413,5.6358859113890005e-05,0.010176232569030389,5.882830118371912,0.7951555562363761,0.19930616044201344,-6.200613559829179,50.1
,,0.007702710075555088,0.001116510990401753,6.532097670939761e-05,0.008884542042666239,5.8984687116393575,0.8669788536724078,0.12566894107089954,-6.797546643112489,50.2
,,0.007702710075555088,0.001116510990401753,6.532097670939761e-05,0.008884542042666239,5.9141073049068025,0.8669788536724078,0.12566894107089954,-6.797546643112489,50.3
,,0.007702710075555088,0.001116510990401753,6.532097670939761e-05,0.008884542042666239,5.9149039588277255,0.8669788536724078,0.12566894107089954,-6.797546643112489,50.4
,,0.007702710075555088,0.001116510990401753,6.532097670939761e-05,0.008884542042666239,5.9157006127486484,0.8669788536724078,0.12566894107089954,-6.797546643112489,50.5
,,0.007702710075555088,0.001116510990401753,6.532097670939761e-05,0.008884542042666239,5.916497266669569,0.8669788536724078,0.12566894107089954,-6.797546643112489,50.6
,,0.007702710075555088,0.001116510990401753,6.532097670939761e-05,0.008884542042666239,5.933343405154286,0.8669788536724078,0.12566894107089954,-6.797546643112489,50.7
,,0.007702710075555088,0.001116510990401753,6.532097670939761e-05,0.008884542042666239,5.950189543639001,0.8669788536724078,0.12566894107089954,-6.797546643112489,50.8
,,0.008738511475171398,0.0026064609179068613,8.39994963917937e-05,0.011428971889470053,5.927632611578961,0.7645929624888238,0.22805733911274145,-5.949761947957588,50.9
,,0.008579975038533576,0.002498593751683378,8.189181638825773e-05,0.011160460606605213,5.905978866558161,0.7687832376251209,0.22387908884375338,-5.992027204696728,51.0
,,0.009018506517620026,0.002843936668119946,0.00010008742264234338,0.011962530608382316,5.8660744085135255,0.7538962125037849,0.23773704421095979,-5.862566035882641,51.1
,,0.009018506517620026,0.002843936668119946,0.00010008742264234338,0.011962530608382316,5.82616995046889,0.7538962125037849,0.23773704421095979,-5.862566035882641,51.2
,,0.009018506517620026,0.002843936668119946,0.00010008742264234338,0.011962530608382316,5.786265492424254,0.7538962125037849,0.23773704421095979,-5.862566035882641,51.3
,,0.009018506517620026,0.002843936668119946,0.00010008742264234338,0.011962530608382316,5.785522742462471,0.7538962125037849,0.23773704421095979,-5.862566035882641,51.4
,,0.009018506517620026,0.002843936668119946,0.00010008742264234338,0.011962530608382316,5.745618284417835,0.7538962125037849,0.23773704421095979,-5.862566035882641,51.5
,,0.009018506517620026,0.002843936668119946,0.00010008742264234338,0.011962530608382316,5.704375909511926,0.7538962125037849,0.23773704421095979,-5.862566035882641,51.6
,,0.009245830582757332,0.00303175985416325,9.172519969043558e-05,0.012369315636611016,5.66178379205534,0.7474811747378559,0.24510328163910455,-5.798612018110812,51.7
,,0.00967513915250082,0.0033716056784154637,0.00011430156459477304,0.013161046395511057,5.61719096299437,0.7351344917225424,0.25618066961343167,-5.6923661856522285,51.8
,,0.009245830582757332,0.00303175985416325,9.172519969043558e-05,0.012369315636611016,5.576936891728568,0.7474811747378559,0.24510328163910455,-5.798612018110812,51.9
,,0.009837309111936027,0.0034626051834967296,0.00011406108052401445,0.013413975375956773,5.534364551984467,0.7333626934762705,0.2581341538544277,-5.665734030024887,52.0
,,0.009837309111936027,0.0034626051834967296,0.00011406108052401445,0.013413975375956773,5.491792212240365,0.7333626934762705,0.2581341538544277,-5.665734030024887,52.1
,,0.009837309111936027,0.0034626051834967296,0.00011406108052401445,0.013413975375956773,5.449219872496265,0.7333626934762705,0.2581341538544277,-5.665734030024887,52.2
,,0.009837309111936027,0.0034626051834967296,0.00011406108052401445,0.013413975375956773,5.4060637895394095,0.7333626934762705,0.2581341538544277,-5.665734030024887,52.3
,,0.009837309111936027,0.0034626051834967296,0.00011406108052401445,0.013413975375956773,5.377059981582764,0.7333626934762705,0.2581341538544277,-5.665734030024887,52.4
,,0.010210295364021366,0.003759890005445288,0.00010519942051640289,0.014075384789983058,5.346662503926381,0.7254007983701919,0.26712520201373574,-5.583365575879171,52.5
,,0.010210295364021366,0.003759890005445288,0.00010519942051640289,0.014075384789983058,5.316265026269997,0.7254007983701919,0.26712520201373574,-5.583365575879171,52.6
,,0.010779303773033886,0.004164176445464002,0.0001325644669221528,0.01507604468542004,5.272282624731472,0.7149954777899067,0.276211468747579,-5.481236755096428,52.7
,,0.010210295364021366,0.003759890005445288,0.00010519942051640289,0.014075384789983058,5.2297113737391525,0.7254007983701919,0.26712520201373574,-5.583365575879171,52.8
,,0.0109709324703451,0.004263127309520435,0.00013224248432526918,0.015366302264190803,5.18556082873968,0.7139604754431684,0.2774335188925124,-5.457752277811895,52.9
,,0.0109709324703451,0.004263127309520435,0.00013224248432526918,0.015366302264190803,5.141410283740206,0.7139604754431684,0.2774335188925124,-5.457752277811895,53.0
,,0.0109709324703451,0.004263127309520435,0.00013224248432526918,0.015366302264190803,5.097259738740734,0.7139604754431684,0.2774335188925124,-5.457752277811895,53.1
,,0.0109709324703451,0.004263127309520435,0.00013224248432526918,0.015366302264190803,5.053109193741261,0.7139604754431684,0.2774335188925124,-5.457752277811895,53.2
,,0.010954700087704328,0.0015419792106493837,8.333217497923106e-05,0.012580011473332943,5.059639941543691,0.8708020744596343,0.12257375233067673,-6.474688486001025,53.3
,,0.010954700087704328,0.0015419792106493837,8.333217497923106e-05,0.012580011473332943,5.066170689346121,0.8708020744596343,0.12257375233067673,-6.474688486001025,53.4
,,0.010954700087704328,0.0015419792106493837,8.333217497923106e-05,0.012580011473332943,5.074500528863244,0.8708020744596343,0.12257375233067673,-6.474688486001025,53.5
,,0.012259872216046361,0.005146325995762832,0.0001553014398112981,0.01756149965162049,5.030363102480286,0.6981107797883923,0.29304592989517003,-5.269472217777568,53.6
,,0.012484982457335626,0.005259373621012787,0.00015445110222283648,0.01789880718057125,4.986132301481539,0.6975315355588495,0.2938393362168691,-5.2477433427811615,53.7
,,0.012484982457335626,0.005259373621012787,0.00015445110222283648,0.01789880718057125,4.941901500482791,0.6975315355588495,0.2938393362168691,-5.2477433427811615,53.8
,,0.012484982457335626,0.005259373621012787,0.00015445110222283648,0.01789880718057125,4.897670699484044,0.6975315355588495,0.2938393362168691,-5.2477433427811615,53.9
,,0.012484982457335626,0.005259373621012787,0.00015445110222283648,0.01789880718057125,4.854542518979189,0.6975315355588495,0.2938393362168691,-5.2477433427811615,54.0
,,0.013457885966100555,0.005949206600796808,0.0001351291664395689,0.01954222173333693,4.809070359320571,0.6886569065554531,0.30442836449082455,-5.124497412719652,54.1
,,0.013457885966100555,0.005949206600796808,0.0001351291664395689,0.01954222173333693,4.764947875944961,0.6886569065554531,0.30442836449082455,-5.124497412719652,54.2
,,0.013457885966100555,0.005949206600796808,0.0001351291664395689,0.01954222173333693,4.7208253925693535,0.6886569065554531,0.30442836449082455,-5.124497412719652,54.3
,,0.013457885966100555,0.005949206600796808,0.0001351291664395689,0.01954222173333693,4.678292985788334,0.6886569065554531,0.30442836449082455,-5.124497412719652,54.4
,,0.01350444542719669,0.0018244734787129732,0.0001291003453054999,0.015458019251215163,4.69286836091698,0.8736206888948659,0.11802763659836628,-6.306463838388011,54.5
,,0.014551714162289195,0.0065050023096369205,0.00018161679867108186,0.0212383332705972,4.650056759381778,0.6851627186034837,0.30628591362405,-5.035183811962094,54.6
,,0.014551714162289195,0.0065050023096369205,0.00018161679867108186,0.0212383332705972,4.6072451578465765,0.6851627186034837,0.30628591362405,-5.035183811962094,54.7
,,0.014551714162289195,0.0065050023096369205,0.00018161679867108186,0.0212383332705972,4.564433556311375,0.6851627186034837,0.30628591362405,-5.035183811962094,54.8
,,0.015434992530765202,0.007173959877864414,0.00015364038429951907,0.022762592792929137,4.520672251203597,0.6780858697063655,0.3151644429580491,-4.937297492602431,54.9
,,0.015434992530765202,0.007173959877864414,0.00015364038429951907,0.022762592792929137,4.479258642834359,0.6780858697063655,0.3151644429580491,-4.937297492602431,55.0
,,0.015434992530765202,0.007173959877864414,0.00015364038429951907,0.022762592792929137,4.437845034465123,0.6780858697063655,0.3151644429580491,-4.937297492602431,55.1
,,0.015434992530765202,0.007173959877864414,0.00015364038429951907,0.022762592792929137,4.395448496819839,0.6780858697063655,0.3151644429580491,-4.937297492602431,55.2
,,0.015434992530765202,0.007173959877864414,0.00015364038429951907,0.022762592792929137,4.353051959174556,0.6780858697063655,0.3151644429580491,-4.937297492602431,55.3
,,0.00947643940954425,0.007445015720592043,0.0002035045452097064,0.017124959675346,4.300892382674252,0.5533700276787825,0.43474646724630145,-4.900210501284654,55.4
,,0.016226229301454738,0.007477136853547422,0.00019915182717883346,0.023902517982180994,4.258702314881406,0.678850207896556,0.3128179574688126,-4.895905333862178,55.5
,,0.016226229301454738,0.007477136853547422,0.00019915182717883346,0.023902517982180994,4.216512247088558,0.678850207896556,0.3128179574688126,-4.895905333862178,55.6
,,0.017201648294360605,0.008137853388593385,0.0001658253103099587,0.025505326993263952,4.173696283526611,0.6744335526027022,0.31906485224606695,-4.811228845220688,55.7
,,0.017201648294360605,0.008137853388593385,0.0001658253103099587,0.025505326993263952,4.13626017103359,0.6744335526027022,0.31906485224606695,-4.811228845220688,55.8
,,0.017201648294360605,0.008137853388593385,0.0001658253103099587,0.025505326993263952,4.098824058540571,0.6744335526027022,0.31906485224606695,-4.811228845220688,55.9
,,0.017201648294360605,0.008137853388593385,0.0001658253103099587,0.025505326993263952,4.053527545049133,0.6744335526027022,0.31906485224606695,-4.811228845220688,56.0
,,0.017201648294360605,0.008137853388593385,0.0001658253103099587,0.025505326993263952,4.0082310315576954,0.6744335526027022,0.31906485224606695,-4.811228845220688,56.1
,,0.017201648294360605,0.008137853388593385,0.0001658253103099587,0.025505326993263952,3.9629345180662576,0.6744335526027022,0.31906485224606695,-4.811228845220688,56.2
,,0.01783783337510254,0.008255426927081642,0.00021806333385764222,0.026311323636041824,3.918159762700644,0.677952718071085,0.31375946878526395,-4.79688448555405,56.3
,,0.01791754047806469,0.008258134652328778,0.0002128212577254507,0.02638849638811892,3.87348437926761,0.6789905803853165,0.3129444941033812,-4.796556545968349,56.4
,,0.01916275173677468,0.008921146675337863,0.00017526350874119229,0.02825916192085374,3.828568225655975,0.6781075741185942,0.31569041928149105,-4.719330789605351,56.5
,,0.01916275173677468,0.008921146675337863,0.00017526350874119229,0.02825916192085374,3.7836520720443394,0.6781075741185942,0.31569041928149105,-4.719330789605351,56.6
,,0.01916275173677468,0.008921146675337863,0.00017526350874119229,0.02825916192085374,3.751508726016877,0.6781075741185942,0.31569041928149105,-4.719330789605351,56.7
,,0.01916275173677468,0.008921146675337863,0.00017526350874119229,0.02825916192085374,3.720795188687531,0.6781075741185942,0.31569041928149105,-4.719330789605351,56.8
,,0.01916275173677468,0.008921146675337863,0.00017526350874119229,0.02825916192085374,3.6900816513581844,0.6781075741185942,0.31569041928149105,-4.719330789605351,56.9
,,0.01916275173677468,0.008921146675337863,0.00017526350874119229,0.02825916192085374,3.659368114028838,0.6781075741185942,0.31569041928149105,-4.719330789605351,57.0
,,0.019654539946742714,0.008860222880114694,0.00022851443109417547,0.028743277257951585,3.6294354115852925,0.6837960671762108,0.3082537457576654,-4.726183358912396,57.1
,,0.01916275173677468,0.008921146675337863,0.00017526350874119229,0.02825916192085374,3.598721874255946,0.6781075741185942,0.31569041928149105,-4.719330789605351,57.2
,,0.02118185825519818,0.009437093602624187,0.00018031310011134988,0.03079926495793372,3.5499575308252043,0.6877390835180257,0.30640645533305966,-4.663107227307783,57.3
,,0.02118185825519818,0.009437093602624187,0.00018031310011134988,0.03079926495793372,3.5203164106273923,0.6877390835180257,0.30640645533305966,-4.663107227307783,57.4
,,0.02118185825519818,0.009437093602624187,0.00018031310011134988,0.03079926495793372,3.4943633281824082,0.6877390835180257,0.30640645533305966,-4.663107227307783,57.5
,,0.02118185825519818,0.009437093602624187,0.00018031310011134988,0.03079926495793372,3.446157339838034,0.6877390835180257,0.30640645533305966,-4.663107227307783,57.6
,,0.02118185825519818,0.009437093602624187,0.00018031310011134988,0.03079926495793372,3.3979513514936603,0.6877390835180257,0.30640645533305966,-4.663107227307783,57.7
,,0.02118185825519818,0.009437093602624187,0.00018031310011134988,0.03079926495793372,3.349745363149286,0.6877390835180257,0.30640645533305966,-4.663107227307783,57.8
,,0.02118185825519818,0.009437093602624187,0.00018031310011134988,0.03079926495793372,3.301539374804912,0.6877390835180257,0.30640645533305966,-4.663107227307783,57.9
,,0.02144380917817946,0.009193014753346397,0.00023468645788436948,0.030871510389410228,3.254312141313586,0.6946148376833312,0.2977831222828622,-4.689311349256121,58.0
,,0.021582612277797494,0.009174788183820502,0.0002278027685292684,0.030985203230147265,3.207304493586126,0.6965457711375779,0.2961022432440859,-4.691295971540092,58.1
,,0.02311340291858977,0.00964154373252311,0.00018232691549640586,0.03293727356660928,3.1875226141582673,0.7017400171828846,0.29272440273554967,-4.641674044951902,58.2
,,0.02311340291858977,0.00964154373252311,0.00018232691549640586,0.03293727356660928,3.1378585802414634,0.7017400171828846,0.29272440273554967,-4.641674044951902,58.3
,,0.02311340291858977,0.00964154373252311,0.00018232691549640586,0.03293727356660928,3.120165840824378,0.7017400171828846,0.29272440273554967,-4.641674044951902,58.4
,,0.02311340291858977,0.00964154373252311,0.00018232691549640586,0.03293727356660928,3.102473101407294,0.7017400171828846,0.29272440273554967,-4.641674044951902,58.5
,,0.02311340291858977,0.00964154373252311,0.00018232691549640586,0.03293727356660928,3.0847803619902088,0.7017400171828846,0.29272440273554967,-4.641674044951902,58.6
,,0.02311340291858977,0.00964154373252311,0.00018232691549640586,0.03293727356660928,3.0670876225731245,0.7017400171828846,0.29272440273554967,-4.641674044951902,58.7
,,0.02311340291858977,0.00964154373252311,0.00018232691549640586,0.03293727356660928,3.04939488315604,0.7017400171828846,0.29272440273554967,-4.641674044951902,58.8
,,0.02311340291858977,0.00964154373252311,0.00018232691549640586,0.03293727356660928,3.0317021437389546,0.7017400171828846,0.29272440273554967,-4.641674044951902,58.9
,,0.024763007483364824,0.009548268765373815,0.00027119055907263474,0.034582466807811275,3.0161892177853735,0.7160567122346376,0.2761014365585138,-4.651395422035595,59.0
,,0.024763007483364824,0.009548268765373815,0.00027119055907263474,0.034582466807811275,3.000676291831791,0.7160567122346376,0.2761014365585138,-4.651395422035595,59.1
,,0.024763007483364824,0.009548268765373815,0.00027119055907263474,0.034582466807811275,2.9528378930734145,0.7160567122346376,0.2761014365585138,-4.651395422035595,59.2
,,0.024763007483364824,0.009548268765373815,0.00027119055907263474,0.034582466807811275,2.904999494315037,0.7160567122346376,0.2761014365585138,-4.651395422035595,59.3
,,0.024763007483364824,0.009548268765373815,0.00027119055907263474,0.034582466807811275,2.857161095556661,0.7160567122346376,0.2761014365585138,-4.651395422035595,59.4
,,0.024763007483364824,0.009548268765373815,0.00027119055907263474,0.034582466807811275,2.809322696798284,0.7160567122346376,0.2761014365585138,-4.651395422035595,59.5
,,0.024763007483364824,0.009548268765373815,0.00027119055907263474,0.034582466807811275,2.7614842980399072,0.7160567122346376,0.2761014365585138,-4.651395422035595,59.6
,,0.024455707611186362,0.00907615237211219,0.00023080277070433027,0.03376266275400288,2.714768637463182,0.7243417910895346,0.26882217312780304,-4.702104923740042,59.7
,,0.026245856326341147,0.009710729442013745,0.0002381068010950278,0.03619469256944992,2.6681448337557248,0.7251299697042854,0.26829152985291754,-4.63452387673902,59.8
,,0.02618027025259935,0.009332496348265761,0.0002656916618744979,0.03577845826273961,2.6620631200249596,0.7317327666928567,0.2608412100860368,-4.674252738467788,59.9
,,0.02618027025259935,0.009332496348265761,0.0002656916618744979,0.03577845826273961,2.6550782192549542,0.7317327666928567,0.2608412100860368,-4.674252738467788,60.0
,,0.02618027025259935,0.009332496348265761,0.0002656916618744979,0.03577845826273961,2.651013171828368,0.7317327666928567,0.2608412100860368,-4.674252738467788,60.1
,,0.02618027025259935,0.009332496348265761,0.0002656916618744979,0.03577845826273961,2.646948124401782,0.7317327666928567,0.2608412100860368,-4.674252738467788,60.2
,,0.02618027025259935,0.009332496348265761,0.0002656916618744979,0.03577845826273961,2.6428830769751954,0.7317327666928567,0.2608412100860368,-4.674252738467788,60.3
,,0.02618027025259935,0.009332496348265761,0.0002656916618744979,0.03577845826273961,2.6388180295486094,0.7317327666928567,0.2608412100860368,-4.674252738467788,60.4
,,0.02618027025259935,0.009332496348265761,0.0002656916618744979,0.03577845826273961,2.634752982122023,0.7317327666928567,0.2608412100860368,-4.674252738467788,60.5
,,0.012305099706590808,0.003719128103778609,0.00017570029386268583,0.0161999281042321,2.636280350790979,0.7595774269748888,0.22957682773956364,-5.594266018873207,60.6
,,0.02734140478404152,0.009119482388613527,0.0002611636590003228,0.03672205083165537,2.635707831326442,0.7445500500334941,0.2483380470883803,-4.6973422321410405,60.7
,,0.02734140478404152,0.009119482388613527,0.0002611636590003228,0.03672205083165537,2.6371360234662893,0.7445500500334941,0.2483380470883803,-4.6973422321410405,60.8
,,0.02734140478404152,0.009119482388613527,0.0002611636590003228,0.03672205083165537,2.636563504001752,0.7445500500334941,0.2483380470883803,-4.6973422321410405,60.9
,,0.02734140478404152,0.009119482388613527,0.0002611636590003228,0.03672205083165537,2.638309253015514,0.7445500500334941,0.2483380470883803,-4.6973422321410405,61.0
,,0.02734140478404152,0.009119482388613527,0.0002611636590003228,0.03672205083165537,2.6400550020292752,0.7445500500334941,0.2483380470883803,-4.6973422321410405,61.1
,,0.02734140478404152,0.009119482388613527,0.0002611636590003228,0.03672205083165537,2.6418007510430375,0.7445500500334941,0.2483380470883803,-4.6973422321410405,61.2
,,0.02734140478404152,0.009119482388613527,0.0002611636590003228,0.03672205083165537,2.6435465000567984,0.7445500500334941,0.2483380470883803,-4.6973422321410405,61.3
,,0.022904195153941417,0.004528272490187278,0.00022399162984974313,0.02765645927397844,2.668180153370457,0.8281680213306134,0.16373290757605632,-5.397414760963649,61.4
,,0.02330025747583081,0.004284992136650982,0.0001800421165894781,0.027765291729071273,2.698425258565719,0.8391864815680864,0.15432908749755503,-5.452636562021363,61.5
,,0.027661323582259704,0.00879539782671048,0.00024996144840016296,0.036706682857370346,2.7031962967844088,0.7535773169627497,0.23961298439541368,-4.733526668534145,61.6
,,0.027661323582259704,0.00879539782671048,0.00024996144840016296,0.036706682857370346,2.7093784855493044,0.7535773169627497,0.23961298439541368,-4.733526668534145,61.7
,,0.027661323582259704,0.00879539782671048,0.00024996144840016296,0.036706682857370346,2.714149523767994,0.7535773169627497,0.23961298439541368,-4.733526668534145,61.8
,,0.027661323582259704,0.00879539782671048,0.00024996144840016296,0.036706682857370346,2.720499855993837,0.7535773169627497,0.23961298439541368,-4.733526668534145,61.9
,,0.027661323582259704,0.00879539782671048,0.00024996144840016296,0.036706682857370346,2.7268501882196796,0.7535773169627497,0.23961298439541368,-4.733526668534145,62.0
,,0.0283178645830969,0.008790342008457037,0.00019510177337611737,0.03730330836493005,2.734050495505459,0.7591247485630354,0.2356451047843547,-4.7341016592300305,62.1
,,0.0283178645830969,0.008790342008457037,0.00019510177337611737,0.03730330836493005,2.741250802791238,0.7591247485630354,0.2356451047843547,-4.7341016592300305,62.2
,,0.0283178645830969,0.008790342008457037,0.00019510177337611737,0.03730330836493005,2.6981081759033736,0.7591247485630354,0.2356451047843547,-4.7341016592300305,62.3
,,0.028303716339756903,0.00881137590316342,0.0002479568990929479,0.03736304914201327,2.654862262833906,0.7575322943311522,0.2358312853341345,-4.731711676067686,62.4
,,0.028303716339756903,0.00881137590316342,0.0002479568990929479,0.03736304914201327,2.6116163497644385,0.7575322943311522,0.2358312853341345,-4.731711676067686,62.5
,,0.028303716339756903,0.00881137590316342,0.0002479568990929479,0.03736304914201327,2.6208377025950527,0.7575322943311522,0.2358312853341345,-4.731711676067686,62.6
,,0.028303716339756903,0.00881137590316342,0.0002479568990929479,0.03736304914201327,2.6301524300414556,0.7575322943311522,0.2358312853341345,-4.731711676067686,62.7
,,0.028303716339756903,0.00881137590316342,0.0002479568990929479,0.03736304914201327,2.6394671574878577,0.7575322943311522,0.2358312853341345,-4.731711676067686,62.8
,,0.02916945458843716,0.008986150989506534,0.00019542759932636867,0.038351033177270066,2.649158179267448,0.760591102033865,0.234313139569665,-4.712070665725886,62.9
,,0.02916945458843716,0.008986150989506534,0.00019542759932636867,0.038351033177270066,2.6588492010470377,0.760591102033865,0.234313139569665,-4.712070665725886,63.0
,,0.029030977613142498,0.009077609873194274,0.000258430993927705,0.038367018480264484,2.669248699330168,0.7566649367887597,0.23659930410969213,-4.701944350844405,63.1
,,0.029277043266476042,0.009181985951434213,0.00025509957474343183,0.038714128792653686,2.6795420259223715,0.7562366551828901,0.23717403019996586,-4.690511763167798,63.2
,,0.029277043266476042,0.009181985951434213,0.00025509957474343183,0.038714128792653686,2.6898353525145753,0.7562366551828901,0.23717403019996586,-4.690511763167798,63.3
,,0.029277043266476042,0.009181985951434213,0.00025509957474343183,0.038714128792653686,2.7001286791067782,0.7562366551828901,0.23717403019996586,-4.690511763167798,63.4
,,0.029277043266476042,0.009181985951434213,0.00025509957474343183,0.038714128792653686,2.6533142237893164,0.7562366551828901,0.23717403019996586,-4.690511763167798,63.5
,,0.029277043266476042,0.009181985951434213,0.00025509957474343183,0.038714128792653686,2.6638867451357022,0.7562366551828901,0.23717403019996586,-4.690511763167798,63.6
,,0.030295395403620546,0.009532594770702459,0.0002032533534231361,0.040031243527746146,2.674343202927267,0.7567937624176585,0.23812886961893404,-4.653038324430157,63.7
,,0.030295395403620546,0.009532594770702459,0.0002032533534231361,0.040031243527746146,2.684799660718831,0.7567937624176585,0.23812886961893404,-4.653038324430157,63.8
,,0.030266430596400294,0.009767748206380497,0.0002718153493456197,0.040305994152126406,2.695322754470405,0.7509163645031577,0.24233984080666038,-4.62866931990355,63.9
,,0.030295395403620546,0.009532594770702459,0.0002032533534231361,0.040031243527746146,2.7067289158345456,0.7567937624176585,0.23812886961893404,-4.653038324430157,64.0
,,0.026233185742941232,0.007828699253557383,0.0002630254695383106,0.034324910466036924,2.720055241417179,0.7642608643917042,0.228076319712576,-4.849958906207626,64.1
,,0.026233185742941232,0.007828699253557383,0.0002630254695383106,0.034324910466036924,2.7333815669998134,0.7642608643917042,0.228076319712576,-4.849958906207626,64.2
,,0.026233185742941232,0.007828699253557383,0.0002630254695383106,0.034324910466036924,2.7467078925824473,0.7642608643917042,0.228076319712576,-4.849958906207626,64.3
,,0.031628470984235206,0.010435331171697844,0.00021751734082081615,0.042281319496753865,2.7662417325370896,0.7480483428778393,0.2468071312793115,-4.5625580023300385,64.4
,,0.031628470984235206,0.010435331171697844,0.00021751734082081615,0.042281319496753865,2.775806063784276,0.7480483428778393,0.2468071312793115,-4.5625580023300385,64.5
,,0.031628470984235206,0.010435331171697844,0.00021751734082081615,0.042281319496753865,2.7853703950314617,0.7480483428778393,0.2468071312793115,-4.5625580023300385,64.6
,,0.031628470984235206,0.010435331171697844,0.00021751734082081615,0.042281319496753865,2.795560622047749,0.7480483428778393,0.2468071312793115,-4.5625580023300385,64.7
,,0.031628470984235206,0.010435331171697844,0.00021751734082081615,0.042281319496753865,2.805750849064036,0.7480483428778393,0.2468071312793115,-4.5625580023300385,64.8
,,0.03183803903318627,0.01091063891280154,0.0002914033882976901,0.0430400813342855,2.8146874135205073,0.7397299922810382,0.25349949569240665,-4.5180169187252215,64.9
,,0.03183803903318627,0.01091063891280154,0.0002914033882976901,0.0430400813342855,2.823623977976978,0.7397299922810382,0.25349949569240665,-4.5180169187252215,65.0
,,0.031621264858448614,0.011176004706144327,0.00022925460889270397,0.043026524173485646,2.831575166558066,0.7349249205199493,0.25974686361096644,-4.493986235933764,65.1
,,0.031621264858448614,0.011176004706144327,0.00022925460889270397,0.043026524173485646,2.839526355139154,0.7349249205199493,0.25974686361096644,-4.493986235933764,65.2
,,0.031621264858448614,0.011176004706144327,0.00022925460889270397,0.043026524173485646,2.846955785594417,0.7349249205199493,0.25974686361096644,-4.493986235933764,65.3
,,0.031621264858448614,0.011176004706144327,0.00022925460889270397,0.043026524173485646,2.854285844117101,0.7349249205199493,0.25974686361096644,-4.493986235933764,65.4
,,0.031621264858448614,0.011176004706144327,0.00022925460889270397,0.043026524173485646,2.8618566728183867,0.7349249205199493,0.25974686361096644,-4.493986235933764,65.5
,,0.031621264858448614,0.011176004706144327,0.00022925460889270397,0.043026524173485646,2.8694275015196733,0.7349249205199493,0.25974686361096644,-4.493986235933764,65.6
,,0.028922107731545597,0.011137954923629973,0.00031109956930892857,0.0403711622244845,2.874413076556245,0.7164051302443003,0.2758888847860558,-4.49739664090222,65.7
,,0.028922107731545597,0.011137954923629973,0.00031109956930892857,0.0403711622244845,2.8793986515928167,0.7164051302443003,0.2758888847860558,-4.49739664090222,65.8
,,0.03155980844925371,0.012106926344098353,0.000241758608428201,0.04390849340178026,2.884495785318505,0.7187631823408026,0.27573085310204426,-4.413977565020117,65.9
,,0.03155980844925371,0.012106926344098353,0.000241758608428201,0.04390849340178026,2.8895929190441936,0.7187631823408026,0.27573085310204426,-4.413977565020117,66.0
,,0.03155980844925371,0.012106926344098353,0.000241758608428201,0.04390849340178026,2.8939092178840813,0.7187631823408026,0.27573085310204426,-4.413977565020117,66.1
,,0.03155980844925371,0.012106926344098353,0.000241758608428201,0.04390849340178026,2.8990063516097697,0.7187631823408026,0.27573085310204426,-4.413977565020117,66.2
,,0.03155980844925371,0.012106926344098353,0.000241758608428201,0.04390849340178026,2.9030310682039238,0.7187631823408026,0.27573085310204426,-4.413977565020117,66.3
,,0.03155980844925371,0.012106926344098353,0.000241758608428201,0.04390849340178026,2.9070557847980782,0.7187631823408026,0.27573085310204426,-4.413977565020117,66.4
,,0.03181087905223989,0.012742232729959307,0.00032685813497225204,0.044879969917171456,2.909855338100173,0.7087990279616649,0.28391803188540066,-4.362833390664237,66.5
,,0.03181087905223989,0.012742232729959307,0.00032685813497225204,0.044879969917171456,2.9126548914022687,0.7087990279616649,0.28391803188540066,-4.362833390664237,66.6
,,0.03167867044963708,0.013301330115428405,0.00026011187816547804,0.04524011244323096,2.914178055545563,0.7002341227464608,0.2940162921150876,-4.319891240076136,66.7
,,0.03167867044963708,0.013301330115428405,0.00026011187816547804,0.04524011244323096,2.9157012196888576,0.7002341227464608,0.2940162921150876,-4.319891240076136,66.8
,,0.03167867044963708,0.013301330115428405,0.00026011187816547804,0.04524011244323096,2.9172243838321523,0.7002341227464608,0.2940162921150876,-4.319891240076136,66.9
,,0.03167867044963708,0.013301330115428405,0.00026011187816547804,0.04524011244323096,2.9177687931223995,0.7002341227464608,0.2940162921150876,-4.319891240076136,67.0
,,0.03167867044963708,0.013301330115428405,0.00026011187816547804,0.04524011244323096,2.9180936166487803,0.7002341227464608,0.2940162921150876,-4.319891240076136,67.1
,,0.03198709332499043,0.013874248927821171,0.0003589037459656378,0.04622024599877724,2.917073937602062,0.6920580501851212,0.3001768733162566,-4.277720752142996,67.2
,,0.03167867044963708,0.013301330115428405,0.00026011187816547804,0.04524011244323096,2.916899990148248,0.7002341227464608,0.2940162921150876,-4.319891240076136,67.3
,,0.031983298169290963,0.014661041763432324,0.00028427843568312825,0.046928618368406415,2.91450270190055,0.6815307861444088,0.3124115363537428,-4.222561523422719,67.4
,,0.031983298169290963,0.014661041763432324,0.00028427843568312825,0.046928618368406415,2.9121054136528515,0.6815307861444088,0.3124115363537428,-4.222561523422719,67.5
,,0.031983298169290963,0.014661041763432324,0.00028427843568312825,0.046928618368406415,2.909708125405154,0.6815307861444088,0.3124115363537428,-4.222561523422719,67.6
,,0.031983298169290963,0.014661041763432324,0.00028427843568312825,0.046928618368406415,2.9073108371574556,0.6815307861444088,0.3124115363537428,-4.222561523422719,67.7
,,0.031983298169290963,0.014661041763432324,0.00028427843568312825,0.046928618368406415,2.904913548909758,0.6815307861444088,0.3124115363537428,-4.222561523422719,67.8
,,0.031983298169290963,0.014661041763432324,0.00028427843568312825,0.046928618368406415,2.9025162606620603,0.6815307861444088,0.3124115363537428,-4.222561523422719,67.9
,,0.031983298169290963,0.014661041763432324,0.00028427843568312825,0.046928618368406415,2.8979391589508583,0.6815307861444088,0.3124115363537428,-4.222561523422719,68.0
,,0.031983298169290963,0.014661041763432324,0.00028427843568312825,0.046928618368406415,2.893362057239658,0.6815307861444088,0.3124115363537428,-4.222561523422719,68.1
,,0.032562475950385035,0.0161392671735781,0.0003120380685168497,0.04901378119247999,2.8869635905077176,0.6643534768825585,0.3292801897939327,-4.126500021534334,68.2
,,0.032562475950385035,0.0161392671735781,0.0003120380685168497,0.04901378119247999,2.8805651237757766,0.6643534768825585,0.3292801897939327,-4.126500021534334,68.3
,,0.032562475950385035,0.0161392671735781,0.0003120380685168497,0.04901378119247999,2.874166657043835,0.6643534768825585,0.3292801897939327,-4.126500021534334,68.4
,,0.032562475950385035,0.0161392671735781,0.0003120380685168497,0.04901378119247999,2.867768190311895,0.6643534768825585,0.3292801897939327,-4.126500021534334,68.5
,,0.032562475950385035,0.0161392671735781,0.0003120380685168497,0.04901378119247999,2.861369723579954,0.6643534768825585,0.3292801897939327,-4.126500021534334,68.6
,,0.032562475950385035,0.0161392671735781,0.0003120380685168497,0.04901378119247999,2.8538485186663616,0.6643534768825585,0.3292801897939327,-4.126500021534334,68.7
,,0.032562475950385035,0.0161392671735781,0.0003120380685168497,0.04901378119247999,2.846235456883501,0.6643534768825585,0.3292801897939327,-4.126500021534334,68.8
,,0.033118723642360126,0.01674523843843243,0.000429914806161745,0.050293876886954296,2.8370412228984963,0.6585040902056762,0.33294785518465303,-4.089641333456492,68.9
,,0.032562475950385035,0.0161392671735781,0.0003120380685168497,0.04901378119247999,2.8282891416836993,0.6643534768825585,0.3292801897939327,-4.126500021534334,69.0
,,0.036280262662198914,0.019779236273528577,0.00031607646872692727,0.056375575404454425,2.8175000251555735,0.6435457625383685,0.3508476167493938,-3.9231225645780636,69.1
,,0.036280262662198914,0.019779236273528577,0.00031607646872692727,0.056375575404454425,2.8067109086274478,0.6435457625383685,0.3508476167493938,-3.9231225645780636,69.2
,,0.036280262662198914,0.019779236273528577,0.00031607646872692727,0.056375575404454425,2.795921792099322,0.6435457625383685,0.3508476167493938,-3.9231225645780636,69.3
,,0.036280262662198914,0.019779236273528577,0.00031607646872692727,0.056375575404454425,2.7851326755711963,0.6435457625383685,0.3508476167493938,-3.9231225645780636,69.4
,,0.036280262662198914,0.019779236273528577,0.00031607646872692727,0.056375575404454425,2.774343559043071,0.6435457625383685,0.3508476167493938,-3.9231225645780636,69.5
,,0.036280262662198914,0.019779236273528577,0.00031607646872692727,0.056375575404454425,2.7579620264194022,0.6435457625383685,0.3508476167493938,-3.9231225645780636,69.6
,,0.036280262662198914,0.019779236273528577,0.00031607646872692727,0.056375575404454425,2.7450301244799045,0.6435457625383685,0.3508476167493938,-3.9231225645780636,69.7
,,0.036280262662198914,0.019779236273528577,0.00031607646872692727,0.056375575404454425,2.732098222540406,0.6435457625383685,0.3508476167493938,-3.9231225645780636,69.8
,,0.03488643067008709,0.01895708018080353,0.0003756380182410586,0.05421914886913168,2.719233264849,0.6434337572190997,0.3496380997525446,-3.9655777929170775,69.9
,,0.03488643067008709,0.01895708018080353,0.0003756380182410586,0.05421914886913168,2.7063683071575944,0.6434337572190997,0.3496380997525446,-3.9655777929170775,70.0
,,0.03488643067008709,0.01895708018080353,0.0003756380182410586,0.05421914886913168,2.6935033494661886,0.6434337572190997,0.3496380997525446,-3.9655777929170775,70.1
,,0.03488643067008709,0.01895708018080353,0.0003756380182410586,0.05421914886913168,2.6806383917747825,0.6434337572190997,0.3496380997525446,-3.9655777929170775,70.2
,,0.03488643067008709,0.01895708018080353,0.0003756380182410586,0.05421914886913168,2.667773434083377,0.6434337572190997,0.3496380997525446,-3.9655777929170775,70.3
,,0.03488643067008709,0.01895708018080353,0.0003756380182410586,0.05421914886913168,2.6320205720920744,0.6434337572190997,0.3496380997525446,-3.9655777929170775,70.4
,,0.03488643067008709,0.01895708018080353,0.0003756380182410586,0.05421914886913168,2.592049927918907,0.6434337572190997,0.3496380997525446,-3.9655777929170775,70.5
,,0.03567583700191839,0.0193914578197431,0.0005106923862253385,0.05557798720788683,2.5775476366771515,0.6419058838614399,0.34890536332685584,-3.9429226284514853,70.6
,,0.040674397888044236,0.021941912839295127,0.0004506914962833008,0.06306700222362266,2.5632004561539956,0.6449394525495467,0.3479143143904891,-3.819356642917436,70.7
,,0.036703915774250626,0.020069607078197386,0.00040561634249750125,0.05717913919494551,2.5485766099658136,0.641910953732846,0.3509952643703228,-3.908548693934174,70.8
,,0.036703915774250626,0.020069607078197386,0.00040561634249750125,0.05717913919494551,2.533952763777631,0.641910953732846,0.3509952643703228,-3.908548693934174,70.9
,,0.036703915774250626,0.020069607078197386,0.00040561634249750125,0.05717913919494551,2.519328917589449,0.641910953732846,0.3509952643703228,-3.908548693934174,71.0
,,0.036703915774250626,0.020069607078197386,0.00040561634249750125,0.05717913919494551,2.5038550963413306,0.641910953732846,0.3509952643703228,-3.908548693934174,71.1
,,0.036703915774250626,0.020069607078197386,0.00040561634249750125,0.05717913919494551,2.488381275093213,0.641910953732846,0.3509952643703228,-3.908548693934174,71.2
,,0.036703915774250626,0.020069607078197386,0.00040561634249750125,0.05717913919494551,2.4729074538450946,0.641910953732846,0.3509952643703228,-3.908548693934174,71.3
