HRV_ULF,HRV_VLF,HRV_LF,HRV_HF,HRV_VHF,HRV_TP,HRV_LFHF,HRV_LFn,HRV_HFn,HRV_LnHF,time
,,0.03585270685124309,0.01739082614005622,0.0002821328622466287,0.053525665853545935,2.0615873313035826,0.6698227155051438,0.32490630172897,-4.05181244512812,0.0
,,0.03585270685124309,0.01739082614005622,0.0002821328622466287,0.053525665853545935,2.0615873313035826,0.6698227155051438,0.32490630172897,-4.05181244512812,0.1
,,0.03585270685124309,0.01739082614005622,0.0002821328622466287,0.053525665853545935,2.0615873313035826,0.6698227155051438,0.32490630172897,-4.05181244512812,0.2
,,0.03585270685124309,0.01739082614005622,0.0002821328622466287,0.053525665853545935,2.0615873313035826,0.6698227155051438,0.32490630172897,-4.05181244512812,0.3
,,0.03585270685124309,0.01739082614005622,0.0002821328622466287,0.053525665853545935,2.0615873313035826,0.6698227155051438,0.32490630172897,-4.05181244512812,0.4
,,0.03585270685124309,0.01739082614005622,0.0002821328622466287,0.053525665853545935,2.0615873313035826,0.6698227155051438,0.32490630172897,-4.05181244512812,0.5
,,0.03585270685124309,0.01739082614005622,0.0002821328622466287,0.053525665853545935,2.0615873313035826,0.6698227155051438,0.32490630172897,-4.05181244512812,0.6
,,0.034814464835362324,0.016687161962684213,0.00033534550052465544,0.0518369722985712,2.064676705777533,0.6716145502256105,0.32191621583470004,-4.0931155999446425,0.7
,,0.035322782467859505,0.01741595499099954,0.00028779518264932923,0.05302653264150837,2.0606220960101886,0.666134116417964,0.3284385028291779,-4.050368539400983,0.8
,,0.035322782467859505,0.01741595499099954,0.00028779518264932923,0.05302653264150837,2.057378408196313,0.666134116417964,0.3284385028291779,-4.050368539400983,0.9
,,0.035322782467859505,0.01741595499099954,0.00028779518264932923,0.05302653264150837,2.0547244818031425,0.666134116417964,0.3284385028291779,-4.050368539400983,1.0
,,0.035322782467859505,0.01741595499099954,0.00028779518264932923,0.05302653264150837,2.0525128764755003,0.666134116417964,0.3284385028291779,-4.050368539400983,1.1
,,0.035322782467859505,0.01741595499099954,0.00028779518264932923,0.05302653264150837,2.050641518121341,0.666134116417964,0.3284385028291779,-4.050368539400983,1.2
,,0.035322782467859505,0.01741595499099954,0.00028779518264932923,0.05302653264150837,2.049037496674919,0.666134116417964,0.3284385028291779,-4.050368539400983,1.3
,,0.035322782467859505,0.01741595499099954,0.00028779518264932923,0.05302653264150837,2.047647344754687,0.666134116417964,0.3284385028291779,-4.050368539400983,1.4
,,0.024121747991285213,0.014492802438541433,0.0004893565726275717,0.03910390700245422,2.023694073537808,0.616862862060594,0.37062287503987373,-4.234103136343573,1.5
,,0.03480561807468189,0.01724662230241833,0.000353546819653802,0.05240578719675402,2.023365725298064,0.6641560013974511,0.3290976669745851,-4.060138963233226,1.6
,,0.03480561807468189,0.01724662230241833,0.000353546819653802,0.05240578719675402,2.023073860196069,0.6641560013974511,0.3290976669745851,-4.060138963233226,1.7
,,0.03480561807468189,0.01724662230241833,0.000353546819653802,0.05240578719675402,2.0228127177363895,0.6641560013974511,0.3290976669745851,-4.060138963233226,1.8
,,0.03480561807468189,0.01724662230241833,0.000353546819653802,0.05240578719675402,2.0225776895226777,0.6641560013974511,0.3290976669745851,-4.060138963233226,1.9
,,0.03480561807468189,0.01724662230241833,0.000353546819653802,0.05240578719675402,2.022365044948367,0.6641560013974511,0.3290976669745851,-4.060138963233226,2.0
,,0.03480561807468189,0.01724662230241833,0.000353546819653802,0.05240578719675402,2.0221717316989936,0.6641560013974511,0.3290976669745851,-4.060138963233226,2.1
,,0.03279377216863129,0.015976247202187432,0.00035589160551186444,0.04912591097633059,2.0234972230922037,0.6675453241860837,0.325210197321022,-4.136652209641599,2.2
,,0.033776020487698094,0.016644020996795347,0.00037613114217525777,0.050796172626668704,2.0237397782105777,0.6649323903975634,0.32766289537446375,-4.095704226338845,2.3
,,0.033776020487698094,0.016644020996795347,0.00037613114217525777,0.050796172626668704,2.0239629289194823,0.6649323903975634,0.32766289537446375,-4.095704226338845,2.4
,,0.033776020487698094,0.016644020996795347,0.00037613114217525777,0.050796172626668704,2.02416891418924,0.6649323903975634,0.32766289537446375,-4.095704226338845,2.5
,,0.033776020487698094,0.016644020996795347,0.00037613114217525777,0.050796172626668704,2.0243596412908675,0.6649323903975634,0.32766289537446375,-4.095704226338845,2.6
,,0.033776020487698094,0.016644020996795347,0.00037613114217525777,0.050796172626668704,2.024536745028093,0.6649323903975634,0.32766289537446375,-4.095704226338845,2.7
,,0.033776020487698094,0.016644020996795347,0.00037613114217525777,0.050796172626668704,2.024701634714475,0.6649323903975634,0.32766289537446375,-4.095704226338845,2.8
,,0.033776020487698094,0.016644020996795347,0.00037613114217525777,0.050796172626668704,2.0248555317550987,0.6649323903975634,0.32766289537446375,-4.095704226338845,2.9
,,0.03160351217718221,0.015331223561164255,0.0003845421667922079,0.047319277905138665,2.026033813109614,0.6678781582537675,0.3239952983200395,-4.177863774465166,3.0
,,0.0324870629585118,0.015827538694503374,0.0004134559681431387,0.04872805762115832,2.0268629344145204,0.6667013737975371,0.32481365905360576,-4.146003900784907,3.1
,,0.0324870629585118,0.015827538694503374,0.0004134559681431387,0.04872805762115832,2.0276418059433725,0.6667013737975371,0.32481365905360576,-4.146003900784907,3.2
,,0.0324870629585118,0.015827538694503374,0.0004134559681431387,0.04872805762115832,2.028374861499939,0.6667013737975371,0.32481365905360576,-4.146003900784907,3.3
,,0.0324870629585118,0.015827538694503374,0.0004134559681431387,0.04872805762115832,2.0290660281675588,0.6667013737975371,0.32481365905360576,-4.146003900784907,3.4
,,0.0324870629585118,0.015827538694503374,0.0004134559681431387,0.04872805762115832,2.029718796686977,0.6667013737975371,0.32481365905360576,-4.146003900784907,3.5
,,0.0324870629585118,0.015827538694503374,0.0004134559681431387,0.04872805762115832,2.0303362804215626,0.6667013737975371,0.32481365905360576,-4.146003900784907,3.6
,,0.021399525788147175,0.01724042592842413,0.0007541568806931228,0.03939410859726443,2.0095706186096813,0.5432163983432077,0.4376397015268756,-4.060498308226708,3.7
,,0.021863869714882515,0.018582980294049704,0.000897003337817883,0.04134385334675011,1.9882112042212379,0.5288299939415578,0.44947383443421696,-3.9855091551200883,3.8
,,0.021863869714882515,0.018582980294049704,0.000897003337817883,0.04134385334675011,1.9679197605522165,0.5288299939415578,0.44947383443421696,-3.9855091551200883,3.9
,,0.021863869714882515,0.018582980294049704,0.000897003337817883,0.04134385334675011,1.9486181434036358,0.5288299939415578,0.44947383443421696,-3.9855091551200883,4.0
,,0.021863869714882515,0.018582980294049704,0.000897003337817883,0.04134385334675011,1.9302356508811773,0.5288299939415578,0.44947383443421696,-3.9855091551200883,4.1
,,0.021863869714882515,0.018582980294049704,0.000897003337817883,0.04134385334675011,1.9127081580109269,0.5288299939415578,0.44947383443421696,-3.9855091551200883,4.2
,,0.021863869714882515,0.018582980294049704,0.000897003337817883,0.04134385334675011,1.8959773693620507,0.5288299939415578,0.44947383443421696,-3.9855091551200883,4.3
,,0.021863869714882515,0.018582980294049704,0.000897003337817883,0.04134385334675011,1.8799901713197917,0.5288299939415578,0.44947383443421696,-3.9855091551200883,4.4
,,0.023641349100594438,0.020647731365977546,0.0010801402943646872,0.04536922076093667,1.8640118047711767,0.5210878367333535,0.4551043861823485,-3.8801498268220214,4.5
,,0.023641349100594438,0.020647731365977546,0.0010801402943646872,0.04536922076093667,1.8487133687139916,0.5210878367333535,0.4551043861823485,-3.8801498268220214,4.6
,,0.023641349100594438,0.020647731365977546,0.0010801402943646872,0.04536922076093667,1.834052367492523,0.5210878367333535,0.4551043861823485,-3.8801498268220214,4.7
,,0.023641349100594438,0.020647731365977546,0.0010801402943646872,0.04536922076093667,1.8199897744841755,0.5210878367333535,0.4551043861823485,-3.8801498268220214,4.8
,,0.023641349100594438,0.020647731365977546,0.0010801402943646872,0.04536922076093667,1.8064896851961618,0.5210878367333535,0.4551043861823485,-3.8801498268220214,4.9
,,0.023641349100594438,0.020647731365977546,0.0010801402943646872,0.04536922076093667,1.7935190111743449,0.5210878367333535,0.4551043861823485,-3.8801498268220214,5.0
,,0.023641349100594438,0.020647731365977546,0.0010801402943646872,0.04536922076093667,1.7810472092302898,0.5210878367333535,0.4551043861823485,-3.8801498268220214,5.1
,,0.015326158695211603,0.022390226529310952,0.0012938611056983584,0.03901024633022092,1.7603576802295904,0.3928752093866824,0.5739575787288845,-3.799130730990276,5.2
,,0.026201108057891196,0.012579973546778398,0.0005554338921087898,0.039336515496778385,1.7663281559058606,0.6660759786930552,0.31980396300756947,-4.375649130511863,5.3
,,0.026201108057891196,0.012579973546778398,0.0005554338921087898,0.039336515496778385,1.7720815233757208,0.6660759786930552,0.31980396300756947,-4.375649130511863,5.4
,,0.026201108057891196,0.012579973546778398,0.0005554338921087898,0.039336515496778385,1.7776294134359432,0.6660759786930552,0.31980396300756947,-4.375649130511863,5.5
,,0.026201108057891196,0.012579973546778398,0.0005554338921087898,0.039336515496778385,1.7829826406870353,0.6660759786930552,0.31980396300756947,-4.375649130511863,5.6
,,0.026201108057891196,0.012579973546778398,0.0005554338921087898,0.039336515496778385,1.788151273894986,0.6660759786930552,0.31980396300756947,-4.375649130511863,5.7
,,0.026201108057891196,0.012579973546778398,0.0005554338921087898,0.039336515496778385,1.7931446991975823,0.6660759786930552,0.31980396300756947,-4.375649130511863,5.8
,,0.026201108057891196,0.012579973546778398,0.0005554338921087898,0.039336515496778385,1.7979716769900922,0.6660759786930552,0.31980396300756947,-4.375649130511863,5.9
,,0.026221824479439965,0.012388957875088195,0.0006410461939785721,0.03925182854850673,1.8031942402801198,0.6680408390920053,0.31562753464537674,-4.390949697040917,6.0
,,0.023974858337173808,0.011813067642640751,0.0006025120386538545,0.03639043801846842,1.8068446575277188,0.6588230217236294,0.3246201003858632,-4.438548932913402,6.1
,,0.023974858337173808,0.011813067642640751,0.0006025120386538545,0.03639043801846842,1.8103791885134894,0.6588230217236294,0.3246201003858632,-4.438548932913402,6.2
,,0.023974858337173808,0.011813067642640751,0.0006025120386538545,0.03639043801846842,1.8138032654059546,0.6588230217236294,0.3246201003858632,-4.438548932913402,6.3
,,0.023974858337173808,0.011813067642640751,0.0006025120386538545,0.03639043801846842,1.817121986086344,0.6588230217236294,0.3246201003858632,-4.438548932913402,6.4
,,0.023974858337173808,0.011813067642640751,0.0006025120386538545,0.03639043801846842,1.8203401394733882,0.6588230217236294,0.3246201003858632,-4.438548932913402,6.5
,,0.023974858337173808,0.011813067642640751,0.0006025120386538545,0.03639043801846842,1.8234622285802224,0.6588230217236294,0.3246201003858632,-4.438548932913402,6.6
,,0.023974858337173808,0.011813067642640751,0.0006025120386538545,0.03639043801846842,1.8264924915368554,0.6588230217236294,0.3246201003858632,-4.438548932913402,6.7
,,0.02407175014361792,0.011703546555118842,0.0006912958393752997,0.03646659253811206,1.8298301522202545,0.6601041794201087,0.3209388577473259,-4.447863358742205,6.8
,,0.02192696319347042,0.011310012384335742,0.0006425669696646236,0.03387954254747079,1.8313857416633295,0.647203638087709,0.3338301386002648,-4.48206689386481,6.9
,,0.02192696319347042,0.011310012384335742,0.0006425669696646236,0.03387954254747079,1.8328975116854727,0.647203638087709,0.3338301386002648,-4.48206689386481,7.0
,,0.02192696319347042,0.011310012384335742,0.0006425669696646236,0.03387954254747079,1.8343672880958897,0.647203638087709,0.3338301386002648,-4.48206689386481,7.1
,,0.02192696319347042,0.011310012384335742,0.0006425669696646236,0.03387954254747079,1.835796796659446,0.647203638087709,0.3338301386002648,-4.48206689386481,7.2
,,0.02192696319347042,0.011310012384335742,0.0006425669696646236,0.03387954254747079,1.8371876698564198,0.647203638087709,0.3338301386002648,-4.48206689386481,7.3
,,0.02192696319347042,0.011310012384335742,0.0006425669696646236,0.03387954254747079,1.838541453101474,0.647203638087709,0.3338301386002648,-4.48206689386481,7.4
,,0.02192696319347042,0.011310012384335742,0.0006425669696646236,0.03387954254747079,1.839859610471659,0.647203638087709,0.3338301386002648,-4.48206689386481,7.5
,,0.022157857044030862,0.011304982011081433,0.0007381687948114826,0.03420100784992378,1.8414199813063958,0.6478714645270385,0.33054528862682697,-4.48251176448908,7.6
,,0.022157857044030862,0.011304982011081433,0.0007381687948114826,0.03420100784992378,1.8429403426325497,0.6478714645270385,0.33054528862682697,-4.48251176448908,7.7
,,0.020368424491261042,0.011140430951421204,0.0006741072852848317,0.03218296272796708,1.8427554474564947,0.632894636315159,0.34615927208405023,-4.497174360184459,7.8
,,0.020368424491261042,0.011140430951421204,0.0006741072852848317,0.03218296272796708,1.8425751746598409,0.632894636315159,0.34615927208405023,-4.497174360184459,7.9
,,0.020368424491261042,0.011140430951421204,0.0006741072852848317,0.03218296272796708,1.8423993530433511,0.632894636315159,0.34615927208405023,-4.497174360184459,8.0
,,0.020368424491261042,0.011140430951421204,0.0006741072852848317,0.03218296272796708,1.8422278197589712,0.632894636315159,0.34615927208405023,-4.497174360184459,8.1
,,0.020368424491261042,0.011140430951421204,0.0006741072852848317,0.03218296272796708,1.842060419806745,0.632894636315159,0.34615927208405023,-4.497174360184459,8.2
,,0.020368424491261042,0.011140430951421204,0.0006741072852848317,0.03218296272796708,1.8418970055676671,0.632894636315159,0.34615927208405023,-4.497174360184459,8.3
,,0.020368424491261042,0.011140430951421204,0.0006741072852848317,0.03218296272796708,1.8417374363695083,0.632894636315159,0.34615927208405023,-4.497174360184459,8.4
,,0.01982532819667155,0.010719855059109423,0.0007411665064630834,0.03128634976224406,1.841826566589978,0.6336734181945536,0.342636809361698,-4.53565764403635,8.5
,,0.029094766741937648,0.02269243167419614,0.0009696732834550337,0.05275687169958882,1.8353933331592744,0.5514877172325668,0.4301322452061349,-3.785723816510136,8.6
,,0.029094766741937648,0.02269243167419614,0.0009696732834550337,0.05275687169958882,1.8291063095792686,0.5514877172325668,0.4301322452061349,-3.785723816510136,8.7
,,0.029094766741937648,0.02269243167419614,0.0009696732834550337,0.05275687169958882,1.8229605674280267,0.5514877172325668,0.4301322452061349,-3.785723816510136,8.8
,,0.029094766741937648,0.02269243167419614,0.0009696732834550337,0.05275687169958882,1.81695139732459,0.5514877172325668,0.4301322452061349,-3.785723816510136,8.9
,,0.029094766741937648,0.02269243167419614,0.0009696732834550337,0.05275687169958882,1.8082908187336477,0.5514877172325668,0.4301322452061349,-3.785723816510136,9.0
,,0.029094766741937648,0.02269243167419614,0.0009696732834550337,0.05275687169958882,1.7996302401427051,0.5514877172325668,0.4301322452061349,-3.785723816510136,9.1
,,0.029094766741937648,0.02269243167419614,0.0009696732834550337,0.05275687169958882,1.7909696615517627,0.5514877172325668,0.4301322452061349,-3.785723816510136,9.2
,,0.016935087149137735,0.009702697971702987,0.0006811602842467436,0.027318945405087468,1.787456466816606,0.6199026682041687,0.3551637088412682,-4.635351290734272,9.3
,,0.015222071046092838,0.009353218554394742,0.0004966049298389001,0.02507189453032648,1.782632927186968,0.6071368490993178,0.3730559149840579,-4.672034764498688,9.4
,,0.015222071046092838,0.009353218554394742,0.0004966049298389001,0.02507189453032648,1.77780938755733,0.6071368490993178,0.3730559149840579,-4.672034764498688,9.5
,,0.015222071046092838,0.009353218554394742,0.0004966049298389001,0.02507189453032648,1.7729858479276919,0.6071368490993178,0.3730559149840579,-4.672034764498688,9.6
,,0.015222071046092838,0.009353218554394742,0.0004966049298389001,0.02507189453032648,1.767887697233703,0.6071368490993178,0.3730559149840579,-4.672034764498688,9.7
,,0.015222071046092838,0.009353218554394742,0.0004966049298389001,0.02507189453032648,1.7634352921977554,0.6071368490993178,0.3730559149840579,-4.672034764498688,9.8
,,0.015222071046092838,0.009353218554394742,0.0004966049298389001,0.02507189453032648,1.758982887161808,0.6071368490993178,0.3730559149840579,-4.672034764498688,9.9
,,0.015222071046092838,0.009353218554394742,0.0004966049298389001,0.02507189453032648,1.7545304821258605,0.6071368490993178,0.3730559149840579,-4.672034764498688,10.0
,,0.015222071046092838,0.009353218554394742,0.0004966049298389001,0.02507189453032648,1.7500780770899134,0.6071368490993178,0.3730559149840579,-4.672034764498688,10.1
,,0.013969298599829554,0.009001929349787736,0.000557013156957553,0.023528241106574845,1.7447850371535674,0.593724730061777,0.38260103290390857,-4.710316352421716,10.2
,,0.01184785276896088,0.008950324489911142,0.0004552233890827035,0.021253400647954727,1.7369578062790063,0.5574568025706056,0.42112434796510817,-4.716065491496607,10.3
,,0.01184785276896088,0.008950324489911142,0.0004552233890827035,0.021253400647954727,1.7291305754044448,0.5574568025706056,0.42112434796510817,-4.716065491496607,10.4
,,0.01184785276896088,0.008950324489911142,0.0004552233890827035,0.021253400647954727,1.725345458003071,0.5574568025706056,0.42112434796510817,-4.716065491496607,10.5
,,0.01184785276896088,0.008950324489911142,0.0004552233890827035,0.021253400647954727,1.7176301500663902,0.5574568025706056,0.42112434796510817,-4.716065491496607,10.6
,,0.01184785276896088,0.008950324489911142,0.0004552233890827035,0.021253400647954727,1.7099148421297103,0.5574568025706056,0.42112434796510817,-4.716065491496607,10.7
,,0.01184785276896088,0.008950324489911142,0.0004552233890827035,0.021253400647954727,1.70219953419303,0.5574568025706056,0.42112434796510817,-4.716065491496607,10.8
,,0.01184785276896088,0.008950324489911142,0.0004552233890827035,0.021253400647954727,1.6944842262563498,0.5574568025706056,0.42112434796510817,-4.716065491496607,10.9
,,0.013397064311701045,0.008780935169563145,0.0005184173017377858,0.022696416783001976,1.6890129693808795,0.590272219610212,0.3868864082606841,-4.7351723656672755,11.0
,,0.013397064311701045,0.008780935169563145,0.0005184173017377858,0.022696416783001976,1.6835417125054097,0.590272219610212,0.3868864082606841,-4.7351723656672755,11.1
,,0.013672055884390542,0.008735038456004745,0.00041972824850664817,0.022826822588901934,1.6781254786676234,0.5989469551070018,0.38266554278349685,-4.740412932886661,11.2
,,0.013672055884390542,0.008735038456004745,0.00041972824850664817,0.022826822588901934,1.672968572472166,0.5989469551070018,0.38266554278349685,-4.740412932886661,11.3
,,0.013672055884390542,0.008735038456004745,0.00041972824850664817,0.022826822588901934,1.667811666276709,0.5989469551070018,0.38266554278349685,-4.740412932886661,11.4
,,0.013672055884390542,0.008735038456004745,0.00041972824850664817,0.022826822588901934,1.6626547600812516,0.5989469551070018,0.38266554278349685,-4.740412932886661,11.5
,,0.013672055884390542,0.008735038456004745,0.00041972824850664817,0.022826822588901934,1.6574978538857947,0.5989469551070018,0.38266554278349685,-4.740412932886661,11.6
,,0.013672055884390542,0.008735038456004745,0.00041972824850664817,0.022826822588901934,1.6523409476903377,0.5989469551070018,0.38266554278349685,-4.740412932886661,11.7
,,0.01339135939089691,0.008682517529968395,0.00048391171195215306,0.02255778863281746,1.6469300305565506,0.5936468156907424,0.38490109430925856,-4.74644375434798,11.8
,,0.01339135939089691,0.008682517529968395,0.00048391171195215306,0.02255778863281746,1.6415191134227638,0.5936468156907424,0.38490109430925856,-4.74644375434798,11.9
,,0.01339135939089691,0.008682517529968395,0.00048391171195215306,0.02255778863281746,1.635751932868845,0.5936468156907424,0.38490109430925856,-4.74644375434798,12.0
,,0.013764259324759021,0.008628391025794145,0.00038959988893911364,0.02278225023949228,1.6306704136984118,0.6041659265465854,0.37873304590593576,-4.752697230921887,12.1
,,0.013764259324759021,0.008628391025794145,0.00038959988893911364,0.02278225023949228,1.6255888945279784,0.6041659265465854,0.37873304590593576,-4.752697230921887,12.2
,,0.013764259324759021,0.008628391025794145,0.00038959988893911364,0.02278225023949228,1.6205073753575452,0.6041659265465854,0.37873304590593576,-4.752697230921887,12.3
,,0.013764259324759021,0.008628391025794145,0.00038959988893911364,0.02278225023949228,1.6154258561871115,0.6041659265465854,0.37873304590593576,-4.752697230921887,12.4
,,0.013764259324759021,0.008628391025794145,0.00038959988893911364,0.02278225023949228,1.6103443370166783,0.6041659265465854,0.37873304590593576,-4.752697230921887,12.5
,,0.011495315294254637,0.008646277960860538,0.0004520070134554654,0.02059360026857064,1.6023103877846898,0.5581984278775409,0.4198526652989491,-4.750626344183315,12.6
,,0.011495315294254637,0.008646277960860538,0.0004520070134554654,0.02059360026857064,1.603291155922664,0.5581984278775409,0.4198526652989491,-4.750626344183315,12.7
,,0.011495315294254637,0.008646277960860538,0.0004520070134554654,0.02059360026857064,1.6049906759951893,0.5581984278775409,0.4198526652989491,-4.750626344183315,12.8
,,0.029931310978213818,0.01705604501271023,0.00043270069774770727,0.047420056688671754,1.61141652562508,0.6311951749598848,0.3596799793954016,-4.07125059188925,12.9
,,0.029931310978213818,0.01705604501271023,0.00043270069774770727,0.047420056688671754,1.6178423752549709,0.6311951749598848,0.3596799793954016,-4.07125059188925,13.0
,,0.029931310978213818,0.01705604501271023,0.00043270069774770727,0.047420056688671754,1.624268224884862,0.6311951749598848,0.3596799793954016,-4.07125059188925,13.1
,,0.029931310978213818,0.01705604501271023,0.00043270069774770727,0.047420056688671754,1.6306940745147531,0.6311951749598848,0.3596799793954016,-4.07125059188925,13.2
,,0.014582587716720297,0.00865460826453214,0.00042323456472554484,0.02366043054597798,1.636342932075992,0.6163280794228481,0.3657840565375228,-4.749663352553078,13.3
,,0.029931310978213818,0.01705604501271023,0.00043270069774770727,0.047420056688671754,1.6427687817058827,0.6311951749598848,0.3596799793954016,-4.07125059188925,13.4
,,0.032464531623599274,0.018076911159062518,0.0005489140251055306,0.05109035680776732,1.6500012943054887,0.6354336444693542,0.35382237057139254,-4.013119781585636,13.5
,,0.032464531623599274,0.018076911159062518,0.0005489140251055306,0.05109035680776732,1.6572338069050943,0.6354336444693542,0.35382237057139254,-4.013119781585636,13.6
,,0.032464531623599274,0.018076911159062518,0.0005489140251055306,0.05109035680776732,1.6644663195046996,0.6354336444693542,0.35382237057139254,-4.013119781585636,13.7
,,0.015145716814417709,0.008568990535864072,0.00033775131013089363,0.024052458660412675,1.6713831831607744,0.6296951604097611,0.35626256163024006,-4.759605343757888,13.8
,,0.015145716814417709,0.008568990535864072,0.00033775131013089363,0.024052458660412675,1.678300046816849,0.6296951604097611,0.35626256163024006,-4.759605343757888,13.9
,,0.015145716814417709,0.008568990535864072,0.00033775131013089363,0.024052458660412675,1.6852169104729238,0.6296951604097611,0.35626256163024006,-4.759605343757888,14.0
,,0.015145716814417709,0.008568990535864072,0.00033775131013089363,0.024052458660412675,1.692133774128998,0.6296951604097611,0.35626256163024006,-4.759605343757888,14.1
,,0.015145716814417709,0.008568990535864072,0.00033775131013089363,0.024052458660412675,1.7041671170949646,0.6296951604097611,0.35626256163024006,-4.759605343757888,14.2
,,0.015725048822208758,0.008657328892895493,0.0003944719742907943,0.024776849689395045,1.701207365782477,0.634666998401309,0.3494120116731786,-4.749349045914715,14.3
,,0.015725048822208758,0.008657328892895493,0.0003944719742907943,0.024776849689395045,1.6982476144699896,0.634666998401309,0.3494120116731786,-4.749349045914715,14.4
,,0.015725048822208758,0.008657328892895493,0.0003944719742907943,0.024776849689395045,1.695287863157502,0.634666998401309,0.3494120116731786,-4.749349045914715,14.5
,,0.01634805214648822,0.008578917974061248,0.00031460616020082276,0.02524157628075029,1.6933194668569955,0.6476636785538452,0.3398725134532781,-4.758447483684104,14.6
,,0.01634805214648822,0.008578917974061248,0.00031460616020082276,0.02524157628075029,1.6913510705564894,0.6476636785538452,0.3398725134532781,-4.758447483684104,14.7
,,0.01634805214648822,0.008578917974061248,0.00031460616020082276,0.02524157628075029,1.689382674255983,0.6476636785538452,0.3398725134532781,-4.758447483684104,14.8
,,0.01634805214648822,0.008578917974061248,0.00031460616020082276,0.02524157628075029,1.6874142779554768,0.6476636785538452,0.3398725134532781,-4.758447483684104,14.9
,,0.03938692535881312,0.018331932482729532,0.00047394157060197053,0.05819279941214463,1.6877697655034907,0.6768350338305466,0.3150206325854075,-3.9991107953701057,15.0
,,0.01634805214648822,0.008578917974061248,0.00031460616020082276,0.02524157628075029,1.6863929609487274,0.6476636785538452,0.3398725134532781,-4.758447483684104,15.1
,,0.017155016926492406,0.008693877458339735,0.0003701611546564244,0.026219055539488566,1.6857675115918243,0.6542957621282431,0.3315862177127575,-4.745136241483847,15.2
,,0.017155016926492406,0.008693877458339735,0.0003701611546564244,0.026219055539488566,1.6851420622349218,0.6542957621282431,0.3315862177127575,-4.745136241483847,15.3
,,0.017773099098137558,0.00858721988210736,0.0002957889483084284,0.026656107928553347,1.6855886738097887,0.6667552196958005,0.32214830106194714,-4.757480241225385,15.4
,,0.017773099098137558,0.00858721988210736,0.0002957889483084284,0.026656107928553347,1.6860352853846563,0.6667552196958005,0.32214830106194714,-4.757480241225385,15.5
,,0.017773099098137558,0.00858721988210736,0.0002957889483084284,0.026656107928553347,1.6864818969595237,0.6667552196958005,0.32214830106194714,-4.757480241225385,15.6
,,0.017773099098137558,0.00858721988210736,0.0002957889483084284,0.026656107928553347,1.6869285085343912,0.6667552196958005,0.32214830106194714,-4.757480241225385,15.7
,,0.017773099098137558,0.00858721988210736,0.0002957889483084284,0.026656107928553347,1.6870721093419234,0.6667552196958005,0.32214830106194714,-4.757480241225385,15.8
,,0.017773099098137558,0.00858721988210736,0.0002957889483084284,0.026656107928553347,1.6885275953211882,0.6667552196958005,0.32214830106194714,-4.757480241225385,15.9
,,0.01872834949971648,0.008714921839818215,0.0003522557245250677,0.02779552706405976,1.6908640017079324,0.6737900474617247,0.3135368442459508,-4.742718568516438,16.0
,,0.01872834949971648,0.008714921839818215,0.0003522557245250677,0.02779552706405976,1.6932004080946759,0.6737900474617247,0.3135368442459508,-4.742718568516438,16.1
,,0.01925269194849021,0.008565636448503548,0.0002834133986644457,0.028101741795658202,1.6966331284946339,0.6851067129036394,0.30480802616394986,-4.759996841910304,16.2
,,0.01925269194849021,0.008565636448503548,0.0002834133986644457,0.028101741795658202,1.7000658488945914,0.6851067129036394,0.30480802616394986,-4.759996841910304,16.3
,,0.01925269194849021,0.008565636448503548,0.0002834133986644457,0.028101741795658202,1.7034985692945488,0.6851067129036394,0.30480802616394986,-4.759996841910304,16.4
,,0.01925269194849021,0.008565636448503548,0.0002834133986644457,0.028101741795658202,1.7069312896945064,0.6851067129036394,0.30480802616394986,-4.759996841910304,16.5
,,0.01925269194849021,0.008565636448503548,0.0002834133986644457,0.028101741795658202,1.7101274906332318,0.6851067129036394,0.30480802616394986,-4.759996841910304,16.6
,,0.01925269194849021,0.008565636448503548,0.0002834133986644457,0.028101741795658202,1.7133236915719572,0.6851067129036394,0.30480802616394986,-4.759996841910304,16.7
,,0.0203052717941905,0.008715207292246707,0.00034191318463855667,0.029362392271075764,1.7188962819973013,0.6915401036376988,0.29681530073528317,-4.742685814607806,16.8
,,0.0203052717941905,0.008715207292246707,0.00034191318463855667,0.029362392271075764,1.7244688724226453,0.6915401036376988,0.29681530073528317,-4.742685814607806,16.9
,,0.0203052717941905,0.008715207292246707,0.00034191318463855667,0.029362392271075764,1.7300414628479892,0.6915401036376988,0.29681530073528317,-4.742685814607806,17.0
,,0.020614668729599273,0.008500237258747406,0.0002767868066174349,0.029391692794964112,1.7366731720388477,0.7013773882779331,0.2892054335912157,-4.767661203081609,17.1
,,0.020614668729599273,0.008500237258747406,0.0002767868066174349,0.029391692794964112,1.7433048812297067,0.7013773882779331,0.2892054335912157,-4.767661203081609,17.2
,,0.020614668729599273,0.008500237258747406,0.0002767868066174349,0.029391692794964112,1.749936590420565,0.7013773882779331,0.2892054335912157,-4.767661203081609,17.3
,,0.020614668729599273,0.008500237258747406,0.0002767868066174349,0.029391692794964112,1.7565682996114238,0.7013773882779331,0.2892054335912157,-4.767661203081609,17.4
,,0.020614668729599273,0.008500237258747406,0.0002767868066174349,0.029391692794964112,1.76296590867333,0.7013773882779331,0.2892054335912157,-4.767661203081609,17.5
,,0.014022483572929593,0.008672794028522914,0.0003390639072275101,0.023034341508680015,1.7666848032008116,0.6087642474018852,0.37651582205007905,-4.747564276146749,17.6
,,0.014022483572929593,0.008672794028522914,0.0003390639072275101,0.023034341508680015,1.7704036977282935,0.6087642474018852,0.37651582205007905,-4.747564276146749,17.7
,,0.014022483572929593,0.008672794028522914,0.0003390639072275101,0.023034341508680015,1.7741225922557753,0.6087642474018852,0.37651582205007905,-4.747564276146749,17.8
,,0.021795179798167294,0.008400993518018459,0.0002771124982618253,0.030473285814447575,1.788702838405425,0.7152225044216947,0.27568387502326697,-4.77940530417234,17.9
,,0.021795179798167294,0.008400993518018459,0.0002771124982618253,0.030473285814447575,1.8032830845550747,0.7152225044216947,0.27568387502326697,-4.77940530417234,18.0
,,0.021795179798167294,0.008400993518018459,0.0002771124982618253,0.030473285814447575,1.817863330704724,0.7152225044216947,0.27568387502326697,-4.77940530417234,18.1
,,0.021795179798167294,0.008400993518018459,0.0002771124982618253,0.030473285814447575,1.8324435768543736,0.7152225044216947,0.27568387502326697,-4.77940530417234,18.2
,,0.021795179798167294,0.008400993518018459,0.0002771124982618253,0.030473285814447575,1.841876439148237,0.7152225044216947,0.27568387502326697,-4.77940530417234,18.3
,,0.021813814230884594,0.008193881951525058,0.0003276567975844311,0.030335352979994082,1.853373536540631,0.7190888546861686,0.27010999202576796,-4.804367506658202,18.4
,,0.021813814230884594,0.008193881951525058,0.0003276567975844311,0.030335352979994082,1.8648706339330248,0.7190888546861686,0.27010999202576796,-4.804367506658202,18.5
,,0.021813814230884594,0.008193881951525058,0.0003276567975844311,0.030335352979994082,1.8763677313254186,0.7190888546861686,0.27010999202576796,-4.804367506658202,18.6
,,0.02130619397009138,0.0077933529726214226,0.00026710512390724776,0.02936665206662005,1.8886613351263584,0.7255234243848081,0.26538105041533927,-4.854484091598197,18.7
,,0.02130619397009138,0.0077933529726214226,0.00026710512390724776,0.02936665206662005,1.9009549389272984,0.7255234243848081,0.26538105041533927,-4.854484091598197,18.8
,,0.02130619397009138,0.0077933529726214226,0.00026710512390724776,0.02936665206662005,1.9132485427282382,0.7255234243848081,0.26538105041533927,-4.854484091598197,18.9
,,0.02130619397009138,0.0077933529726214226,0.00026710512390724776,0.02936665206662005,1.925542146529178,0.7255234243848081,0.26538105041533927,-4.854484091598197,19.0
,,0.02130619397009138,0.0077933529726214226,0.00026710512390724776,0.02936665206662005,1.9378357503301178,0.7255234243848081,0.26538105041533927,-4.854484091598197,19.1
,,0.02099378342079663,0.007562090327337707,0.0003162998652254045,0.02887217361335974,1.951439930819512,0.7271286083941523,0.26191621138765164,-4.884607628684219,19.2
,,0.02099378342079663,0.007562090327337707,0.0003162998652254045,0.02887217361335974,1.9675783022471216,0.7271286083941523,0.26191621138765164,-4.884607628684219,19.3
,,0.02099378342079663,0.007562090327337707,0.0003162998652254045,0.02887217361335974,1.9837166736747314,0.7271286083941523,0.26191621138765164,-4.884607628684219,19.4
,,0.020497266246538692,0.0072576089683225676,0.00026276060562286936,0.028017635820484128,2.0003890138608713,0.7315844340996404,0.25903716554900813,-4.925704847597075,19.5
,,0.020497266246538692,0.0072576089683225676,0.00026276060562286936,0.028017635820484128,2.0170613540470117,0.7315844340996404,0.25903716554900813,-4.925704847597075,19.6
,,0.020497266246538692,0.0072576089683225676,0.00026276060562286936,0.028017635820484128,2.0337336942331516,0.7315844340996404,0.25903716554900813,-4.925704847597075,19.7
,,0.020497266246538692,0.0072576089683225676,0.00026276060562286936,0.028017635820484128,2.050406034419291,0.7315844340996404,0.25903716554900813,-4.925704847597075,19.8
,,0.020497266246538692,0.0072576089683225676,0.00026276060562286936,0.028017635820484128,2.0670783746054315,0.7315844340996404,0.25903716554900813,-4.925704847597075,19.9
,,0.020159325545843727,0.007127528886401108,0.0003168548380288149,0.02760370927027365,2.081552553606414,0.7303121963957664,0.2582090985169418,-4.943790684375964,20.0
,,0.020158933817975566,0.007127501096582635,0.00031685320546494147,0.027603288120023144,2.0960262444702313,0.7303091476030524,0.25821203132000853,-4.943794583325108,20.1
,,0.020159325545843727,0.007127528886401108,0.0003168548380288149,0.02760370927027365,2.110061557319301,0.7303121963957664,0.2582090985169418,-4.943790684375964,20.2
,,0.020158933817975566,0.007127501096582635,0.00031685320546494147,0.027603288120023144,2.1240963820312055,0.7303091476030524,0.25821203132000853,-4.943794583325108,20.3
,,0.019727756888873172,0.006936998994312478,0.0002674769038192103,0.026932232787004858,2.1383035933469596,0.7324961522830764,0.25757236873653,-4.970886019553399,20.4
,,0.019727756888873172,0.006936998994312478,0.0002674769038192103,0.026932232787004858,2.1525108046627137,0.7324961522830764,0.25757236873653,-4.970886019553399,20.5
,,0.019727756888873172,0.006936998994312478,0.0002674769038192103,0.026932232787004858,2.1667180159784682,0.7324961522830764,0.25757236873653,-4.970886019553399,20.6
,,0.019727756888873172,0.006936998994312478,0.0002674769038192103,0.026932232787004858,2.1809252272942223,0.7324961522830764,0.25757236873653,-4.970886019553399,20.7
,,0.019375215585248413,0.006918307183695196,0.00032752546803836567,0.026621048236981977,2.194905624358797,0.7278156522150901,0.2598810956694139,-4.973584165912176,20.8
,,0.019375215585248413,0.006918307183695196,0.00032752546803836567,0.026621048236981977,2.2088860214233716,0.7278156522150901,0.2598810956694139,-4.973584165912176,20.9
,,0.019375215585248413,0.006918307183695196,0.00032752546803836567,0.026621048236981977,2.222866418487946,0.7278156522150901,0.2598810956694139,-4.973584165912176,21.0
,,0.019375215585248413,0.006918307183695196,0.00032752546803836567,0.026621048236981977,2.2362591159343506,0.7278156522150901,0.2598810956694139,-4.973584165912176,21.1
,,0.01906677417117397,0.006860161124432331,0.00027957848632647106,0.026206513781932773,2.2494159925449235,0.7275585882895624,0.26177312944088904,-4.982024349993592,21.2
,,0.01906677417117397,0.006860161124432331,0.00027957848632647106,0.026206513781932773,2.262572869155496,0.7275585882895624,0.26177312944088904,-4.982024349993592,21.3
,,0.01906677417117397,0.006860161124432331,0.00027957848632647106,0.026206513781932773,2.2757297457660686,0.7275585882895624,0.26177312944088904,-4.982024349993592,21.4
,,0.01906677417117397,0.006860161124432331,0.00027957848632647106,0.026206513781932773,2.288886622376641,0.7275585882895624,0.26177312944088904,-4.982024349993592,21.5
,,0.018717167065897364,0.006953235776942557,0.00034700611666547596,0.026017408959505398,2.3040238892971705,0.7194093422227232,0.26725319910852263,-4.9685481483377085,21.6
,,0.018717167065897364,0.006953235776942557,0.00034700611666547596,0.026017408959505398,2.3191611562176995,0.7194093422227232,0.26725319910852263,-4.9685481483377085,21.7
,,0.018717167065897364,0.006953235776942557,0.00034700611666547596,0.026017408959505398,2.334298423138229,0.7194093422227232,0.26725319910852263,-4.9685481483377085,21.8
,,0.018717167065897364,0.006953235776942557,0.00034700611666547596,0.026017408959505398,2.3447093605013927,0.7194093422227232,0.26725319910852263,-4.9685481483377085,21.9
,,0.018559801776322098,0.007027678973975711,0.0002978856481824515,0.02588536639848026,2.354554667346222,0.7169997708594054,0.27149235076650524,-4.957898787848586,22.0
,,0.018559801776322098,0.007027678973975711,0.0002978856481824515,0.02588536639848026,2.364399974191051,0.7169997708594054,0.27149235076650524,-4.957898787848586,22.1
,,0.018559801776322098,0.007027678973975711,0.0002978856481824515,0.02588536639848026,2.37424528103588,0.7169997708594054,0.27149235076650524,-4.957898787848586,22.2
,,0.018559801776322098,0.007027678973975711,0.0002978856481824515,0.02588536639848026,2.3848675799493613,0.7169997708594054,0.27149235076650524,-4.957898787848586,22.3
,,0.018238068347700694,0.007227117162593832,0.00037205350193050845,0.025837239012225035,2.393408476692985,0.7058830217528758,0.27971708428962866,-4.929915055024432,22.4
,,0.018238068347700694,0.007227117162593832,0.00037205350193050845,0.025837239012225035,2.4014934676599706,0.7058830217528758,0.27971708428962866,-4.929915055024432,22.5
,,0.018238068347700694,0.007227117162593832,0.00037205350193050845,0.025837239012225035,2.4095784586269566,0.7058830217528758,0.27971708428962866,-4.929915055024432,22.6
,,0.018238068347700694,0.007227117162593832,0.00037205350193050845,0.025837239012225035,2.4176634495939426,0.7058830217528758,0.27971708428962866,-4.929915055024432,22.7
,,0.017612184682328832,0.007158331443275968,0.00030708738456770916,0.02507760351017251,2.4253620346320584,0.7023073267421508,0.2854471895758402,-4.939478363815915,22.8
,,0.017612184682328832,0.007158331443275968,0.00030708738456770916,0.02507760351017251,2.433060619670175,0.7023073267421508,0.2854471895758402,-4.939478363815915,22.9
,,0.017612184682328832,0.007158331443275968,0.00030708738456770916,0.02507760351017251,2.4407592047082907,0.7023073267421508,0.2854471895758402,-4.939478363815915,23.0
,,0.017612184682328832,0.007158331443275968,0.00030708738456770916,0.02507760351017251,2.448457789746407,0.7023073267421508,0.2854471895758402,-4.939478363815915,23.1
,,0.01699322355618167,0.007272343711910973,0.00037607372077782717,0.024641640988870468,2.4547821057024857,0.6896141196057823,0.29512416462830404,-4.92367665810965,23.2
,,0.01699322355618167,0.007272343711910973,0.00037607372077782717,0.024641640988870468,2.460563280441964,0.6896141196057823,0.29512416462830404,-4.92367665810965,23.3
,,0.01699322355618167,0.007272343711910973,0.00037607372077782717,0.024641640988870468,2.4663444551814417,0.6896141196057823,0.29512416462830404,-4.92367665810965,23.4
,,0.01699322355618167,0.007272343711910973,0.00037607372077782717,0.024641640988870468,2.4721256299209196,0.6896141196057823,0.29512416462830404,-4.92367665810965,23.5
,,0.016235633459094487,0.007138334145075351,0.00030247460170906,0.0236764422058789,2.476223643229039,0.6857294401716806,0.30149521972109855,-4.942275842867017,23.6
,,0.016235633459094487,0.007138334145075351,0.00030247460170906,0.0236764422058789,2.480321656537158,0.6857294401716806,0.30149521972109855,-4.942275842867017,23.7
,,0.016235633459094487,0.007138334145075351,0.00030247460170906,0.0236764422058789,2.4844196698452774,0.6857294401716806,0.30149521972109855,-4.942275842867017,23.8
,,0.016235633459094487,0.007138334145075351,0.00030247460170906,0.0236764422058789,2.4885176831533964,0.6857294401716806,0.30149521972109855,-4.942275842867017,23.9
,,0.01570453435172841,0.007274595767863419,0.0003687013611071075,0.02334783148069894,2.488631871117476,0.6726335319282628,0.3115747933111965,-4.923367032023204,24.0
,,0.01570453435172841,0.007274595767863419,0.0003687013611071075,0.02334783148069894,2.491445328162672,0.6726335319282628,0.3115747933111965,-4.923367032023204,24.1
,,0.01570453435172841,0.007274595767863419,0.0003687013611071075,0.02334783148069894,2.493507430010007,0.6726335319282628,0.3115747933111965,-4.923367032023204,24.2
,,0.01570453435172841,0.007274595767863419,0.0003687013611071075,0.02334783148069894,2.4955695318573423,0.6726335319282628,0.3115747933111965,-4.923367032023204,24.3
,,0.015307003224908324,0.00721642984759825,0.0002953106711845345,0.022818743743691108,2.4961408347166607,0.6708083230541726,0.3162500937236494,-4.931394929315491,24.4
,,0.015307003224908324,0.00721642984759825,0.0002953106711845345,0.022818743743691108,2.496712137575979,0.6708083230541726,0.3162500937236494,-4.931394929315491,24.5
,,0.015307003224908324,0.00721642984759825,0.0002953106711845345,0.022818743743691108,2.4972834404352975,0.6708083230541726,0.3162500937236494,-4.931394929315491,24.6
,,0.012364244908097165,0.006315756916894551,0.0003513491365936525,0.01903135096158537,2.496038629886282,0.6496777308691483,0.3318606718799341,-5.0647076702048475,24.7
,,0.01492712116609345,0.007381858799683511,0.0003588018085267119,0.022667781774303675,2.495509970752811,0.6585170668536662,0.32565422030185714,-4.908729802207834,24.8
,,0.01492712116609345,0.007381858799683511,0.0003588018085267119,0.022667781774303675,2.494981311619339,0.6585170668536662,0.32565422030185714,-4.908729802207834,24.9
,,0.01492712116609345,0.007381858799683511,0.0003588018085267119,0.022667781774303675,2.4935717320783883,0.6585170668536662,0.32565422030185714,-4.908729802207834,25.0
,,0.01492712116609345,0.007381858799683511,0.0003588018085267119,0.022667781774303675,2.4921621525374382,0.6585170668536662,0.32565422030185714,-4.908729802207834,25.1
,,0.012156017308321328,0.006412911745707342,0.00027754284378098506,0.018846471897809653,2.488249788663244,0.6450022781045882,0.34027120728377036,-5.0494418606897185,25.2
,,0.012156017308321328,0.006412911745707342,0.00027754284378098506,0.018846471897809653,2.484337424789051,0.6450022781045882,0.34027120728377036,-5.0494418606897185,25.3
,,0.012156017308321328,0.006412911745707342,0.00027754284378098506,0.018846471897809653,2.480425060914858,0.6450022781045882,0.34027120728377036,-5.0494418606897185,25.4
,,0.012156017308321328,0.006412911745707342,0.00027754284378098506,0.018846471897809653,2.476512697040665,0.6450022781045882,0.34027120728377036,-5.0494418606897185,25.5
,,0.011804184540933182,0.006443903998082791,0.0003292383627757321,0.018577326901791705,2.4718923768302874,0.6354081296698675,0.3468692795334997,-5.044620711655045,25.6
,,0.011804184540933182,0.006443903998082791,0.0003292383627757321,0.018577326901791705,2.46727205661991,0.6354081296698675,0.3468692795334997,-5.044620711655045,25.7
,,0.011804184540933182,0.006443903998082791,0.0003292383627757321,0.018577326901791705,2.461738397378716,0.6354081296698675,0.3468692795334997,-5.044620711655045,25.8
,,0.011804184540933182,0.006443903998082791,0.0003292383627757321,0.018577326901791705,2.4562047381375227,0.6354081296698675,0.3468692795334997,-5.044620711655045,25.9
,,0.011804184540933182,0.006443903998082791,0.0003292383627757321,0.018577326901791705,2.450671078896329,0.6354081296698675,0.3468692795334997,-5.044620711655045,26.0
,,0.011997830399875238,0.006580884977961617,0.00026193843667216617,0.01884065381450902,2.443981588082705,0.6368054165209391,0.3492917519079797,-5.023586047557625,26.1
,,0.011997830399875238,0.006580884977961617,0.00026193843667216617,0.01884065381450902,2.4372920972690806,0.6368054165209391,0.3492917519079797,-5.023586047557625,26.2
,,0.011997830399875238,0.006580884977961617,0.00026193843667216617,0.01884065381450902,2.4306026064554564,0.6368054165209391,0.3492917519079797,-5.023586047557625,26.3
,,0.01185123001961302,0.006638612440464042,0.00031085861108618037,0.01880070107116324,2.423491599783001,0.6303610687045383,0.35310451537610116,-5.01485230714066,26.4
,,0.01185123001961302,0.006638612440464042,0.00031085861108618037,0.01880070107116324,2.4163805931105453,0.6303610687045383,0.35310451537610116,-5.01485230714066,26.5
,,0.01185123001961302,0.006638612440464042,0.00031085861108618037,0.01880070107116324,2.4182512718304165,0.6303610687045383,0.35310451537610116,-5.01485230714066,26.6
,,0.01185123001961302,0.006638612440464042,0.00031085861108618037,0.01880070107116324,2.420121950550287,0.6303610687045383,0.35310451537610116,-5.01485230714066,26.7
,,0.01185123001961302,0.006638612440464042,0.00031085861108618037,0.01880070107116324,2.4219926292701572,0.6303610687045383,0.35310451537610116,-5.01485230714066,26.8
,,0.012307713039262112,0.006814471318755168,0.00024784992477874703,0.019370034282796027,2.413234370752133,0.63539965183198,0.3518048145535606,-4.988706792960921,26.9
,,0.012307713039262112,0.006814471318755168,0.00024784992477874703,0.019370034282796027,2.4044761122341085,0.63539965183198,0.3518048145535606,-4.988706792960921,27.0
,,0.012354107928208603,0.0068907741768611235,0.000295833795771745,0.019540715900841475,2.3955704476336366,0.6322239159966807,0.35263673100965504,-4.977571837879617,27.1
,,0.012307713039262112,0.006814471318755168,0.00024784992477874703,0.019370034282796027,2.3868121891156115,0.63539965183198,0.3518048145535606,-4.988706792960921,27.2
,,0.015756516707865497,0.008232788477600518,0.0003319881547903948,0.024321293340256407,2.3792512581270553,0.647848635655631,0.33850126152517035,-4.7996305030157504,27.3
,,0.015756516707865497,0.008232788477600518,0.0003319881547903948,0.024321293340256407,2.370936436934449,0.647848635655631,0.33850126152517035,-4.7996305030157504,27.4
,,0.015756516707865497,0.008232788477600518,0.0003319881547903948,0.024321293340256407,2.362621615741843,0.647848635655631,0.33850126152517035,-4.7996305030157504,27.5
,,0.015756516707865497,0.008232788477600518,0.0003319881547903948,0.024321293340256407,2.3543067945492377,0.647848635655631,0.33850126152517035,-4.7996305030157504,27.6
,,0.01666199858265784,0.008383795152998506,0.0002688130209475887,0.025314606756603932,2.346012485137023,0.6581970141926519,0.33118409594932335,-4.781454584788953,27.7
,,0.01666199858265784,0.008383795152998506,0.0002688130209475887,0.025314606756603932,2.3377181757248082,0.6581970141926519,0.33118409594932335,-4.781454584788953,27.8
,,0.010920344704132879,0.0071978991208844195,0.00027992978825525,0.018398173613272548,2.3241988882243243,0.5935559112375632,0.39122900306211994,-4.933966084304805,27.9
,,0.01666199858265784,0.008383795152998506,0.0002688130209475887,0.025314606756603932,2.3159045788121095,0.6581970141926519,0.33118409594932335,-4.781454584788953,28.0
,,0.016958444977334813,0.008660755751204193,0.0003252072824094557,0.025944408010948463,2.3072844233752123,0.6536454780613379,0.33381974826904437,-4.748953291023358,28.1
,,0.016958444977334813,0.008660755751204193,0.0003252072824094557,0.025944408010948463,2.298194326150259,0.6536454780613379,0.33381974826904437,-4.748953291023358,28.2
,,0.016958444977334813,0.008660755751204193,0.0003252072824094557,0.025944408010948463,2.2891042289253054,0.6536454780613379,0.33381974826904437,-4.748953291023358,28.3
,,0.016958444977334813,0.008660755751204193,0.0003252072824094557,0.025944408010948463,2.280014131700352,0.6536454780613379,0.33381974826904437,-4.748953291023358,28.4
,,0.01811079612356259,0.008835499675729334,0.0002641116205237532,0.027210407419815678,2.271408921150387,0.665583423435755,0.3247103043850413,-4.7289776184170496,28.5
,,0.01811079612356259,0.008835499675729334,0.0002641116205237532,0.027210407419815678,2.2628037106004224,0.665583423435755,0.3247103043850413,-4.7289776184170496,28.6
,,0.01811079612356259,0.008835499675729334,0.0002641116205237532,0.027210407419815678,2.2541985000504576,0.665583423435755,0.3247103043850413,-4.7289776184170496,28.7
,,0.01811079612356259,0.008835499675729334,0.0002641116205237532,0.027210407419815678,2.2455932895004933,0.665583423435755,0.3247103043850413,-4.7289776184170496,28.8
,,0.018479535142547868,0.009107389779021863,0.00032006584406086126,0.02790699076563059,2.2367580156931197,0.662183009903981,0.32634796977960984,-4.698669131375829,28.9
,,0.018479535142547868,0.009107389779021863,0.00032006584406086126,0.02790699076563059,2.227876852009693,0.662183009903981,0.32634796977960984,-4.698669131375829,29.0
,,0.018479535142547868,0.009107389779021863,0.00032006584406086126,0.02790699076563059,2.218996176463432,0.662183009903981,0.32634796977960984,-4.698669131375829,29.1
,,0.018479535142547868,0.009107389779021863,0.00032006584406086126,0.02790699076563059,2.210115012780005,0.662183009903981,0.32634796977960984,-4.698669131375829,29.2
,,0.019867359945104086,0.009298354823633812,0.00026090192325355744,0.029426616691991456,2.2024297019569103,0.6751493096558072,0.3159845020907343,-4.677917795156235,29.3
,,0.019867359945104086,0.009298354823633812,0.00026090192325355744,0.029426616691991456,2.1945720045299657,0.6751493096558072,0.3159845020907343,-4.677917795156235,29.4
,,0.019867359945104086,0.009298354823633812,0.00026090192325355744,0.029426616691991456,2.186714307103021,0.6751493096558072,0.3159845020907343,-4.677917795156235,29.5
,,0.019867359945104086,0.009298354823633812,0.00026090192325355744,0.029426616691991456,2.1788566096760764,0.6751493096558072,0.3159845020907343,-4.677917795156235,29.6
,,0.020375192635477237,0.009622958925135093,0.00031883993564101206,0.03031699149625334,2.170784455557332,0.6720717205068076,0.3174114069440012,-4.643603481022356,29.7
,,0.020375192635477237,0.009622958925135093,0.00031883993564101206,0.03031699149625334,2.1631931266280975,0.6720717205068076,0.3174114069440012,-4.643603481022356,29.8
,,0.020375192635477237,0.009622958925135093,0.00031883993564101206,0.03031699149625334,2.1556017976988633,0.6720717205068076,0.3174114069440012,-4.643603481022356,29.9
,,0.020375192635477237,0.009622958925135093,0.00031883993564101206,0.03031699149625334,2.1480104687696286,0.6720717205068076,0.3174114069440012,-4.643603481022356,30.0
,,0.022027714848172016,0.009846155385260692,0.0002613306710222525,0.032135200904454965,2.141750665434695,0.6854699590540998,0.3063978163552013,-4.6206742162085295,30.1
,,0.022027714848172016,0.009846155385260692,0.0002613306710222525,0.032135200904454965,2.135726682935593,0.6854699590540998,0.3063978163552013,-4.6206742162085295,30.2
,,0.022027714848172016,0.009846155385260692,0.0002613306710222525,0.032135200904454965,2.129702700436491,0.6854699590540998,0.3063978163552013,-4.6206742162085295,30.3
,,0.022027714848172016,0.009846155385260692,0.0002613306710222525,0.032135200904454965,2.123678717937389,0.6854699590540998,0.3063978163552013,-4.6206742162085295,30.4
,,0.022663628837395783,0.010236210224906634,0.00032401435813673594,0.033223853420439146,2.1173977907578285,0.6821493145479998,0.3080982237481631,-4.581823823096876,30.5
,,0.022663628837395783,0.010236210224906634,0.00032401435813673594,0.033223853420439146,2.112088903329866,0.6821493145479998,0.3080982237481631,-4.581823823096876,30.6
,,0.022663628837395783,0.010236210224906634,0.00032401435813673594,0.033223853420439146,2.1067800159019034,0.6821493145479998,0.3080982237481631,-4.581823823096876,30.7
,,0.022663628837395783,0.010236210224906634,0.00032401435813673594,0.033223853420439146,2.1014711284739405,0.6821493145479998,0.3080982237481631,-4.581823823096876,30.8
,,0.02452004479908698,0.010477252393153828,0.00026771901670297703,0.03526501620894378,2.097564997570331,0.6953079123459553,0.2971004559044163,-4.558548810689215,30.9
,,0.02452004479908698,0.010477252393153828,0.00026771901670297703,0.03526501620894378,2.0942244971850554,0.6953079123459553,0.2971004559044163,-4.558548810689215,31.0
,,0.02452004479908698,0.010477252393153828,0.00026771901670297703,0.03526501620894378,2.0908839967997803,0.6953079123459553,0.2971004559044163,-4.558548810689215,31.1
,,0.025305627467536822,0.010937527362040041,0.0003366848519712111,0.03657983968154808,2.087247263913974,0.6917916450110007,0.299004245432963,-4.515555525629301,31.2
,,0.02452004479908698,0.010477252393153828,0.00026771901670297703,0.03526501620894378,2.0839067635286983,0.6953079123459553,0.2971004559044163,-4.558548810689215,31.3
,,0.025101090360727094,0.010878522694662815,0.0003346426959892211,0.03631425575137913,2.0815049655581053,0.691218636906081,0.2995661750344333,-4.520964828514066,31.4
,,0.025101090360727094,0.010878522694662815,0.0003346426959892211,0.03631425575137913,2.079103167587512,0.691218636906081,0.2995661750344333,-4.520964828514066,31.5
,,0.025101090360727094,0.010878522694662815,0.0003346426959892211,0.03631425575137913,2.0767013696169183,0.691218636906081,0.2995661750344333,-4.520964828514066,31.6
,,0.027070306340315292,0.011108475532608521,0.00027993810470710245,0.038458719977630916,2.075738536045752,0.7038795455506692,0.28884153032315274,-4.500046900532357,31.7
,,0.027070306340315292,0.011108475532608521,0.00027993810470710245,0.038458719977630916,2.0754777573469867,0.7038795455506692,0.28884153032315274,-4.500046900532357,31.8
,,0.027070306340315292,0.011108475532608521,0.00027993810470710245,0.038458719977630916,2.0752169786482213,0.7038795455506692,0.28884153032315274,-4.500046900532357,31.9
,,0.027070306340315292,0.011108475532608521,0.00027993810470710245,0.038458719977630916,2.074956199949456,0.7038795455506692,0.28884153032315274,-4.500046900532357,32.0
,,0.027070306340315292,0.011108475532608521,0.00027993810470710245,0.038458719977630916,2.0746954212506905,0.7038795455506692,0.28884153032315274,-4.500046900532357,32.1
,,0.0271288735646635,0.011358194144094882,0.0003491010076383827,0.038836168716396766,2.0752709021446156,0.6985465987330928,0.2924643320776236,-4.477815844514426,32.2
,,0.0271288735646635,0.011358194144094882,0.0003491010076383827,0.038836168716396766,2.0758463830385416,0.6985465987330928,0.2924643320776236,-4.477815844514426,32.3
,,0.0271288735646635,0.011358194144094882,0.0003491010076383827,0.038836168716396766,2.076421863932467,0.6985465987330928,0.2924643320776236,-4.477815844514426,32.4
,,0.027074300234409668,0.010765295796537388,0.0002763583793899945,0.03811595441033705,2.0784026376201785,0.7103141100165424,0.2824354253508562,-4.531427670927207,32.5
,,0.027074300234409668,0.010765295796537388,0.0002763583793899945,0.03811595441033705,2.0810752177272667,0.7103141100165424,0.2824354253508562,-4.531427670927207,32.6
,,0.027074300234409668,0.010765295796537388,0.0002763583793899945,0.03811595441033705,2.0837477978343553,0.7103141100165424,0.2824354253508562,-4.531427670927207,32.7
,,0.027074300234409668,0.010765295796537388,0.0002763583793899945,0.03811595441033705,2.0864203779414434,0.7103141100165424,0.2824354253508562,-4.531427670927207,32.8
,,0.02651821085667447,0.010794904623808563,0.00033836828316676664,0.0376514837636498,2.088443933296451,0.7043071933934295,0.28670595537672755,-4.5286810502736135,32.9
,,0.026159855391911634,0.010700891860150573,0.0003371996562339082,0.037197946908296114,2.091619752186703,0.7032607325453573,0.2876742602631113,-4.537428189571871,33.0
,,0.026159855391911634,0.010700891860150573,0.0003371996562339082,0.037197946908296114,2.0947955710769546,0.7032607325453573,0.2876742602631113,-4.537428189571871,33.1
,,0.026159855391911634,0.010700891860150573,0.0003371996562339082,0.037197946908296114,2.0979713899672063,0.7032607325453573,0.2876742602631113,-4.537428189571871,33.2
,,0.026159855391911634,0.010700891860150573,0.0003371996562339082,0.037197946908296114,2.1011472088574576,0.7032607325453573,0.2876742602631113,-4.537428189571871,33.3
,,0.021408470615750207,0.007690222183370431,0.00017397119361260574,0.029272663992733244,2.108510803520502,0.7313468504631053,0.2627100213796558,-4.867805603376057,33.4
,,0.021408470615750207,0.007690222183370431,0.00017397119361260574,0.029272663992733244,2.115874398183546,0.7313468504631053,0.2627100213796558,-4.867805603376057,33.5
,,0.021408470615750207,0.007690222183370431,0.00017397119361260574,0.029272663992733244,2.12323799284659,0.7313468504631053,0.2627100213796558,-4.867805603376057,33.6
,,0.02509732955889326,0.010144644525307906,0.00033452719964307566,0.03557650128384424,2.128974286637907,0.7054468161064025,0.285150145720336,-4.590809345716193,33.7
,,0.021408470615750207,0.007690222183370431,0.00017397119361260574,0.029272663992733244,2.1374378432937413,0.7313468504631053,0.2627100213796558,-4.867805603376057,33.8
,,0.0246225001875345,0.01002836738481149,0.0003328446757508904,0.03498371224809688,2.1422506120482514,0.7038275415975607,0.2866581829193108,-4.602337463456541,33.9
,,0.0246225001875345,0.01002836738481149,0.0003328446757508904,0.03498371224809688,2.147063380802761,0.7038275415975607,0.2866581829193108,-4.602337463456541,34.0
,,0.0246225001875345,0.01002836738481149,0.0003328446757508904,0.03498371224809688,2.1518761495572716,0.7038275415975607,0.2866581829193108,-4.602337463456541,34.1
,,0.02392027171117144,0.009410242877983026,0.0002760353482331391,0.033606549937387604,2.159058220509831,0.7117740962918634,0.2800121671375151,-4.6659565150927484,34.2
,,0.02392027171117144,0.009410242877983026,0.0002760353482331391,0.033606549937387604,2.1662402914623913,0.7117740962918634,0.2800121671375151,-4.6659565150927484,34.3
,,0.02392027171117144,0.009410242877983026,0.0002760353482331391,0.033606549937387604,2.173422362414951,0.7117740962918634,0.2800121671375151,-4.6659565150927484,34.4
,,0.02392027171117144,0.009410242877983026,0.0002760353482331391,0.033606549937387604,2.180604433367511,0.7117740962918634,0.2800121671375151,-4.6659565150927484,34.5
,,0.02392027171117144,0.009410242877983026,0.0002760353482331391,0.033606549937387604,2.188494460656255,0.7117740962918634,0.2800121671375151,-4.6659565150927484,34.6
,,0.022756470063519545,0.009442205049459022,0.00033775042984308707,0.032536425542821656,2.1949193787068526,0.6994151841777896,0.2902041294312432,-4.662565740353853,34.7
,,0.022756470063519545,0.009442205049459022,0.00033775042984308707,0.032536425542821656,2.2013442967574504,0.6994151841777896,0.2902041294312432,-4.662565740353853,34.8
,,0.022756470063519545,0.009442205049459022,0.00033775042984308707,0.032536425542821656,2.207769214808048,0.6994151841777896,0.2902041294312432,-4.662565740353853,34.9
,,0.022019669373464057,0.008937803481895015,0.0002886935875148738,0.031246166442873945,2.2147894164121706,0.7047158701443166,0.28604480163144574,-4.717465415522278,35.0
,,0.022019669373464057,0.008937803481895015,0.0002886935875148738,0.031246166442873945,2.2219063308232085,0.7047158701443166,0.28604480163144574,-4.717465415522278,35.1
,,0.022019669373464057,0.008937803481895015,0.0002886935875148738,0.031246166442873945,2.2290232452342464,0.7047158701443166,0.28604480163144574,-4.717465415522278,35.2
,,0.022019669373464057,0.008937803481895015,0.0002886935875148738,0.031246166442873945,2.236140159645285,0.7047158701443166,0.28604480163144574,-4.717465415522278,35.3
,,0.012481149350700065,0.006169711643113391,0.00024230880358255285,0.018893169797396008,2.2387820975555086,0.6606170105145779,0.3265577830123426,-5.0881031774708445,35.4
,,0.022019669373464057,0.008937803481895015,0.0002886935875148738,0.031246166442873945,2.246320527825378,0.7047158701443166,0.28604480163144574,-4.717465415522278,35.5
,,0.02094459690964782,0.009113473931766303,0.00035621133036152524,0.03041428217177565,2.2520205763781984,0.6886434731997172,0.29964455121099576,-4.698001308700995,35.6
,,0.02094459690964782,0.009113473931766303,0.00035621133036152524,0.03041428217177565,2.2577206249310193,0.6886434731997172,0.29964455121099576,-4.698001308700995,35.7
,,0.02094459690964782,0.009113473931766303,0.00035621133036152524,0.03041428217177565,2.2634206734838407,0.6886434731997172,0.29964455121099576,-4.698001308700995,35.8
,,0.020080349652237494,0.008729283595881477,0.00031162573243051207,0.029121258980549482,2.268912109327238,0.6895426350093399,0.29975639451961517,-4.74107197482536,35.9
,,0.020080349652237494,0.008729283595881477,0.00031162573243051207,0.029121258980549482,2.274403545170636,0.6895426350093399,0.29975639451961517,-4.74107197482536,36.0
,,0.020080349652237494,0.008729283595881477,0.00031162573243051207,0.029121258980549482,2.280042387096482,0.6895426350093399,0.29975639451961517,-4.74107197482536,36.1
,,0.020080349652237494,0.008729283595881477,0.00031162573243051207,0.029121258980549482,2.2855338229398803,0.6895426350093399,0.29975639451961517,-4.74107197482536,36.2
,,0.020080349652237494,0.008729283595881477,0.00031162573243051207,0.029121258980549482,2.289827931253811,0.6895426350093399,0.29975639451961517,-4.74107197482536,36.3
,,0.019067969606359578,0.00898923597474734,0.000384328320938153,0.028441533902045072,2.2921315604585937,0.6704269070729869,0.31606016770076434,-4.7117274202339,36.4
,,0.019067969606359578,0.00898923597474734,0.000384328320938153,0.028441533902045072,2.2944351896633766,0.6704269070729869,0.31606016770076434,-4.7117274202339,36.5
,,0.019067969606359578,0.00898923597474734,0.000384328320938153,0.028441533902045072,2.296738818868159,0.6704269070729869,0.31606016770076434,-4.7117274202339,36.6
,,0.018166628372949502,0.008783788316060546,0.00034381728386608467,0.02729423397287613,2.297636534888569,0.6655848407763609,0.3218184589752366,-4.734847493314479,36.7
,,0.018166628372949502,0.008783788316060546,0.00034381728386608467,0.02729423397287613,2.298534250908979,0.6655848407763609,0.3218184589752366,-4.734847493314479,36.8
,,0.018166628372949502,0.008783788316060546,0.00034381728386608467,0.02729423397287613,2.304656945017658,0.6655848407763609,0.3218184589752366,-4.734847493314479,36.9
,,0.018166628372949502,0.008783788316060546,0.00034381728386608467,0.02729423397287613,2.305554661038068,0.6655848407763609,0.3218184589752366,-4.734847493314479,37.0
,,0.018166628372949502,0.008783788316060546,0.00034381728386608467,0.02729423397287613,2.3067782230831604,0.6655848407763609,0.3218184589752366,-4.734847493314479,37.1
,,0.017179511616360638,0.009122264731622403,0.00042277799624949636,0.026724554344232536,2.3059467964362503,0.6428362245100702,0.34134394213354174,-4.6970371798878645,37.2
,,0.017179511616360638,0.009122264731622403,0.00042277799624949636,0.026724554344232536,2.3051153697893403,0.6428362245100702,0.34134394213354174,-4.6970371798878645,37.3
,,0.017179511616360638,0.009122264731622403,0.00042277799624949636,0.026724554344232536,2.30428394314243,0.6428362245100702,0.34134394213354174,-4.6970371798878645,37.4
,,0.017179511616360638,0.009122264731622403,0.00042277799624949636,0.026724554344232536,2.3024336610620004,0.6428362245100702,0.34134394213354174,-4.6970371798878645,37.5
,,0.01614369356866151,0.008981390208301215,0.0003769961706875011,0.025502079947650226,2.299630153624013,0.6330343878538817,0.35218265438497165,-4.712600597035276,37.6
,,0.01614369356866151,0.008981390208301215,0.0003769961706875011,0.025502079947650226,2.296826646186026,0.6330343878538817,0.35218265438497165,-4.712600597035276,37.7
,,0.01614369356866151,0.008981390208301215,0.0003769961706875011,0.025502079947650226,2.294023138748039,0.6330343878538817,0.35218265438497165,-4.712600597035276,37.8
,,0.015689420756705003,0.009461598267438144,0.00046349867028648,0.025614517694429628,2.2899025894959393,0.6125206394230476,0.3693842054849915,-4.660513960142486,37.9
,,0.01614369356866151,0.008981390208301215,0.0003769961706875011,0.025502079947650226,2.2873291453153612,0.6330343878538817,0.35218265438497165,-4.712600597035276,38.0
,,0.01525988659399924,0.00934276659114274,0.0004596072382381106,0.02506226042338009,2.2829321076737927,0.6088791009355082,0.37278228034160305,-4.673152861700789,38.1
,,0.01525988659399924,0.00934276659114274,0.0004596072382381106,0.02506226042338009,2.2785350700322238,0.6088791009355082,0.37278228034160305,-4.673152861700789,38.2
,,0.01525988659399924,0.00934276659114274,0.0004596072382381106,0.02506226042338009,2.2729426676674884,0.6088791009355082,0.37278228034160305,-4.673152861700789,38.3
,,0.013821811258039406,0.0052597082195795265,0.00035148918685785446,0.019433008664476788,2.2784005932788163,0.7112543145882214,0.2706584610953313,-5.24767972533395,38.4
,,0.013821811258039406,0.0052597082195795265,0.00035148918685785446,0.019433008664476788,2.2838585188901446,0.7112543145882214,0.2706584610953313,-5.24767972533395,38.5
,,0.013821811258039406,0.0052597082195795265,0.00035148918685785446,0.019433008664476788,2.289316444501473,0.7112543145882214,0.2706584610953313,-5.24767972533395,38.6
,,0.013821811258039406,0.0052597082195795265,0.00035148918685785446,0.019433008664476788,2.294988826804601,0.7112543145882214,0.2706584610953313,-5.24767972533395,38.7
,,0.013821811258039406,0.0052597082195795265,0.00035148918685785446,0.019433008664476788,2.300661209107728,0.7112543145882214,0.2706584610953313,-5.24767972533395,38.8
,,0.013825492742925754,0.009858636591480514,0.000505134217963722,0.02418926355236999,2.292717004340437,0.5715549261346229,0.4075624944156101,-4.6194073966548155,38.9
,,0.013825492742925754,0.009858636591480514,0.000505134217963722,0.02418926355236999,2.2847727995731457,0.5715549261346229,0.4075624944156101,-4.6194073966548155,39.0
,,0.013825492742925754,0.009858636591480514,0.000505134217963722,0.02418926355236999,2.2754970692115544,0.5715549261346229,0.4075624944156101,-4.6194073966548155,39.1
,,0.013825492742925754,0.009858636591480514,0.000505134217963722,0.02418926355236999,2.2662213388499635,0.5715549261346229,0.4075624944156101,-4.6194073966548155,39.2
,,0.01335844177292018,0.01014931980940322,0.0004566206686790469,0.023964382251002447,2.255988021085343,0.5574290058055382,0.4235168552687673,-4.590348589591769,39.3
,,0.01335844177292018,0.01014931980940322,0.0004566206686790469,0.023964382251002447,2.2457547033207232,0.5574290058055382,0.4235168552687673,-4.590348589591769,39.4
,,0.01335844177292018,0.01014931980940322,0.0004566206686790469,0.023964382251002447,2.2357783302365624,0.5574290058055382,0.4235168552687673,-4.590348589591769,39.5
,,0.01335844177292018,0.01014931980940322,0.0004566206686790469,0.023964382251002447,2.225801957152401,0.5574290058055382,0.4235168552687673,-4.590348589591769,39.6
,,0.01292471839151395,0.010546019865269258,0.0005508664356966394,0.024021604692479846,2.2148185097051982,0.5380455867530005,0.439022288488944,-4.5520067541975315,39.7
,,0.01292471839151395,0.010546019865269258,0.0005508664356966394,0.024021604692479846,2.2038350622579954,0.5380455867530005,0.439022288488944,-4.5520067541975315,39.8
,,0.01292471839151395,0.010546019865269258,0.0005508664356966394,0.024021604692479846,2.19144885828644,0.5380455867530005,0.439022288488944,-4.5520067541975315,39.9
,,0.01292471839151395,0.010546019865269258,0.0005508664356966394,0.024021604692479846,2.179062654314884,0.5380455867530005,0.439022288488944,-4.5520067541975315,40.0
,,0.01241969618684779,0.005777537671102853,0.00043674411385081965,0.01863397797180146,2.176944205748116,0.66650804276158,0.3100539068923404,-5.153777695524949,40.1
,,0.01241969618684779,0.005777537671102853,0.00043674411385081965,0.01863397797180146,2.175121989681879,0.66650804276158,0.3100539068923404,-5.153777695524949,40.2
,,0.01241969618684779,0.005777537671102853,0.00043674411385081965,0.01863397797180146,2.1730035411151105,0.66650804276158,0.3100539068923404,-5.153777695524949,40.3
,,0.01241969618684779,0.005777537671102853,0.00043674411385081965,0.01863397797180146,2.1712508002348656,0.66650804276158,0.3100539068923404,-5.153777695524949,40.4
,,0.012120534332069029,0.010911431937169454,0.000572731255713493,0.023604697524951975,2.1579553757143968,0.5134797562754911,0.46225679975925277,-4.517944237779979,40.5
,,0.012120534332069029,0.010911431937169454,0.000572731255713493,0.023604697524951975,2.144659951193928,0.5134797562754911,0.46225679975925277,-4.517944237779979,40.6
,,0.012120534332069029,0.010911431937169454,0.000572731255713493,0.023604697524951975,2.129925562274032,0.5134797562754911,0.46225679975925277,-4.517944237779979,40.7
,,0.012120534332069029,0.010911431937169454,0.000572731255713493,0.023604697524951975,2.1151911733541353,0.5134797562754911,0.46225679975925277,-4.517944237779979,40.8
,,0.012120534332069029,0.010911431937169454,0.000572731255713493,0.023604697524951975,2.100456784434239,0.5134797562754911,0.46225679975925277,-4.517944237779979,40.9
,,0.011137038240815498,0.010205873845213115,0.00045425970638115153,0.021797171792409763,2.0855049230601166,0.5109396001867385,0.4682200949008906,-4.584791857262029,41.0
,,0.011137038240815498,0.010205873845213115,0.00045425970638115153,0.021797171792409763,2.0705530616859944,0.5109396001867385,0.4682200949008906,-4.584791857262029,41.1
,,0.011137038240815498,0.010205873845213115,0.00045425970638115153,0.021797171792409763,2.056139209801218,0.5109396001867385,0.4682200949008906,-4.584791857262029,41.2
,,0.011137038240815498,0.010205873845213115,0.00045425970638115153,0.021797171792409763,2.041725357916442,0.5109396001867385,0.4682200949008906,-4.584791857262029,41.3
,,0.010839494273173007,0.010255318329787084,0.0005348358561876298,0.021629648459147718,2.0269306741755075,0.5011405660912955,0.47413245523414205,-4.5799588465171315,41.4
,,0.010839494273173007,0.010255318329787084,0.0005348358561876298,0.021629648459147718,2.0107306976407875,0.5011405660912955,0.47413245523414205,-4.5799588465171315,41.5
,,0.010839494273173007,0.010255318329787084,0.0005348358561876298,0.021629648459147718,1.9945307211060679,0.5011405660912955,0.47413245523414205,-4.5799588465171315,41.6
,,0.010839494273173007,0.010255318329787084,0.0005348358561876298,0.021629648459147718,1.978330744571348,0.5011405660912955,0.47413245523414205,-4.5799588465171315,41.7
,,0.010571190966920429,0.005512905854817707,0.0003999080142407764,0.01648400483597891,1.9716926788082756,0.6412999190492322,0.33443971350851165,-5.200663416462593,41.8
,,0.010571190966920429,0.005512905854817707,0.0003999080142407764,0.01648400483597891,1.9657036377972834,0.6412999190492322,0.33443971350851165,-5.200663416462593,41.9
,,0.010571190966920429,0.005512905854817707,0.0003999080142407764,0.01648400483597891,1.9598468895139713,0.6412999190492322,0.33443971350851165,-5.200663416462593,42.0
,,0.010571190966920429,0.005512905854817707,0.0003999080142407764,0.01648400483597891,1.9539901412306597,0.6412999190492322,0.33443971350851165,-5.200663416462593,42.1
,,0.010258214805882335,0.009761043531247793,0.0005023179432808784,0.020521576280411007,1.93850449345331,0.49987460347645785,0.4756478448765778,-4.62935596508736,42.2
,,0.010258214805882335,0.009761043531247793,0.0005023179432808784,0.020521576280411007,1.9230188456759596,0.49987460347645785,0.4756478448765778,-4.62935596508736,42.3
,,0.010258214805882335,0.009761043531247793,0.0005023179432808784,0.020521576280411007,1.903764160182064,0.49987460347645785,0.4756478448765778,-4.62935596508736,42.4
,,0.010258214805882335,0.009761043531247793,0.0005023179432808784,0.020521576280411007,1.8845094746881683,0.49987460347645785,0.4756478448765778,-4.62935596508736,42.5
,,0.01035279882936143,0.00950620247464508,0.0004026413745898889,0.020261642678596398,1.8656783783837059,0.5109555524981062,0.4691723482364566,-4.655810801349041,42.6
,,0.01035279882936143,0.00950620247464508,0.0004026413745898889,0.020261642678596398,1.850290696359304,0.5109555524981062,0.4691723482364566,-4.655810801349041,42.7
,,0.01035279882936143,0.00950620247464508,0.0004026413745898889,0.020261642678596398,1.8314596000548418,0.5109555524981062,0.4691723482364566,-4.655810801349041,42.8
,,0.01035279882936143,0.00950620247464508,0.0004026413745898889,0.020261642678596398,1.8162792916517032,0.5109555524981062,0.4691723482364566,-4.655810801349041,42.9
,,0.010310712439969229,0.009534189632945183,0.0004825229471849253,0.02032742502009934,1.8010144150784706,0.5072316060580329,0.4690308597138089,-4.652871032220555,43.0
,,0.010310712439969229,0.009534189632945183,0.0004825229471849253,0.02032742502009934,1.7857495385052378,0.5072316060580329,0.4690308597138089,-4.652871032220555,43.1
,,0.010310712439969229,0.009534189632945183,0.0004825229471849253,0.02032742502009934,1.7695218300539841,0.5072316060580329,0.4690308597138089,-4.652871032220555,43.2
,,0.010310712439969229,0.009534189632945183,0.0004825229471849253,0.02032742502009934,1.7532941216027302,0.5072316060580329,0.4690308597138089,-4.652871032220555,43.3
,,0.011004935573318384,0.009632316625250924,0.00039660473941784753,0.021033856937987157,1.7377448054849518,0.5232010280265559,0.4579434315660365,-4.642631518733056,43.4
,,0.011004935573318384,0.009632316625250924,0.00039660473941784753,0.021033856937987157,1.722195489367174,0.5232010280265559,0.4579434315660365,-4.642631518733056,43.5
,,0.011004935573318384,0.009632316625250924,0.00039660473941784753,0.021033856937987157,1.706646173249396,0.5232010280265559,0.4579434315660365,-4.642631518733056,43.6
,,0.011960652310899414,0.006442456022945324,0.00047081657735745784,0.018873924911202197,1.7004956850891906,0.6337130388709152,0.3413416156552338,-5.044845441546372,43.7
,,0.010803326910945408,0.00950851596122181,0.0004722834151881252,0.02078412628735534,1.6863411713788463,0.5197873974388783,0.4574893276609182,-4.65556746494667,43.8
,,0.010803326910945408,0.00950851596122181,0.0004722834151881252,0.02078412628735534,1.6721866576685023,0.5197873974388783,0.4574893276609182,-4.65556746494667,43.9
,,0.010803326910945408,0.00950851596122181,0.0004722834151881252,0.02078412628735534,1.657436860404634,0.5197873974388783,0.4574893276609182,-4.65556746494667,44.0
,,0.010803326910945408,0.00950851596122181,0.0004722834151881252,0.02078412628735534,1.6426870631407655,0.5197873974388783,0.4574893276609182,-4.65556746494667,44.1
,,0.011896368247977724,0.00962137904566176,0.000524426174099595,0.02204217346773908,1.6290514619587735,0.5397094014067736,0.43649865380760244,-4.643767672638537,44.2
,,0.011896368247977724,0.00962137904566176,0.000524426174099595,0.02204217346773908,1.6154158607767815,0.5397094014067736,0.43649865380760244,-4.643767672638537,44.3
,,0.011896368247977724,0.00962137904566176,0.000524426174099595,0.02204217346773908,1.6066767519544347,0.5397094014067736,0.43649865380760244,-4.643767672638537,44.4
,,0.011758739189071398,0.009758076902298298,0.00047295289404464334,0.02198976898541434,1.5926919821042411,0.5347368222408743,0.44375531679167535,-4.629659936670755,44.5
,,0.011896368247977724,0.00962137904566176,0.000524426174099595,0.02204217346773908,1.5808947626392977,0.5397094014067736,0.43649865380760244,-4.643767672638537,44.6
,,0.012775242731555132,0.006816964822916114,0.00045844455035335004,0.020050652104824596,1.576181824294063,0.6371484909700841,0.33998718781200205,-4.988340946814874,44.7
,,0.012775242731555132,0.006816964822916114,0.00045844455035335004,0.020050652104824596,1.571468885948828,0.6371484909700841,0.33998718781200205,-4.988340946814874,44.8
,,0.012775242731555132,0.006816964822916114,0.00045844455035335004,0.020050652104824596,1.566732145928743,0.6371484909700841,0.33998718781200205,-4.988340946814874,44.9
,,0.012775242731555132,0.006816964822916114,0.00045844455035335004,0.020050652104824596,1.561995405908658,0.6371484909700841,0.33998718781200205,-4.988340946814874,45.0
,,0.012538113282274511,0.009792066273157887,0.0003830133310259501,0.02271319288645835,1.5506631007799545,0.5520189673442943,0.4311179992222025,-4.626182785142966,45.1
,,0.012538113282274511,0.009792066273157887,0.0003830133310259501,0.02271319288645835,1.5393307956512507,0.5520189673442943,0.4311179992222025,-4.626182785142966,45.2
,,0.012538113282274511,0.009792066273157887,0.0003830133310259501,0.02271319288645835,1.527998490522547,0.5520189673442943,0.4311179992222025,-4.626182785142966,45.3
,,0.012296973100251223,0.0096995155209651,0.0004635168068401377,0.02246000542805646,1.5185161822567748,0.5475053485468068,0.43185722069544624,-4.635679341012415,45.4
,,0.012538113282274511,0.009792066273157887,0.0003830133310259501,0.02271319288645835,1.5091743562372186,0.5520189673442943,0.4311179992222025,-4.626182785142966,45.5
,,0.013878010112238324,0.007329662069211704,0.0004572289989516902,0.021664901180401718,1.5066432847069826,0.6405757403035149,0.3383196631352368,-4.9158258665731065,45.6
,,0.013878010112238324,0.007329662069211704,0.0004572289989516902,0.021664901180401718,1.504701108172182,0.6405757403035149,0.3383196631352368,-4.9158258665731065,45.7
,,0.013878010112238324,0.007329662069211704,0.0004572289989516902,0.021664901180401718,1.502758931637381,0.6405757403035149,0.3383196631352368,-4.9158258665731065,45.8
,,0.013878010112238324,0.007329662069211704,0.0004572289989516902,0.021664901180401718,1.5008167551025804,0.6405757403035149,0.3383196631352368,-4.9158258665731065,45.9
,,0.015713005608143437,0.00781528963993369,0.0003881838250620983,0.023916479073139225,1.5001761673533855,0.6569949347515299,0.3267742553589797,-4.851673253743822,46.0
,,0.015713005608143437,0.00781528963993369,0.0003881838250620983,0.023916479073139225,1.4995355796041907,0.6569949347515299,0.3267742553589797,-4.851673253743822,46.1
,,0.015713005608143437,0.00781528963993369,0.0003881838250620983,0.023916479073139225,1.5009499805469984,0.6569949347515299,0.3267742553589797,-4.851673253743822,46.2
,,0.015713005608143437,0.00781528963993369,0.0003881838250620983,0.023916479073139225,1.502364381489806,0.6569949347515299,0.3267742553589797,-4.851673253743822,46.3
,,0.012559237673526591,0.009533235700354048,0.0004532329950524538,0.022545706368933095,1.496077329555792,0.557056739230518,0.4228404089166348,-4.652971091098485,46.4
,,0.012559237673526591,0.009533235700354048,0.0004532329950524538,0.022545706368933095,1.4897902776217775,0.557056739230518,0.4228404089166348,-4.652971091098485,46.5
,,0.012559237673526591,0.009533235700354048,0.0004532329950524538,0.022545706368933095,1.484456451045321,0.557056739230518,0.4228404089166348,-4.652971091098485,46.6
,,0.012559237673526591,0.009533235700354048,0.0004532329950524538,0.022545706368933095,1.4791226244688647,0.557056739230518,0.4228404089166348,-4.652971091098485,46.7
,,0.017313217457244276,0.008681858970917996,0.00039330729607205925,0.02638838372423433,1.4813084331420545,0.6560923790623947,0.3290030591356312,-4.746519606083939,46.8
,,0.017313217457244276,0.008681858970917996,0.00039330729607205925,0.02638838372423433,1.485041346886766,0.6560923790623947,0.3290030591356312,-4.746519606083939,46.9
,,0.017313217457244276,0.008681858970917996,0.00039330729607205925,0.02638838372423433,1.4872271555599563,0.6560923790623947,0.3290030591356312,-4.746519606083939,47.0
,,0.013159266085305864,0.009706420477128427,0.00045075728146525126,0.02331644384389954,1.484142610906133,0.5643770625317215,0.4162907749617227,-4.634967707576604,47.1
,,0.017313217457244276,0.008681858970917996,0.00039330729607205925,0.02638838372423433,1.4881520130403136,0.6560923790623947,0.3290030591356312,-4.746519606083939,47.2
,,0.01611381512142298,0.008733696441047148,0.0004588031221545339,0.025306314684624662,1.4905040085774788,0.6367507605211769,0.3451192538261398,-4.740566580528365,47.3
,,0.01611381512142298,0.008733696441047148,0.0004588031221545339,0.025306314684624662,1.4818056761385807,0.6367507605211769,0.3451192538261398,-4.740566580528365,47.4
,,0.01611381512142298,0.008733696441047148,0.0004588031221545339,0.025306314684624662,1.4731073436996822,0.6367507605211769,0.3451192538261398,-4.740566580528365,47.5
,,0.01611381512142298,0.008733696441047148,0.0004588031221545339,0.025306314684624662,1.4644090112607842,0.6367507605211769,0.3451192538261398,-4.740566580528365,47.6
,,0.013887468752298121,0.009885835048254108,0.000372858072927755,0.024146161873479986,1.4508192117984322,0.575141872446026,0.40941641574563603,-4.616652349624585,47.7
,,0.013887468752298121,0.009885835048254108,0.000372858072927755,0.024146161873479986,1.4372294123360805,0.575141872446026,0.40941641574563603,-4.616652349624585,47.8
,,0.013887468752298121,0.009885835048254108,0.000372858072927755,0.024146161873479986,1.4372561999441473,0.575141872446026,0.40941641574563603,-4.616652349624585,47.9
,,0.01335669482789396,0.009815099533595772,0.0004462804431582333,0.023618074804647966,1.4367946178363644,0.565528517390647,0.4155757662205469,-4.623833310337656,48.0
,,0.013887468752298121,0.009885835048254108,0.000372858072927755,0.024146161873479986,1.4368214054444313,0.575141872446026,0.40941641574563603,-4.616652349624585,48.1
,,0.013139066680125152,0.009713592616727537,0.00044545092024378516,0.023298110217096473,1.4362688919314321,0.5639541815920986,0.41692620243506145,-4.634229073684801,48.2
,,0.013139066680125152,0.009713592616727537,0.00044545092024378516,0.023298110217096473,1.4366739658214616,0.5639541815920986,0.41692620243506145,-4.634229073684801,48.3
,,0.013139066680125152,0.009713592616727537,0.00044545092024378516,0.023298110217096473,1.4370790397114914,0.5639541815920986,0.41692620243506145,-4.634229073684801,48.4
,,0.013928488287799788,0.01001251622948053,0.0003725509985106263,0.024313555515790945,1.4379114491085156,0.5728692489567657,0.4118079818880333,-4.603919345667072,48.5
,,0.013928488287799788,0.01001251622948053,0.0003725509985106263,0.024313555515790945,1.4387438585055397,0.5728692489567657,0.4118079818880333,-4.603919345667072,48.6
,,0.013928488287799788,0.01001251622948053,0.0003725509985106263,0.024313555515790945,1.4405833422656056,0.5728692489567657,0.4118079818880333,-4.603919345667072,48.7
,,0.013928488287799788,0.01001251622948053,0.0003725509985106263,0.024313555515790945,1.4424228260256717,0.5728692489567657,0.4118079818880333,-4.603919345667072,48.8
,,0.013928488287799788,0.01001251622948053,0.0003725509985106263,0.024313555515790945,1.4442623097857377,0.5728692489567657,0.4118079818880333,-4.603919345667072,48.9
,,0.013238347742267781,0.00994098851012696,0.00044090967307173736,0.023620245925466476,1.4454416336378946,0.5604661265611415,0.42086727384192696,-4.61108881555936,49.0
,,0.013238347742267781,0.00994098851012696,0.00044090967307173736,0.023620245925466476,1.4363532020852647,0.5604661265611415,0.42086727384192696,-4.61108881555936,49.1
,,0.013238347742267781,0.00994098851012696,0.00044090967307173736,0.023620245925466476,1.4272647705326347,0.5604661265611415,0.42086727384192696,-4.61108881555936,49.2
,,0.013238347742267781,0.00994098851012696,0.00044090967307173736,0.023620245925466476,1.4181763389800048,0.5604661265611415,0.42086727384192696,-4.61108881555936,49.3
,,0.013991083466247483,0.010312834898888238,0.0003708861399980248,0.024674804505133745,1.409365393776407,0.567019019880646,0.41795001442635904,-4.574366052804932,49.4
,,0.013991083466247483,0.010312834898888238,0.0003708861399980248,0.024674804505133745,1.4120971322130336,0.567019019880646,0.41795001442635904,-4.574366052804932,49.5
,,0.013991083466247483,0.010312834898888238,0.0003708861399980248,0.024674804505133745,1.4148288706496601,0.567019019880646,0.41795001442635904,-4.574366052804932,49.6
,,0.018755564504446057,0.012463008117420387,0.0004666643120994558,0.031685236933965896,1.4192076270530511,0.5919338568789584,0.3933380123807851,-4.384990372816566,49.7
,,0.01335264613059637,0.010351992542618146,0.0004366159722850853,0.0241412546454996,1.4211970916193826,0.5531048956101196,0.42880921868524174,-4.570576261604634,49.8
,,0.01335264613059637,0.010351992542618146,0.0004366159722850853,0.0241412546454996,1.4231865561857142,0.5531048956101196,0.42880921868524174,-4.570576261604634,49.9
,,0.01335264613059637,0.010351992542618146,0.0004366159722850853,0.0241412546454996,1.425393493206272,0.5531048956101196,0.42880921868524174,-4.570576261604634,50.0
,,0.01412165475150564,0.010829074443642048,0.00036869988623350775,0.025319429081381194,1.4277580702575752,0.5577398568552279,0.4276982079191224,-4.5255206838889315,50.1
,,0.01412165475150564,0.010829074443642048,0.00036869988623350775,0.025319429081381194,1.4301226473088782,0.5577398568552279,0.4276982079191224,-4.5255206838889315,50.2
,,0.01412165475150564,0.010829074443642048,0.00036869988623350775,0.025319429081381194,1.4324872243601814,0.5577398568552279,0.4276982079191224,-4.5255206838889315,50.3
,,0.01412165475150564,0.010829074443642048,0.00036869988623350775,0.025319429081381194,1.4352326332676426,0.5577398568552279,0.4276982079191224,-4.5255206838889315,50.4
,,0.01412165475150564,0.010829074443642048,0.00036869988623350775,0.025319429081381194,1.4379780421751038,0.5577398568552279,0.4276982079191224,-4.5255206838889315,50.5
,,0.01412165475150564,0.010829074443642048,0.00036869988623350775,0.025319429081381194,1.4407234510825653,0.5577398568552279,0.4276982079191224,-4.5255206838889315,50.6
,,0.013492328482729701,0.010934274048986212,0.0004310272153513256,0.024857629747067237,1.4426899515850726,0.5427841922185505,0.43987597209570084,-4.515853014895657,50.7
,,0.013492328482729701,0.010934274048986212,0.0004310272153513256,0.024857629747067237,1.435094541315933,0.5427841922185505,0.43987597209570084,-4.515853014895657,50.8
,,0.010476410956898392,0.011541494632336127,0.00036634218937597646,0.022384247778610495,1.4238743392936275,0.4680260449452868,0.5156078840122885,-4.461806508755395,50.9
,,0.010476410956898392,0.011541494632336127,0.00036634218937597646,0.022384247778610495,1.4126541372713215,0.4680260449452868,0.5156078840122885,-4.461806508755395,51.0
,,0.010476410956898392,0.011541494632336127,0.00036634218937597646,0.022384247778610495,1.4014339352490155,0.4680260449452868,0.5156078840122885,-4.461806508755395,51.1
,,0.010476410956898392,0.011541494632336127,0.00036634218937597646,0.022384247778610495,1.3998426327207476,0.4680260449452868,0.5156078840122885,-4.461806508755395,51.2
,,0.010476410956898392,0.011541494632336127,0.00036634218937597646,0.022384247778610495,1.3982513301924797,0.4680260449452868,0.5156078840122885,-4.461806508755395,51.3
,,0.010476410956898392,0.011541494632336127,0.00036634218937597646,0.022384247778610495,1.396660027664212,0.4680260449452868,0.5156078840122885,-4.461806508755395,51.4
,,0.013790381626760252,0.011703531912233545,0.00042557591163182995,0.025919489450625628,1.3980753072505276,0.5320468079832255,0.4515340448556194,-4.447864609892391,51.5
,,0.013790381626760252,0.011703531912233545,0.00042557591163182995,0.025919489450625628,1.3990669976474102,0.5320468079832255,0.4515340448556194,-4.447864609892391,51.6
,,0.014752179687144387,0.01246177607742569,0.0003610624332505063,0.027575018197820586,1.4001196315915587,0.534983497791865,0.4519226782744469,-4.385089233451513,51.7
,,0.014752179687144387,0.01246177607742569,0.0003610624332505063,0.027575018197820586,1.4011722655357073,0.534983497791865,0.4519226782744469,-4.385089233451513,51.8
,,0.014752179687144387,0.01246177607742569,0.0003610624332505063,0.027575018197820586,1.4022248994798558,0.534983497791865,0.4519226782744469,-4.385089233451513,51.9
,,0.014752179687144387,0.01246177607742569,0.0003610624332505063,0.027575018197820586,1.4033621015940987,0.534983497791865,0.4519226782744469,-4.385089233451513,52.0
,,0.014752179687144387,0.01246177607742569,0.0003610624332505063,0.027575018197820586,1.4044993037083415,0.534983497791865,0.4519226782744469,-4.385089233451513,52.1
,,0.014752179687144387,0.01246177607742569,0.0003610624332505063,0.027575018197820586,1.4056365058225846,0.534983497791865,0.4519226782744469,-4.385089233451513,52.2
,,0.014307872370283524,0.012613684372034474,0.0004177662084228958,0.027339322950740895,1.4062239210068759,0.523344063642797,0.4613751552941308,-4.372972993090005,52.3
,,0.014307872370283524,0.012613684372034474,0.0004177662084228958,0.027339322950740895,1.4061329438576917,0.523344063642797,0.4613751552941308,-4.372972993090005,52.4
,,0.019431782599610002,0.019070446334078513,0.0003565648280058277,0.03885879376169434,1.4047601217579038,0.5000613945656024,0.49076269456612676,-3.959615454605501,52.5
,,0.019431782599610002,0.019070446334078513,0.0003565648280058277,0.03885879376169434,1.4033872996581158,0.5000613945656024,0.49076269456612676,-3.959615454605501,52.6
,,0.019431782599610002,0.019070446334078513,0.0003565648280058277,0.03885879376169434,1.3940807588389013,0.5000613945656024,0.49076269456612676,-3.959615454605501,52.7
,,0.019431782599610002,0.019070446334078513,0.0003565648280058277,0.03885879376169434,1.3927782435698255,0.5000613945656024,0.49076269456612676,-3.959615454605501,52.8
,,0.019431782599610002,0.019070446334078513,0.0003565648280058277,0.03885879376169434,1.39147572830075,0.5000613945656024,0.49076269456612676,-3.959615454605501,52.9
,,0.019491563243178186,0.02090197905383055,0.0004576483297864567,0.040851190626795195,1.3892129345069975,0.47713574424910987,0.5116614407835761,-3.867911432923496,53.0
,,0.015142079898154234,0.013655041626212394,0.0004095993436100389,0.029206720867976668,1.388909895501476,0.5184450512812129,0.4675308018293929,-4.293646475638384,53.1
,,0.015142079898154234,0.013655041626212394,0.0004095993436100389,0.029206720867976668,1.3874926604140778,0.5184450512812129,0.4675308018293929,-4.293646475638384,53.2
,,0.021662063831907483,0.023202082118099054,0.0003915727841923782,0.04525571873419892,1.3841279314142192,0.47865914933614473,0.5126884019757191,-3.7635132578670594,53.3
,,0.021662063831907483,0.023202082118099054,0.0003915727841923782,0.04525571873419892,1.3807632024143606,0.47865914933614473,0.5126884019757191,-3.7635132578670594,53.4
,,0.021662063831907483,0.023202082118099054,0.0003915727841923782,0.04525571873419892,1.3777476420827037,0.47865914933614473,0.5126884019757191,-3.7635132578670594,53.5
,,0.021662063831907483,0.023202082118099054,0.0003915727841923782,0.04525571873419892,1.3743829130828449,0.47865914933614473,0.5126884019757191,-3.7635132578670594,53.6
,,0.021662063831907483,0.023202082118099054,0.0003915727841923782,0.04525571873419892,1.363933902963278,0.47865914933614473,0.5126884019757191,-3.7635132578670594,53.7
,,0.021828592725410025,0.025186279904313297,0.0005102670402544443,0.04752513966997777,1.3527411151140643,0.45930622986047576,0.5299569886424508,-3.681455880972057,53.8
,,0.021662063831907483,0.023202082118099054,0.0003915727841923782,0.04525571873419892,1.3422921049944971,0.47865914933614473,0.5126884019757191,-3.7635132578670594,53.9
,,0.016414505792450452,0.014790764783002357,0.00040655470986675945,0.03161182528531957,1.3338003712679287,0.5192520724221924,0.4678870849596635,-4.213752294130303,54.0
,,0.018149232123234302,0.015882578267624597,0.0003364461736021475,0.03436825656446105,1.3322701191431414,0.528081256877073,0.46212929765102456,-4.142532476919808,54.1
,,0.018149232123234302,0.015882578267624597,0.0003364461736021475,0.03436825656446105,1.3307398670183543,0.528081256877073,0.46212929765102456,-4.142532476919808,54.2
,,0.018149232123234302,0.015882578267624597,0.0003364461736021475,0.03436825656446105,1.3292096148935673,0.528081256877073,0.46212929765102456,-4.142532476919808,54.3
,,0.018149232123234302,0.015882578267624597,0.0003364461736021475,0.03436825656446105,1.327819845014997,0.528081256877073,0.46212929765102456,-4.142532476919808,54.4
,,0.018149232123234302,0.015882578267624597,0.0003364461736021475,0.03436825656446105,1.3262895928902099,0.528081256877073,0.46212929765102456,-4.142532476919808,54.5
,,0.01761592969345791,0.015461269113975742,0.00039350007174560585,0.03347069887917926,1.3179113125707695,0.5263089891563649,0.46193445705412384,-4.169417149025468,54.6
,,0.018149232123234302,0.015882578267624597,0.0003364461736021475,0.03436825656446105,1.309570305956663,0.528081256877073,0.46212929765102456,-4.142532476919808,54.7
,,0.019984864966408836,0.016895780591825785,0.00033387050149305477,0.03721451605972768,1.301675060309694,0.5370179994906826,0.4540104878620158,-4.080691357348368,54.8
,,0.019984864966408836,0.016895780591825785,0.00033387050149305477,0.03721451605972768,1.2937798146627253,0.5370179994906826,0.4540104878620158,-4.080691357348368,54.9
,,0.019984864966408836,0.016895780591825785,0.00033387050149305477,0.03721451605972768,1.2845829802301505,0.5370179994906826,0.4540104878620158,-4.080691357348368,55.0
,,0.019984864966408836,0.016895780591825785,0.00033387050149305477,0.03721451605972768,1.2753861457975761,0.5370179994906826,0.4540104878620158,-4.080691357348368,55.1
,,0.019984864966408836,0.016895780591825785,0.00033387050149305477,0.03721451605972768,1.2661893113650013,0.5370179994906826,0.4540104878620158,-4.080691357348368,55.2
,,0.019984864966408836,0.016895780591825785,0.00033387050149305477,0.03721451605972768,1.256992476932427,0.5370179994906826,0.4540104878620158,-4.080691357348368,55.3
,,0.019984864966408836,0.016895780591825785,0.00033387050149305477,0.03721451605972768,1.2554970953766744,0.5370179994906826,0.4540104878620158,-4.080691357348368,55.4
,,0.019984864966408836,0.016895780591825785,0.00033387050149305477,0.03721451605972768,1.2540017138209218,0.5370179994906826,0.4540104878620158,-4.080691357348368,55.5
,,0.022092478435388592,0.017773675320252553,0.00041004360536722804,0.040276197361008376,1.2531747438540262,0.5485244358439968,0.44129477172190423,-4.030036830950256,55.6
,,0.022092478435388592,0.017773675320252553,0.00041004360536722804,0.040276197361008376,1.2523477738871305,0.5485244358439968,0.44129477172190423,-4.030036830950256,55.7
,,0.022092478435388592,0.017773675320252553,0.00041004360536722804,0.040276197361008376,1.2440011686705883,0.5485244358439968,0.44129477172190423,-4.030036830950256,55.8
,,0.022092478435388592,0.017773675320252553,0.00041004360536722804,0.040276197361008376,1.2356545634540457,0.5485244358439968,0.44129477172190423,-4.030036830950256,55.9
,,0.022092478435388592,0.017773675320252553,0.00041004360536722804,0.040276197361008376,1.2273079582375035,0.5485244358439968,0.44129477172190423,-4.030036830950256,56.0
,,0.022092478435388592,0.017773675320252553,0.00041004360536722804,0.040276197361008376,1.2260552998089653,0.5485244358439968,0.44129477172190423,-4.030036830950256,56.1
,,0.022092478435388592,0.017773675320252553,0.00041004360536722804,0.040276197361008376,1.2177086945924231,0.5485244358439968,0.44129477172190423,-4.030036830950256,56.2
,,0.022092478435388592,0.017773675320252553,0.00041004360536722804,0.040276197361008376,1.2110194959728962,0.5485244358439968,0.44129477172190423,-4.030036830950256,56.3
,,0.024380209989663656,0.01843041190355388,0.000549393320201513,0.04336001521341905,1.2052173670380164,0.5622740183476337,0.42505547594572896,-3.993753157927046,56.4
,,0.02428961468008857,0.018442004669148776,0.0004290903818253384,0.04316070973106268,1.1993514161007437,0.5627714379916089,0.4272868723443651,-3.993124353685045,56.5
,,0.02428961468008857,0.018442004669148776,0.0004290903818253384,0.04316070973106268,1.1934854651634708,0.5627714379916089,0.4272868723443651,-3.993124353685045,56.6
,,0.02428961468008857,0.018442004669148776,0.0004290903818253384,0.04316070973106268,1.1925109812496513,0.5627714379916089,0.4272868723443651,-3.993124353685045,56.7
,,0.02428961468008857,0.018442004669148776,0.0004290903818253384,0.04316070973106268,1.191536497335832,0.5627714379916089,0.4272868723443651,-3.993124353685045,56.8
,,0.02428961468008857,0.018442004669148776,0.0004290903818253384,0.04316070973106268,1.1905620134220125,0.5627714379916089,0.4272868723443651,-3.993124353685045,56.9
,,0.02428961468008857,0.018442004669148776,0.0004290903818253384,0.04316070973106268,1.1900758992240426,0.5627714379916089,0.4272868723443651,-3.993124353685045,57.0
,,0.02428961468008857,0.018442004669148776,0.0004290903818253384,0.04316070973106268,1.1891014153102235,0.5627714379916089,0.4272868723443651,-3.993124353685045,57.1
,,0.026785803733946116,0.0190788836023567,0.0005902413078081864,0.04645492864411101,1.1896714461600706,0.5765976725344018,0.41069665069381806,-3.9591731260807372,57.2
,,0.02694944950103137,0.01929765741139183,0.0004679442210800502,0.04671505113350325,1.1901588522542368,0.5768900781894613,0.41309293136044273,-3.9477715680862517,57.3
,,0.02694944950103137,0.01929765741139183,0.0004679442210800502,0.04671505113350325,1.1906462583484028,0.5768900781894613,0.41309293136044273,-3.9477715680862517,57.4
,,0.02694944950103137,0.01929765741139183,0.0004679442210800502,0.04671505113350325,1.1907063289355744,0.5768900781894613,0.41309293136044273,-3.9477715680862517,57.5
,,0.02694944950103137,0.01929765741139183,0.0004679442210800502,0.04671505113350325,1.190766399522746,0.5768900781894613,0.41309293136044273,-3.9477715680862517,57.6
,,0.02694944950103137,0.01929765741139183,0.0004679442210800502,0.04671505113350325,1.1908264701099176,0.5768900781894613,0.41309293136044273,-3.9477715680862517,57.7
,,0.02694944950103137,0.01929765741139183,0.0004679442210800502,0.04671505113350325,1.1908865406970892,0.5768900781894613,0.41309293136044273,-3.9477715680862517,57.8
,,0.02694944950103137,0.01929765741139183,0.0004679442210800502,0.04671505113350325,1.1909466112842606,0.5768900781894613,0.41309293136044273,-3.9477715680862517,57.9
,,0.02930412575857396,0.01967520100082737,0.000654621168737818,0.04963394792813915,1.1926988410257038,0.5904048938641947,0.3964061256886809,-3.9283962686786364,58.0
,,0.029105869708384108,0.019693842958314004,0.0005118577435657635,0.04931157041026387,1.1943235513468975,0.5902442259743145,0.3993757001544381,-3.927449232276164,58.1
,,0.029105869708384108,0.019693842958314004,0.0005118577435657635,0.04931157041026387,1.1959482616680914,0.5902442259743145,0.3993757001544381,-3.927449232276164,58.2
,,0.029105869708384108,0.019693842958314004,0.0005118577435657635,0.04931157041026387,1.1975729719892851,0.5902442259743145,0.3993757001544381,-3.927449232276164,58.3
,,0.029105869708384108,0.019693842958314004,0.0005118577435657635,0.04931157041026387,1.1989201959614466,0.5902442259743145,0.3993757001544381,-3.927449232276164,58.4
,,0.029105869708384108,0.019693842958314004,0.0005118577435657635,0.04931157041026387,1.2002674199336079,0.5902442259743145,0.3993757001544381,-3.927449232276164,58.5
,,0.029105869708384108,0.019693842958314004,0.0005118577435657635,0.04931157041026387,1.2016146439057696,0.5902442259743145,0.3993757001544381,-3.927449232276164,58.6
,,0.029105869708384108,0.019693842958314004,0.0005118577435657635,0.04931157041026387,1.2013148499111663,0.5902442259743145,0.3993757001544381,-3.927449232276164,58.7
,,0.0505626935586569,0.04584239421808805,0.001245096149983291,0.09765018392672824,1.199238245193901,0.5177941456474531,0.4694552777543754,-3.0825459780511033,58.8
,,0.030615475787649796,0.01944187605909944,0.0007118833260110202,0.05076923517276026,1.202403309277261,0.6030320465429472,0.3829460103730456,-3.9403259795084535,58.9
,,0.03043189883069771,0.019552626252123943,0.0005564389908141428,0.0505409640736358,1.205364946695395,0.6021234337033989,0.3868669031250906,-3.9346456664259155,59.0
,,0.03043189883069771,0.019552626252123943,0.0005564389908141428,0.0505409640736358,1.2081689440827836,0.6021234337033989,0.3868669031250906,-3.9346456664259155,59.1
,,0.03043189883069771,0.019552626252123943,0.0005564389908141428,0.0505409640736358,1.2109729414701722,0.6021234337033989,0.3868669031250906,-3.9346456664259155,59.2
,,0.03043189883069771,0.019552626252123943,0.0005564389908141428,0.0505409640736358,1.213776938857561,0.6021234337033989,0.3868669031250906,-3.9346456664259155,59.3
,,0.03043189883069771,0.019552626252123943,0.0005564389908141428,0.0505409640736358,1.2165809362449496,0.6021234337033989,0.3868669031250906,-3.9346456664259155,59.4
,,0.03185494792942447,0.019706811106742043,0.00047641735053260715,0.05203817638669912,1.2200519755870871,0.6121457387881591,0.378699110443445,-3.926790961534013,59.5
,,0.03185494792942447,0.019706811106742043,0.00047641735053260715,0.05203817638669912,1.2235230149292247,0.6121457387881591,0.378699110443445,-3.926790961534013,59.6
,,0.03185494792942447,0.019706811106742043,0.00047641735053260715,0.05203817638669912,1.2277729626763159,0.6121457387881591,0.378699110443445,-3.926790961534013,59.7
,,0.052705939893428824,0.0465548053809059,0.0014653431520005589,0.10072608842633529,1.2266416123710313,0.5232600681398903,0.46219213024392536,-3.0671250500626703,59.8
,,0.052705939893428824,0.0465548053809059,0.0014653431520005589,0.10072608842633529,1.2291350538189127,0.5232600681398903,0.46219213024392536,-3.0671250500626703,59.9
,,0.052705939893428824,0.0465548053809059,0.0014653431520005589,0.10072608842633529,1.2316284952667942,0.5232600681398903,0.46219213024392536,-3.0671250500626703,60.0
,,0.052705939893428824,0.0465548053809059,0.0014653431520005589,0.10072608842633529,1.2341219367146758,0.5232600681398903,0.46219213024392536,-3.0671250500626703,60.1
,,0.052705939893428824,0.0465548053809059,0.0014653431520005589,0.10072608842633529,1.2366153781625575,0.5232600681398903,0.46219213024392536,-3.0671250500626703,60.2
,,0.03398105985857003,0.02025176487008183,0.0005564302968100876,0.05478925502546195,1.245173309108717,0.6202139423647607,0.36963022878610646,-3.89951333514917,60.3
,,0.03398105985857003,0.02025176487008183,0.0005564302968100876,0.05478925502546195,1.253731240054876,0.6202139423647607,0.36963022878610646,-3.89951333514917,60.4
,,0.03310177951714974,0.019727480310714685,0.0006807874336997346,0.05351004726156416,1.2592828326886476,0.6186086765228197,0.3686687140133546,-3.9257426756324545,60.5
,,0.03398105985857003,0.02025176487008183,0.0005564302968100876,0.05478925502546195,1.2648341815202233,0.6202139423647607,0.36963022878610646,-3.89951333514917,60.6
,,0.03423525401137307,0.020391857843220375,0.0007211589040082816,0.05534827075860173,1.2703350091775987,0.6185424321689857,0.36842809294184237,-3.892619583136016,60.7
,,0.03423525401137307,0.020391857843220375,0.0007211589040082816,0.05534827075860173,1.275835836834974,0.6185424321689857,0.36842809294184237,-3.892619583136016,60.8
,,0.03423525401137307,0.020391857843220375,0.0007211589040082816,0.05534827075860173,1.2813366644923494,0.6185424321689857,0.36842809294184237,-3.892619583136016,60.9
,,0.03423525401137307,0.020391857843220375,0.0007211589040082816,0.05534827075860173,1.2868374921497248,0.6185424321689857,0.36842809294184237,-3.892619583136016,61.0
,,0.04884984548100296,0.040388060970929555,0.0012824390006692418,0.09052034545260176,1.2871232444917824,0.5396559771922402,0.4461766111142112,-3.2092210582113725,61.1
,,0.04884984548100296,0.040388060970929555,0.0012824390006692418,0.09052034545260176,1.28740899683384,0.5396559771922402,0.4461766111142112,-3.2092210582113725,61.2
,,0.04884984548100296,0.040388060970929555,0.0012824390006692418,0.09052034545260176,1.2882445361058492,0.5396559771922402,0.4461766111142112,-3.2092210582113725,61.3
,,0.04884984548100296,0.040388060970929555,0.0012824390006692418,0.09052034545260176,1.2890800753778582,0.5396559771922402,0.4461766111142112,-3.2092210582113725,61.4
,,0.034767390308806226,0.020269406766130038,0.0008000337408226403,0.0558368308157589,1.2968169295778333,0.6226605235445021,0.36301141146444466,-3.8986425855409763,61.5
,,0.034767390308806226,0.020269406766130038,0.0008000337408226403,0.0558368308157589,1.3045537837778087,0.6226605235445021,0.36301141146444466,-3.8986425855409763,61.6
,,0.034767390308806226,0.020269406766130038,0.0008000337408226403,0.0558368308157589,1.3122906379777837,0.6226605235445021,0.36301141146444466,-3.8986425855409763,61.7
,,0.03462268034477507,0.019825646577545136,0.0006906053249499102,0.05513893224727012,1.3203729796103352,0.6279171346574127,0.35955804310169037,-3.920778897741097,61.8
,,0.03462268034477507,0.019825646577545136,0.0006906053249499102,0.05513893224727012,1.3284553212428865,0.6279171346574127,0.35955804310169037,-3.920778897741097,61.9
,,0.03462268034477507,0.019825646577545136,0.0006906053249499102,0.05513893224727012,1.3374979414001145,0.6279171346574127,0.35955804310169037,-3.920778897741097,62.0
,,0.03462268034477507,0.019825646577545136,0.0006906053249499102,0.05513893224727012,1.3445808067691116,0.6279171346574127,0.35955804310169037,-3.920778897741097,62.1
,,0.03462268034477507,0.019825646577545136,0.0006906053249499102,0.05513893224727012,1.3516636721381088,0.6279171346574127,0.35955804310169037,-3.920778897741097,62.2
,,0.035364950480564705,0.031103631182198235,0.0013236550149367417,0.06779223667769968,1.3539234283435342,0.5216666717857096,0.4588081571946394,-3.4704307083426253,62.3
,,0.035364950480564705,0.031103631182198235,0.0013236550149367417,0.06779223667769968,1.3561831845489594,0.5216666717857096,0.4588081571946394,-3.4704307083426253,62.4
,,0.035364950480564705,0.031103631182198235,0.0013236550149367417,0.06779223667769968,1.3584429407543848,0.5216666717857096,0.4588081571946394,-3.4704307083426253,62.5
,,0.03348542378075147,0.019231496427175455,0.0007392330458115024,0.053456153253738425,1.367415722277598,0.6264091548414903,0.35976207146612277,-3.951205905083243,62.6
,,0.03348542378075147,0.019231496427175455,0.0007392330458115024,0.053456153253738425,1.376388503800811,0.6264091548414903,0.35976207146612277,-3.951205905083243,62.7
,,0.03348542378075147,0.019231496427175455,0.0007392330458115024,0.053456153253738425,1.3861050630536709,0.6264091548414903,0.35976207146612277,-3.951205905083243,62.8
,,0.03348542378075147,0.019231496427175455,0.0007392330458115024,0.053456153253738425,1.3950778445768839,0.6264091548414903,0.35976207146612277,-3.951205905083243,62.9
,,0.03273904469030731,0.019103018893616406,0.0008792524016255621,0.052721315985549286,1.4017893389639222,0.6209830706669189,0.3623395686642661,-3.9579088991618816,63.0
,,0.03348542378075147,0.019231496427175455,0.0007392330458115024,0.053456153253738425,1.4084389276009739,0.6264091548414903,0.35976207146612277,-3.951205905083243,63.1
,,0.03325749952268678,0.019478574574382363,0.0009223173221047926,0.05365839141917393,1.414713100422465,0.6198005315307079,0.3630107809646716,-3.9384401572447545,63.2
,,0.03325749952268678,0.019478574574382363,0.0009223173221047926,0.05365839141917393,1.4209872732439555,0.6198005315307079,0.3630107809646716,-3.9384401572447545,63.3
,,0.03206646086514439,0.01879400595534337,0.0007853504494960012,0.05164581726998376,1.4272483131053415,0.6208917306412968,0.36390180171020997,-3.9742172921466,63.4
,,0.03206646086514439,0.01879400595534337,0.0007853504494960012,0.05164581726998376,1.4335093529667273,0.6208917306412968,0.36390180171020997,-3.9742172921466,63.5
,,0.03206646086514439,0.01879400595534337,0.0007853504494960012,0.05164581726998376,1.439807666533447,0.6208917306412968,0.36390180171020997,-3.9742172921466,63.6
,,0.03206646086514439,0.01879400595534337,0.0007853504494960012,0.05164581726998376,1.446068706394833,0.6208917306412968,0.36390180171020997,-3.9742172921466,63.7
,,0.03206646086514439,0.01879400595534337,0.0007853504494960012,0.05164581726998376,1.4518839852890812,0.6208917306412968,0.36390180171020997,-3.9742172921466,63.8
,,0.03206646086514439,0.01879400595534337,0.0007853504494960012,0.05164581726998376,1.45769926418333,0.6208917306412968,0.36390180171020997,-3.9742172921466,63.9
,,0.031744996802047815,0.019110913043531533,0.0009616872031474114,0.05181759704872676,1.4630132744558595,0.6126296588434303,0.368811255866623,-3.957495743559867,64.0
,,0.031744996802047815,0.019110913043531533,0.0009616872031474114,0.05181759704872676,1.4683272847283895,0.6126296588434303,0.368811255866623,-3.957495743559867,64.1
,,0.03030726944096766,0.01843569139479516,0.0008169529380757088,0.04955991377383853,1.4734507698516133,0.6115278888351522,0.37198796347637936,-3.9934667435352327,64.2
,,0.03030726944096766,0.01843569139479516,0.0008169529380757088,0.04955991377383853,1.4785742549748369,0.6115278888351522,0.37198796347637936,-3.9934667435352327,64.3
,,0.03030726944096766,0.01843569139479516,0.0008169529380757088,0.04955991377383853,1.483697740098061,0.6115278888351522,0.37198796347637936,-3.9934667435352327,64.4
,,0.03030726944096766,0.01843569139479516,0.0008169529380757088,0.04955991377383853,1.4888212252212847,0.6115278888351522,0.37198796347637936,-3.9934667435352327,64.5
,,0.03030726944096766,0.01843569139479516,0.0008169529380757088,0.04955991377383853,1.493276298755652,0.6115278888351522,0.37198796347637936,-3.9934667435352327,64.6
,,0.03030726944096766,0.01843569139479516,0.0008169529380757088,0.04955991377383853,1.497731372290019,0.6115278888351522,0.37198796347637936,-3.9934667435352327,64.7
,,0.02980242748877655,0.018816994477210445,0.0009905979978743398,0.049610019963861336,1.5015182062775276,0.6007340353921703,0.3792982645626383,-3.9729948559196755,64.8
,,0.02980242748877655,0.018816994477210445,0.0009905979978743398,0.049610019963861336,1.5053050402650368,0.6007340353921703,0.3792982645626383,-3.9729948559196755,64.9
,,0.028468319496537515,0.018303248381969898,0.0008386537052707521,0.047610221583778166,1.508775940672573,0.5979455366836034,0.38443947062422856,-4.000676727675833,65.0
,,0.028468319496537515,0.018303248381969898,0.0008386537052707521,0.047610221583778166,1.5122468410801089,0.5979455366836034,0.38443947062422856,-4.000676727675833,65.1
,,0.028468319496537515,0.018303248381969898,0.0008386537052707521,0.047610221583778166,1.5157177414876455,0.5979455366836034,0.38443947062422856,-4.000676727675833,65.2
,,0.028468319496537515,0.018303248381969898,0.0008386537052707521,0.047610221583778166,1.5191886418951817,0.5979455366836034,0.38443947062422856,-4.000676727675833,65.3
,,0.028468319496537515,0.018303248381969898,0.0008386537052707521,0.047610221583778166,1.5217724726180706,0.5979455366836034,0.38443947062422856,-4.000676727675833,65.4
,,0.028468319496537515,0.018303248381969898,0.0008386537052707521,0.047610221583778166,1.5244201253433525,0.5979455366836034,0.38443947062422856,-4.000676727675833,65.5
,,0.028468319496537515,0.018303248381969898,0.0008386537052707521,0.047610221583778166,1.5270677780686346,0.5979455366836034,0.38443947062422856,-4.000676727675833,65.6
,,0.027831057751812802,0.018800911918403235,0.0010134062695031335,0.047645375939719174,1.5288813621662285,0.5841292508012655,0.3946009774839453,-3.9738499040245814,65.7
,,0.026711085528173546,0.01852483115247332,0.0008603358182120228,0.04609625249885889,1.530268318371897,0.5794632769515218,0.4018728236732889,-3.9886432224178634,65.8
,,0.026711085528173546,0.01852483115247332,0.0008603358182120228,0.04609625249885889,1.5316552745775656,0.5794632769515218,0.4018728236732889,-3.9886432224178634,65.9
,,0.026711085528173546,0.01852483115247332,0.0008603358182120228,0.04609625249885889,1.533042230783234,0.5794632769515218,0.4018728236732889,-3.9886432224178634,66.0
,,0.026711085528173546,0.01852483115247332,0.0008603358182120228,0.04609625249885889,1.5344291869889033,0.5794632769515218,0.4018728236732889,-3.9886432224178634,66.1
,,0.026711085528173546,0.01852483115247332,0.0008603358182120228,0.04609625249885889,1.5348509295519708,0.5794632769515218,0.4018728236732889,-3.9886432224178634,66.2
,,0.026711085528173546,0.01852483115247332,0.0008603358182120228,0.04609625249885889,1.5353552968707194,0.5794632769515218,0.4018728236732889,-3.9886432224178634,66.3
,,0.026711085528173546,0.01852483115247332,0.0008603358182120228,0.04609625249885889,1.5358596641894684,0.5794632769515218,0.4018728236732889,-3.9886432224178634,66.4
,,0.026711085528173546,0.01852483115247332,0.0008603358182120228,0.04609625249885889,1.5363640315082174,0.5794632769515218,0.4018728236732889,-3.9886432224178634,66.5
,,0.011549255255276362,0.0156350205710909,0.0005004373150162983,0.027684713141383557,1.5290547489548687,0.41717084790784226,0.5647528472209241,-4.158241972365434,66.6
,,0.011549255255276362,0.0156350205710909,0.0005004373150162983,0.027684713141383557,1.5217454664015195,0.41717084790784226,0.5647528472209241,-4.158241972365434,66.7
,,0.011549255255276362,0.0156350205710909,0.0005004373150162983,0.027684713141383557,1.5144361838481706,0.41717084790784226,0.5647528472209241,-4.158241972365434,66.8
,,0.011549255255276362,0.0156350205710909,0.0005004373150162983,0.027684713141383557,1.5071269012948214,0.41717084790784226,0.5647528472209241,-4.158241972365434,66.9
,,0.011549255255276362,0.0156350205710909,0.0005004373150162983,0.027684713141383557,1.49878561949511,0.41717084790784226,0.5647528472209241,-4.158241972365434,67.0
,,0.011549255255276362,0.0156350205710909,0.0005004373150162983,0.027684713141383557,1.4905718571156474,0.41717084790784226,0.5647528472209241,-4.158241972365434,67.1
,,0.011549255255276362,0.0156350205710909,0.0005004373150162983,0.027684713141383557,1.4823580947361854,0.41717084790784226,0.5647528472209241,-4.158241972365434,67.2
,,0.011549255255276362,0.0156350205710909,0.0005004373150162983,0.027684713141383557,1.474144332356723,0.41717084790784226,0.5647528472209241,-4.158241972365434,67.3
,,0.023847619484436228,0.019989492932384285,0.0008797108494047546,0.04471682326622527,1.4709786712588488,0.5333030779592163,0.4470239939312147,-3.91254849685537,67.4
,,0.023847619484436228,0.019989492932384285,0.0008797108494047546,0.04471682326622527,1.467813010160975,0.5333030779592163,0.4470239939312147,-3.91254849685537,67.5
,,0.023847619484436228,0.019989492932384285,0.0008797108494047546,0.04471682326622527,1.4646473490631016,0.5333030779592163,0.4470239939312147,-3.91254849685537,67.6
,,0.023847619484436228,0.019989492932384285,0.0008797108494047546,0.04471682326622527,1.4614816879652277,0.5333030779592163,0.4470239939312147,-3.91254849685537,67.7
,,0.023847619484436228,0.019989492932384285,0.0008797108494047546,0.04471682326622527,1.4624821294270753,0.5333030779592163,0.4470239939312147,-3.91254849685537,67.8
,,0.023847619484436228,0.019989492932384285,0.0008797108494047546,0.04471682326622527,1.458240902088298,0.5333030779592163,0.4470239939312147,-3.91254849685537,67.9
,,0.023847619484436228,0.019989492932384285,0.0008797108494047546,0.04471682326622527,1.4542031014147463,0.5333030779592163,0.4470239939312147,-3.91254849685537,68.0
,,0.023847619484436228,0.019989492932384285,0.0008797108494047546,0.04471682326622527,1.450165300741195,0.5333030779592163,0.4470239939312147,-3.91254849685537,68.1
,,0.023150105962956257,0.021435572867580945,0.000998530192648513,0.04558420902318571,1.4448716965748511,0.507853628680522,0.4702411937580856,-3.8427034534866213,68.2
,,0.023150105962956257,0.021435572867580945,0.000998530192648513,0.04558420902318571,1.439578092408508,0.507853628680522,0.4702411937580856,-3.8427034534866213,68.3
,,0.023150105962956257,0.021435572867580945,0.000998530192648513,0.04558420902318571,1.4342844882421641,0.507853628680522,0.4702411937580856,-3.8427034534866213,68.4
,,0.023150105962956257,0.021435572867580945,0.000998530192648513,0.04558420902318571,1.4283238421210718,0.507853628680522,0.4702411937580856,-3.8427034534866213,68.5
,,0.023150105962956257,0.021435572867580945,0.000998530192648513,0.04558420902318571,1.4223631959999792,0.507853628680522,0.4702411937580856,-3.8427034534866213,68.6
,,0.023150105962956257,0.021435572867580945,0.000998530192648513,0.04558420902318571,1.4164025498788868,0.507853628680522,0.4702411937580856,-3.8427034534866213,68.7
,,0.023150105962956257,0.021435572867580945,0.000998530192648513,0.04558420902318571,1.4158232018101702,0.507853628680522,0.4702411937580856,-3.8427034534866213,68.8
,,0.022890891757114097,0.022274064756032948,0.0010780883128749873,0.04624304482602203,1.414662822630977,0.49501264121416294,0.4816738352726033,-3.804332292767859,68.9
,,0.023327142152359655,0.022037285447756155,0.001158420855813847,0.046522848455929654,1.4138450883661686,0.5014125945976219,0.4736873639332665,-3.815019467085183,69.0
,,0.012673406234891492,0.01757272176493188,0.0004386582369998419,0.030684786236823216,1.4092792100006264,0.4130192120968011,0.572685161607669,-4.041407478994876,69.1
,,0.012673406234891492,0.01757272176493188,0.0004386582369998419,0.030684786236823216,1.4047133316350842,0.4130192120968011,0.572685161607669,-4.041407478994876,69.2
,,0.012673406234891492,0.01757272176493188,0.0004386582369998419,0.030684786236823216,1.3940829637712642,0.4130192120968011,0.572685161607669,-4.041407478994876,69.3
,,0.012673406234891492,0.01757272176493188,0.0004386582369998419,0.030684786236823216,1.3834525959074444,0.4130192120968011,0.572685161607669,-4.041407478994876,69.4
,,0.012673406234891492,0.01757272176493188,0.0004386582369998419,0.030684786236823216,1.3728219842414287,0.4130192120968011,0.572685161607669,-4.041407478994876,69.5
,,0.012673406234891492,0.01757272176493188,0.0004386582369998419,0.030684786236823216,1.3621916163776087,0.4130192120968011,0.572685161607669,-4.041407478994876,69.6
,,0.012673406234891492,0.01757272176493188,0.0004386582369998419,0.030684786236823216,1.3515508261407227,0.4130192120968011,0.572685161607669,-4.041407478994876,69.7
,,0.02359145664286672,0.024185520316912255,0.001208246335427471,0.04898522329520645,1.343734919612167,0.4816035337982283,0.49373093945412266,-3.7220011589046154,69.8
,,0.023300898034219343,0.025150795238692,0.001117326777958509,0.049569020050869855,1.3353746858319178,0.4700697736268936,0.5073893979118647,-3.682865763107577,69.9
,,0.023300898034219343,0.025150795238692,0.001117326777958509,0.049569020050869855,1.3270144520516685,0.4700697736268936,0.5073893979118647,-3.682865763107577,70.0
,,0.023300898034219343,0.025150795238692,0.001117326777958509,0.049569020050869855,1.3238692935867369,0.4700697736268936,0.5073893979118647,-3.682865763107577,70.1
,,0.023300898034219343,0.025150795238692,0.001117326777958509,0.049569020050869855,1.3207241351218053,0.4700697736268936,0.5073893979118647,-3.682865763107577,70.2
,,0.023300898034219343,0.025150795238692,0.001117326777958509,0.049569020050869855,1.3175789766568737,0.4700697736268936,0.5073893979118647,-3.682865763107577,70.3
,,0.023300898034219343,0.025150795238692,0.001117326777958509,0.049569020050869855,1.3144338181919422,0.4700697736268936,0.5073893979118647,-3.682865763107577,70.4
,,0.023300898034219343,0.025150795238692,0.001117326777958509,0.049569020050869855,1.3056691897496482,0.4700697736268936,0.5073893979118647,-3.682865763107577,70.5
,,0.02545757969697089,0.028306913731645643,0.0010742329542269859,0.05483872638284351,1.2966033795819036,0.4642263118812216,0.5161847402149289,-3.5646492026981127,70.6
,,0.024941415981387976,0.026953893587658435,0.0013027645327076123,0.05319807410175402,1.2878264014548004,0.46884058121505606,0.5066704771323616,-3.613627517566891,70.7
,,0.025235403902524517,0.028187704131865103,0.001242282634578342,0.05466539066896796,1.2783697863546524,0.46163401731344367,0.5156407699079427,-3.568869419816767,70.8
,,0.025235403902524517,0.028187704131865103,0.001242282634578342,0.05466539066896796,1.2689131712545043,0.46163401731344367,0.5156407699079427,-3.568869419816767,70.9
,,0.025235403902524517,0.028187704131865103,0.001242282634578342,0.05466539066896796,1.2594565561543565,0.46163401731344367,0.5156407699079427,-3.568869419816767,71.0
,,0.025235403902524517,0.028187704131865103,0.001242282634578342,0.05466539066896796,1.2499999410542084,0.46163401731344367,0.5156407699079427,-3.568869419816767,71.1
,,0.025235403902524517,0.028187704131865103,0.001242282634578342,0.05466539066896796,1.2405433259540606,0.46163401731344367,0.5156407699079427,-3.568869419816767,71.2
,,0.025235403902524517,0.028187704131865103,0.001242282634578342,0.05466539066896796,1.2378573139299447,0.46163401731344367,0.5156407699079427,-3.568869419816767,71.3
,,0.02794880291163078,0.03073784444348863,0.0014744301460092035,0.06016107750112862,1.235326865899349,0.46456619582829883,0.5109257633045551,-3.482260665533076,71.4
,,0.02794880291163078,0.03073784444348863,0.0014744301460092035,0.06016107750112862,1.232796417868753,0.46456619582829883,0.5109257633045551,-3.482260665533076,71.5
,,0.028494752894737276,0.03188665421360846,0.001415381850445224,0.061796788958790955,1.2233791968333985,0.4611041022493731,0.5159920887616345,-3.445567719939408,71.6
