time,ecg,hr,rr,marker,norm_time
1715744240454210116,-0.38,87.0,702.0,,0.0
1715744240461904484,-0.489,,,,0.007694368
1715744240469598852,-0.234,,,,0.015388736
1715744240477293220,0.133,,,,0.023083104
1715744240484987588,0.232,,,,0.030777472
1715744240492681956,0.147,,,,0.03847184
1715744240500376324,0.154,,,,0.046166208
1715744240508070692,0.198,,,,0.053860576
1715744240515765060,0.181,,,,0.061554944
1715744240523459428,0.171,,,,0.069249312
1715744240531153796,0.174,,,,0.07694368
1715744240538848164,0.162,,,,0.084638048
1715744240546542532,0.167,,,,0.092332416
1715744240554236900,0.171,,,,0.100026784
1715744240561931268,0.152,,,,0.107721152
1715744240569625636,0.154,,,,0.11541552
1715744240577320004,0.159,,,,0.123109888
1715744240585014372,0.142,,,,0.130804256
1715744240592708740,0.135,,,,0.138498624
1715744240600403108,0.13,,,,0.146192992
1715744240608097476,0.116,,,,0.15388736
1715744240615791844,0.111,,,,0.161581728
1715744240623486212,0.111,,,,0.169276096
1715744240631180580,0.101,,,,0.176970464
1715744240638874948,0.089,,,,0.184664832
1715744240646569316,0.077,,,,0.1923592
1715744240654263684,0.067,,,,0.200053568
1715744240661958052,0.053,,,,0.207747936
1715744240669652420,0.048,,,,0.215442304
1715744240677346788,0.048,,,,0.223136672
1715744240685041156,0.036,,,,0.23083104
1715744240692735524,0.029,,,,0.238525408
1715744240700429892,0.038,,,,0.246219776
1715744240708124260,0.048,,,,0.253914144
1715744240715818628,0.062,,,,0.261608512
1715744240723512996,0.089,,,,0.26930288
1715744240731207364,0.121,,,,0.276997248
1715744240738901732,0.15,,,,0.284691616
1715744240746596100,0.174,,,,0.292385984
1715744240754290468,0.184,,,,0.300080352
1715744240761984836,0.179,,,,0.30777472
1715744240769679204,0.174,,,,0.315469088
1715744240777373572,0.174,,,,0.323163456
1715744240785067940,0.176,,,,0.330857824
1715744240792762308,0.174,,,,0.338552192
1715744240800456676,0.171,,,,0.34624656
1715744240808151044,0.174,,,,0.353940928
1715744240815845412,0.167,,,,0.361635296
1715744240823539780,0.162,,,,0.369329664
1715744240831234148,0.162,,,,0.377024032
1715744240838928516,0.159,,,,0.3847184
1715744240846622884,0.154,,,,0.392412768
1715744240854317252,0.157,,,,0.400107136
1715744240862011620,0.159,,,,0.407801504
1715744240869705988,0.157,,,,0.415495872
1715744240877400356,0.15,,,,0.42319024
1715744240885094724,0.152,,,,0.430884608
1715744240892789092,0.154,,,,0.438578976
1715744240900483460,0.152,,,,0.446273344
1715744240908177828,0.154,,,,0.453967712
1715744240915872196,0.159,,,,0.46166208
1715744240923566564,0.159,,,,0.469356448
1715744240931260932,0.157,,,,0.477050816
1715744240938955300,0.152,,,,0.484745184
1715744240946649668,0.157,,,,0.492439552
1715744240954344036,0.162,,,,0.50013392
1715744240962038404,0.142,,,,0.507828288
1715744240969732772,0.116,,,,0.515522656
1715744240977427140,0.111,,,,0.523217024
1715744240985121508,0.113,,,,0.530911392
1715744240992815876,0.116,,,,0.53860576
1715744241000510244,0.128,,,,0.546300128
1715744241008204612,0.14,,,,0.553994496
1715744241015898994,0.142,,,,0.561688878
1715744241023593362,0.133,,,,0.569383246
1715744241031287730,0.128,,,,0.577077614
1715744241038982098,0.133,,,,0.584771982
1715744241046676466,0.133,,,,0.59246635
1715744241054370834,0.13,,,,0.600160718
1715744241062065202,0.135,,,,0.607855086
1715744241069759570,0.138,,,,0.615549454
1715744241077453938,0.133,,,,0.623243822
1715744241085148306,0.079,,,,0.63093819
1715744241092842674,-0.113,,,,0.638632558
1715744241100537042,-0.377,,,,0.646326926
1715744241108231410,-0.489,,,,0.654021294
1715744241115925778,-0.29,,,,0.661715662
1715744241123620146,0.055,,,,0.66941003
1715744241131314514,0.21,,,,0.677104398
1715744241139008882,0.157,,,,0.684798766
1715744241146703250,0.142,,,,0.692493134
1715744241154397618,0.181,,,,0.700187502
1715744241162091986,0.174,,,,0.70788187
1715744241169786354,0.157,,,,0.715576238
1715744241177480722,0.169,,,,0.723270606
1715744241185175090,0.171,,,,0.730964974
1715744241192869458,0.159,,,,0.738659342
1715744241200563826,0.152,,,,0.74635371
1715744241208258194,0.142,,,,0.754048078
1715744241215952562,0.138,,,,0.761742446
1715744241223646930,0.138,,,,0.769436814
1715744241231341298,0.133,,,,0.777131182
1715744241239035666,0.128,,,,0.78482555
1715744241246730034,0.125,,,,0.792519918
1715744241254424402,0.121,,,,0.800214286
1715744241262118770,0.108,,,,0.807908654
1715744241269813138,0.094,,,,0.815603022
1715744241277507506,0.077,,,,0.82329739
1715744241285201874,0.062,,,,0.830991758
1715744241292896242,0.06,,,,0.838686126
1715744241300590610,0.05,,,,0.846380494
1715744241308284978,0.036,,,,0.854074862
1715744241315979346,0.029,,,,0.86176923
1715744241323673714,0.026,,,,0.869463598
1715744241331368082,0.026,,,,0.877157966
1715744241339062450,0.029,,,,0.884852334
1715744241346756818,0.031,,,,0.892546702
1715744241354451186,0.041,,,,0.90024107
1715744241362145554,0.06,,,,0.907935438
1715744241369839922,0.089,,,,0.915629806
1715744241377534290,0.118,,,,0.923324174
1715744241385228658,0.147,,,,0.931018542
1715744241392923026,0.169,,,,0.93871291
1715744241400617394,0.176,,,,0.946407278
1715744241408311762,0.186,,,,0.954101646
1715744241416006130,0.193,,,,0.961796014
1715744241423700498,0.191,,,,0.969490382
1715744241431394866,0.188,,,,0.97718475
1715744241439089234,0.188,,,,0.984879118
1715744241446783602,0.181,,,,0.992573486
1715744241454477970,0.171,,,,1.000267854
1715744241462172338,0.171,,,,1.007962222
1715744241469866706,0.171,,,,1.01565659
1715744241477561074,0.167,,,,1.023350958
1715744241485255442,0.167,,,,1.031045326
1715744241492949810,0.167,,,,1.038739694
1715744241500644178,0.162,,,,1.046434062
1715744241508338546,0.167,,,,1.05412843
1715744241516032914,0.174,,,,1.061822798
1715744241523727282,0.167,,,,1.069517166
1715744241531421650,0.162,,,,1.077211534
1715744241539116018,0.162,,,,1.084905902
1715744241546810386,0.162,,,,1.09260027
1715744241554504754,0.159,,,,1.100294638
1715744241562199122,0.162,,,,1.107989006
1715744241569893490,0.164,,,,1.115683374
1715744241577587870,0.167,87.0,703.0,,1.123377754
1715744241585282238,0.159,,701.0,,1.131072122
1715744241592976606,0.157,,,,1.13876649
1715744241600670974,0.162,,,,1.146460858
1715744241608365342,0.164,,,,1.154155226
1715744241616059710,0.162,,,,1.161849594
1715744241623754078,0.154,,,,1.169543962
1715744241631448446,0.135,,,,1.17723833
1715744241639142814,0.123,,,,1.184932698
1715744241646837182,0.121,,,,1.192627066
1715744241654531550,0.111,,,,1.200321434
1715744241662225918,0.106,,,,1.208015802
1715744241669920286,0.113,,,,1.21571017
1715744241677614654,0.121,,,,1.223404538
1715744241685309022,0.123,,,,1.231098906
1715744241693003390,0.121,,,,1.238793274
1715744241700697758,0.116,,,,1.246487642
1715744241708392126,0.108,,,,1.25418201
1715744241716086494,0.108,,,,1.261876378
1715744241723780862,0.111,,,,1.269570746
1715744241731475230,0.108,,,,1.277265114
1715744241739169598,0.104,,,,1.284959482
1715744241746863966,0.116,,,,1.29265385
1715744241754558334,0.106,,,,1.300348218
1715744241762252702,-0.024,,,,1.308042586
1715744241769947070,-0.276,,,,1.315736954
1715744241777641438,-0.452,,,,1.323431322
1715744241785335806,-0.355,,,,1.33112569
1715744241793030174,-0.041,,,,1.338820058
1715744241800724542,0.169,,,,1.346514426
1715744241808418910,0.147,,,,1.354208794
1715744241816113278,0.108,,,,1.361903162
1715744241823807646,0.142,,,,1.36959753
1715744241831502014,0.147,,,,1.377291898
1715744241839196382,0.13,,,,1.384986266
1715744241846890750,0.138,,,,1.392680634
1715744241854585118,0.14,,,,1.400375002
1715744241862279486,0.123,,,,1.40806937
1715744241869973854,0.121,,,,1.415763738
1715744241877668222,0.123,,,,1.423458106
1715744241885362590,0.116,,,,1.431152474
1715744241893056958,0.113,,,,1.438846842
1715744241900751326,0.108,,,,1.44654121
1715744241908445694,0.096,,,,1.454235578
1715744241916140062,0.089,,,,1.461929946
1715744241923834430,0.089,,,,1.469624314
1715744241931528798,0.087,,,,1.477318682
1715744241939223166,0.075,,,,1.48501305
1715744241946917534,0.06,,,,1.492707418
1715744241954611902,0.046,,,,1.500401786
1715744241962306270,0.038,,,,1.508096154
1715744241970000638,0.036,,,,1.515790522
1715744241977695006,0.029,,,,1.52348489
1715744241985389374,0.019,,,,1.531179258
1715744241993083742,0.012,,,,1.538873626
1715744242000778110,0.002,,,,1.546567994
1715744242008472478,0.0,,,,1.554262362
1715744242016166846,0.002,,,,1.56195673
1715744242023861214,0.009,,,,1.569651098
1715744242031555582,0.031,,,,1.577345466
1715744242039249950,0.06,,,,1.585039834
1715744242046944318,0.079,,,,1.592734202
1715744242054638686,0.111,,,,1.60042857
1715744242062333054,0.14,,,,1.608122938
1715744242070027422,0.152,,,,1.615817306
1715744242077721790,0.157,,,,1.623511674
1715744242085416158,0.169,,,,1.631206042
1715744242093110526,0.184,,,,1.63890041
1715744242100804894,0.179,,,,1.646594778
1715744242108499262,0.164,,,,1.654289146
1715744242116193630,0.171,,,,1.661983514
1715744242123887998,0.171,,,,1.669677882
1715744242131582366,0.167,,,,1.67737225
1715744242139276746,0.167,87.0,657.0,,1.68506663
1715744242146971253,0.167,,,,1.692761137
1715744242154665760,0.162,,,,1.700455644
1715744242162360267,0.159,,,,1.708150151
1715744242170054774,0.157,,,,1.715844658
1715744242177749281,0.157,,,,1.723539165
1715744242185443788,0.159,,,,1.731233672
1715744242193138295,0.147,,,,1.738928179
1715744242200832802,0.142,,,,1.746622686
1715744242208527309,0.147,,,,1.754317193
1715744242216221816,0.147,,,,1.7620117
1715744242223916323,0.135,,,,1.769706207
1715744242231610830,0.133,,,,1.777400714
1715744242239305337,0.14,,,,1.785095221
1715744242246999844,0.14,,,,1.792789728
1715744242254694351,0.138,,,,1.800484235
1715744242262388858,0.138,,,,1.808178742
1715744242270083365,0.142,,,,1.815873249
1715744242277777872,0.135,,,,1.823567756
1715744242285472379,0.118,,,,1.831262263
1715744242293166886,0.106,,,,1.83895677
1715744242300861393,0.106,,,,1.846651277
1715744242308555900,0.104,,,,1.854345784
1715744242316250407,0.101,,,,1.862040291
1715744242323944914,0.111,,,,1.869734798
1715744242331639421,0.128,,,,1.877429305
1715744242339333928,0.13,,,,1.885123812
1715744242347028435,0.128,,,,1.892818319
1715744242354722942,0.13,,,,1.900512826
1715744242362417449,0.133,,,,1.908207333
1715744242370111956,0.128,,,,1.91590184
1715744242377806463,0.125,,,,1.923596347
1715744242385500970,0.13,,,,1.931290854
1715744242393195477,0.125,,,,1.938985361
1715744242400889984,0.128,,,,1.946679868
1715744242408584491,0.125,,,,1.954374375
1715744242416278998,0.021,,,,1.962068882
1715744242423973505,-0.213,,,,1.969763389
1715744242431668012,-0.414,,,,1.977457896
1715744242439362519,-0.368,,,,1.985152403
1715744242447057026,-0.087,,,,1.99284691
1715744242454751533,0.154,,,,2.000541417
1715744242462446040,0.167,,,,2.008235924
1715744242470140547,0.113,,,,2.015930431
1715744242477835054,0.133,,,,2.023624938
1715744242485529561,0.147,,,,2.031319445
1715744242493224068,0.133,,,,2.039013952
1715744242500918575,0.133,,,,2.046708459
1715744242508613082,0.13,,,,2.054402966
1715744242516307589,0.116,,,,2.062097473
1715744242524002096,0.113,,,,2.06979198
1715744242531696603,0.118,,,,2.077486487
1715744242539391110,0.111,,,,2.085180994
1715744242547085617,0.101,,,,2.092875501
1715744242554780124,0.096,,,,2.100570008
1715744242562474631,0.094,,,,2.108264515
1715744242570169138,0.092,,,,2.115959022
1715744242577863645,0.087,,,,2.123653529
1715744242585558152,0.079,,,,2.131348036
1715744242593252659,0.07,,,,2.139042543
1715744242600947166,0.06,,,,2.14673705
1715744242608641673,0.053,,,,2.154431557
1715744242616336180,0.048,,,,2.162126064
1715744242624030687,0.043,,,,2.169820571
1715744242631725194,0.036,,,,2.177515078
1715744242639419701,0.019,,,,2.185209585
1715744242647114208,0.009,,,,2.192904092
1715744242654808715,0.012,,,,2.200598599
1715744242662503222,0.009,,,,2.208293106
1715744242670197729,0.007,,,,2.215987613
1715744242677892236,0.012,,,,2.22368212
1715744242685586743,0.016,,,,2.231376627
1715744242693281250,0.033,,,,2.239071134
1715744242700975796,0.072,,,,2.24676568
1715744242708670442,0.101,,,,2.254460326
1715744242716365088,0.118,,,,2.262154972
1715744242724059734,0.135,,,,2.269849618
1715744242731754380,0.145,,,,2.277544264
1715744242739449026,0.152,,,,2.28523891
1715744242747143672,0.157,,,,2.292933556
1715744242754838318,0.159,,,,2.300628202
1715744242762532964,0.147,,,,2.308322848
1715744242770227610,0.138,,,,2.316017494
1715744242777922256,0.14,,,,2.32371214
1715744242785616902,0.135,,,,2.331406786
1715744242793311548,0.121,,,,2.339101432
1715744242801006194,0.118,,,,2.346796078
1715744242808700840,0.125,,,,2.354490724
1715744242816395486,0.128,,,,2.36218537
1715744242824090132,0.123,,,,2.369880016
1715744242831784778,0.121,,,,2.377574662
1715744242839479424,0.125,,,,2.385269308
1715744242847174070,0.128,,,,2.392963954
1715744242854868716,0.13,,,,2.4006586
1715744242862563362,0.128,,,,2.408353246
1715744242870258008,0.125,,,,2.416047892
1715744242877952654,0.128,,,,2.423742538
1715744242885647300,0.13,,,,2.431437184
1715744242893341946,0.133,,,,2.43913183
1715744242901036592,0.133,,,,2.446826476
1715744242908731238,0.13,,,,2.454521122
1715744242916425884,0.135,,,,2.462215768
1715744242924120530,0.138,,,,2.469910414
1715744242931815176,0.14,,,,2.47760506
1715744242939509822,0.133,,,,2.485299706
1715744242947204468,0.123,,,,2.492994352
1715744242954899114,0.118,,,,2.500688998
1715744242962593760,0.111,,,,2.508383644
1715744242970288406,0.101,,,,2.51607829
1715744242977983052,0.106,,,,2.523772936
1715744242985677698,0.118,,,,2.531467582
1715744242993372344,0.128,,,,2.539162228
1715744243001066990,0.138,,,,2.546856874
1715744243008761636,0.147,,,,2.55455152
1715744243016456282,0.147,,,,2.562246166
1715744243024150928,0.145,,,,2.569940812
1715744243031845574,0.147,,,,2.577635458
1715744243039540220,0.14,,,,2.585330104
1715744243047234866,0.13,,,,2.59302475
1715744243054929512,0.133,,,,2.600719396
1715744243062624158,0.14,,,,2.608414042
1715744243070318804,0.138,,,,2.616108688
1715744243078013450,0.072,,,,2.623803334
1715744243085708096,-0.125,,,,2.63149798
1715744243093402742,-0.343,,,,2.639192626
1715744243101097388,-0.36,,,,2.646887272
1715744243108792034,-0.123,,,,2.654581918
1715744243116486680,0.13,,,,2.662276564
1715744243124181326,0.181,,,,2.66997121
1715744243131875972,0.13,,,,2.677665856
1715744243139570618,0.142,,,,2.685360502
1715744243147265264,0.159,,,,2.693055148
1715744243154959910,0.14,,,,2.700749794
1715744243162654556,0.135,,,,2.70844444
1715744243170349202,0.142,,,,2.716139086
1715744243178043848,0.135,,,,2.723833732
1715744243185738494,0.125,,,,2.731528378
1715744243193433140,0.123,,,,2.739223024
1715744243201127786,0.116,,,,2.74691767
1715744243208822432,0.104,,,,2.754612316
1715744243216517078,0.104,,,,2.762306962
1715744243224211724,0.106,,,,2.770001608
1715744243231906370,0.099,,,,2.777696254
1715744243239601016,0.092,,,,2.7853909
1715744243247295662,0.089,,,,2.793085546
1715744243254990308,0.082,,,,2.800780192
1715744243262685016,0.072,87.0,647.0,,2.8084749
1715744243270379384,0.067,,672.0,,2.816169268
1715744243278073752,0.055,,,,2.823863636
1715744243285768120,0.043,,,,2.831558004
1715744243293462488,0.026,,,,2.839252372
1715744243301156856,0.009,,,,2.84694674
1715744243308851224,0.002,,,,2.854641108
1715744243316545592,0.002,,,,2.862335476
1715744243324239960,0.0,,,,2.870029844
1715744243331934328,-0.007,,,,2.877724212
1715744243339628696,-0.002,,,,2.88541858
1715744243347323064,0.012,,,,2.893112948
1715744243355017432,0.033,,,,2.900807316
1715744243362711800,0.062,,,,2.908501684
1715744243370406168,0.092,,,,2.916196052
1715744243378100536,0.113,,,,2.92389042
1715744243385794904,0.135,,,,2.931584788
1715744243393489272,0.152,,,,2.939279156
1715744243401183640,0.162,,,,2.946973524
1715744243408878008,0.164,,,,2.954667892
1715744243416572376,0.169,,,,2.96236226
1715744243424266744,0.167,,,,2.970056628
1715744243431961112,0.159,,,,2.977750996
1715744243439655480,0.162,,,,2.985445364
1715744243447349848,0.164,,,,2.993139732
1715744243455044216,0.159,,,,3.0008341
1715744243462738584,0.157,,,,3.008528468
1715744243470432952,0.159,,,,3.016222836
1715744243478127320,0.159,,,,3.023917204
1715744243485821688,0.154,,,,3.031611572
1715744243493516056,0.159,,,,3.03930594
1715744243501210424,0.164,,,,3.047000308
1715744243508904792,0.159,,,,3.054694676
1715744243516599160,0.159,,,,3.062389044
1715744243524293528,0.159,,,,3.070083412
1715744243531987896,0.159,,,,3.07777778
1715744243539682264,0.162,,,,3.085472148
1715744243547376632,0.164,,,,3.093166516
1715744243555071000,0.164,,,,3.100860884
1715744243562765368,0.164,,,,3.108555252
1715744243570459736,0.164,,,,3.11624962
1715744243578154104,0.167,,,,3.123943988
1715744243585848472,0.169,,,,3.131638356
1715744243593542840,0.174,,,,3.139332724
1715744243601237208,0.169,,,,3.147027092
1715744243608931576,0.154,,,,3.15472146
1715744243616625944,0.145,,,,3.162415828
1715744243624320312,0.138,,,,3.170110196
1715744243632014680,0.13,,,,3.177804564
1715744243639709048,0.133,,,,3.185498932
1715744243647403416,0.154,,,,3.1931933
1715744243655097784,0.169,,,,3.200887668
1715744243662792152,0.167,,,,3.208582036
1715744243670486520,0.164,,,,3.216276404
1715744243678180888,0.169,,,,3.223970772
1715744243685875256,0.167,,,,3.23166514
1715744243693569624,0.164,,,,3.239359508
1715744243701263992,0.162,,,,3.247053876
1715744243708958360,0.164,,,,3.254748244
1715744243716652728,0.162,,,,3.262442612
1715744243724347096,0.164,,,,3.27013698
1715744243732041464,0.152,,,,3.277831348
1715744243739735832,0.043,,,,3.285525716
1715744243747430200,-0.191,,,,3.293220084
1715744243755124568,-0.372,,,,3.300914452
1715744243762818936,-0.295,,,,3.30860882
1715744243770513304,-0.002,,,,3.316303188
1715744243778207672,0.208,,,,3.323997556
1715744243785902040,0.193,,,,3.331691924
1715744243793596408,0.138,,,,3.339386292
1715744243801290776,0.159,,,,3.34708066
1715744243808985144,0.174,,,,3.354775028
1715744243816679512,0.154,,,,3.362469396
1715744243824373892,0.147,,,,3.370163776
1715744243832068260,0.152,,,,3.377858144
1715744243839762628,0.145,,,,3.385552512
1715744243847456996,0.135,,,,3.39324688
1715744243855151364,0.135,,,,3.400941248
1715744243862845732,0.13,,,,3.408635616
1715744243870540100,0.125,,,,3.416329984
1715744243878234468,0.125,,,,3.424024352
1715744243885928836,0.123,,,,3.43171872
1715744243893623204,0.111,,,,3.439413088
1715744243901317572,0.101,,,,3.447107456
1715744243909011940,0.094,,,,3.454801824
1715744243916706308,0.092,,,,3.462496192
1715744243924400676,0.087,,,,3.47019056
1715744243932095044,0.075,,,,3.477884928
1715744243939789412,0.065,,,,3.485579296
1715744243947483780,0.06,,,,3.493273664
1715744243955178148,0.05,,,,3.500968032
1715744243962872516,0.043,,,,3.5086624
1715744243970566884,0.043,,,,3.516356768
1715744243978261252,0.038,,,,3.524051136
1715744243985955620,0.031,,,,3.531745504
1715744243993649988,0.033,,,,3.539439872
1715744244001344356,0.038,,,,3.54713424
1715744244009038724,0.053,,,,3.554828608
1715744244016733092,0.082,,,,3.562522976
1715744244024427460,0.108,,,,3.570217344
1715744244032121828,0.133,,,,3.577911712
1715744244039816196,0.159,,,,3.58560608
1715744244047510564,0.184,,,,3.593300448
1715744244055204932,0.196,,,,3.600994816
1715744244062899300,0.2,,,,3.608689184
1715744244070593668,0.2,,,,3.616383552
1715744244078288036,0.196,,,,3.62407792
1715744244085982404,0.188,,,,3.631772288
1715744244093676772,0.191,,,,3.639466656
1715744244101371140,0.196,,,,3.647161024
1715744244109065508,0.191,,,,3.654855392
1715744244116759876,0.184,,,,3.66254976
1715744244124454244,0.181,,,,3.670244128
1715744244132148612,0.181,,,,3.677938496
1715744244139842980,0.181,,,,3.685632864
1715744244147537348,0.179,,,,3.693327232
1715744244155231716,0.181,,,,3.7010216
1715744244162926084,0.181,,,,3.708715968
1715744244170620452,0.171,,,,3.716410336
1715744244178314820,0.169,,,,3.724104704
1715744244186009188,0.174,,,,3.731799072
1715744244193703556,0.179,,,,3.73949344
1715744244201397924,0.181,,,,3.747187808
1715744244209092292,0.181,,,,3.754882176
1715744244216786660,0.184,,,,3.762576544
1715744244224481028,0.181,,,,3.770270912
1715744244232175396,0.167,,,,3.77796528
1715744244239869764,0.154,,,,3.785659648
1715744244247564132,0.157,,,,3.793354016
1715744244255258500,0.159,,,,3.801048384
1715744244262952868,0.159,,,,3.808742752
1715744244270647236,0.174,,,,3.81643712
1715744244278341604,0.184,,,,3.824131488
1715744244286035972,0.184,,,,3.831825856
1715744244293730340,0.179,,,,3.839520224
1715744244301424708,0.174,,,,3.847214592
1715744244309119076,0.171,,,,3.85490896
1715744244316813444,0.174,,,,3.862603328
1715744244324507812,0.171,,,,3.870297696
1715744244332202180,0.167,,,,3.877992064
1715744244339896548,0.174,,,,3.885686432
1715744244347590916,0.179,,,,3.8933808
1715744244355285284,0.128,,,,3.901075168
1715744244362979652,-0.053,,,,3.908769536
1715744244370674020,-0.302,,,,3.916463904
1715744244378368388,-0.38,,,,3.924158272
1715744244386062770,-0.174,88.0,655.0,,3.931852654
1715744244393757138,0.128,,663.0,,3.939547022
1715744244401451506,0.237,,,,3.94724139
1715744244409145874,0.176,,,,3.954935758
1715744244416840242,0.162,,,,3.962630126
1715744244424534610,0.196,,,,3.970324494
1715744244432228978,0.191,,,,3.978018862
1715744244439923346,0.169,,,,3.98571323
1715744244447617714,0.162,,,,3.993407598
1715744244455312082,0.157,,,,4.001101966
1715744244463006450,0.147,,,,4.008796334
1715744244470700818,0.138,,,,4.016490702
1715744244478395186,0.121,,,,4.02418507
1715744244486089554,0.116,,,,4.031879438
1715744244493783922,0.111,,,,4.039573806
1715744244501478290,0.104,,,,4.047268174
1715744244509172658,0.096,,,,4.054962542
1715744244516867026,0.094,,,,4.06265691
1715744244524561394,0.089,,,,4.070351278
1715744244532255762,0.079,,,,4.078045646
1715744244539950130,0.067,,,,4.085740014
1715744244547644498,0.062,,,,4.093434382
1715744244555338866,0.055,,,,4.10112875
1715744244563033234,0.046,,,,4.108823118
1715744244570727602,0.036,,,,4.116517486
1715744244578421970,0.024,,,,4.124211854
1715744244586116338,0.014,,,,4.131906222
1715744244593810706,0.009,,,,4.13960059
1715744244601505074,0.007,,,,4.147294958
1715744244609199442,0.009,,,,4.154989326
1715744244616893810,0.012,,,,4.162683694
1715744244624588178,0.016,,,,4.170378062
1715744244632282546,0.038,,,,4.17807243
1715744244639976914,0.072,,,,4.185766798
1715744244647671282,0.101,,,,4.193461166
1715744244655365650,0.125,,,,4.201155534
1715744244663060018,0.145,,,,4.208849902
1715744244670754386,0.157,,,,4.21654427
1715744244678448754,0.159,,,,4.224238638
1715744244686143122,0.164,,,,4.231933006
1715744244693837490,0.171,,,,4.239627374
1715744244701531858,0.171,,,,4.247321742
1715744244709226226,0.169,,,,4.25501611
1715744244716920594,0.167,,,,4.262710478
1715744244724614962,0.164,,,,4.270404846
1715744244732309330,0.164,,,,4.278099214
1715744244740003698,0.159,,,,4.285793582
1715744244747698066,0.154,,,,4.29348795
1715744244755392434,0.159,,,,4.301182318
1715744244763086802,0.159,,,,4.308876686
1715744244770781170,0.157,,,,4.316571054
1715744244778475538,0.157,,,,4.324265422
1715744244786169906,0.157,,,,4.33195979
1715744244793864274,0.154,,,,4.339654158
1715744244801558642,0.152,,,,4.347348526
1715744244809253010,0.147,,,,4.355042894
1715744244816947378,0.145,,,,4.362737262
1715744244824641746,0.15,,,,4.37043163
1715744244832336114,0.147,,,,4.378125998
1715744244840030482,0.135,,,,4.385820366
1715744244847724850,0.125,,,,4.393514734
1715744244855419218,0.123,,,,4.401209102
1715744244863113586,0.118,,,,4.40890347
1715744244870807954,0.123,,,,4.416597838
1715744244878502322,0.14,,,,4.424292206
1715744244886196690,0.152,,,,4.431986574
1715744244893891058,0.154,,,,4.439680942
1715744244901585426,0.152,,,,4.44737531
1715744244909279794,0.152,,,,4.455069678
1715744244916974162,0.154,,,,4.462764046
1715744244924668530,0.157,,,,4.470458414
1715744244932362898,0.154,,,,4.478152782
1715744244940057266,0.154,,,,4.48584715
1715744244947751646,0.157,,,,4.49354153
1715744244955446223,0.159,,,,4.501236107
1715744244963140800,0.125,,,,4.508930684
1715744244970835377,-0.024,,,,4.516625261
1715744244978529954,-0.276,,,,4.524319838
1715744244986224531,-0.421,,,,4.532014415
1715744244993919108,-0.273,,,,4.539708992
1715744245001613685,0.05,,,,4.547403569
1715744245009308262,0.227,,,,4.555098146
1715744245017002839,0.191,,,,4.562792723
1715744245024697416,0.167,,,,4.5704873
1715744245032391993,0.208,,,,4.578181877
1715744245040086570,0.2,,,,4.585876454
1715744245047781147,0.174,,,,4.593571031
1715744245055475724,0.176,,,,4.601265608
1715744245063170301,0.176,,,,4.608960185
1715744245070864878,0.164,,,,4.616654762
1715744245078559455,0.159,,,,4.624349339
1715744245086254032,0.159,,,,4.632043916
1715744245093948609,0.145,,,,4.639738493
1715744245101643186,0.128,,,,4.64743307
1715744245109337763,0.118,,,,4.655127647
1715744245117032340,0.113,,,,4.662822224
1715744245124726917,0.104,,,,4.670516801
1715744245132421494,0.094,,,,4.678211378
1715744245140116071,0.084,,,,4.685905955
1715744245147810648,0.072,,,,4.693600532
1715744245155505225,0.062,,,,4.701295109
1715744245163199802,0.053,,,,4.708989686
1715744245170894379,0.046,,,,4.716684263
1715744245178588956,0.036,,,,4.72437884
1715744245186283533,0.026,,,,4.732073417
1715744245193978110,0.016,,,,4.739767994
1715744245201672687,0.009,,,,4.747462571
1715744245209367264,0.009,,,,4.755157148
1715744245217061841,0.012,,,,4.762851725
1715744245224756418,0.009,,,,4.770546302
1715744245232450995,0.014,,,,4.778240879
1715744245240145572,0.038,,,,4.785935456
1715744245247840149,0.07,,,,4.793630033
1715744245255534726,0.096,,,,4.80132461
1715744245263229303,0.121,,,,4.809019187
1715744245270923880,0.145,,,,4.816713764
1715744245278618457,0.157,,,,4.824408341
1715744245286313034,0.159,,,,4.832102918
1715744245294007611,0.164,,,,4.839797495
1715744245301702188,0.167,,,,4.847492072
1715744245309396765,0.162,,,,4.855186649
1715744245317091342,0.154,,,,4.862881226
1715744245324785919,0.152,,,,4.870575803
1715744245332480496,0.152,,,,4.87827038
1715744245340175073,0.15,,,,4.885964957
1715744245347869650,0.15,,,,4.893659534
1715744245355564227,0.15,,,,4.901354111
1715744245363258804,0.15,,,,4.909048688
1715744245370953381,0.15,,,,4.916743265
1715744245378647958,0.15,,,,4.924437842
1715744245386342535,0.15,,,,4.932132419
1715744245394037112,0.142,,,,4.939826996
1715744245401731689,0.135,,,,4.947521573
1715744245409426266,0.14,,,,4.95521615
1715744245417120843,0.142,,,,4.962910727
1715744245424815420,0.142,,,,4.970605304
1715744245432509997,0.145,,,,4.978299881
1715744245440204574,0.147,,,,4.985994458
1715744245447899151,0.147,,,,4.993689035
1715744245455593728,0.15,,,,5.001383612
1715744245463288305,0.152,,,,5.009078189
1715744245470982882,0.152,,,,5.016772766
1715744245478677459,0.145,,,,5.024467343
1715744245486372036,0.135,,,,5.03216192
1715744245494066613,0.128,,,,5.039856497
1715744245501761190,0.123,,,,5.047551074
1715744245509455782,0.121,89.0,659.0,,5.055245666
1715744245517150359,0.128,,,,5.062940243
1715744245524844936,0.14,,,,5.07063482
1715744245532539513,0.152,,,,5.078329397
1715744245540234090,0.162,,,,5.086023974
1715744245547928667,0.159,,,,5.093718551
1715744245555623244,0.157,,,,5.101413128
1715744245563317821,0.157,,,,5.109107705
1715744245571012398,0.159,,,,5.116802282
1715744245578706975,0.154,,,,5.124496859
1715744245586401552,0.145,,,,5.132191436
1715744245594096129,0.147,,,,5.139886013
1715744245601790706,0.154,,,,5.14758059
1715744245609485283,0.104,,,,5.155275167
1715744245617179860,-0.067,,,,5.162969744
1715744245624874437,-0.3,,,,5.170664321
1715744245632569014,-0.404,,,,5.178358898
1715744245640263591,-0.232,,,,5.186053475
1715744245647958168,0.077,,,,5.193748052
1715744245655652745,0.217,,,,5.201442629
1715744245663347322,0.169,,,,5.209137206
1715744245671041899,0.157,,,,5.216831783
1715744245678736476,0.196,,,,5.22452636
1715744245686431053,0.186,,,,5.232220937
1715744245694125630,0.167,,,,5.239915514
1715744245701820207,0.171,,,,5.247610091
1715744245709514784,0.171,,,,5.255304668
1715744245717209361,0.162,,,,5.262999245
1715744245724903938,0.154,,,,5.270693822
1715744245732598515,0.147,,,,5.278388399
1715744245740293092,0.14,,,,5.286082976
1715744245747987669,0.138,,,,5.293777553
1715744245755682246,0.135,,,,5.30147213
1715744245763376823,0.123,,,,5.309166707
1715744245771071400,0.111,,,,5.316861284
1715744245778765977,0.106,,,,5.324555861
1715744245786460554,0.096,,,,5.332250438
1715744245794155131,0.079,,,,5.339945015
1715744245801849708,0.07,,,,5.347639592
1715744245809544285,0.058,,,,5.355334169
1715744245817238862,0.036,,,,5.363028746
1715744245824933439,0.026,,,,5.370723323
1715744245832628016,0.024,,,,5.3784179
1715744245840322593,0.012,,,,5.386112477
1715744245848017170,0.004,,,,5.393807054
1715744245855711747,0.007,,,,5.401501631
1715744245863406324,0.004,,,,5.409196208
1715744245871100901,0.002,,,,5.416890785
1715744245878795478,0.009,,,,5.424585362
1715744245886490055,0.026,,,,5.432279939
1715744245894184632,0.05,,,,5.439974516
1715744245901879209,0.082,,,,5.447669093
1715744245909573786,0.108,,,,5.45536367
1715744245917268363,0.128,,,,5.463058247
1715744245924962940,0.142,,,,5.470752824
1715744245932657517,0.15,,,,5.478447401
1715744245940352094,0.152,,,,5.486141978
1715744245948046671,0.154,,,,5.493836555
1715744245955741248,0.159,,,,5.501531132
1715744245963435825,0.157,,,,5.509225709
1715744245971130402,0.15,,,,5.516920286
1715744245978824979,0.15,,,,5.524614863
1715744245986519556,0.157,,,,5.53230944
1715744245994214133,0.157,,,,5.540004017
1715744246001908710,0.152,,,,5.547698594
1715744246009603287,0.147,,,,5.555393171
1715744246017297864,0.15,,,,5.563087748
1715744246024992441,0.152,,,,5.570782325
1715744246032687018,0.152,,,,5.578476902
1715744246040381595,0.15,,,,5.586171479
1715744246048076172,0.152,,,,5.593866056
1715744246055770749,0.152,,,,5.601560633
1715744246063465326,0.147,,,,5.60925521
1715744246071159916,0.152,,,,5.6169498
1715744246078854284,0.157,,,,5.624644168
1715744246086548652,0.154,,,,5.632338536
1715744246094243020,0.152,,,,5.640032904
1715744246101937388,0.154,,,,5.647727272
1715744246109631756,0.154,,,,5.65542164
1715744246117326124,0.15,,,,5.663116008
1715744246125020492,0.15,,,,5.670810376
1715744246132714860,0.15,,,,5.678504744
1715744246140409228,0.152,,,,5.686199112
1715744246148103596,0.147,,,,5.69389348
1715744246155797964,0.13,,,,5.701587848
1715744246163492332,0.118,,,,5.709282216
1715744246171186700,0.121,,,,5.716976584
1715744246178881068,0.121,,,,5.724670952
1715744246186575436,0.118,,,,5.73236532
1715744246194269804,0.128,,,,5.740059688
1715744246201964172,0.14,,,,5.747754056
1715744246209658540,0.145,,,,5.755448424
1715744246217352908,0.145,,,,5.763142792
1715744246225047276,0.147,,,,5.77083716
1715744246232741644,0.15,,,,5.778531528
1715744246240436012,0.147,,,,5.786225896
1715744246248130380,0.142,,,,5.793920264
1715744246255824748,0.145,,,,5.801614632
1715744246263519116,0.15,,,,5.809309
1715744246271213484,0.157,,,,5.817003368
1715744246278907852,0.111,,,,5.824697736
1715744246286602220,-0.058,,,,5.832392104
1715744246294296588,-0.292,,,,5.840086472
1715744246301990956,-0.397,,,,5.84778084
1715744246309685324,-0.225,,,,5.855475208
1715744246317379692,0.077,,,,5.863169576
1715744246325074060,0.205,,,,5.870863944
1715744246332768428,0.154,,,,5.878558312
1715744246340462796,0.14,,,,5.88625268
1715744246348157164,0.181,,,,5.893947048
1715744246355851532,0.179,,,,5.901641416
1715744246363545900,0.162,,,,5.909335784
1715744246371240268,0.162,,,,5.917030152
1715744246378934636,0.152,,,,5.92472452
1715744246386629004,0.138,,,,5.932418888
1715744246394323372,0.138,,,,5.940113256
1715744246402017740,0.135,,,,5.947807624
1715744246409712108,0.128,,,,5.955501992
1715744246417406476,0.125,,,,5.96319636
1715744246425100844,0.116,,,,5.970890728
1715744246432795212,0.101,,,,5.978585096
1715744246440489580,0.096,,,,5.986279464
1715744246448183948,0.092,,,,5.993973832
1715744246455878316,0.079,,,,6.0016682
1715744246463572684,0.072,,,,6.009362568
1715744246471267052,0.065,,,,6.017056936
1715744246478961420,0.055,,,,6.024751304
1715744246486655788,0.043,,,,6.032445672
1715744246494350156,0.038,,,,6.04014004
1715744246502044524,0.033,,,,6.047834408
1715744246509738892,0.024,,,,6.055528776
1715744246517433260,0.016,,,,6.063223144
1715744246525127628,0.012,,,,6.070917512
1715744246532821996,0.009,,,,6.07861188
1715744246540516364,0.012,,,,6.086306248
1715744246548210732,0.021,,,,6.094000616
1715744246555905100,0.041,,,,6.101694984
1715744246563599468,0.067,,,,6.109389352
1715744246571293836,0.092,,,,6.11708372
1715744246578988204,0.118,,,,6.124778088
1715744246586682572,0.142,,,,6.132472456
1715744246594376940,0.157,,,,6.140166824
1715744246602071308,0.164,,,,6.147861192
1715744246609765676,0.169,,,,6.15555556
1715744246617460044,0.171,,,,6.163249928
1715744246625154412,0.167,,,,6.170944296
1715744246632848792,0.159,90.0,620.0,,6.178638676
1715744246640543160,0.159,,609.0,,6.186333044
1715744246648237528,0.162,,,,6.194027412
1715744246655931896,0.157,,,,6.20172178
1715744246663626264,0.145,,,,6.209416148
1715744246671320632,0.14,,,,6.217110516
1715744246679015000,0.142,,,,6.224804884
1715744246686709368,0.147,,,,6.232499252
1715744246694403736,0.145,,,,6.24019362
1715744246702098104,0.142,,,,6.247887988
1715744246709792472,0.145,,,,6.255582356
1715744246717486840,0.147,,,,6.263276724
1715744246725181208,0.145,,,,6.270971092
1715744246732875576,0.145,,,,6.27866546
1715744246740569944,0.15,,,,6.286359828
1715744246748264312,0.145,,,,6.294054196
1715744246755958680,0.145,,,,6.301748564
1715744246763653048,0.15,,,,6.309442932
1715744246771347416,0.152,,,,6.3171373
1715744246779041784,0.15,,,,6.324831668
1715744246786736152,0.147,,,,6.332526036
1715744246794430520,0.15,,,,6.340220404
1715744246802124888,0.152,,,,6.347914772
1715744246809819256,0.152,,,,6.35560914
1715744246817513624,0.147,,,,6.363303508
1715744246825207992,0.145,,,,6.370997876
1715744246832902360,0.145,,,,6.378692244
1715744246840596728,0.133,,,,6.386386612
1715744246848291096,0.118,,,,6.39408098
1715744246855985464,0.118,,,,6.401775348
1715744246863679832,0.118,,,,6.409469716
1715744246871374200,0.116,,,,6.417164084
1715744246879068568,0.125,,,,6.424858452
1715744246886762936,0.142,,,,6.43255282
1715744246894457304,0.147,,,,6.440247188
1715744246902151672,0.145,,,,6.447941556
1715744246909846040,0.145,,,,6.455635924
1715744246917540408,0.152,,,,6.463330292
1715744246925234776,0.154,,,,6.47102466
1715744246932929144,0.154,,,,6.478719028
1715744246940623512,0.15,,,,6.486413396
1715744246948317880,0.152,,,,6.494107764
1715744246956012248,0.164,,,,6.501802132
1715744246963706616,0.142,,,,6.5094965
1715744246971400984,0.016,,,,6.517190868
1715744246979095352,-0.21,,,,6.524885236
1715744246986789720,-0.382,,,,6.532579604
1715744246994484088,-0.292,,,,6.540273972
1715744247002178456,0.007,,,,6.54796834
1715744247009872824,0.213,,,,6.555662708
1715744247017567192,0.2,,,,6.563357076
1715744247025261560,0.162,,,,6.571051444
1715744247032955928,0.188,,,,6.578745812
1715744247040650296,0.196,,,,6.58644018
1715744247048344664,0.174,,,,6.594134548
1715744247056039032,0.171,,,,6.601828916
1715744247063733400,0.174,,,,6.609523284
1715744247071427768,0.167,,,,6.617217652
1715744247079122136,0.157,,,,6.62491202
1715744247086816504,0.145,,,,6.632606388
1715744247094510872,0.135,,,,6.640300756
1715744247102205240,0.133,,,,6.647995124
1715744247109899608,0.123,,,,6.655689492
1715744247117593976,0.108,,,,6.66338386
1715744247125288344,0.104,,,,6.671078228
1715744247132982712,0.099,,,,6.678772596
1715744247140677080,0.089,,,,6.686466964
1715744247148371448,0.082,,,,6.694161332
1715744247156065816,0.077,,,,6.7018557
1715744247163760184,0.062,,,,6.709550068
1715744247171454552,0.048,,,,6.717244436
1715744247179148920,0.043,,,,6.724938804
1715744247186843288,0.038,,,,6.732633172
1715744247194537668,0.024,91.0,646.0,,6.740327552
1715744247202232036,0.019,,,,6.74802192
1715744247209926404,0.019,,,,6.755716288
1715744247217620772,0.014,,,,6.763410656
1715744247225315140,0.012,,,,6.771105024
1715744247233009508,0.021,,,,6.778799392
1715744247240703876,0.036,,,,6.78649376
1715744247248398244,0.058,,,,6.794188128
1715744247256092612,0.089,,,,6.801882496
1715744247263786980,0.116,,,,6.809576864
1715744247271481348,0.135,,,,6.817271232
1715744247279175716,0.154,,,,6.8249656
1715744247286870084,0.167,,,,6.832659968
1715744247294564452,0.171,,,,6.840354336
1715744247302258820,0.174,,,,6.848048704
1715744247309953188,0.171,,,,6.855743072
1715744247317647556,0.162,,,,6.86343744
1715744247325341924,0.145,,,,6.871131808
1715744247333036292,0.14,,,,6.878826176
1715744247340730660,0.147,,,,6.886520544
1715744247348425028,0.145,,,,6.894214912
1715744247356119396,0.138,,,,6.90190928
1715744247363813764,0.135,,,,6.909603648
1715744247371508132,0.135,,,,6.917298016
1715744247379202500,0.135,,,,6.924992384
1715744247386896868,0.135,,,,6.932686752
1715744247394591236,0.133,,,,6.94038112
1715744247402285604,0.138,,,,6.948075488
1715744247409979972,0.14,,,,6.955769856
1715744247417674340,0.138,,,,6.963464224
1715744247425368708,0.14,,,,6.971158592
1715744247433063076,0.142,,,,6.97885296
1715744247440757444,0.14,,,,6.986547328
1715744247448451812,0.138,,,,6.994241696
1715744247456146180,0.14,,,,7.001936064
1715744247463840548,0.145,,,,7.009630432
1715744247471534916,0.142,,,,7.0173248
1715744247479229284,0.142,,,,7.025019168
1715744247486923652,0.15,,,,7.032713536
1715744247494618020,0.147,,,,7.040407904
1715744247502312388,0.145,,,,7.048102272
1715744247510006756,0.152,,,,7.05579664
1715744247517701124,0.154,,,,7.063491008
1715744247525395492,0.15,,,,7.071185376
1715744247533089860,0.135,,,,7.078879744
1715744247540784228,0.125,,,,7.086574112
1715744247548478596,0.123,,,,7.09426848
1715744247556172964,0.123,,,,7.101962848
1715744247563867332,0.133,,,,7.109657216
1715744247571561700,0.15,,,,7.117351584
1715744247579256068,0.157,,,,7.125045952
1715744247586950436,0.152,,,,7.13274032
1715744247594644804,0.152,,,,7.140434688
1715744247602339172,0.152,,,,7.148129056
1715744247610033540,0.152,,,,7.155823424
1715744247617727908,0.15,,,,7.163517792
1715744247625422276,0.147,,,,7.17121216
1715744247633116644,0.145,,,,7.178906528
1715744247640811012,0.152,,,,7.186600896
1715744247648505380,0.15,,,,7.194295264
1715744247656199748,0.075,,,,7.201989632
1715744247663894116,-0.125,,,,7.209684
1715744247671588484,-0.346,,,,7.217378368
1715744247679282852,-0.368,,,,7.225072736
1715744247686977220,-0.125,,,,7.232767104
1715744247694671588,0.147,,,,7.240461472
1715744247702365956,0.198,,,,7.24815584
1715744247710060324,0.138,,,,7.255850208
1715744247717754692,0.152,,,,7.263544576
1715744247725449060,0.181,,,,7.271238944
1715744247733143428,0.164,,,,7.278933312
1715744247740837796,0.152,,,,7.28662768
1715744247748532164,0.152,,,,7.294322048
1715744247756226546,0.14,,,,7.30201643
1715744247763920914,0.13,,,,7.309710798
1715744247771615282,0.121,,,,7.317405166
1715744247779309650,0.118,,,,7.325099534
1715744247787004018,0.116,,,,7.332793902
1715744247794698386,0.111,,,,7.34048827
1715744247802392754,0.101,,,,7.348182638
1715744247810087122,0.094,,,,7.355877006
1715744247817781490,0.087,,,,7.363571374
1715744247825475858,0.072,,,,7.371265742
1715744247833170226,0.06,,,,7.37896011
1715744247840864594,0.055,,,,7.386654478
1715744247848558962,0.043,,,,7.394348846
1715744247856253330,0.024,,,,7.402043214
1715744247863947698,0.012,,,,7.409737582
1715744247871642066,0.012,,,,7.41743195
1715744247879336434,0.004,,,,7.425126318
1715744247887030802,-0.009,,,,7.432820686
1715744247894725170,-0.019,,,,7.440515054
1715744247902419538,-0.029,,,,7.448209422
1715744247910113906,-0.029,,,,7.45590379
1715744247917808274,-0.019,,,,7.463598158
1715744247925502642,-0.009,,,,7.471292526
1715744247933197010,0.009,,,,7.478986894
1715744247940891378,0.038,,,,7.486681262
1715744247948585746,0.067,,,,7.49437563
1715744247956280114,0.092,,,,7.502069998
1715744247963974482,0.113,,,,7.509764366
1715744247971668850,0.13,,,,7.517458734
1715744247979363218,0.138,,,,7.525153102
1715744247987057586,0.14,,,,7.53284747
1715744247994751954,0.142,,,,7.540541838
1715744248002446322,0.145,,,,7.548236206
1715744248010140690,0.145,,,,7.555930574
1715744248017835058,0.145,,,,7.563624942
1715744248025529426,0.142,,,,7.57131931
1715744248033223794,0.14,,,,7.579013678
1715744248040918162,0.14,,,,7.586708046
1715744248048612530,0.138,,,,7.594402414
1715744248056306898,0.138,,,,7.602096782
1715744248064001266,0.142,,,,7.60979115
1715744248071695634,0.138,,,,7.617485518
1715744248079390002,0.133,,,,7.625179886
1715744248087084370,0.135,,,,7.632874254
1715744248094778738,0.135,,,,7.640568622
1715744248102473106,0.13,,,,7.64826299
1715744248110167474,0.13,,,,7.655957358
1715744248117861842,0.13,,,,7.663651726
1715744248125556210,0.13,,,,7.671346094
1715744248133250578,0.133,,,,7.679040462
1715744248140944946,0.13,,,,7.68673483
1715744248148639314,0.13,,,,7.694429198
1715744248156333682,0.135,,,,7.702123566
1715744248164028050,0.135,,,,7.709817934
1715744248171722418,0.13,,,,7.717512302
1715744248179416786,0.133,,,,7.72520667
1715744248187111154,0.138,,,,7.732901038
1715744248194805522,0.14,,,,7.740595406
1715744248202499890,0.145,,,,7.748289774
1715744248210194258,0.147,,,,7.755984142
1715744248217888626,0.147,,,,7.76367851
1715744248225582994,0.14,,,,7.771372878
1715744248233277362,0.125,,,,7.779067246
1715744248240971730,0.116,,,,7.786761614
1715744248248666098,0.113,,,,7.794455982
1715744248256360466,0.113,,,,7.80215035
1715744248264054834,0.118,,,,7.809844718
1715744248271749202,0.128,,,,7.817539086
1715744248279443570,0.138,,,,7.825233454
1715744248287137938,0.142,,,,7.832927822
1715744248294832306,0.147,,,,7.84062219
1715744248302526674,0.152,,,,7.848316558
1715744248310221042,0.15,,,,7.856010926
1715744248317915422,0.14,92.0,669.0,,7.863705306
1715744248325610208,0.125,,688.0,,7.871400092
1715744248333304994,0.125,,,,7.879094878
1715744248340999780,0.13,,,,7.886789664
1715744248348694566,0.133,,,,7.89448445
1715744248356389352,0.084,,,,7.902179236
1715744248364084138,-0.079,,,,7.909874022
1715744248371778924,-0.324,,,,7.917568808
1715744248379473710,-0.426,,,,7.925263594
1715744248387168496,-0.242,,,,7.93295838
1715744248394863282,0.05,,,,7.940653166
1715744248402558068,0.164,,,,7.948347952
1715744248410252854,0.121,,,,7.956042738
1715744248417947640,0.113,,,,7.963737524
1715744248425642426,0.142,,,,7.97143231
1715744248433337212,0.135,,,,7.979127096
1715744248441031998,0.125,,,,7.986821882
1715744248448726784,0.13,,,,7.994516668
1715744248456421570,0.125,,,,8.002211454
1715744248464116356,0.118,,,,8.00990624
1715744248471811142,0.118,,,,8.017601026
1715744248479505928,0.116,,,,8.025295812
1715744248487200714,0.111,,,,8.032990598
1715744248494895500,0.106,,,,8.040685384
1715744248502590286,0.104,,,,8.04838017
1715744248510285072,0.096,,,,8.056074956
1715744248517979858,0.092,,,,8.063769742
1715744248525674644,0.089,,,,8.071464528
1715744248533369430,0.082,,,,8.079159314
1715744248541064216,0.077,,,,8.0868541
1715744248548759002,0.07,,,,8.094548886
1715744248556453788,0.058,,,,8.102243672
1715744248564148574,0.046,,,,8.109938458
1715744248571843360,0.043,,,,8.117633244
1715744248579538146,0.036,,,,8.12532803
1715744248587232932,0.021,,,,8.133022816
1715744248594927718,0.012,,,,8.140717602
1715744248602622504,0.007,,,,8.148412388
1715744248610317290,0.007,,,,8.156107174
1715744248618012076,0.007,,,,8.16380196
1715744248625706862,0.014,,,,8.171496746
1715744248633401648,0.033,,,,8.179191532
1715744248641096434,0.06,,,,8.186886318
1715744248648791220,0.084,,,,8.194581104
1715744248656486006,0.111,,,,8.20227589
1715744248664180792,0.142,,,,8.209970676
1715744248671875578,0.157,,,,8.217665462
1715744248679570364,0.162,,,,8.225360248
1715744248687265150,0.171,,,,8.233055034
1715744248694959936,0.179,,,,8.24074982
1715744248702654722,0.176,,,,8.248444606
1715744248710349508,0.174,,,,8.256139392
1715744248718044294,0.169,,,,8.263834178
1715744248725739080,0.167,,,,8.271528964
1715744248733433866,0.169,,,,8.27922375
1715744248741128652,0.164,,,,8.286918536
1715744248748823438,0.159,,,,8.294613322
1715744248756518224,0.157,,,,8.302308108
1715744248764213010,0.159,,,,8.310002894
1715744248771907796,0.162,,,,8.31769768
1715744248779602582,0.162,,,,8.325392466
1715744248787297368,0.154,,,,8.333087252
1715744248794992154,0.154,,,,8.340782038
1715744248802686940,0.162,,,,8.348476824
1715744248810381726,0.162,,,,8.35617161
1715744248818076512,0.154,,,,8.363866396
1715744248825771298,0.142,,,,8.371561182
1715744248833466084,0.135,,,,8.379255968
1715744248841160870,0.135,,,,8.386950754
1715744248848855656,0.138,,,,8.39464554
1715744248856550442,0.138,,,,8.402340326
1715744248864245228,0.138,,,,8.410035112
1715744248871940014,0.142,,,,8.417729898
1715744248879634816,0.145,,,,8.4254247
1715744248887329184,0.145,,,,8.433119068
1715744248895023552,0.147,,,,8.440813436
1715744248902717920,0.145,,,,8.448507804
1715744248910412288,0.135,,,,8.456202172
1715744248918106656,0.125,,,,8.46389654
1715744248925801024,0.121,,,,8.471590908
1715744248933495392,0.113,,,,8.479285276
1715744248941189760,0.118,,,,8.486979644
1715744248948884128,0.125,,,,8.494674012
1715744248956578496,0.135,,,,8.50236838
1715744248964272864,0.138,,,,8.510062748
1715744248971967232,0.133,,,,8.517757116
1715744248979661600,0.13,,,,8.525451484
1715744248987355968,0.135,,,,8.533145852
1715744248995050336,0.138,,,,8.54084022
1715744249002744704,0.13,,,,8.548534588
1715744249010439072,0.125,,,,8.556228956
1715744249018133440,0.135,,,,8.563923324
1715744249025827808,0.142,,,,8.571617692
1715744249033522176,0.079,,,,8.57931206
1715744249041216544,-0.128,,,,8.587006428
1715744249048910912,-0.37,,,,8.594700796
1715744249056605280,-0.404,,,,8.602395164
1715744249064299648,-0.159,,,,8.610089532
1715744249071994016,0.128,,,,8.6177839
1715744249079688384,0.203,,,,8.625478268
1715744249087382752,0.152,,,,8.633172636
1715744249095077120,0.152,,,,8.640867004
1715744249102771488,0.179,,,,8.648561372
1715744249110465856,0.171,,,,8.65625574
1715744249118160224,0.164,,,,8.663950108
1715744249125854592,0.167,,,,8.671644476
1715744249133548960,0.164,,,,8.679338844
1715744249141243328,0.159,,,,8.687033212
1715744249148937696,0.157,,,,8.69472758
1715744249156632064,0.152,,,,8.702421948
1715744249164326432,0.152,,,,8.710116316
1715744249172020800,0.152,,,,8.717810684
1715744249179715168,0.145,,,,8.725505052
1715744249187409536,0.14,,,,8.73319942
1715744249195103904,0.138,,,,8.740893788
1715744249202798272,0.13,,,,8.748588156
1715744249210492640,0.121,,,,8.756282524
1715744249218187008,0.111,,,,8.763976892
1715744249225881376,0.108,,,,8.77167126
1715744249233575744,0.101,,,,8.779365628
1715744249241270112,0.089,,,,8.787059996
1715744249248964480,0.079,,,,8.794754364
1715744249256658848,0.075,,,,8.802448732
1715744249264353216,0.07,,,,8.8101431
1715744249272047584,0.062,,,,8.817837468
1715744249279741952,0.058,,,,8.825531836
1715744249287436320,0.058,,,,8.833226204
1715744249295130688,0.055,,,,8.840920572
1715744249302825056,0.062,,,,8.84861494
1715744249310519424,0.087,,,,8.856309308
1715744249318213792,0.118,,,,8.864003676
1715744249325908160,0.142,,,,8.871698044
1715744249333602528,0.154,,,,8.879392412
1715744249341296896,0.179,,,,8.88708678
1715744249348991264,0.208,,,,8.894781148
1715744249356685632,0.213,,,,8.902475516
1715744249364380000,0.21,,,,8.910169884
1715744249372074368,0.215,,,,8.917864252
1715744249379768736,0.217,,,,8.92555862
1715744249387463104,0.213,,,,8.933252988
1715744249395157472,0.215,,,,8.940947356
1715744249402851840,0.213,,,,8.948641724
1715744249410546208,0.213,,,,8.956336092
1715744249418240576,0.213,,,,8.96403046
1715744249425934944,0.2,,,,8.971724828
1715744249433629312,0.198,,,,8.979419196
1715744249441323692,0.208,91.0,688.0,,8.987113576
1715744249449018060,0.203,,,,8.994807944
1715744249456712428,0.193,,,,9.002502312
1715744249464406796,0.193,,,,9.01019668
1715744249472101164,0.198,,,,9.017891048
1715744249479795532,0.196,,,,9.025585416
1715744249487489900,0.191,,,,9.033279784
1715744249495184268,0.193,,,,9.040974152
1715744249502878636,0.196,,,,9.04866852
1715744249510573004,0.188,,,,9.056362888
1715744249518267372,0.181,,,,9.064057256
1715744249525961740,0.181,,,,9.071751624
1715744249533656108,0.181,,,,9.079445992
1715744249541350476,0.171,,,,9.08714036
1715744249549044844,0.159,,,,9.094834728
1715744249556739212,0.159,,,,9.102529096
1715744249564433580,0.167,,,,9.110223464
1715744249572127948,0.167,,,,9.117917832
1715744249579822316,0.167,,,,9.1256122
1715744249587516684,0.169,,,,9.133306568
1715744249595211052,0.179,,,,9.141000936
1715744249602905420,0.179,,,,9.148695304
1715744249610599788,0.171,,,,9.156389672
1715744249618294156,0.169,,,,9.16408404
1715744249625988524,0.167,,,,9.171778408
1715744249633682892,0.162,,,,9.179472776
1715744249641377260,0.157,,,,9.187167144
1715744249649071628,0.164,,,,9.194861512
1715744249656765996,0.135,,,,9.20255588
1715744249664460364,-0.026,,,,9.210250248
1715744249672154732,-0.305,,,,9.217944616
1715744249679849100,-0.464,,,,9.225638984
1715744249687543468,-0.302,,,,9.233333352
1715744249695237836,0.06,,,,9.24102772
1715744249702932204,0.256,,,,9.248722088
1715744249710626572,0.196,,,,9.256416456
1715744249718320940,0.15,,,,9.264110824
1715744249726015308,0.188,,,,9.271805192
1715744249733709676,0.193,,,,9.27949956
1715744249741404044,0.174,,,,9.287193928
1715744249749098412,0.174,,,,9.294888296
1715744249756792780,0.171,,,,9.302582664
1715744249764487148,0.159,,,,9.310277032
1715744249772181516,0.154,,,,9.3179714
1715744249779875884,0.152,,,,9.325665768
1715744249787570252,0.147,,,,9.333360136
1715744249795264620,0.142,,,,9.341054504
1715744249802958988,0.135,,,,9.348748872
1715744249810653356,0.128,,,,9.35644324
1715744249818347724,0.123,,,,9.364137608
1715744249826042092,0.111,,,,9.371831976
1715744249833736460,0.092,,,,9.379526344
1715744249841430828,0.082,,,,9.387220712
1715744249849125196,0.077,,,,9.39491508
1715744249856819564,0.067,,,,9.402609448
1715744249864513932,0.058,,,,9.410303816
1715744249872208300,0.05,,,,9.417998184
1715744249879902668,0.041,,,,9.425692552
1715744249887597036,0.033,,,,9.43338692
1715744249895291404,0.031,,,,9.441081288
1715744249902985772,0.026,,,,9.448775656
1715744249910680140,0.026,,,,9.456470024
1715744249918374508,0.031,,,,9.464164392
1715744249926068876,0.041,,,,9.47185876
1715744249933763244,0.053,,,,9.479553128
1715744249941457612,0.082,,,,9.487247496
1715744249949151980,0.121,,,,9.494941864
1715744249956846348,0.15,,,,9.502636232
1715744249964540716,0.167,,,,9.5103306
1715744249972235084,0.184,,,,9.518024968
1715744249979929452,0.193,,,,9.525719336
1715744249987623820,0.193,,,,9.533413704
1715744249995318188,0.193,,,,9.541108072
1715744250003012568,0.196,,,,9.548802452
1715744250010706936,0.196,,,,9.55649682
1715744250018401304,0.188,,,,9.564191188
1715744250026095672,0.181,,,,9.571885556
1715744250033790040,0.179,,,,9.579579924
1715744250041484408,0.176,,,,9.587274292
1715744250049178776,0.167,,,,9.59496866
1715744250056873144,0.154,,,,9.602663028
1715744250064567512,0.154,,,,9.610357396
1715744250072261880,0.154,,,,9.618051764
1715744250079956248,0.142,,,,9.625746132
1715744250087650616,0.14,,,,9.6334405
1715744250095344984,0.142,,,,9.641134868
1715744250103039352,0.14,,,,9.648829236
1715744250110733720,0.142,,,,9.656523604
1715744250118428088,0.147,,,,9.664217972
1715744250126122456,0.147,,,,9.67191234
1715744250133816824,0.14,,,,9.679606708
1715744250141511192,0.13,,,,9.687301076
1715744250149205560,0.121,,,,9.694995444
1715744250156899928,0.118,,,,9.702689812
1715744250164594296,0.111,,,,9.71038418
1715744250172288664,0.116,,,,9.718078548
1715744250179983032,0.133,,,,9.725772916
1715744250187677400,0.142,,,,9.733467284
1715744250195371768,0.15,,,,9.741161652
1715744250203066136,0.152,,,,9.74885602
1715744250210760504,0.15,,,,9.756550388
1715744250218454872,0.145,,,,9.764244756
1715744250226149240,0.142,,,,9.771939124
1715744250233843608,0.14,,,,9.779633492
1715744250241537976,0.14,,,,9.78732786
1715744250249232344,0.142,,,,9.795022228
1715744250256926712,0.145,,,,9.802716596
1715744250264621080,0.077,,,,9.810410964
1715744250272315448,-0.147,,,,9.818105332
1715744250280009816,-0.423,,,,9.8257997
1715744250287704184,-0.491,,,,9.833494068
1715744250295398552,-0.225,,,,9.841188436
1715744250303092920,0.128,,,,9.848882804
1715744250310787288,0.22,,,,9.856577172
1715744250318481656,0.13,,,,9.86427154
1715744250326176024,0.13,,,,9.871965908
1715744250333870392,0.164,,,,9.879660276
1715744250341564760,0.138,,,,9.887354644
1715744250349259128,0.118,,,,9.895049012
1715744250356953496,0.13,,,,9.90274338
1715744250364647864,0.13,,,,9.910437748
1715744250372342232,0.118,,,,9.918132116
1715744250380036600,0.116,,,,9.925826484
1715744250387730968,0.111,,,,9.933520852
1715744250395425336,0.104,,,,9.94121522
1715744250403119704,0.099,,,,9.948909588
1715744250410814072,0.096,,,,9.956603956
1715744250418508440,0.089,,,,9.964298324
1715744250426202808,0.082,,,,9.971992692
1715744250433897176,0.082,,,,9.97968706
1715744250441591544,0.075,,,,9.987381428
1715744250449285912,0.06,,,,9.995075796
1715744250456980280,0.055,,,,10.002770164
1715744250464674648,0.05,,,,10.010464532
1715744250472369016,0.038,,,,10.0181589
1715744250480063384,0.031,,,,10.025853268
1715744250487757752,0.024,,,,10.033547636
1715744250495452120,0.014,,,,10.041242004
1715744250503146488,0.007,,,,10.048936372
1715744250510840856,0.004,,,,10.05663074
1715744250518535224,0.007,,,,10.064325108
1715744250526229592,0.009,,,,10.072019476
1715744250533923960,0.019,,,,10.079713844
1715744250541618328,0.041,,,,10.087408212
1715744250549312696,0.075,,,,10.09510258
1715744250557007064,0.101,,,,10.102796948
1715744250564701444,0.121,90.0,702.0,,10.110491328
1715744250572395812,0.138,,676.0,,10.118185696
1715744250580090180,0.147,,,,10.125880064
1715744250587784548,0.15,,,,10.133574432
1715744250595478916,0.152,,,,10.1412688
1715744250603173284,0.157,,,,10.148963168
1715744250610867652,0.157,,,,10.156657536
1715744250618562020,0.15,,,,10.164351904
1715744250626256388,0.14,,,,10.172046272
1715744250633950756,0.14,,,,10.17974064
1715744250641645124,0.14,,,,10.187435008
1715744250649339492,0.138,,,,10.195129376
1715744250657033860,0.133,,,,10.202823744
1715744250664728228,0.133,,,,10.210518112
1715744250672422596,0.135,,,,10.21821248
1715744250680116964,0.133,,,,10.225906848
1715744250687811332,0.133,,,,10.233601216
1715744250695505700,0.138,,,,10.241295584
1715744250703200068,0.14,,,,10.248989952
1715744250710894436,0.138,,,,10.25668432
1715744250718588804,0.138,,,,10.264378688
1715744250726283172,0.138,,,,10.272073056
1715744250733977540,0.138,,,,10.279767424
1715744250741671908,0.14,,,,10.287461792
1715744250749366276,0.145,,,,10.29515616
1715744250757060644,0.145,,,,10.302850528
1715744250764755012,0.133,,,,10.310544896
1715744250772449380,0.118,,,,10.318239264
1715744250780143748,0.113,,,,10.325933632
1715744250787838116,0.116,,,,10.333628
1715744250795532484,0.121,,,,10.341322368
1715744250803226852,0.13,,,,10.349016736
1715744250810921220,0.138,,,,10.356711104
1715744250818615588,0.142,,,,10.364405472
1715744250826309956,0.142,,,,10.37209984
1715744250834004324,0.14,,,,10.379794208
1715744250841698692,0.135,,,,10.387488576
1715744250849393060,0.135,,,,10.395182944
1715744250857087428,0.142,,,,10.402877312
1715744250864781796,0.138,,,,10.41057168
1715744250872476164,0.138,,,,10.418266048
1715744250880170532,0.154,,,,10.425960416
1715744250887864900,0.13,,,,10.433654784
1715744250895559268,-0.031,,,,10.441349152
1715744250903253636,-0.295,,,,10.44904352
1715744250910948004,-0.464,,,,10.456737888
1715744250918642372,-0.341,,,,10.464432256
1715744250926336740,0.012,,,,10.472126624
1715744250934031108,0.234,,,,10.479820992
1715744250941725476,0.181,,,,10.48751536
1715744250949419844,0.133,,,,10.495209728
1715744250957114212,0.184,,,,10.502904096
1715744250964808580,0.188,,,,10.510598464
1715744250972502948,0.157,,,,10.518292832
1715744250980197316,0.157,,,,10.5259872
1715744250987891684,0.162,,,,10.533681568
1715744250995586052,0.145,,,,10.541375936
1715744251003280420,0.13,,,,10.549070304
1715744251010974788,0.128,,,,10.556764672
1715744251018669156,0.125,,,,10.56445904
1715744251026363524,0.118,,,,10.572153408
1715744251034057892,0.113,,,,10.579847776
1715744251041752260,0.108,,,,10.587542144
1715744251049446628,0.099,,,,10.595236512
1715744251057140996,0.087,,,,10.60293088
1715744251064835364,0.077,,,,10.610625248
1715744251072529732,0.072,,,,10.618319616
1715744251080224100,0.067,,,,10.626013984
1715744251087918468,0.06,,,,10.633708352
1715744251095612836,0.046,,,,10.64140272
1715744251103307204,0.036,,,,10.649097088
1715744251111001572,0.031,,,,10.656791456
1715744251118695940,0.026,,,,10.664485824
1715744251126390322,0.019,89.0,626.0,,10.672180206
1715744251134084690,0.014,,,,10.679874574
1715744251141779058,0.009,,,,10.687568942
1715744251149473426,0.016,,,,10.69526331
1715744251157167794,0.026,,,,10.702957678
1715744251164862162,0.038,,,,10.710652046
1715744251172556530,0.06,,,,10.718346414
1715744251180250898,0.092,,,,10.726040782
1715744251187945266,0.113,,,,10.73373515
1715744251195639634,0.123,,,,10.741429518
1715744251203334002,0.135,,,,10.749123886
1715744251211028370,0.15,,,,10.756818254
1715744251218722738,0.152,,,,10.764512622
1715744251226417106,0.145,,,,10.77220699
1715744251234111474,0.14,,,,10.779901358
1715744251241805842,0.142,,,,10.787595726
1715744251249500210,0.14,,,,10.795290094
1715744251257194578,0.138,,,,10.802984462
1715744251264888946,0.142,,,,10.81067883
1715744251272583314,0.142,,,,10.818373198
1715744251280277682,0.135,,,,10.826067566
1715744251287972050,0.13,,,,10.833761934
1715744251295666418,0.133,,,,10.841456302
1715744251303360786,0.13,,,,10.84915067
1715744251311055154,0.128,,,,10.856845038
1715744251318749522,0.128,,,,10.864539406
1715744251326443890,0.128,,,,10.872233774
1715744251334138258,0.118,,,,10.879928142
1715744251341832626,0.113,,,,10.88762251
1715744251349526994,0.116,,,,10.895316878
1715744251357221362,0.123,,,,10.903011246
1715744251364915730,0.123,,,,10.910705614
1715744251372610098,0.121,,,,10.918399982
1715744251380304466,0.123,,,,10.92609435
1715744251387998834,0.128,,,,10.933788718
1715744251395693202,0.128,,,,10.941483086
1715744251403387570,0.128,,,,10.949177454
1715744251411081938,0.128,,,,10.956871822
1715744251418776306,0.123,,,,10.96456619
1715744251426470674,0.111,,,,10.972260558
1715744251434165042,0.106,,,,10.979954926
1715744251441859410,0.108,,,,10.987649294
1715744251449553778,0.113,,,,10.995343662
1715744251457248146,0.123,,,,11.00303803
1715744251464942514,0.133,,,,11.010732398
1715744251472636882,0.14,,,,11.018426766
1715744251480331250,0.142,,,,11.026121134
1715744251488025618,0.145,,,,11.033815502
1715744251495719986,0.145,,,,11.04150987
1715744251503414354,0.145,,,,11.049204238
1715744251511108722,0.147,,,,11.056898606
1715744251518803090,0.145,,,,11.064592974
1715744251526497458,0.145,,,,11.072287342
1715744251534191826,0.154,,,,11.07998171
1715744251541886194,0.145,,,,11.087676078
1715744251549580562,0.031,,,,11.095370446
1715744251557274930,-0.203,,,,11.103064814
1715744251564969298,-0.404,,,,11.110759182
1715744251572663666,-0.36,,,,11.11845355
1715744251580358034,-0.062,,,,11.126147918
1715744251588052402,0.196,,,,11.133842286
1715744251595746770,0.2,,,,11.141536654
1715744251603441138,0.145,,,,11.149231022
1715744251611135506,0.176,,,,11.15692539
1715744251618829874,0.188,,,,11.164619758
1715744251626524242,0.159,,,,11.172314126
1715744251634218610,0.159,,,,11.180008494
1715744251641912978,0.169,,,,11.187702862
1715744251649607346,0.157,,,,11.19539723
1715744251657301714,0.147,,,,11.203091598
1715744251664996082,0.142,,,,11.210785966
1715744251672690450,0.135,,,,11.218480334
1715744251680384818,0.128,,,,11.226174702
1715744251688079198,0.121,,,,11.233869082
1715744251695773566,0.111,,,,11.24156345
1715744251703467934,0.106,,,,11.249257818
1715744251711162302,0.104,,,,11.256952186
1715744251718856670,0.099,,,,11.264646554
1715744251726551038,0.092,,,,11.272340922
1715744251734245406,0.082,,,,11.28003529
1715744251741939774,0.072,,,,11.287729658
1715744251749634142,0.067,,,,11.295424026
1715744251757328510,0.05,,,,11.303118394
1715744251765022878,0.033,,,,11.310812762
1715744251772717246,0.031,,,,11.31850713
1715744251780411614,0.033,,,,11.326201498
1715744251788105982,0.024,,,,11.333895866
1715744251795800350,0.014,,,,11.341590234
1715744251803494718,0.016,,,,11.349284602
1715744251811189086,0.024,,,,11.35697897
1715744251818883454,0.038,,,,11.364673338
1715744251826577822,0.058,,,,11.372367706
1715744251834272190,0.077,,,,11.380062074
1715744251841966558,0.094,,,,11.387756442
1715744251849660926,0.116,,,,11.39545081
1715744251857355294,0.14,,,,11.403145178
1715744251865049662,0.154,,,,11.410839546
1715744251872744030,0.159,,,,11.418533914
1715744251880438398,0.162,,,,11.426228282
1715744251888132766,0.167,,,,11.43392265
1715744251895827134,0.164,,,,11.441617018
1715744251903521502,0.162,,,,11.449311386
1715744251911215870,0.162,,,,11.457005754
1715744251918910238,0.162,,,,11.464700122
1715744251926604606,0.162,,,,11.47239449
1715744251934298974,0.162,,,,11.480088858
1715744251941993342,0.159,,,,11.487783226
1715744251949687710,0.157,,,,11.495477594
1715744251957382078,0.159,,,,11.503171962
1715744251965076446,0.164,,,,11.51086633
1715744251972770814,0.157,,,,11.518560698
1715744251980465182,0.159,,,,11.526255066
1715744251988159550,0.169,,,,11.533949434
1715744251995853918,0.167,,,,11.541643802
1715744252003548286,0.159,,,,11.54933817
1715744252011242654,0.159,,,,11.557032538
1715744252018937022,0.164,,,,11.564726906
1715744252026631390,0.171,,,,11.572421274
1715744252034325758,0.169,,,,11.580115642
1715744252042020126,0.162,,,,11.58781001
1715744252049714494,0.164,,,,11.595504378
1715744252057408862,0.171,,,,11.603198746
1715744252065103230,0.171,,,,11.610893114
1715744252072797598,0.162,,,,11.618587482
1715744252080491966,0.15,,,,11.62628185
1715744252088186334,0.145,,,,11.633976218
1715744252095880702,0.14,,,,11.641670586
1715744252103575070,0.135,,,,11.649364954
1715744252111269438,0.147,,,,11.657059322
1715744252118963806,0.164,,,,11.66475369
1715744252126658174,0.169,,,,11.672448058
1715744252134352542,0.171,,,,11.680142426
1715744252142046910,0.181,,,,11.687836794
1715744252149741278,0.176,,,,11.695531162
1715744252157435646,0.171,,,,11.70322553
1715744252165130014,0.179,,,,11.710919898
1715744252172824382,0.181,,,,11.718614266
1715744252180518750,0.171,,,,11.726308634
1715744252188213118,0.179,,,,11.734003002
1715744252195907486,0.186,,,,11.74169737
1715744252203601854,0.111,,,,11.749391738
1715744252211296222,-0.116,,,,11.757086106
1715744252218990590,-0.365,,,,11.764780474
1715744252226684958,-0.382,,,,11.772474842
1715744252234379326,-0.096,,,,11.78016921
1715744252242073694,0.205,,,,11.787863578
1715744252249768074,0.249,91.0,605.0,,11.795557958
1715744252257462442,0.179,,626.0,,11.803252326
1715744252265156810,0.198,,,,11.810946694
1715744252272851178,0.22,,,,11.818641062
1715744252280545546,0.191,,,,11.82633543
1715744252288239914,0.181,,,,11.834029798
1715744252295934282,0.181,,,,11.841724166
1715744252303628650,0.164,,,,11.849418534
1715744252311323018,0.147,,,,11.857112902
1715744252319017386,0.147,,,,11.86480727
1715744252326711754,0.14,,,,11.872501638
1715744252334406122,0.123,,,,11.880196006
1715744252342100490,0.108,,,,11.887890374
1715744252349794858,0.099,,,,11.895584742
1715744252357489226,0.096,,,,11.90327911
1715744252365183594,0.089,,,,11.910973478
1715744252372877962,0.072,,,,11.918667846
1715744252380572330,0.065,,,,11.926362214
1715744252388266698,0.055,,,,11.934056582
1715744252395961066,0.043,,,,11.94175095
1715744252403655434,0.033,,,,11.949445318
1715744252411349802,0.026,,,,11.957139686
1715744252419044170,0.019,,,,11.964834054
1715744252426738538,0.009,,,,11.972528422
1715744252434432906,0.002,,,,11.98022279
1715744252442127274,0.0,,,,11.987917158
1715744252449821642,0.0,,,,11.995611526
1715744252457516010,-0.002,,,,12.003305894
1715744252465210378,0.004,,,,12.011000262
1715744252472904746,0.016,,,,12.01869463
1715744252480599114,0.033,,,,12.026388998
1715744252488293482,0.055,,,,12.034083366
1715744252495987850,0.089,,,,12.041777734
1715744252503682218,0.118,,,,12.049472102
1715744252511376586,0.14,,,,12.05716647
1715744252519070954,0.152,,,,12.064860838
1715744252526765322,0.154,,,,12.072555206
1715744252534459690,0.152,,,,12.080249574
1715744252542154058,0.154,,,,12.087943942
1715744252549848426,0.157,,,,12.09563831
1715744252557542794,0.152,,,,12.103332678
1715744252565237162,0.145,,,,12.111027046
1715744252572931530,0.142,,,,12.118721414
1715744252580625898,0.145,,,,12.126415782
1715744252588320266,0.147,,,,12.13411015
1715744252596014634,0.138,,,,12.141804518
1715744252603709002,0.133,,,,12.149498886
1715744252611403370,0.138,,,,12.157193254
1715744252619097738,0.138,,,,12.164887622
1715744252626792106,0.133,,,,12.17258199
1715744252634486474,0.135,,,,12.180276358
1715744252642180842,0.142,,,,12.187970726
1715744252649875210,0.142,,,,12.195665094
1715744252657569578,0.138,,,,12.203359462
1715744252665263946,0.138,,,,12.21105383
1715744252672958314,0.145,,,,12.218748198
1715744252680652682,0.142,,,,12.226442566
1715744252688347050,0.125,,,,12.234136934
1715744252696041418,0.113,,,,12.241831302
1715744252703735786,0.116,,,,12.24952567
1715744252711430154,0.123,,,,12.257220038
1715744252719124522,0.133,,,,12.264914406
1715744252726818890,0.142,,,,12.272608774
1715744252734513258,0.152,,,,12.280303142
1715744252742207626,0.157,,,,12.28799751
1715744252749901994,0.152,,,,12.295691878
1715744252757596362,0.147,,,,12.303386246
1715744252765290730,0.154,,,,12.311080614
1715744252772985098,0.157,,,,12.318774982
1715744252780679466,0.142,,,,12.32646935
1715744252788373834,0.14,,,,12.334163718
1715744252796068202,0.157,,,,12.341858086
1715744252803762570,0.145,,,,12.349552454
1715744252811456950,0.014,,,,12.357246834
1715744252819151318,-0.251,,,,12.364941202
1715744252826845686,-0.464,,,,12.37263557
1715744252834540054,-0.375,,,,12.380329938
1715744252842234422,-0.026,,,,12.388024306
1715744252849928790,0.239,,,,12.395718674
1715744252857623158,0.225,,,,12.403413042
1715744252865317526,0.147,,,,12.41110741
1715744252873011894,0.169,,,,12.418801778
1715744252880706262,0.186,,,,12.426496146
1715744252888400630,0.167,,,,12.434190514
1715744252896094998,0.169,,,,12.441884882
1715744252903789366,0.171,,,,12.44957925
1715744252911483734,0.154,,,,12.457273618
1715744252919178102,0.142,,,,12.464967986
1715744252926872470,0.147,,,,12.472662354
1715744252934566838,0.147,,,,12.480356722
1715744252942261206,0.138,,,,12.48805109
1715744252949955574,0.128,,,,12.495745458
1715744252957649942,0.125,,,,12.503439826
1715744252965344310,0.118,,,,12.511134194
1715744252973038678,0.113,,,,12.518828562
1715744252980733046,0.106,,,,12.52652293
1715744252988427414,0.094,,,,12.534217298
1715744252996121782,0.087,,,,12.541911666
1715744253003816150,0.075,,,,12.549606034
1715744253011510518,0.06,,,,12.557300402
1715744253019204886,0.053,,,,12.56499477
1715744253026899254,0.046,,,,12.572689138
1715744253034593622,0.031,,,,12.580383506
1715744253042287990,0.021,,,,12.588077874
1715744253049982358,0.016,,,,12.595772242
1715744253057676726,0.007,,,,12.60346661
1715744253065371094,0.007,,,,12.611160978
1715744253073065462,0.016,,,,12.618855346
1715744253080759830,0.033,,,,12.626549714
1715744253088454198,0.062,,,,12.634244082
1715744253096148566,0.094,,,,12.64193845
1715744253103842934,0.116,,,,12.649632818
1715744253111537302,0.133,,,,12.657327186
1715744253119231670,0.15,,,,12.665021554
1715744253126926038,0.157,,,,12.672715922
1715744253134620406,0.162,,,,12.68041029
1715744253142314774,0.169,,,,12.688104658
1715744253150009142,0.169,,,,12.695799026
1715744253157703510,0.164,,,,12.703493394
1715744253165397878,0.167,,,,12.711187762
1715744253173092246,0.157,,,,12.71888213
1715744253180786614,0.147,,,,12.726576498
1715744253188480982,0.152,,,,12.734270866
1715744253196175350,0.154,,,,12.741965234
1715744253203869718,0.145,,,,12.749659602
1715744253211564086,0.135,,,,12.75735397
1715744253219258454,0.133,,,,12.765048338
1715744253226952822,0.133,,,,12.772742706
1715744253234647190,0.128,,,,12.780437074
1715744253242341558,0.128,,,,12.788131442
1715744253250035926,0.138,,,,12.79582581
1715744253257730294,0.138,,,,12.803520178
1715744253265424662,0.13,,,,12.811214546
1715744253273119030,0.121,,,,12.818908914
1715744253280813398,0.111,,,,12.826603282
1715744253288507766,0.104,,,,12.83429765
1715744253296202134,0.096,,,,12.841992018
1715744253303896502,0.096,,,,12.849686386
1715744253311590870,0.111,,,,12.857380754
1715744253319285238,0.128,,,,12.865075122
1715744253326979606,0.135,,,,12.87276949
1715744253334673974,0.133,,,,12.880463858
1715744253342368342,0.128,,,,12.888158226
1715744253350062710,0.121,,,,12.895852594
1715744253357757078,0.118,,,,12.903546962
1715744253365451446,0.123,,,,12.91124133
1715744253373145826,0.123,92.0,656.0,,12.91893571
1715744253380840194,0.121,,,,12.926630078
1715744253388534562,0.133,,,,12.934324446
1715744253396228930,0.118,,,,12.942018814
1715744253403923298,-0.036,,,,12.949713182
1715744253411617666,-0.334,,,,12.95740755
1715744253419312034,-0.527,,,,12.965101918
1715744253427006402,-0.387,,,,12.972796286
1715744253434700770,0.0,,,,12.980490654
1715744253442395138,0.234,,,,12.988185022
1715744253450089506,0.174,,,,12.99587939
1715744253457783874,0.118,,,,13.003573758
1715744253465478242,0.171,,,,13.011268126
1715744253473172610,0.171,,,,13.018962494
1715744253480866978,0.142,,,,13.026656862
1715744253488561346,0.152,,,,13.03435123
1715744253496255714,0.154,,,,13.042045598
1715744253503950082,0.138,,,,13.049739966
1715744253511644450,0.135,,,,13.057434334
1715744253519338818,0.133,,,,13.065128702
1715744253527033186,0.116,,,,13.07282307
1715744253534727554,0.106,,,,13.080517438
1715744253542421922,0.106,,,,13.088211806
1715744253550116290,0.104,,,,13.095906174
1715744253557810658,0.096,,,,13.103600542
1715744253565505026,0.089,,,,13.11129491
1715744253573199394,0.087,,,,13.118989278
1715744253580893762,0.077,,,,13.126683646
1715744253588588130,0.065,,,,13.134378014
1715744253596282498,0.058,,,,13.142072382
1715744253603976866,0.05,,,,13.14976675
1715744253611671234,0.041,,,,13.157461118
1715744253619365602,0.033,,,,13.165155486
1715744253627059970,0.024,,,,13.172849854
1715744253634754338,0.014,,,,13.180544222
1715744253642448706,0.012,,,,13.18823859
1715744253650143074,0.007,,,,13.195932958
1715744253657837442,0.007,,,,13.203627326
1715744253665531810,0.014,,,,13.211321694
1715744253673226178,0.031,,,,13.219016062
1715744253680920546,0.058,,,,13.22671043
1715744253688614914,0.082,,,,13.234404798
1715744253696309282,0.099,,,,13.242099166
1715744253704003650,0.116,,,,13.249793534
1715744253711698018,0.125,,,,13.257487902
1715744253719392386,0.128,,,,13.26518227
1715744253727086754,0.133,,,,13.272876638
1715744253734781122,0.135,,,,13.280571006
1715744253742475490,0.133,,,,13.288265374
1715744253750169858,0.128,,,,13.295959742
1715744253757864226,0.123,,,,13.30365411
1715744253765558594,0.116,,,,13.311348478
1715744253773252962,0.106,,,,13.319042846
1715744253780947330,0.106,,,,13.326737214
1715744253788641698,0.113,,,,13.334431582
1715744253796336066,0.111,,,,13.34212595
1715744253804030434,0.099,,,,13.349820318
1715744253811724802,0.099,,,,13.357514686
1715744253819419170,0.108,,,,13.365209054
1715744253827113538,0.113,,,,13.372903422
1715744253834807906,0.108,,,,13.38059779
1715744253842502274,0.104,,,,13.388292158
1715744253850196642,0.108,,,,13.395986526
1715744253857891010,0.108,,,,13.403680894
1715744253865585378,0.101,,,,13.411375262
1715744253873279746,0.089,,,,13.41906963
1715744253880974114,0.082,,,,13.426763998
1715744253888668482,0.077,,,,13.434458366
1715744253896362850,0.079,,,,13.442152734
1715744253904057218,0.087,,,,13.449847102
1715744253911751586,0.099,,,,13.45754147
1715744253919445954,0.111,,,,13.465235838
1715744253927140322,0.118,,,,13.472930206
1715744253934834702,0.123,,,,13.480624586
1715744253942529070,0.121,,,,13.488318954
1715744253950223438,0.116,,,,13.496013322
1715744253957917806,0.118,,,,13.50370769
1715744253965612174,0.121,,,,13.511402058
1715744253973306542,0.121,,,,13.519096426
1715744253981000910,0.125,,,,13.526790794
1715744253988695278,0.128,,,,13.534485162
1715744253996389646,0.077,,,,13.54217953
1715744254004084014,-0.123,,,,13.549873898
1715744254011778382,-0.411,,,,13.557568266
1715744254019472750,-0.518,,,,13.565262634
1715744254027167118,-0.276,,,,13.572957002
1715744254034861486,0.101,,,,13.58065137
1715744254042555854,0.232,,,,13.588345738
1715744254050250222,0.135,,,,13.596040106
1715744254057944590,0.123,,,,13.603734474
1715744254065638958,0.179,,,,13.611428842
1715744254073333326,0.162,,,,13.61912321
1715744254081027694,0.142,,,,13.626817578
1715744254088722062,0.154,,,,13.634511946
1715744254096416430,0.145,,,,13.642206314
1715744254104110798,0.13,,,,13.649900682
1715744254111805166,0.138,,,,13.65759505
1715744254119499534,0.138,,,,13.665289418
1715744254127193902,0.125,,,,13.672983786
1715744254134888270,0.113,,,,13.680678154
1715744254142582638,0.108,,,,13.688372522
1715744254150277006,0.106,,,,13.69606689
1715744254157971374,0.101,,,,13.703761258
1715744254165665742,0.094,,,,13.711455626
1715744254173360110,0.092,,,,13.719149994
1715744254181054478,0.089,,,,13.726844362
1715744254188748846,0.075,,,,13.73453873
1715744254196443214,0.06,,,,13.742233098
1715744254204137582,0.06,,,,13.749927466
1715744254211831950,0.055,,,,13.757621834
1715744254219526318,0.043,,,,13.765316202
1715744254227220686,0.033,,,,13.77301057
1715744254234915054,0.024,,,,13.780704938
1715744254242609422,0.021,,,,13.788399306
1715744254250303790,0.021,,,,13.796093674
1715744254257998158,0.021,,,,13.803788042
1715744254265692526,0.041,,,,13.81148241
1715744254273386894,0.062,,,,13.819176778
1715744254281081262,0.079,,,,13.826871146
1715744254288775630,0.104,,,,13.834565514
1715744254296469998,0.13,,,,13.842259882
1715744254304164366,0.142,,,,13.84995425
1715744254311858734,0.152,,,,13.857648618
1715744254319553102,0.157,,,,13.865342986
1715744254327247470,0.15,,,,13.873037354
1715744254334941838,0.15,,,,13.880731722
1715744254342636206,0.154,,,,13.88842609
1715744254350330574,0.15,,,,13.896120458
1715744254358024942,0.135,,,,13.903814826
1715744254365719310,0.13,,,,13.911509194
1715744254373413678,0.128,,,,13.919203562
1715744254381108046,0.125,,,,13.92689793
1715744254388802414,0.128,,,,13.934592298
1715744254396496782,0.13,,,,13.942286666
1715744254404191150,0.125,,,,13.949981034
1715744254411885518,0.128,,,,13.957675402
1715744254419579886,0.13,,,,13.96536977
1715744254427274254,0.13,,,,13.973064138
1715744254434968622,0.128,,,,13.980758506
1715744254442662990,0.128,,,,13.988452874
1715744254450357358,0.125,,,,13.996147242
1715744254458051726,0.128,,,,14.00384161
1715744254465746094,0.13,,,,14.011535978
1715744254473440462,0.13,,,,14.019230346
1715744254481134830,0.133,,,,14.026924714
1715744254488829198,0.138,,,,14.034619082
1715744254496523580,0.138,92.0,655.0,,14.042313464
1715744254504217948,0.125,,605.0,,14.050007832
1715744254511912316,0.108,,,,14.0577022
1715744254519606684,0.101,,,,14.065396568
1715744254527301052,0.104,,,,14.073090936
1715744254534995420,0.106,,,,14.080785304
1715744254542689788,0.116,,,,14.088479672
1715744254550384156,0.128,,,,14.09617404
1715744254558078524,0.133,,,,14.103868408
1715744254565772892,0.14,,,,14.111562776
1715744254573467260,0.145,,,,14.119257144
1715744254581161628,0.142,,,,14.126951512
1715744254588855996,0.138,,,,14.13464588
1715744254596550364,0.13,,,,14.142340248
1715744254604244732,0.128,,,,14.150034616
1715744254611939100,0.133,,,,14.157728984
1715744254619633468,0.142,,,,14.165423352
1715744254627327836,0.14,,,,14.17311772
1715744254635022204,0.048,,,,14.180812088
1715744254642716572,-0.186,,,,14.188506456
1715744254650410940,-0.416,,,,14.196200824
1715744254658105308,-0.404,,,,14.203895192
1715744254665799676,-0.101,,,,14.21158956
1715744254673494044,0.196,,,,14.219283928
1715744254681188412,0.22,,,,14.226978296
1715744254688882780,0.14,,,,14.234672664
1715744254696577148,0.167,,,,14.242367032
1715744254704271516,0.198,,,,14.2500614
1715744254711965884,0.169,,,,14.257755768
1715744254719660252,0.162,,,,14.265450136
1715744254727354620,0.176,,,,14.273144504
1715744254735048988,0.167,,,,14.280838872
1715744254742743356,0.15,,,,14.28853324
1715744254750437724,0.145,,,,14.296227608
1715744254758132092,0.14,,,,14.303921976
1715744254765826460,0.133,,,,14.311616344
1715744254773520828,0.13,,,,14.319310712
1715744254781215196,0.128,,,,14.32700508
1715744254788909564,0.121,,,,14.334699448
1715744254796603932,0.113,,,,14.342393816
1715744254804298300,0.108,,,,14.350088184
1715744254811992668,0.104,,,,14.357782552
1715744254819687036,0.096,,,,14.36547692
1715744254827381404,0.087,,,,14.373171288
1715744254835075772,0.079,,,,14.380865656
1715744254842770140,0.072,,,,14.388560024
1715744254850464508,0.058,,,,14.396254392
1715744254858158876,0.038,,,,14.40394876
1715744254865853244,0.033,,,,14.411643128
1715744254873547612,0.036,,,,14.419337496
1715744254881241980,0.026,,,,14.427031864
1715744254888936348,0.021,,,,14.434726232
1715744254896630716,0.029,,,,14.4424206
1715744254904325084,0.038,,,,14.450114968
1715744254912019452,0.058,,,,14.457809336
1715744254919713820,0.082,,,,14.465503704
1715744254927408188,0.101,,,,14.473198072
1715744254935102556,0.123,,,,14.48089244
1715744254942796924,0.147,,,,14.488586808
1715744254950491292,0.154,,,,14.496281176
1715744254958185660,0.154,,,,14.503975544
1715744254965880028,0.159,,,,14.511669912
1715744254973574396,0.157,,,,14.51936428
1715744254981268764,0.157,,,,14.527058648
1715744254988963132,0.159,,,,14.534753016
1715744254996657500,0.15,,,,14.542447384
1715744255004351868,0.138,,,,14.550141752
1715744255012046236,0.14,,,,14.55783612
1715744255019740604,0.142,,,,14.565530488
1715744255027434972,0.135,,,,14.573224856
1715744255035129340,0.135,,,,14.580919224
1715744255042823708,0.138,,,,14.588613592
1715744255050518076,0.14,,,,14.59630796
1715744255058212456,0.138,,,,14.60400234
1715744255065906824,0.138,,,,14.611696708
1715744255073601192,0.142,,,,14.619391076
1715744255081295560,0.142,,,,14.627085444
1715744255088989928,0.142,,,,14.634779812
1715744255096684296,0.145,,,,14.64247418
1715744255104378664,0.142,,,,14.650168548
1715744255112073032,0.14,,,,14.657862916
1715744255119767400,0.142,,,,14.665557284
1715744255127461768,0.145,,,,14.673251652
1715744255135156136,0.145,,,,14.68094602
1715744255142850504,0.145,,,,14.688640388
1715744255150544872,0.145,,,,14.696334756
1715744255158239240,0.142,,,,14.704029124
1715744255165933608,0.142,,,,14.711723492
1715744255173627976,0.138,,,,14.71941786
1715744255181322344,0.123,,,,14.727112228
1715744255189016712,0.111,,,,14.734806596
1715744255196711080,0.113,,,,14.742500964
1715744255204405448,0.113,,,,14.750195332
1715744255212099816,0.118,,,,14.7578897
1715744255219794184,0.133,,,,14.765584068
1715744255227488552,0.147,,,,14.773278436
1715744255235182920,0.152,,,,14.780972804
1715744255242877288,0.15,,,,14.788667172
1715744255250571656,0.142,,,,14.79636154
1715744255258266024,0.147,,,,14.804055908
1715744255265960392,0.147,,,,14.811750276
1715744255273654760,0.142,,,,14.819444644
1715744255281349128,0.142,,,,14.827139012
1715744255289043496,0.152,,,,14.83483338
1715744255296737864,0.157,,,,14.842527748
1715744255304432232,0.099,,,,14.850222116
1715744255312126600,-0.089,,,,14.857916484
1715744255319820968,-0.326,,,,14.865610852
1715744255327515336,-0.394,,,,14.87330522
1715744255335209704,-0.176,,,,14.880999588
1715744255342904072,0.125,,,,14.888693956
1715744255350598440,0.225,,,,14.896388324
1715744255358292808,0.164,,,,14.904082692
1715744255365987176,0.154,,,,14.91177706
1715744255373681544,0.184,,,,14.919471428
1715744255381375912,0.179,,,,14.927165796
1715744255389070280,0.167,,,,14.934860164
1715744255396764648,0.167,,,,14.942554532
1715744255404459016,0.164,,,,14.9502489
1715744255412153384,0.159,,,,14.957943268
1715744255419847752,0.157,,,,14.965637636
1715744255427542120,0.152,,,,14.973332004
1715744255435236488,0.145,,,,14.981026372
1715744255442930856,0.145,,,,14.98872074
1715744255450625224,0.14,,,,14.996415108
1715744255458319592,0.13,,,,15.004109476
1715744255466013960,0.125,,,,15.011803844
1715744255473708328,0.123,,,,15.019498212
1715744255481402696,0.116,,,,15.02719258
1715744255489097064,0.101,,,,15.034886948
1715744255496791432,0.089,,,,15.042581316
1715744255504485800,0.082,,,,15.050275684
1715744255512180168,0.075,,,,15.057970052
1715744255519874536,0.058,,,,15.06566442
1715744255527568904,0.05,,,,15.073358788
1715744255535263272,0.048,,,,15.081053156
1715744255542957640,0.041,,,,15.088747524
1715744255550652008,0.036,,,,15.096441892
1715744255558346376,0.031,,,,15.10413626
1715744255566040744,0.029,,,,15.111830628
1715744255573735112,0.031,,,,15.119524996
1715744255581429480,0.048,,,,15.127219364
1715744255589123848,0.077,,,,15.134913732
1715744255596818216,0.099,,,,15.1426081
1715744255604512584,0.121,,,,15.150302468
1715744255612206952,0.14,,,,15.157996836
1715744255619901332,0.154,94.0,592.0,,15.165691216
1715744255627595700,0.162,,598.0,,15.173385584
1715744255635290068,0.164,,,,15.181079952
1715744255642984436,0.167,,,,15.18877432
1715744255650678804,0.169,,,,15.196468688
1715744255658373172,0.164,,,,15.204163056
1715744255666067540,0.157,,,,15.211857424
1715744255673761908,0.154,,,,15.219551792
1715744255681456276,0.159,,,,15.22724616
1715744255689150644,0.154,,,,15.234940528
1715744255696845012,0.145,,,,15.242634896
1715744255704539380,0.142,,,,15.250329264
1715744255712233748,0.142,,,,15.258023632
1715744255719928116,0.14,,,,15.265718
1715744255727622484,0.142,,,,15.273412368
1715744255735316852,0.142,,,,15.281106736
1715744255743011220,0.138,,,,15.288801104
1715744255750705588,0.135,,,,15.296495472
1715744255758399956,0.138,,,,15.30418984
1715744255766094324,0.138,,,,15.311884208
1715744255773788692,0.142,,,,15.319578576
1715744255781483060,0.142,,,,15.327272944
1715744255789177428,0.147,,,,15.334967312
1715744255796871796,0.147,,,,15.34266168
1715744255804566164,0.145,,,,15.350356048
1715744255812260532,0.142,,,,15.358050416
1715744255819954900,0.15,,,,15.365744784
1715744255827649268,0.157,,,,15.373439152
1715744255835343636,0.159,,,,15.38113352
1715744255843038004,0.157,,,,15.388827888
1715744255850732372,0.157,,,,15.396522256
1715744255858426740,0.157,,,,15.404216624
1715744255866121108,0.142,,,,15.411910992
1715744255873815476,0.121,,,,15.41960536
1715744255881509844,0.118,,,,15.427299728
1715744255889204212,0.121,,,,15.434994096
1715744255896898580,0.118,,,,15.442688464
1715744255904592948,0.125,,,,15.450382832
1715744255912287316,0.15,,,,15.4580772
1715744255919981684,0.162,,,,15.465771568
1715744255927676052,0.159,,,,15.473465936
1715744255935370420,0.162,,,,15.481160304
1715744255943064788,0.164,,,,15.488854672
1715744255950759156,0.162,,,,15.49654904
1715744255958453524,0.159,,,,15.504243408
1715744255966147892,0.169,,,,15.511937776
1715744255973842260,0.171,,,,15.519632144
1715744255981536628,0.171,,,,15.527326512
1715744255989230996,0.157,,,,15.53502088
1715744255996925364,0.058,,,,15.542715248
1715744256004619732,-0.176,,,,15.550409616
1715744256012314100,-0.389,,,,15.558103984
1715744256020008468,-0.341,,,,15.565798352
1715744256027702836,-0.029,,,,15.57349272
1715744256035397204,0.225,,,,15.581187088
1715744256043091572,0.23,,,,15.588881456
1715744256050785940,0.171,,,,15.596575824
1715744256058480308,0.2,,,,15.604270192
1715744256066174676,0.222,,,,15.61196456
1715744256073869044,0.203,,,,15.619658928
1715744256081563412,0.196,,,,15.627353296
1715744256089257780,0.198,,,,15.635047664
1715744256096952148,0.196,,,,15.642742032
1715744256104646516,0.188,,,,15.6504364
1715744256112340884,0.181,,,,15.658130768
1715744256120035252,0.174,,,,15.665825136
1715744256127729620,0.174,,,,15.673519504
1715744256135423988,0.171,,,,15.681213872
1715744256143118356,0.162,,,,15.68890824
1715744256150812724,0.154,,,,15.696602608
1715744256158507092,0.147,,,,15.704296976
1715744256166201460,0.14,,,,15.711991344
1715744256173895828,0.135,,,,15.719685712
1715744256181590208,0.125,95.0,636.0,,15.727380092
1715744256189284576,0.116,,,,15.73507446
1715744256196978944,0.104,,,,15.742768828
1715744256204673312,0.089,,,,15.750463196
1715744256212367680,0.084,,,,15.758157564
1715744256220062048,0.077,,,,15.765851932
1715744256227756416,0.06,,,,15.7735463
1715744256235450784,0.046,,,,15.781240668
1715744256243145152,0.046,,,,15.788935036
1715744256250839520,0.053,,,,15.796629404
1715744256258533888,0.05,,,,15.804323772
1715744256266228256,0.046,,,,15.81201814
1715744256273922624,0.072,,,,15.819712508
1715744256281616992,0.108,,,,15.827406876
1715744256289311360,0.133,,,,15.835101244
1715744256297005728,0.159,,,,15.842795612
1715744256304700096,0.176,,,,15.85048998
1715744256312394464,0.184,,,,15.858184348
1715744256320088832,0.193,,,,15.865878716
1715744256327783200,0.198,,,,15.873573084
1715744256335477568,0.198,,,,15.881267452
1715744256343171936,0.2,,,,15.88896182
1715744256350866304,0.2,,,,15.896656188
1715744256358560672,0.196,,,,15.904350556
1715744256366255040,0.191,,,,15.912044924
1715744256373949408,0.181,,,,15.919739292
1715744256381643776,0.169,,,,15.92743366
1715744256389338144,0.169,,,,15.935128028
1715744256397032512,0.176,,,,15.942822396
1715744256404726880,0.174,,,,15.950516764
1715744256412421248,0.171,,,,15.958211132
1715744256420115616,0.171,,,,15.9659055
1715744256427809984,0.167,,,,15.973599868
1715744256435504352,0.167,,,,15.981294236
1715744256443198720,0.176,,,,15.988988604
1715744256450893088,0.176,,,,15.996682972
1715744256458587456,0.171,,,,16.00437734
1715744256466281824,0.181,,,,16.012071708
1715744256473976192,0.184,,,,16.019766076
1715744256481670560,0.164,,,,16.027460444
1715744256489364928,0.15,,,,16.035154812
1715744256497059296,0.15,,,,16.04284918
1715744256504753664,0.145,,,,16.050543548
1715744256512448032,0.15,,,,16.058237916
1715744256520142400,0.167,,,,16.065932284
1715744256527836768,0.174,,,,16.073626652
1715744256535531136,0.179,,,,16.08132102
1715744256543225504,0.184,,,,16.089015388
1715744256550919872,0.181,,,,16.096709756
1715744256558614240,0.179,,,,16.104404124
1715744256566308608,0.181,,,,16.112098492
1715744256574002976,0.184,,,,16.11979286
1715744256581697344,0.179,,,,16.127487228
1715744256589391712,0.176,,,,16.135181596
1715744256597086080,0.188,,,,16.142875964
1715744256604780448,0.159,,,,16.150570332
1715744256612474816,-0.026,,,,16.1582647
1715744256620169184,-0.319,,,,16.165959068
1715744256627863552,-0.443,,,,16.173653436
1715744256635557920,-0.225,,,,16.181347804
1715744256643252288,0.14,,,,16.189042172
1715744256650946656,0.288,,,,16.19673654
1715744256658641024,0.205,,,,16.204430908
1715744256666335392,0.176,,,,16.212125276
1715744256674029760,0.222,,,,16.219819644
1715744256681724128,0.215,,,,16.227514012
1715744256689418496,0.188,,,,16.23520838
1715744256697112864,0.198,,,,16.242902748
1715744256704807232,0.2,,,,16.250597116
1715744256712501600,0.184,,,,16.258291484
1715744256720195968,0.171,,,,16.265985852
1715744256727890336,0.164,,,,16.27368022
1715744256735584704,0.157,,,,16.281374588
1715744256743279084,0.152,,,,16.289068968
1715744256750973452,0.15,,,,16.296763336
1715744256758667820,0.14,,,,16.304457704
1715744256766362188,0.133,,,,16.312152072
1715744256774056556,0.116,,,,16.31984644
1715744256781750924,0.094,,,,16.327540808
1715744256789445292,0.092,,,,16.335235176
1715744256797139660,0.094,,,,16.342929544
1715744256804834028,0.079,,,,16.350623912
1715744256812528396,0.065,,,,16.35831828
1715744256820222764,0.055,,,,16.366012648
1715744256827917132,0.043,,,,16.373707016
1715744256835611500,0.031,,,,16.381401384
1715744256843305868,0.026,,,,16.389095752
1715744256851000236,0.024,,,,16.39679012
1715744256858694604,0.016,,,,16.404484488
1715744256866388972,0.012,,,,16.412178856
1715744256874083340,0.024,,,,16.419873224
1715744256881777708,0.046,,,,16.427567592
1715744256889472076,0.075,,,,16.43526196
1715744256897166444,0.104,,,,16.442956328
1715744256904860812,0.133,,,,16.450650696
1715744256912555180,0.154,,,,16.458345064
1715744256920249548,0.167,,,,16.466039432
1715744256927943916,0.171,,,,16.4737338
1715744256935638284,0.174,,,,16.481428168
1715744256943332652,0.176,,,,16.489122536
1715744256951027020,0.176,,,,16.496816904
1715744256958721388,0.167,,,,16.504511272
1715744256966415756,0.159,,,,16.51220564
1715744256974110124,0.159,,,,16.519900008
1715744256981804492,0.159,,,,16.527594376
1715744256989498860,0.157,,,,16.535288744
1715744256997193228,0.154,,,,16.542983112
1715744257004887596,0.15,,,,16.55067748
1715744257012581964,0.15,,,,16.558371848
1715744257020276332,0.15,,,,16.566066216
1715744257027970700,0.147,,,,16.573760584
1715744257035665068,0.147,,,,16.581454952
1715744257043359436,0.147,,,,16.58914932
1715744257051053804,0.145,,,,16.596843688
1715744257058748172,0.15,,,,16.604538056
1715744257066442540,0.152,,,,16.612232424
1715744257074136908,0.142,,,,16.619926792
1715744257081831276,0.133,,,,16.62762116
1715744257089525644,0.125,,,,16.635315528
1715744257097220012,0.116,,,,16.643009896
1715744257104914380,0.123,,,,16.650704264
1715744257112608748,0.142,,,,16.658398632
1715744257120303116,0.152,,,,16.666093
1715744257127997484,0.152,,,,16.673787368
1715744257135691852,0.152,,,,16.681481736
1715744257143386220,0.157,,,,16.689176104
1715744257151080588,0.164,,,,16.696870472
1715744257158774956,0.162,,,,16.70456484
1715744257166469324,0.154,,,,16.712259208
1715744257174163692,0.152,,,,16.719953576
1715744257181858060,0.154,,,,16.727647944
1715744257189552428,0.154,,,,16.735342312
1715744257197246796,0.096,,,,16.74303668
1715744257204941164,-0.121,,,,16.750731048
1715744257212635532,-0.411,,,,16.758425416
1715744257220329900,-0.489,,,,16.766119784
1715744257228024268,-0.213,,,,16.773814152
1715744257235718636,0.147,,,,16.78150852
1715744257243413004,0.242,,,,16.789202888
1715744257251107372,0.157,,,,16.796897256
1715744257258801740,0.157,,,,16.804591624
1715744257266496108,0.196,,,,16.812285992
1715744257274190476,0.179,,,,16.81998036
1715744257281884844,0.167,,,,16.827674728
1715744257289579212,0.171,,,,16.835369096
1715744257297273580,0.159,,,,16.843063464
1715744257304967962,0.15,95.0,672.0,,16.850757846
1715744257312662678,0.152,,689.0,,16.858452562
1715744257320357394,0.145,,,,16.866147278
1715744257328052110,0.133,,,,16.873841994
1715744257335746826,0.13,,,,16.88153671
1715744257343441542,0.125,,,,16.889231426
1715744257351136258,0.121,,,,16.896926142
1715744257358830974,0.113,,,,16.904620858
1715744257366525690,0.099,,,,16.912315574
1715744257374220406,0.082,,,,16.92001029
1715744257381915122,0.067,,,,16.927705006
1715744257389609838,0.062,,,,16.935399722
1715744257397304554,0.05,,,,16.943094438
1715744257404999270,0.029,,,,16.950789154
1715744257412693986,0.014,,,,16.95848387
1715744257420388702,0.004,,,,16.966178586
1715744257428083418,-0.004,,,,16.973873302
1715744257435778134,-0.012,,,,16.981568018
1715744257443472850,-0.016,,,,16.989262734
1715744257451167566,-0.014,,,,16.99695745
1715744257458862282,-0.012,,,,17.004652166
1715744257466556998,-0.002,,,,17.012346882
1715744257474251714,0.021,,,,17.020041598
1715744257481946430,0.053,,,,17.027736314
1715744257489641146,0.084,,,,17.03543103
1715744257497335862,0.108,,,,17.043125746
1715744257505030578,0.125,,,,17.050820462
1715744257512725294,0.138,,,,17.058515178
1715744257520420010,0.138,,,,17.066209894
1715744257528114726,0.138,,,,17.07390461
1715744257535809442,0.142,,,,17.081599326
1715744257543504158,0.147,,,,17.089294042
1715744257551198874,0.145,,,,17.096988758
1715744257558893590,0.138,,,,17.104683474
1715744257566588306,0.138,,,,17.11237819
1715744257574283022,0.14,,,,17.120072906
1715744257581977738,0.135,,,,17.127767622
1715744257589672454,0.13,,,,17.135462338
1715744257597367170,0.128,,,,17.143157054
1715744257605061886,0.125,,,,17.15085177
1715744257612756602,0.123,,,,17.158546486
1715744257620451318,0.125,,,,17.166241202
1715744257628146034,0.133,,,,17.173935918
1715744257635840750,0.135,,,,17.181630634
1715744257643535466,0.13,,,,17.18932535
1715744257651230182,0.135,,,,17.197020066
1715744257658924898,0.14,,,,17.204714782
1715744257666619614,0.133,,,,17.212409498
1715744257674314330,0.116,,,,17.220104214
1715744257682009046,0.108,,,,17.22779893
1715744257689703762,0.108,,,,17.235493646
1715744257697398478,0.108,,,,17.243188362
1715744257705093194,0.116,,,,17.250883078
1715744257712787910,0.13,,,,17.258577794
1715744257720482626,0.138,,,,17.26627251
1715744257728177342,0.135,,,,17.273967226
1715744257735872058,0.133,,,,17.281661942
1715744257743566774,0.138,,,,17.289356658
1715744257751261490,0.145,,,,17.297051374
1715744257758956206,0.142,,,,17.30474609
1715744257766650922,0.138,,,,17.312440806
1715744257774345638,0.14,,,,17.320135522
1715744257782040354,0.147,,,,17.327830238
1715744257789735070,0.142,,,,17.335524954
1715744257797429786,0.038,,,,17.34321967
1715744257805124502,-0.215,,,,17.350914386
1715744257812819218,-0.455,,,,17.358609102
1715744257820513934,-0.433,,,,17.366303818
1715744257828208650,-0.108,,,,17.373998534
1715744257835903366,0.208,,,,17.38169325
1715744257843598082,0.232,,,,17.389387966
1715744257851292798,0.147,,,,17.397082682
1715744257858987514,0.179,,,,17.404777398
1715744257866682270,0.213,,,,17.412472154
1715744257874376707,0.184,,,,17.420166591
1715744257882071144,0.171,,,,17.427861028
1715744257889765581,0.171,,,,17.435555465
1715744257897460018,0.157,,,,17.443249902
1715744257905154455,0.15,,,,17.450944339
1715744257912848892,0.15,,,,17.458638776
1715744257920543329,0.142,,,,17.466333213
1715744257928237766,0.135,,,,17.47402765
1715744257935932203,0.125,,,,17.481722087
1715744257943626640,0.113,,,,17.489416524
1715744257951321077,0.104,,,,17.497110961
1715744257959015514,0.094,,,,17.504805398
1715744257966709951,0.084,,,,17.512499835
1715744257974404388,0.075,,,,17.520194272
1715744257982098825,0.065,,,,17.527888709
1715744257989793262,0.06,,,,17.535583146
1715744257997487699,0.05,,,,17.543277583
1715744258005182136,0.033,,,,17.55097202
1715744258012876573,0.024,,,,17.558666457
1715744258020571010,0.019,,,,17.566360894
1715744258028265447,0.012,,,,17.574055331
1715744258035959884,0.004,,,,17.581749768
1715744258043654321,0.002,,,,17.589444205
1715744258051348758,0.004,,,,17.597138642
1715744258059043195,0.004,,,,17.604833079
1715744258066737632,0.016,,,,17.612527516
1715744258074432069,0.05,,,,17.620221953
1715744258082126506,0.084,,,,17.62791639
1715744258089820943,0.104,,,,17.635610827
1715744258097515380,0.125,,,,17.643305264
1715744258105209817,0.147,,,,17.650999701
1715744258112904254,0.15,,,,17.658694138
1715744258120598691,0.152,,,,17.666388575
1715744258128293128,0.159,,,,17.674083012
1715744258135987565,0.157,,,,17.681777449
1715744258143682002,0.15,,,,17.689471886
1715744258151376439,0.15,,,,17.697166323
1715744258159070876,0.15,,,,17.70486076
1715744258166765313,0.147,,,,17.712555197
1715744258174459750,0.145,,,,17.720249634
1715744258182154187,0.145,,,,17.727944071
1715744258189848624,0.145,,,,17.735638508
1715744258197543061,0.14,,,,17.743332945
1715744258205237498,0.133,,,,17.751027382
1715744258212931935,0.13,,,,17.758721819
1715744258220626372,0.138,,,,17.766416256
1715744258228320809,0.14,,,,17.774110693
1715744258236015246,0.138,,,,17.78180513
1715744258243709683,0.135,,,,17.789499567
1715744258251404120,0.138,,,,17.797194004
1715744258259098557,0.142,,,,17.804888441
1715744258266792994,0.15,,,,17.812582878
1715744258274487431,0.147,,,,17.820277315
1715744258282181868,0.135,,,,17.827971752
1715744258289876305,0.125,,,,17.835666189
1715744258297570742,0.116,,,,17.843360626
1715744258305265179,0.111,,,,17.851055063
1715744258312959616,0.116,,,,17.8587495
1715744258320654053,0.128,,,,17.866443937
1715744258328348490,0.142,,,,17.874138374
1715744258336042927,0.15,,,,17.881832811
1715744258343737364,0.147,,,,17.889527248
1715744258351431801,0.145,,,,17.897221685
1715744258359126238,0.15,,,,17.904916122
1715744258366820675,0.154,,,,17.912610559
1715744258374515112,0.154,,,,17.920304996
1715744258382209549,0.15,,,,17.927999433
1715744258389903986,0.142,,,,17.93569387
1715744258397598423,0.142,,,,17.943388307
1715744258405292860,0.128,,,,17.951082744
1715744258412987297,0.002,,,,17.958777181
1715744258420681734,-0.254,,,,17.966471618
1715744258428376232,-0.455,94.0,612.0,,17.974166116
1715744258436070600,-0.377,,,,17.981860484
1715744258443764968,-0.038,,,,17.989554852
1715744258451459336,0.213,,,,17.99724922
1715744258459153704,0.188,,,,18.004943588
1715744258466848072,0.13,,,,18.012637956
1715744258474542440,0.174,,,,18.020332324
1715744258482236808,0.188,,,,18.028026692
1715744258489931176,0.159,,,,18.03572106
1715744258497625544,0.164,,,,18.043415428
1715744258505319912,0.167,,,,18.051109796
1715744258513014280,0.145,,,,18.058804164
1715744258520708648,0.135,,,,18.066498532
1715744258528403016,0.138,,,,18.0741929
1715744258536097384,0.133,,,,18.081887268
1715744258543791752,0.125,,,,18.089581636
1715744258551486120,0.125,,,,18.097276004
1715744258559180488,0.121,,,,18.104970372
1715744258566874856,0.111,,,,18.11266474
1715744258574569224,0.106,,,,18.120359108
1715744258582263592,0.101,,,,18.128053476
1715744258589957960,0.089,,,,18.135747844
1715744258597652328,0.079,,,,18.143442212
1715744258605346696,0.072,,,,18.15113658
1715744258613041064,0.058,,,,18.158830948
1715744258620735432,0.048,,,,18.166525316
1715744258628429800,0.048,,,,18.174219684
1715744258636124168,0.043,,,,18.181914052
1715744258643818536,0.031,,,,18.18960842
1715744258651512904,0.021,,,,18.197302788
1715744258659207272,0.014,,,,18.204997156
1715744258666901640,0.012,,,,18.212691524
1715744258674596008,0.016,,,,18.220385892
1715744258682290376,0.033,,,,18.22808026
1715744258689984744,0.058,,,,18.235774628
1715744258697679112,0.082,,,,18.243468996
1715744258705373480,0.106,,,,18.251163364
1715744258713067848,0.123,,,,18.258857732
1715744258720762216,0.133,,,,18.2665521
1715744258728456584,0.147,,,,18.274246468
1715744258736150952,0.154,,,,18.281940836
1715744258743845320,0.152,,,,18.289635204
1715744258751539688,0.147,,,,18.297329572
1715744258759234056,0.145,,,,18.30502394
1715744258766928424,0.147,,,,18.312718308
1715744258774622792,0.15,,,,18.320412676
1715744258782317160,0.15,,,,18.328107044
1715744258790011528,0.145,,,,18.335801412
1715744258797705896,0.142,,,,18.34349578
1715744258805400264,0.14,,,,18.351190148
1715744258813094632,0.142,,,,18.358884516
1715744258820789000,0.147,,,,18.366578884
1715744258828483368,0.15,,,,18.374273252
1715744258836177736,0.147,,,,18.38196762
1715744258843872104,0.142,,,,18.389661988
1715744258851566472,0.14,,,,18.397356356
1715744258859260840,0.145,,,,18.405050724
1715744258866955208,0.147,,,,18.412745092
1715744258874649576,0.147,,,,18.42043946
1715744258882343944,0.15,,,,18.428133828
1715744258890038312,0.147,,,,18.435828196
1715744258897732680,0.133,,,,18.443522564
1715744258905427048,0.128,,,,18.451216932
1715744258913121416,0.138,,,,18.4589113
1715744258920815784,0.147,,,,18.466605668
1715744258928510152,0.15,,,,18.474300036
1715744258936204520,0.142,,,,18.481994404
1715744258943898888,0.121,,,,18.489688772
1715744258951593256,0.111,,,,18.49738314
1715744258959287624,0.116,,,,18.505077508
1715744258966981992,0.116,,,,18.512771876
1715744258974676360,0.116,,,,18.520466244
1715744258982370728,0.13,,,,18.528160612
1715744258990065108,0.145,,,,18.535854992
1715744258997759476,0.152,,,,18.54354936
1715744259005453844,0.152,,,,18.551243728
1715744259013148212,0.154,,,,18.558938096
1715744259020842580,0.157,,,,18.566632464
1715744259028536948,0.154,,,,18.574326832
1715744259036231316,0.15,,,,18.5820212
1715744259043925684,0.147,,,,18.589715568
1715744259051620052,0.147,,,,18.597409936
1715744259059314420,0.145,,,,18.605104304
1715744259067008788,0.106,,,,18.612798672
1715744259074703156,-0.058,,,,18.62049304
1715744259082397524,-0.305,,,,18.628187408
1715744259090091892,-0.414,,,,18.635881776
1715744259097786260,-0.232,,,,18.643576144
1715744259105480628,0.089,,,,18.651270512
1715744259113174996,0.222,,,,18.65896488
1715744259120869364,0.162,,,,18.666659248
1715744259128563732,0.154,,,,18.674353616
1715744259136258100,0.196,,,,18.682047984
1715744259143952468,0.186,,,,18.689742352
1715744259151646836,0.169,,,,18.69743672
1715744259159341204,0.176,,,,18.705131088
1715744259167035572,0.171,,,,18.712825456
1715744259174729940,0.157,,,,18.720519824
1715744259182424308,0.154,,,,18.728214192
1715744259190118676,0.15,,,,18.73590856
1715744259197813044,0.138,,,,18.743602928
1715744259205507412,0.135,,,,18.751297296
1715744259213201780,0.135,,,,18.758991664
1715744259220896148,0.128,,,,18.766686032
1715744259228590516,0.118,,,,18.7743804
1715744259236284884,0.116,,,,18.782074768
1715744259243979252,0.111,,,,18.789769136
1715744259251673620,0.104,,,,18.797463504
1715744259259367988,0.089,,,,18.805157872
1715744259267062356,0.075,,,,18.81285224
1715744259274756724,0.065,,,,18.820546608
1715744259282451092,0.062,,,,18.828240976
1715744259290145460,0.055,,,,18.835935344
1715744259297839828,0.046,,,,18.843629712
1715744259305534196,0.041,,,,18.85132408
1715744259313228564,0.031,,,,18.859018448
1715744259320922932,0.019,,,,18.866712816
1715744259328617300,0.019,,,,18.874407184
1715744259336311668,0.026,,,,18.882101552
1715744259344006036,0.041,,,,18.88979592
1715744259351700404,0.058,,,,18.897490288
1715744259359394772,0.082,,,,18.905184656
1715744259367089140,0.111,,,,18.912879024
1715744259374783508,0.133,,,,18.920573392
1715744259382477876,0.14,,,,18.92826776
1715744259390172244,0.145,,,,18.935962128
1715744259397866612,0.145,,,,18.943656496
1715744259405560980,0.135,,,,18.951350864
1715744259413255348,0.135,,,,18.959045232
1715744259420949716,0.14,,,,18.9667396
1715744259428644084,0.135,,,,18.974433968
1715744259436338452,0.128,,,,18.982128336
1715744259444032820,0.125,,,,18.989822704
1715744259451727188,0.125,,,,18.997517072
1715744259459421556,0.125,,,,19.00521144
1715744259467115924,0.13,,,,19.012905808
1715744259474810292,0.133,,,,19.020600176
1715744259482504660,0.133,,,,19.028294544
1715744259490199028,0.135,,,,19.035988912
1715744259497893396,0.133,,,,19.04368328
1715744259505587764,0.13,,,,19.051377648
1715744259513282132,0.133,,,,19.059072016
1715744259520976500,0.14,,,,19.066766384
1715744259528670868,0.14,,,,19.074460752
1715744259536365236,0.138,,,,19.08215512
1715744259544059604,0.138,,,,19.089849488
1715744259551753984,0.14,95.0,591.0,,19.097543868
1715744259559448352,0.142,,599.0,,19.105238236
1715744259567142720,0.15,,,,19.112932604
1715744259574837088,0.154,,,,19.120626972
1715744259582531456,0.15,,,,19.12832134
1715744259590225824,0.13,,,,19.136015708
1715744259597920192,0.113,,,,19.143710076
1715744259605614560,0.118,,,,19.151404444
1715744259613308928,0.125,,,,19.159098812
1715744259621003296,0.123,,,,19.16679318
1715744259628697664,0.13,,,,19.174487548
1715744259636392032,0.147,,,,19.182181916
1715744259644086400,0.157,,,,19.189876284
1715744259651780768,0.157,,,,19.197570652
1715744259659475136,0.159,,,,19.20526502
1715744259667169504,0.162,,,,19.212959388
1715744259674863872,0.159,,,,19.220653756
1715744259682558240,0.154,,,,19.228348124
1715744259690252608,0.152,,,,19.236042492
1715744259697946976,0.159,,,,19.24373686
1715744259705641344,0.169,,,,19.251431228
1715744259713335712,0.128,,,,19.259125596
1715744259721030080,-0.038,,,,19.266819964
1715744259728724448,-0.283,,,,19.274514332
1715744259736418816,-0.384,,,,19.2822087
1715744259744113184,-0.2,,,,19.289903068
1715744259751807552,0.111,,,,19.297597436
1715744259759501920,0.244,,,,19.305291804
1715744259767196288,0.186,,,,19.312986172
1715744259774890656,0.169,,,,19.32068054
1715744259782585024,0.208,,,,19.328374908
1715744259790279392,0.208,,,,19.336069276
1715744259797973760,0.196,,,,19.343763644
1715744259805668128,0.2,,,,19.351458012
1715744259813362496,0.196,,,,19.35915238
1715744259821056864,0.184,,,,19.366846748
1715744259828751232,0.184,,,,19.374541116
1715744259836445600,0.181,,,,19.382235484
1715744259844139968,0.174,,,,19.389929852
1715744259851834336,0.169,,,,19.39762422
1715744259859528704,0.171,,,,19.405318588
1715744259867223072,0.164,,,,19.413012956
1715744259874917440,0.154,,,,19.420707324
1715744259882611808,0.152,,,,19.428401692
1715744259890306176,0.15,,,,19.43609606
1715744259898000544,0.138,,,,19.443790428
1715744259905694912,0.121,,,,19.451484796
1715744259913389280,0.116,,,,19.459179164
1715744259921083648,0.111,,,,19.466873532
1715744259928778016,0.099,,,,19.4745679
1715744259936472384,0.089,,,,19.482262268
1715744259944166752,0.089,,,,19.489956636
1715744259951861120,0.082,,,,19.497651004
1715744259959555488,0.07,,,,19.505345372
1715744259967249856,0.065,,,,19.51303974
1715744259974944224,0.07,,,,19.520734108
1715744259982638592,0.079,,,,19.528428476
1715744259990332960,0.099,,,,19.536122844
1715744259998027328,0.125,,,,19.543817212
1715744260005721696,0.15,,,,19.55151158
1715744260013416064,0.169,,,,19.559205948
1715744260021110432,0.184,,,,19.566900316
1715744260028804800,0.188,,,,19.574594684
1715744260036499168,0.196,,,,19.582289052
1715744260044193536,0.2,,,,19.58998342
1715744260051887904,0.203,,,,19.597677788
1715744260059582272,0.198,,,,19.605372156
1715744260067276640,0.193,,,,19.613066524
1715744260074971008,0.193,,,,19.620760892
1715744260082665376,0.196,,,,19.62845526
1715744260090359744,0.196,,,,19.636149628
1715744260098054112,0.186,,,,19.643843996
1715744260105748480,0.181,,,,19.651538364
1715744260113442860,0.186,,,,19.659232744
1715744260121137228,0.191,,,,19.666927112
1715744260128831596,0.191,,,,19.67462148
1715744260136525964,0.184,,,,19.682315848
1715744260144220332,0.176,,,,19.690010216
1715744260151914700,0.179,,,,19.697704584
1715744260159609068,0.184,,,,19.705398952
1715744260167303436,0.181,,,,19.71309332
1715744260174997804,0.176,,,,19.720787688
1715744260182692172,0.179,,,,19.728482056
1715744260190386540,0.179,,,,19.736176424
1715744260198080908,0.167,,,,19.743870792
1715744260205775276,0.159,,,,19.75156516
1715744260213469644,0.154,,,,19.759259528
1715744260221164012,0.14,,,,19.766953896
1715744260228858380,0.123,,,,19.774648264
1715744260236552748,0.128,,,,19.782342632
1715744260244247116,0.145,,,,19.790037
1715744260251941484,0.159,,,,19.797731368
1715744260259635852,0.169,,,,19.805425736
1715744260267330220,0.171,,,,19.813120104
1715744260275024588,0.169,,,,19.820814472
1715744260282718956,0.169,,,,19.82850884
1715744260290413324,0.176,,,,19.836203208
1715744260298107692,0.176,,,,19.843897576
1715744260305802060,0.171,,,,19.851591944
1715744260313496428,0.174,,,,19.859286312
1715744260321190796,0.184,,,,19.86698068
1715744260328885164,0.152,,,,19.874675048
1715744260336579532,-0.002,,,,19.882369416
1715744260344273900,-0.268,,,,19.890063784
1715744260351968268,-0.418,,,,19.897758152
1715744260359662636,-0.246,,,,19.90545252
1715744260367357004,0.106,,,,19.913146888
1715744260375051372,0.28,,,,19.920841256
1715744260382745740,0.222,,,,19.928535624
1715744260390440108,0.186,,,,19.936229992
1715744260398134476,0.222,,,,19.94392436
1715744260405828844,0.213,,,,19.951618728
1715744260413523212,0.184,,,,19.959313096
1715744260421217580,0.181,,,,19.967007464
1715744260428911948,0.184,,,,19.974701832
1715744260436606316,0.174,,,,19.9823962
1715744260444300684,0.171,,,,19.990090568
1715744260451995052,0.176,,,,19.997784936
1715744260459689420,0.167,,,,20.005479304
1715744260467383788,0.152,,,,20.013173672
1715744260475078156,0.147,,,,20.02086804
1715744260482772524,0.15,,,,20.028562408
1715744260490466892,0.142,,,,20.036256776
1715744260498161260,0.135,,,,20.043951144
1715744260505855628,0.128,,,,20.051645512
1715744260513549996,0.121,,,,20.05933988
1715744260521244364,0.111,,,,20.067034248
1715744260528938732,0.104,,,,20.074728616
1715744260536633100,0.101,,,,20.082422984
1715744260544327468,0.101,,,,20.090117352
1715744260552021836,0.087,,,,20.09781172
1715744260559716204,0.075,,,,20.105506088
1715744260567410572,0.077,,,,20.113200456
1715744260575104940,0.072,,,,20.120894824
1715744260582799308,0.058,,,,20.128589192
1715744260590493676,0.06,,,,20.13628356
1715744260598188044,0.082,,,,20.143977928
1715744260605882412,0.099,,,,20.151672296
1715744260613576780,0.113,,,,20.159366664
1715744260621271148,0.138,,,,20.167061032
1715744260628965516,0.171,,,,20.1747554
1715744260636659884,0.186,,,,20.182449768
1715744260644354252,0.191,,,,20.190144136
1715744260652048620,0.2,,,,20.197838504
1715744260659742988,0.198,,,,20.205532872
1715744260667437356,0.193,,,,20.21322724
1715744260675131736,0.193,96.0,614.0,,20.22092162
1715744260682826104,0.193,,659.0,,20.228615988
1715744260690520472,0.188,,,,20.236310356
1715744260698214840,0.181,,,,20.244004724
1715744260705909208,0.171,,,,20.251699092
1715744260713603576,0.167,,,,20.25939346
1715744260721297944,0.167,,,,20.267087828
1715744260728992312,0.164,,,,20.274782196
1715744260736686680,0.164,,,,20.282476564
1715744260744381048,0.157,,,,20.290170932
1715744260752075416,0.157,,,,20.2978653
1715744260759769784,0.167,,,,20.305559668
1715744260767464152,0.167,,,,20.313254036
1715744260775158520,0.159,,,,20.320948404
1715744260782852888,0.164,,,,20.328642772
1715744260790547256,0.157,,,,20.33633714
1715744260798241624,0.142,,,,20.344031508
1715744260805935992,0.142,,,,20.351725876
1715744260813630360,0.142,,,,20.359420244
1715744260821324728,0.138,,,,20.367114612
1715744260829019096,0.152,,,,20.37480898
1715744260836713464,0.174,,,,20.382503348
1715744260844407832,0.174,,,,20.390197716
1715744260852102200,0.167,,,,20.397892084
1715744260859796568,0.176,,,,20.405586452
1715744260867490936,0.184,,,,20.41328082
1715744260875185304,0.174,,,,20.420975188
1715744260882879672,0.164,,,,20.428669556
1715744260890574040,0.171,,,,20.436363924
1715744260898268408,0.181,,,,20.444058292
1715744260905962776,0.174,,,,20.45175266
1715744260913657144,0.133,,,,20.459447028
1715744260921351512,-0.029,,,,20.467141396
1715744260929045880,-0.314,,,,20.474835764
1715744260936740248,-0.484,,,,20.482530132
1715744260944434616,-0.317,,,,20.4902245
1715744260952128984,0.067,,,,20.497918868
1715744260959823352,0.283,,,,20.505613236
1715744260967517720,0.215,,,,20.513307604
1715744260975212088,0.157,,,,20.521001972
1715744260982906456,0.208,,,,20.52869634
1715744260990600824,0.215,,,,20.536390708
1715744260998295192,0.188,,,,20.544085076
1715744261005989560,0.193,,,,20.551779444
1715744261013683928,0.191,,,,20.559473812
1715744261021378296,0.174,,,,20.56716818
1715744261029072664,0.171,,,,20.574862548
1715744261036767032,0.169,,,,20.582556916
1715744261044461400,0.159,,,,20.590251284
1715744261052155768,0.162,,,,20.597945652
1715744261059850136,0.152,,,,20.60564002
1715744261067544504,0.133,,,,20.613334388
1715744261075238872,0.13,,,,20.621028756
1715744261082933240,0.138,,,,20.628723124
1715744261090627608,0.125,,,,20.636417492
1715744261098321976,0.111,,,,20.64411186
1715744261106016344,0.108,,,,20.651806228
1715744261113710712,0.099,,,,20.659500596
1715744261121405080,0.087,,,,20.667194964
1715744261129099448,0.082,,,,20.674889332
1715744261136793816,0.084,,,,20.6825837
1715744261144488184,0.077,,,,20.690278068
1715744261152182552,0.06,,,,20.697972436
1715744261159876920,0.048,,,,20.705666804
1715744261167571288,0.048,,,,20.713361172
1715744261175265656,0.055,,,,20.72105554
1715744261182960024,0.06,,,,20.728749908
1715744261190654392,0.079,,,,20.736444276
1715744261198348760,0.108,,,,20.744138644
1715744261206043128,0.125,,,,20.751833012
1715744261213737496,0.145,,,,20.75952738
1715744261221431864,0.167,,,,20.767221748
1715744261229126232,0.171,,,,20.774916116
1715744261236820614,0.169,96.0,646.0,,20.782610498
1715744261244514982,0.169,,,,20.790304866
1715744261252209350,0.167,,,,20.797999234
1715744261259903718,0.167,,,,20.805693602
1715744261267598086,0.167,,,,20.81338797
1715744261275292454,0.159,,,,20.821082338
1715744261282986822,0.154,,,,20.828776706
1715744261290681190,0.152,,,,20.836471074
1715744261298375558,0.147,,,,20.844165442
1715744261306069926,0.135,,,,20.85185981
1715744261313764294,0.13,,,,20.859554178
1715744261321458662,0.133,,,,20.867248546
1715744261329153030,0.133,,,,20.874942914
1715744261336847398,0.128,,,,20.882637282
1715744261344541766,0.13,,,,20.89033165
1715744261352236134,0.138,,,,20.898026018
1715744261359930502,0.13,,,,20.905720386
1715744261367624870,0.113,,,,20.913414754
1715744261375319238,0.106,,,,20.921109122
1715744261383013606,0.104,,,,20.92880349
1715744261390707974,0.099,,,,20.936497858
1715744261398402342,0.099,,,,20.944192226
1715744261406096710,0.101,,,,20.951886594
1715744261413791078,0.104,,,,20.959580962
1715744261421485446,0.108,,,,20.96727533
1715744261429179814,0.113,,,,20.974969698
1715744261436874182,0.121,,,,20.982664066
1715744261444568550,0.121,,,,20.990358434
1715744261452262918,0.118,,,,20.998052802
1715744261459957286,0.123,,,,21.00574717
1715744261467651654,0.123,,,,21.013441538
1715744261475346022,0.121,,,,21.021135906
1715744261483040390,0.128,,,,21.028830274
1715744261490734758,0.099,,,,21.036524642
1715744261498429126,-0.072,,,,21.04421901
1715744261506123494,-0.36,,,,21.051913378
1715744261513817862,-0.515,,,,21.059607746
1715744261521512230,-0.336,,,,21.067302114
1715744261529206598,0.041,,,,21.074996482
1715744261536900966,0.239,,,,21.08269085
1715744261544595334,0.167,,,,21.090385218
1715744261552289702,0.125,,,,21.098079586
1715744261559984070,0.176,,,,21.105773954
1715744261567678438,0.176,,,,21.113468322
1715744261575372806,0.15,,,,21.12116269
1715744261583067174,0.157,,,,21.128857058
1715744261590761542,0.154,,,,21.136551426
1715744261598455910,0.138,,,,21.144245794
1715744261606150278,0.128,,,,21.151940162
1715744261613844646,0.125,,,,21.15963453
1715744261621539014,0.121,,,,21.167328898
1715744261629233382,0.116,,,,21.175023266
1715744261636927750,0.106,,,,21.182717634
1715744261644622118,0.094,,,,21.190412002
1715744261652316486,0.087,,,,21.19810637
1715744261660010854,0.077,,,,21.205800738
1715744261667705222,0.062,,,,21.213495106
1715744261675399590,0.053,,,,21.221189474
1715744261683093958,0.055,,,,21.228883842
1715744261690788326,0.046,,,,21.23657821
1715744261698482694,0.033,,,,21.244272578
1715744261706177062,0.029,,,,21.251966946
1715744261713871430,0.019,,,,21.259661314
1715744261721565798,0.007,,,,21.267355682
1715744261729260166,0.002,,,,21.27505005
1715744261736954534,0.002,,,,21.282744418
1715744261744648902,-0.002,,,,21.290438786
1715744261752343270,-0.009,,,,21.298133154
1715744261760037638,0.0,,,,21.305827522
1715744261767732006,0.021,,,,21.31352189
1715744261775426374,0.041,,,,21.321216258
1715744261783120742,0.065,,,,21.328910626
1715744261790815110,0.089,,,,21.336604994
1715744261798509490,0.101,,,,21.344299374
1715744261806203858,0.104,,,,21.351993742
1715744261813898226,0.101,,,,21.35968811
1715744261821592594,0.101,,,,21.367382478
1715744261829286962,0.104,,,,21.375076846
1715744261836981330,0.101,,,,21.382771214
1715744261844675698,0.087,,,,21.390465582
1715744261852370066,0.084,,,,21.39815995
1715744261860064434,0.087,,,,21.405854318
1715744261867758802,0.079,,,,21.413548686
1715744261875453170,0.062,,,,21.421243054
1715744261883147538,0.06,,,,21.428937422
1715744261890841906,0.065,,,,21.43663179
1715744261898536274,0.062,,,,21.444326158
1715744261906230642,0.058,,,,21.452020526
1715744261913925010,0.05,,,,21.459714894
1715744261921619378,0.041,,,,21.467409262
1715744261929313746,0.048,,,,21.47510363
1715744261937008114,0.05,,,,21.482797998
1715744261944702482,0.048,,,,21.490492366
1715744261952396850,0.053,,,,21.498186734
1715744261960091218,0.041,,,,21.505881102
1715744261967785586,0.024,,,,21.51357547
1715744261975479954,0.031,,,,21.521269838
1715744261983174322,0.041,,,,21.528964206
1715744261990868690,0.036,,,,21.536658574
1715744261998563058,0.041,,,,21.544352942
1715744262006257426,0.06,,,,21.55204731
1715744262013951794,0.079,,,,21.559741678
1715744262021646162,0.072,,,,21.567436046
1715744262029340530,0.062,,,,21.575130414
1715744262037034898,0.079,,,,21.582824782
1715744262044729266,0.089,,,,21.59051915
1715744262052423634,0.082,,,,21.598213518
1715744262060118002,0.082,,,,21.605907886
1715744262067812370,0.079,,,,21.613602254
1715744262075506738,0.082,,,,21.621296622
1715744262083201106,0.046,,,,21.62899099
1715744262090895474,-0.142,,,,21.636685358
1715744262098589842,-0.418,,,,21.644379726
1715744262106284210,-0.506,,,,21.652074094
1715744262113978578,-0.276,,,,21.659768462
1715744262121672946,0.053,,,,21.66746283
1715744262129367314,0.176,,,,21.675157198
1715744262137061682,0.113,,,,21.682851566
1715744262144756050,0.092,,,,21.690545934
1715744262152450418,0.125,,,,21.698240302
1715744262160144786,0.128,,,,21.70593467
1715744262167839154,0.118,,,,21.713629038
1715744262175533522,0.116,,,,21.721323406
1715744262183227890,0.111,,,,21.729017774
1715744262190922258,0.101,,,,21.736712142
1715744262198616626,0.101,,,,21.74440651
1715744262206310994,0.104,,,,21.752100878
1715744262214005362,0.096,,,,21.759795246
1715744262221699730,0.082,,,,21.767489614
1715744262229394098,0.082,,,,21.775183982
1715744262237088466,0.082,,,,21.78287835
1715744262244782834,0.07,,,,21.790572718
1715744262252477202,0.062,,,,21.798267086
1715744262260171570,0.06,,,,21.805961454
1715744262267865938,0.048,,,,21.813655822
1715744262275560306,0.038,,,,21.82135019
1715744262283254674,0.036,,,,21.829044558
1715744262290949042,0.029,,,,21.836738926
1715744262298643410,0.016,,,,21.844433294
1715744262306337778,0.014,,,,21.852127662
1715744262314032146,0.009,,,,21.85982203
1715744262321726514,-0.002,,,,21.867516398
1715744262329420882,-0.007,,,,21.875210766
1715744262337115250,-0.002,,,,21.882905134
1715744262344809618,0.002,,,,21.890599502
1715744262352503986,0.007,,,,21.89829387
1715744262360198366,0.024,95.0,616.0,,21.90598825
1715744262367892734,0.046,,585.0,,21.913682618
1715744262375587102,0.062,,,,21.921376986
1715744262383281470,0.084,,,,21.929071354
1715744262390975838,0.106,,,,21.936765722
1715744262398670206,0.111,,,,21.94446009
1715744262406364574,0.101,,,,21.952154458
1715744262414058942,0.101,,,,21.959848826
1715744262421753310,0.092,,,,21.967543194
1715744262429447678,0.067,,,,21.975237562
1715744262437142046,0.07,,,,21.98293193
1715744262444836414,0.077,,,,21.990626298
1715744262452530782,0.065,,,,21.998320666
1715744262460225150,0.058,,,,22.006015034
1715744262467919518,0.062,,,,22.013709402
1715744262475613886,0.067,,,,22.02140377
1715744262483308254,0.062,,,,22.029098138
1715744262491002622,0.06,,,,22.036792506
1715744262498696990,0.06,,,,22.044486874
1715744262506391358,0.062,,,,22.052181242
1715744262514085726,0.058,,,,22.05987561
1715744262521780094,0.053,,,,22.067569978
1715744262529474462,0.065,,,,22.075264346
1715744262537168830,0.072,,,,22.082958714
1715744262544863198,0.065,,,,22.090653082
1715744262552557566,0.065,,,,22.09834745
1715744262560251934,0.072,,,,22.106041818
1715744262567946302,0.06,,,,22.113736186
1715744262575640670,0.05,,,,22.121430554
1715744262583335038,0.05,,,,22.129124922
1715744262591029406,0.043,,,,22.13681929
1715744262598723774,0.041,,,,22.144513658
1715744262606418142,0.055,,,,22.152208026
1715744262614112510,0.067,,,,22.159902394
1715744262621806878,0.067,,,,22.167596762
1715744262629501246,0.065,,,,22.17529113
1715744262637195614,0.067,,,,22.182985498
1715744262644889982,0.07,,,,22.190679866
1715744262652584350,0.07,,,,22.198374234
1715744262660278718,0.07,,,,22.206068602
1715744262667973086,0.075,,,,22.21376297
1715744262675667454,0.082,,,,22.221457338
1715744262683361822,0.079,,,,22.229151706
1715744262691056190,0.075,,,,22.236846074
1715744262698750558,0.016,,,,22.244540442
1715744262706444926,-0.169,,,,22.25223481
1715744262714139294,-0.392,,,,22.259929178
1715744262721833662,-0.421,,,,22.267623546
1715744262729528030,-0.176,,,,22.275317914
1715744262737222398,0.099,,,,22.283012282
1715744262744916766,0.152,,,,22.29070665
1715744262752611134,0.087,,,,22.298401018
