time,ecg,hr,rr,marker,norm_time
1715744033191426744,0.116,100.0,602.0,,0.0
1715744033199121042,0.106,,589.0,,0.007694298
1715744033206815340,0.084,,,,0.015388596
1715744033214509638,0.077,,,,0.023082894
1715744033222203936,0.075,,,,0.030777192
1715744033229898234,0.062,,,,0.03847149
1715744033237592532,0.043,,,,0.046165788
1715744033245286830,0.031,,,,0.053860086
1715744033252981128,0.029,,,,0.061554384
1715744033260675426,0.024,,,,0.069248682
1715744033268369724,0.021,,,,0.07694298
1715744033276064022,0.031,,,,0.084637278
1715744033283758320,0.062,,,,0.092331576
1715744033291452618,0.089,,,,0.100025874
1715744033299146916,0.104,,,,0.107720172
1715744033306841214,0.133,,,,0.11541447
1715744033314535512,0.154,,,,0.123108768
1715744033322229810,0.154,,,,0.130803066
1715744033329924108,0.152,,,,0.138497364
1715744033337618406,0.154,,,,0.146191662
1715744033345312704,0.152,,,,0.15388596
1715744033353007002,0.147,,,,0.161580258
1715744033360701300,0.142,,,,0.169274556
1715744033368395598,0.142,,,,0.176968854
1715744033376089896,0.14,,,,0.184663152
1715744033383784194,0.138,,,,0.19235745
1715744033391478492,0.133,,,,0.200051748
1715744033399172790,0.135,,,,0.207746046
1715744033406867088,0.133,,,,0.215440344
1715744033414561386,0.13,,,,0.223134642
1715744033422255684,0.128,,,,0.23082894
1715744033429949982,0.128,,,,0.238523238
1715744033437644280,0.133,,,,0.246217536
1715744033445338578,0.138,,,,0.253911834
1715744033453032876,0.133,,,,0.261606132
1715744033460727174,0.13,,,,0.26930043
1715744033468421472,0.13,,,,0.276994728
1715744033476115770,0.125,,,,0.284689026
1715744033483810068,0.123,,,,0.292383324
1715744033491504366,0.13,,,,0.300077622
1715744033499198664,0.13,,,,0.30777192
1715744033506892962,0.118,,,,0.315466218
1715744033514587260,0.108,,,,0.323160516
1715744033522281558,0.099,,,,0.330854814
1715744033529975856,0.087,,,,0.338549112
1715744033537670154,0.082,,,,0.34624341
1715744033545364452,0.084,,,,0.353937708
1715744033553058750,0.094,,,,0.361632006
1715744033560753048,0.104,,,,0.369326304
1715744033568447346,0.111,,,,0.377020602
1715744033576141644,0.116,,,,0.3847149
1715744033583835942,0.113,,,,0.392409198
1715744033591530240,0.101,,,,0.400103496
1715744033599224538,0.104,,,,0.407797794
1715744033606918836,0.111,,,,0.415492092
1715744033614613134,0.108,,,,0.42318639
1715744033622307432,0.111,,,,0.430880688
1715744033630001730,0.121,,,,0.438574986
1715744033637696028,0.079,,,,0.446269284
1715744033645390326,-0.092,,,,0.453963582
1715744033653084624,-0.322,,,,0.46165788
1715744033660778922,-0.397,,,,0.469352178
1715744033668473220,-0.2,,,,0.477046476
1715744033676167518,0.084,,,,0.484740774
1715744033683861816,0.186,,,,0.492435072
1715744033691556114,0.138,,,,0.50012937
1715744033699250412,0.128,,,,0.507823668
1715744033706944710,0.154,,,,0.515517966
1715744033714639008,0.142,,,,0.523212264
1715744033722333306,0.123,,,,0.530906562
1715744033730027604,0.13,,,,0.53860086
1715744033737721902,0.135,,,,0.546295158
1715744033745416200,0.13,,,,0.553989456
1715744033753110534,0.125,,,,0.56168379
1715744033760804832,0.123,,,,0.569378088
1715744033768499130,0.108,,,,0.577072386
1715744033776193428,0.096,,,,0.584766684
1715744033783887726,0.099,,,,0.592460982
1715744033791582024,0.092,,,,0.60015528
1715744033799276322,0.082,,,,0.607849578
1715744033806970620,0.082,,,,0.615543876
1715744033814664918,0.082,,,,0.623238174
1715744033822359216,0.077,,,,0.630932472
1715744033830053514,0.072,,,,0.63862677
1715744033837747812,0.053,,,,0.646321068
1715744033845442110,0.033,,,,0.654015366
1715744033853136408,0.031,,,,0.661709664
1715744033860830706,0.029,,,,0.669403962
1715744033868525004,0.012,,,,0.67709826
1715744033876219302,0.002,,,,0.684792558
1715744033883913600,0.007,,,,0.692486856
1715744033891607898,0.007,,,,0.700181154
1715744033899302196,0.009,,,,0.707875452
1715744033906996494,0.029,,,,0.71556975
1715744033914690792,0.053,,,,0.723264048
1715744033922385090,0.077,,,,0.730958346
1715744033930079388,0.096,,,,0.738652644
1715744033937773686,0.113,,,,0.746346942
1715744033945467984,0.13,,,,0.75404124
1715744033953162282,0.142,,,,0.761735538
1715744033960856580,0.142,,,,0.769429836
1715744033968550878,0.14,,,,0.777124134
1715744033976245176,0.14,,,,0.784818432
1715744033983939474,0.138,,,,0.79251273
1715744033991633772,0.138,,,,0.800207028
1715744033999328070,0.142,,,,0.807901326
1715744034007022368,0.14,,,,0.815595624
1715744034014716666,0.125,,,,0.823289922
1715744034022410964,0.123,,,,0.83098422
1715744034030105262,0.125,,,,0.838678518
1715744034037799560,0.125,,,,0.846372816
1715744034045493858,0.123,,,,0.854067114
1715744034053188156,0.123,,,,0.861761412
1715744034060882454,0.118,,,,0.86945571
1715744034068576752,0.113,,,,0.877150008
1715744034076271050,0.111,,,,0.884844306
1715744034083965348,0.106,,,,0.892538604
1715744034091659646,0.104,,,,0.900232902
1715744034099353944,0.104,,,,0.9079272
1715744034107048242,0.099,,,,0.915621498
1715744034114742540,0.084,,,,0.923315796
1715744034122436838,0.077,,,,0.931010094
1715744034130131136,0.079,,,,0.938704392
1715744034137825434,0.079,,,,0.94639869
1715744034145519732,0.079,,,,0.954092988
1715744034153214030,0.094,,,,0.961787286
1715744034160908328,0.111,,,,0.969481584
1715744034168602626,0.116,,,,0.977175882
1715744034176296924,0.121,,,,0.98487018
1715744034183991222,0.128,,,,0.992564478
1715744034191685520,0.13,,,,1.000258776
1715744034199379818,0.125,,,,1.007953074
1715744034207074116,0.125,,,,1.015647372
1715744034214768414,0.128,,,,1.02334167
1715744034222462712,0.128,,,,1.031035968
1715744034230157010,0.133,,,,1.038730266
1715744034237851308,0.133,,,,1.046424564
1715744034245545606,0.06,,,,1.054118862
1715744034253239904,-0.14,,,,1.06181316
1715744034260934202,-0.334,,,,1.069507458
1715744034268628500,-0.297,,,,1.077201756
1715744034276322798,-0.038,,,,1.084896054
1715744034284017096,0.171,,,,1.092590352
1715744034291711394,0.179,,,,1.10028465
1715744034299405692,0.133,,,,1.107978948
1715744034307099990,0.147,,,,1.115673246
1715744034314794324,0.159,101.0,588.0,,1.12336758
1715744034322488622,0.145,,604.0,,1.131061878
1715744034330182920,0.14,,,,1.138756176
1715744034337877218,0.14,,,,1.146450474
1715744034345571516,0.125,,,,1.154144772
1715744034353265814,0.116,,,,1.16183907
1715744034360960112,0.118,,,,1.169533368
1715744034368654410,0.118,,,,1.177227666
1715744034376348708,0.113,,,,1.184921964
1715744034384043006,0.113,,,,1.192616262
1715744034391737304,0.111,,,,1.20031056
1715744034399431602,0.106,,,,1.208004858
1715744034407125900,0.104,,,,1.215699156
1715744034414820198,0.101,,,,1.223393454
1715744034422514496,0.092,,,,1.231087752
1715744034430208794,0.084,,,,1.23878205
1715744034437903092,0.077,,,,1.246476348
1715744034445597390,0.07,,,,1.254170646
1715744034453291688,0.06,,,,1.261864944
1715744034460985986,0.053,,,,1.269559242
1715744034468680284,0.048,,,,1.27725354
1715744034476374582,0.043,,,,1.284947838
1715744034484068880,0.043,,,,1.292642136
1715744034491763178,0.041,,,,1.300336434
1715744034499457476,0.038,,,,1.308030732
1715744034507151774,0.055,,,,1.31572503
1715744034514846072,0.084,,,,1.323419328
1715744034522540370,0.106,,,,1.331113626
1715744034530234668,0.13,,,,1.338807924
1715744034537928966,0.159,,,,1.346502222
1715744034545623264,0.179,,,,1.35419652
1715744034553317562,0.184,,,,1.361890818
1715744034561011860,0.188,,,,1.369585116
1715744034568706158,0.193,,,,1.377279414
1715744034576400456,0.193,,,,1.384973712
1715744034584094754,0.193,,,,1.39266801
1715744034591789052,0.186,,,,1.400362308
1715744034599483350,0.181,,,,1.408056606
1715744034607177648,0.176,,,,1.415750904
1715744034614871946,0.169,,,,1.423445202
1715744034622566244,0.164,,,,1.4311395
1715744034630260542,0.164,,,,1.438833798
1715744034637954840,0.157,,,,1.446528096
1715744034645649138,0.15,,,,1.454222394
1715744034653343436,0.147,,,,1.461916692
1715744034661037734,0.147,,,,1.46961099
1715744034668732032,0.138,,,,1.477305288
1715744034676426330,0.128,,,,1.484999586
1715744034684120628,0.133,,,,1.492693884
1715744034691814926,0.142,,,,1.500388182
1715744034699509224,0.14,,,,1.50808248
1715744034707203522,0.13,,,,1.515776778
1715744034714897820,0.121,,,,1.523471076
1715744034722592118,0.116,,,,1.531165374
1715744034730286416,0.111,,,,1.538859672
1715744034737980714,0.104,,,,1.54655397
1715744034745675012,0.106,,,,1.554248268
1715744034753369310,0.116,,,,1.561942566
1715744034761063608,0.123,,,,1.569636864
1715744034768757906,0.133,,,,1.577331162
1715744034776452204,0.145,,,,1.58502546
1715744034784146502,0.138,,,,1.592719758
1715744034791840800,0.121,,,,1.600414056
1715744034799535098,0.121,,,,1.608108354
1715744034807229396,0.128,,,,1.615802652
1715744034814923694,0.128,,,,1.62349695
1715744034822617992,0.128,,,,1.631191248
1715744034830312290,0.133,,,,1.638885546
1715744034838006588,0.135,,,,1.646579844
1715744034845700886,0.094,,,,1.654274142
1715744034853395184,-0.067,,,,1.66196844
1715744034861089482,-0.295,,,,1.669662738
1715744034868783780,-0.372,,,,1.677357036
1715744034876478114,-0.171,,,,1.68505137
1715744034884172482,0.118,,,,1.692745738
1715744034891866850,0.22,,,,1.700440106
1715744034899561218,0.162,,,,1.708134474
1715744034907255586,0.142,,,,1.715828842
1715744034914949954,0.164,,,,1.72352321
1715744034922644322,0.157,,,,1.731217578
1715744034930338690,0.152,,,,1.738911946
1715744034938033058,0.159,,,,1.746606314
1715744034945727426,0.147,,,,1.754300682
1715744034953421794,0.138,,,,1.76199505
1715744034961116162,0.145,,,,1.769689418
1715744034968810530,0.147,,,,1.777383786
1715744034976504898,0.135,,,,1.785078154
1715744034984199266,0.128,,,,1.792772522
1715744034991893634,0.128,,,,1.80046689
1715744034999588002,0.125,,,,1.808161258
1715744035007282370,0.121,,,,1.815855626
1715744035014976738,0.113,,,,1.823549994
1715744035022671106,0.108,,,,1.831244362
1715744035030365474,0.096,,,,1.83893873
1715744035038059842,0.079,,,,1.846633098
1715744035045754210,0.072,,,,1.854327466
1715744035053448578,0.07,,,,1.862021834
1715744035061142946,0.058,,,,1.869716202
1715744035068837314,0.053,,,,1.87741057
1715744035076531682,0.05,,,,1.885104938
1715744035084226050,0.041,,,,1.892799306
1715744035091920418,0.041,,,,1.900493674
1715744035099614786,0.048,,,,1.908188042
1715744035107309154,0.058,,,,1.91588241
1715744035115003522,0.075,,,,1.923576778
1715744035122697890,0.096,,,,1.931271146
1715744035130392258,0.121,,,,1.938965514
1715744035138086626,0.147,,,,1.946659882
1715744035145780994,0.171,,,,1.95435425
1715744035153475362,0.186,,,,1.962048618
1715744035161169730,0.193,,,,1.969742986
1715744035168864098,0.196,,,,1.977437354
1715744035176558466,0.196,,,,1.985131722
1715744035184252834,0.193,,,,1.99282609
1715744035191947202,0.193,,,,2.000520458
1715744035199641570,0.193,,,,2.008214826
1715744035207335938,0.193,,,,2.015909194
1715744035215030306,0.181,,,,2.023603562
1715744035222724674,0.171,,,,2.03129793
1715744035230419042,0.164,,,,2.038992298
1715744035238113410,0.162,,,,2.046686666
1715744035245807778,0.167,,,,2.054381034
1715744035253502146,0.164,,,,2.062075402
1715744035261196514,0.152,,,,2.06976977
1715744035268890882,0.15,,,,2.077464138
1715744035276585250,0.147,,,,2.085158506
1715744035284279618,0.13,,,,2.092852874
1715744035291973986,0.116,,,,2.100547242
1715744035299668354,0.111,,,,2.10824161
1715744035307362722,0.101,,,,2.115935978
1715744035315057090,0.092,,,,2.123630346
1715744035322751458,0.087,,,,2.131324714
1715744035330445826,0.094,,,,2.139019082
1715744035338140194,0.108,,,,2.14671345
1715744035345834562,0.123,,,,2.154407818
1715744035353528930,0.128,,,,2.162102186
1715744035361223298,0.125,,,,2.169796554
1715744035368917666,0.128,,,,2.177490922
1715744035376612034,0.13,,,,2.18518529
1715744035384306402,0.128,,,,2.192879658
1715744035392000770,0.13,,,,2.200574026
1715744035399695138,0.13,,,,2.208268394
1715744035407389506,0.13,,,,2.215962762
1715744035415083874,0.133,,,,2.22365713
1715744035422778242,0.062,,,,2.231351498
1715744035430472610,-0.147,,,,2.239045866
1715744035438166990,-0.368,101.0,628.0,,2.246740246
1715744035445861358,-0.372,,,,2.254434614
1715744035453555726,-0.128,,,,2.262128982
1715744035461250094,0.14,,,,2.26982335
1715744035468944462,0.203,,,,2.277517718
1715744035476638830,0.145,,,,2.285212086
1715744035484333198,0.147,,,,2.292906454
1715744035492027566,0.169,,,,2.300600822
1715744035499721934,0.159,,,,2.30829519
1715744035507416302,0.157,,,,2.315989558
1715744035515110670,0.157,,,,2.323683926
1715744035522805038,0.147,,,,2.331378294
1715744035530499406,0.145,,,,2.339072662
1715744035538193774,0.138,,,,2.34676703
1715744035545888142,0.121,,,,2.354461398
1715744035553582510,0.113,,,,2.362155766
1715744035561276878,0.121,,,,2.369850134
1715744035568971246,0.108,,,,2.377544502
1715744035576665614,0.092,,,,2.38523887
1715744035584359982,0.087,,,,2.392933238
1715744035592054350,0.087,,,,2.400627606
1715744035599748718,0.084,,,,2.408321974
1715744035607443086,0.075,,,,2.416016342
1715744035615137454,0.062,,,,2.42371071
1715744035622831822,0.053,,,,2.431405078
1715744035630526190,0.041,,,,2.439099446
1715744035638220558,0.038,,,,2.446793814
1715744035645914926,0.038,,,,2.454488182
1715744035653609294,0.026,,,,2.46218255
1715744035661303662,0.024,,,,2.469876918
1715744035668998030,0.031,,,,2.477571286
1715744035676692398,0.031,,,,2.485265654
1715744035684386766,0.046,,,,2.492960022
1715744035692081134,0.07,,,,2.50065439
1715744035699775502,0.096,,,,2.508348758
1715744035707469870,0.123,,,,2.516043126
1715744035715164238,0.142,,,,2.523737494
1715744035722858606,0.154,,,,2.531431862
1715744035730552974,0.167,,,,2.53912623
1715744035738247342,0.174,,,,2.546820598
1715744035745941710,0.174,,,,2.554514966
1715744035753636078,0.174,,,,2.562209334
1715744035761330446,0.174,,,,2.569903702
1715744035769024814,0.179,,,,2.57759807
1715744035776719182,0.181,,,,2.585292438
1715744035784413550,0.169,,,,2.592986806
1715744035792107918,0.162,,,,2.600681174
1715744035799802286,0.162,,,,2.608375542
1715744035807496654,0.147,,,,2.61606991
1715744035815191022,0.14,,,,2.623764278
1715744035822885390,0.147,,,,2.631458646
1715744035830579758,0.15,,,,2.639153014
1715744035838274126,0.142,,,,2.646847382
1715744035845968494,0.14,,,,2.65454175
1715744035853662862,0.142,,,,2.662236118
1715744035861357230,0.133,,,,2.669930486
1715744035869051598,0.118,,,,2.677624854
1715744035876745966,0.113,,,,2.685319222
1715744035884440334,0.106,,,,2.69301359
1715744035892134702,0.099,,,,2.700707958
1715744035899829070,0.101,,,,2.708402326
1715744035907523438,0.108,,,,2.716096694
1715744035915217806,0.118,,,,2.723791062
1715744035922912174,0.133,,,,2.73148543
1715744035930606542,0.14,,,,2.739179798
1715744035938300910,0.14,,,,2.746874166
1715744035945995278,0.14,,,,2.754568534
1715744035953689646,0.145,,,,2.762262902
1715744035961384014,0.142,,,,2.76995727
1715744035969078382,0.14,,,,2.777651638
1715744035976772750,0.138,,,,2.785346006
1715744035984467118,0.145,,,,2.793040374
1715744035992161486,0.154,,,,2.800734742
1715744035999855866,0.079,,,,2.808429122
1715744036007550234,-0.123,,,,2.81612349
1715744036015244602,-0.341,,,,2.823817858
1715744036022938970,-0.387,,,,2.831512226
1715744036030633338,-0.167,,,,2.839206594
1715744036038327706,0.13,,,,2.846900962
1715744036046022074,0.22,,,,2.85459533
1715744036053716442,0.152,,,,2.862289698
1715744036061410810,0.15,,,,2.869984066
1715744036069105178,0.193,,,,2.877678434
1715744036076799546,0.188,,,,2.885372802
1715744036084493914,0.167,,,,2.89306717
1715744036092188282,0.164,,,,2.900761538
1715744036099882650,0.159,,,,2.908455906
1715744036107577018,0.152,,,,2.916150274
1715744036115271386,0.152,,,,2.923844642
1715744036122965754,0.142,,,,2.93153901
1715744036130660122,0.13,,,,2.939233378
1715744036138354490,0.128,,,,2.946927746
1715744036146048858,0.123,,,,2.954622114
1715744036153743226,0.121,,,,2.962316482
1715744036161437594,0.118,,,,2.97001085
1715744036169131962,0.108,,,,2.977705218
1715744036176826330,0.099,,,,2.985399586
1715744036184520698,0.094,,,,2.993093954
1715744036192215066,0.082,,,,3.000788322
1715744036199909434,0.072,,,,3.00848269
1715744036207603802,0.065,,,,3.016177058
1715744036215298170,0.058,,,,3.023871426
1715744036222992538,0.05,,,,3.031565794
1715744036230686906,0.046,,,,3.039260162
1715744036238381274,0.041,,,,3.04695453
1715744036246075642,0.036,,,,3.054648898
1715744036253770010,0.048,,,,3.062343266
1715744036261464378,0.07,,,,3.070037634
1715744036269158746,0.084,,,,3.077732002
1715744036276853114,0.104,,,,3.08542637
1715744036284547482,0.133,,,,3.093120738
1715744036292241850,0.154,,,,3.100815106
1715744036299936218,0.162,,,,3.108509474
1715744036307630586,0.167,,,,3.116203842
1715744036315324954,0.179,,,,3.12389821
1715744036323019322,0.184,,,,3.131592578
1715744036330713690,0.181,,,,3.139286946
1715744036338408058,0.179,,,,3.146981314
1715744036346102426,0.181,,,,3.154675682
1715744036353796794,0.176,,,,3.16237005
1715744036361491162,0.174,,,,3.170064418
1715744036369185530,0.174,,,,3.177758786
1715744036376879898,0.171,,,,3.185453154
1715744036384574266,0.167,,,,3.193147522
1715744036392268634,0.164,,,,3.20084189
1715744036399963002,0.162,,,,3.208536258
1715744036407657370,0.157,,,,3.216230626
1715744036415351738,0.154,,,,3.223924994
1715744036423046106,0.157,,,,3.231619362
1715744036430740474,0.157,,,,3.23931373
1715744036438434842,0.152,,,,3.247008098
1715744036446129210,0.142,,,,3.254702466
1715744036453823578,0.14,,,,3.262396834
1715744036461517946,0.147,,,,3.270091202
1715744036469212314,0.135,,,,3.27778557
1715744036476906682,0.116,,,,3.285479938
1715744036484601050,0.113,,,,3.293174306
1715744036492295418,0.111,,,,3.300868674
1715744036499989786,0.108,,,,3.308563042
1715744036507684154,0.116,,,,3.31625741
1715744036515378522,0.125,,,,3.323951778
1715744036523072890,0.138,,,,3.331646146
1715744036530767258,0.145,,,,3.339340514
1715744036538461626,0.138,,,,3.347034882
1715744036546155994,0.13,,,,3.35472925
1715744036553850362,0.13,,,,3.362423618
1715744036561544742,0.123,100.0,604.0,,3.370117998
1715744036569239110,0.121,,604.0,,3.377812366
1715744036576933478,0.13,,,,3.385506734
1715744036584627846,0.138,,,,3.393201102
1715744036592322214,0.138,,,,3.40089547
1715744036600016582,0.06,,,,3.408589838
1715744036607710950,-0.14,,,,3.416284206
1715744036615405318,-0.36,,,,3.423978574
1715744036623099686,-0.397,,,,3.431672942
1715744036630794054,-0.164,,,,3.43936731
1715744036638488422,0.128,,,,3.447061678
1715744036646182790,0.2,,,,3.454756046
1715744036653877158,0.138,,,,3.462450414
1715744036661571526,0.142,,,,3.470144782
1715744036669265894,0.171,,,,3.47783915
1715744036676960262,0.152,,,,3.485533518
1715744036684654630,0.15,,,,3.493227886
1715744036692348998,0.164,,,,3.500922254
1715744036700043366,0.154,,,,3.508616622
1715744036707737734,0.14,,,,3.51631099
1715744036715432102,0.135,,,,3.524005358
1715744036723126470,0.13,,,,3.531699726
1715744036730820838,0.125,,,,3.539394094
1715744036738515206,0.123,,,,3.547088462
1715744036746209574,0.121,,,,3.55478283
1715744036753903942,0.116,,,,3.562477198
1715744036761598310,0.108,,,,3.570171566
1715744036769292678,0.101,,,,3.577865934
1715744036776987046,0.096,,,,3.585560302
1715744036784681414,0.084,,,,3.59325467
1715744036792375782,0.067,,,,3.600949038
1715744036800070150,0.053,,,,3.608643406
1715744036807764518,0.038,,,,3.616337774
1715744036815458886,0.026,,,,3.624032142
1715744036823153254,0.026,,,,3.63172651
1715744036830847622,0.024,,,,3.639420878
1715744036838541990,0.012,,,,3.647115246
1715744036846236358,0.007,,,,3.654809614
1715744036853930726,0.016,,,,3.662503982
1715744036861625094,0.031,,,,3.67019835
1715744036869319462,0.053,,,,3.677892718
1715744036877013830,0.079,,,,3.685587086
1715744036884708198,0.104,,,,3.693281454
1715744036892402566,0.125,,,,3.700975822
1715744036900096934,0.145,,,,3.70867019
1715744036907791302,0.157,,,,3.716364558
1715744036915485670,0.162,,,,3.724058926
1715744036923180038,0.159,,,,3.731753294
1715744036930874406,0.154,,,,3.739447662
1715744036938568774,0.159,,,,3.74714203
1715744036946263142,0.167,,,,3.754836398
1715744036953957510,0.164,,,,3.762530766
1715744036961651878,0.159,,,,3.770225134
1715744036969346246,0.157,,,,3.777919502
1715744036977040614,0.154,,,,3.78561387
1715744036984734982,0.147,,,,3.793308238
1715744036992429350,0.142,,,,3.801002606
1715744037000123718,0.147,,,,3.808696974
1715744037007818086,0.15,,,,3.816391342
1715744037015512454,0.142,,,,3.82408571
1715744037023206822,0.138,,,,3.831780078
1715744037030901190,0.14,,,,3.839474446
1715744037038595558,0.138,,,,3.847168814
1715744037046289926,0.128,,,,3.854863182
1715744037053984294,0.123,,,,3.86255755
1715744037061678662,0.118,,,,3.870251918
1715744037069373030,0.116,,,,3.877946286
1715744037077067398,0.113,,,,3.885640654
1715744037084761766,0.113,,,,3.893335022
1715744037092456134,0.116,,,,3.90102939
1715744037100150502,0.116,,,,3.908723758
1715744037107844870,0.116,,,,3.916418126
1715744037115539238,0.118,,,,3.924112494
1715744037123233618,0.118,100.0,575.0,,3.931806874
1715744037130927986,0.108,,578.0,,3.939501242
1715744037138622354,0.094,,,,3.94719561
1715744037146316722,0.092,,,,3.954889978
1715744037154011090,0.096,,,,3.962584346
1715744037161705458,0.089,,,,3.970278714
1715744037169399826,0.082,,,,3.977973082
1715744037177094194,0.099,,,,3.98566745
1715744037184788562,0.116,,,,3.993361818
1715744037192482930,0.113,,,,4.001056186
1715744037200177298,0.104,,,,4.008750554
1715744037207871666,0.106,,,,4.016444922
1715744037215566034,0.113,,,,4.02413929
1715744037223260402,0.111,,,,4.031833658
1715744037230954770,0.111,,,,4.039528026
1715744037238649138,0.116,,,,4.047222394
1715744037246343506,0.123,,,,4.054916762
1715744037254037874,0.123,,,,4.06261113
1715744037261732242,0.055,,,,4.070305498
1715744037269426610,-0.13,,,,4.077999866
1715744037277120978,-0.338,,,,4.085694234
1715744037284815346,-0.37,,,,4.093388602
1715744037292509714,-0.147,,,,4.10108297
1715744037300204082,0.123,,,,4.108777338
1715744037307898450,0.184,,,,4.116471706
1715744037315592818,0.116,,,,4.124166074
1715744037323287186,0.121,,,,4.131860442
1715744037330981554,0.154,,,,4.13955481
1715744037338675922,0.138,,,,4.147249178
1715744037346370290,0.128,,,,4.154943546
1715744037354064658,0.14,,,,4.162637914
1715744037361759026,0.135,,,,4.170332282
1715744037369453394,0.128,,,,4.17802665
1715744037377147762,0.125,,,,4.185721018
1715744037384842130,0.121,,,,4.193415386
1715744037392536498,0.121,,,,4.201109754
1715744037400230866,0.118,,,,4.208804122
1715744037407925234,0.111,,,,4.21649849
1715744037415619602,0.108,,,,4.224192858
1715744037423313970,0.104,,,,4.231887226
1715744037431008338,0.096,,,,4.239581594
1715744037438702706,0.089,,,,4.247275962
1715744037446397074,0.082,,,,4.25497033
1715744037454091442,0.077,,,,4.262664698
1715744037461785810,0.067,,,,4.270359066
1715744037469480178,0.06,,,,4.278053434
1715744037477174546,0.053,,,,4.285747802
1715744037484868914,0.048,,,,4.29344217
1715744037492563282,0.038,,,,4.301136538
1715744037500257650,0.029,,,,4.308830906
1715744037507952018,0.026,,,,4.316525274
1715744037515646386,0.033,,,,4.324219642
1715744037523340754,0.043,,,,4.33191401
1715744037531035122,0.053,,,,4.339608378
1715744037538729490,0.075,,,,4.347302746
1715744037546423858,0.104,,,,4.354997114
1715744037554118226,0.128,,,,4.362691482
1715744037561812594,0.145,,,,4.37038585
1715744037569506962,0.162,,,,4.378080218
1715744037577201330,0.167,,,,4.385774586
1715744037584895698,0.169,,,,4.393468954
1715744037592590066,0.174,,,,4.401163322
1715744037600284434,0.179,,,,4.40885769
1715744037607978802,0.179,,,,4.416552058
1715744037615673170,0.171,,,,4.424246426
1715744037623367538,0.164,,,,4.431940794
1715744037631061906,0.164,,,,4.439635162
1715744037638756274,0.167,,,,4.44732953
1715744037646450642,0.164,,,,4.455023898
1715744037654145010,0.159,,,,4.462718266
1715744037661839378,0.157,,,,4.470412634
1715744037669533746,0.154,,,,4.478107002
1715744037677228114,0.15,,,,4.48580137
1715744037684922494,0.142,,,,4.49349575
1715744037692616444,0.145,,,,4.5011897
1715744037700310394,0.15,,,,4.50888365
1715744037708004344,0.147,,,,4.5165776
1715744037715698294,0.142,,,,4.52427155
1715744037723392244,0.145,,,,4.5319655
1715744037731086194,0.145,,,,4.53965945
1715744037738780144,0.135,,,,4.5473534
1715744037746474094,0.13,,,,4.55504735
1715744037754168044,0.133,,,,4.5627413
1715744037761861994,0.128,,,,4.57043525
1715744037769555944,0.123,,,,4.5781292
1715744037777249894,0.123,,,,4.58582315
1715744037784943844,0.121,,,,4.5935171
1715744037792637794,0.121,,,,4.60121105
1715744037800331744,0.123,,,,4.608905
1715744037808025694,0.128,,,,4.61659895
1715744037815719644,0.125,,,,4.6242929
1715744037823413594,0.118,,,,4.63198685
1715744037831107544,0.116,,,,4.6396808
1715744037838801494,0.118,,,,4.64737475
1715744037846495444,0.106,,,,4.6550687
1715744037854189394,0.096,,,,4.66276265
1715744037861883344,0.101,,,,4.6704566
1715744037869577294,0.111,,,,4.67815055
1715744037877271244,0.111,,,,4.6858445
1715744037884965194,0.118,,,,4.69353845
1715744037892659144,0.13,,,,4.7012324
1715744037900353094,0.142,,,,4.70892635
1715744037908047044,0.147,,,,4.7166203
1715744037915740994,0.147,,,,4.72431425
1715744037923434944,0.145,,,,4.7320082
1715744037931128894,0.147,,,,4.73970215
1715744037938822844,0.152,,,,4.7473961
1715744037946516794,0.152,,,,4.75509005
1715744037954210744,0.157,,,,4.762784
1715744037961904694,0.162,,,,4.77047795
1715744037969598644,0.106,,,,4.7781719
1715744037977292594,-0.077,,,,4.78586585
1715744037984986544,-0.302,,,,4.7935598
1715744037992680494,-0.365,,,,4.80125375
1715744038000374444,-0.164,,,,4.8089477
1715744038008068394,0.128,,,,4.81664165
1715744038015762344,0.232,,,,4.8243356
1715744038023456294,0.179,,,,4.83202955
1715744038031150244,0.167,,,,4.8397235
1715744038038844194,0.196,,,,4.84741745
1715744038046538144,0.191,,,,4.8551114
1715744038054232094,0.181,,,,4.86280535
1715744038061926044,0.186,,,,4.8704993
1715744038069619994,0.184,,,,4.87819325
1715744038077313944,0.176,,,,4.8858872
1715744038085007894,0.174,,,,4.89358115
1715744038092701844,0.171,,,,4.9012751
1715744038100395794,0.162,,,,4.90896905
1715744038108089744,0.159,,,,4.916663
1715744038115783694,0.159,,,,4.92435695
1715744038123477644,0.154,,,,4.9320509
1715744038131171594,0.147,,,,4.93974485
1715744038138865544,0.142,,,,4.9474388
1715744038146559494,0.138,,,,4.95513275
1715744038154253444,0.125,,,,4.9628267
1715744038161947394,0.116,,,,4.97052065
1715744038169641344,0.111,,,,4.9782146
1715744038177335294,0.104,,,,4.98590855
1715744038185029244,0.092,,,,4.9936025
1715744038192723194,0.084,,,,5.00129645
1715744038200417144,0.079,,,,5.0089904
1715744038208111094,0.075,,,,5.01668435
1715744038215805044,0.067,,,,5.0243783
1715744038223498994,0.062,,,,5.03207225
1715744038231192944,0.067,,,,5.0397662
1715744038238886894,0.082,,,,5.04746015
1715744038246580854,0.104,101.0,600.0,,5.05515411
1715744038254275570,0.128,,,,5.062848826
1715744038261970286,0.15,,,,5.070543542
1715744038269665002,0.164,,,,5.078238258
1715744038277359718,0.167,,,,5.085932974
1715744038285054434,0.164,,,,5.09362769
1715744038292749150,0.171,,,,5.101322406
1715744038300443866,0.174,,,,5.109017122
1715744038308138582,0.171,,,,5.116711838
1715744038315833298,0.169,,,,5.124406554
1715744038323528014,0.164,,,,5.13210127
1715744038331222730,0.154,,,,5.139795986
1715744038338917446,0.152,,,,5.147490702
1715744038346612162,0.152,,,,5.155185418
1715744038354306878,0.15,,,,5.162880134
1715744038362001594,0.147,,,,5.17057485
1715744038369696310,0.147,,,,5.178269566
1715744038377391026,0.147,,,,5.185964282
1715744038385085742,0.147,,,,5.193658998
1715744038392780458,0.147,,,,5.201353714
1715744038400475174,0.147,,,,5.20904843
1715744038408169890,0.147,,,,5.216743146
1715744038415864606,0.15,,,,5.224437862
1715744038423559322,0.15,,,,5.232132578
1715744038431254038,0.147,,,,5.239827294
1715744038438948754,0.147,,,,5.24752201
1715744038446643470,0.154,,,,5.255216726
1715744038454338186,0.154,,,,5.262911442
1715744038462032902,0.15,,,,5.270606158
1715744038469727618,0.15,,,,5.278300874
1715744038477422334,0.154,,,,5.28599559
1715744038485117050,0.157,,,,5.293690306
1715744038492811766,0.159,,,,5.301385022
1715744038500506482,0.164,,,,5.309079738
1715744038508201198,0.167,,,,5.316774454
1715744038515895914,0.159,,,,5.32446917
1715744038523590630,0.142,,,,5.332163886
1715744038531285346,0.133,,,,5.339858602
1715744038538980062,0.135,,,,5.347553318
1715744038546674778,0.135,,,,5.355248034
1715744038554369494,0.135,,,,5.36294275
1715744038562064210,0.147,,,,5.370637466
1715744038569758926,0.162,,,,5.378332182
1715744038577453642,0.167,,,,5.386026898
1715744038585148358,0.167,,,,5.393721614
1715744038592843074,0.169,,,,5.40141633
1715744038600537790,0.171,,,,5.409111046
1715744038608232506,0.169,,,,5.416805762
1715744038615927222,0.169,,,,5.424500478
1715744038623621938,0.171,,,,5.432195194
1715744038631316654,0.171,,,,5.43988991
1715744038639011370,0.176,,,,5.447584626
1715744038646706086,0.162,,,,5.455279342
1715744038654400802,0.043,,,,5.462974058
1715744038662095518,-0.196,,,,5.470668774
1715744038669790234,-0.377,,,,5.47836349
1715744038677484950,-0.3,,,,5.486058206
1715744038685179666,0.009,,,,5.493752922
1715744038692874382,0.239,,,,5.501447638
1715744038700569098,0.227,,,,5.509142354
1715744038708263814,0.174,,,,5.51683707
1715744038715958530,0.205,,,,5.524531786
1715744038723653246,0.217,,,,5.532226502
1715744038731347962,0.188,,,,5.539921218
1715744038739042678,0.186,,,,5.547615934
1715744038746737394,0.193,,,,5.55531065
1715744038754432110,0.188,,,,5.563005366
1715744038762126826,0.176,,,,5.570700082
1715744038769821542,0.167,,,,5.578394798
1715744038777516258,0.159,,,,5.586089514
1715744038785210974,0.154,,,,5.59378423
1715744038792905690,0.152,,,,5.601478946
1715744038800600406,0.147,,,,5.609173662
1715744038808295162,0.14,,,,5.616868418
1715744038815989599,0.13,,,,5.624562855
1715744038823684036,0.116,,,,5.632257292
1715744038831378473,0.096,,,,5.639951729
1715744038839072910,0.079,,,,5.647646166
1715744038846767347,0.07,,,,5.655340603
1715744038854461784,0.062,,,,5.66303504
1715744038862156221,0.05,,,,5.670729477
1715744038869850658,0.036,,,,5.678423914
1715744038877545095,0.019,,,,5.686118351
1715744038885239532,0.012,,,,5.693812788
1715744038892933969,0.009,,,,5.701507225
1715744038900628406,0.007,,,,5.709201662
1715744038908322843,0.007,,,,5.716896099
1715744038916017280,0.016,,,,5.724590536
1715744038923711717,0.038,,,,5.732284973
1715744038931406154,0.07,,,,5.73997941
1715744038939100591,0.094,,,,5.747673847
1715744038946795028,0.116,,,,5.755368284
1715744038954489465,0.14,,,,5.763062721
1715744038962183902,0.15,,,,5.770757158
1715744038969878339,0.15,,,,5.778451595
1715744038977572776,0.154,,,,5.786146032
1715744038985267213,0.159,,,,5.793840469
1715744038992961650,0.159,,,,5.801534906
1715744039000656087,0.154,,,,5.809229343
1715744039008350524,0.15,,,,5.81692378
1715744039016044961,0.145,,,,5.824618217
1715744039023739398,0.142,,,,5.832312654
1715744039031433835,0.14,,,,5.840007091
1715744039039128272,0.138,,,,5.847701528
1715744039046822709,0.14,,,,5.855395965
1715744039054517146,0.138,,,,5.863090402
1715744039062211583,0.133,,,,5.870784839
1715744039069906020,0.135,,,,5.878479276
1715744039077600457,0.135,,,,5.886173713
1715744039085294894,0.135,,,,5.89386815
1715744039092989331,0.133,,,,5.901562587
1715744039100683768,0.13,,,,5.909257024
1715744039108378205,0.13,,,,5.916951461
1715744039116072642,0.133,,,,5.924645898
1715744039123767079,0.135,,,,5.932340335
1715744039131461516,0.14,,,,5.940034772
1715744039139155953,0.14,,,,5.947729209
1715744039146850390,0.14,,,,5.955423646
1715744039154544827,0.14,,,,5.963118083
1715744039162239264,0.138,,,,5.97081252
1715744039169933701,0.128,,,,5.978506957
1715744039177628138,0.118,,,,5.986201394
1715744039185322575,0.113,,,,5.993895831
1715744039193017012,0.113,,,,6.001590268
1715744039200711449,0.116,,,,6.009284705
1715744039208405886,0.128,,,,6.016979142
1715744039216100323,0.14,,,,6.024673579
1715744039223794760,0.145,,,,6.032368016
1715744039231489197,0.147,,,,6.040062453
1715744039239183634,0.145,,,,6.04775689
1715744039246878071,0.145,,,,6.055451327
1715744039254572508,0.142,,,,6.063145764
1715744039262266945,0.135,,,,6.070840201
1715744039269961382,0.135,,,,6.078534638
1715744039277655819,0.142,,,,6.086229075
1715744039285350256,0.147,,,,6.093923512
1715744039293044693,0.106,,,,6.101617949
1715744039300739130,-0.06,,,,6.109312386
1715744039308433567,-0.3,,,,6.117006823
1715744039316128004,-0.409,,,,6.12470126
1715744039323822441,-0.239,,,,6.132395697
1715744039331516878,0.075,,,,6.140090134
1715744039339211315,0.21,,,,6.147784571
1715744039346905752,0.15,,,,6.155479008
1715744039354600189,0.135,,,,6.163173445
1715744039362294626,0.174,,,,6.170867882
1715744039369989124,0.167,100.0,661.0,,6.17856238
1715744039377683492,0.15,,709.0,,6.186256748
1715744039385377860,0.154,,,,6.193951116
1715744039393072228,0.152,,,,6.201645484
1715744039400766596,0.138,,,,6.209339852
1715744039408460964,0.133,,,,6.21703422
1715744039416155332,0.13,,,,6.224728588
1715744039423849700,0.123,,,,6.232422956
1715744039431544068,0.118,,,,6.240117324
1715744039439238436,0.111,,,,6.247811692
1715744039446932804,0.101,,,,6.25550606
1715744039454627172,0.094,,,,6.263200428
1715744039462321540,0.084,,,,6.270894796
1715744039470015908,0.07,,,,6.278589164
1715744039477710276,0.053,,,,6.286283532
1715744039485404644,0.046,,,,6.2939779
1715744039493099012,0.036,,,,6.301672268
1715744039500793380,0.021,,,,6.309366636
1715744039508487748,0.009,,,,6.317061004
1715744039516182116,0.002,,,,6.324755372
1715744039523876484,0.002,,,,6.33244974
1715744039531570852,0.0,,,,6.340144108
1715744039539265220,-0.007,,,,6.347838476
1715744039546959588,-0.007,,,,6.355532844
1715744039554653956,0.004,,,,6.363227212
1715744039562348324,0.019,,,,6.37092158
1715744039570042692,0.043,,,,6.378615948
1715744039577737060,0.077,,,,6.386310316
1715744039585431428,0.106,,,,6.394004684
1715744039593125796,0.123,,,,6.401699052
1715744039600820164,0.135,,,,6.40939342
1715744039608514532,0.142,,,,6.417087788
1715744039616208900,0.147,,,,6.424782156
1715744039623903268,0.154,,,,6.432476524
1715744039631597636,0.157,,,,6.440170892
1715744039639292004,0.157,,,,6.44786526
1715744039646986372,0.152,,,,6.455559628
1715744039654680740,0.145,,,,6.463253996
1715744039662375108,0.142,,,,6.470948364
1715744039670069476,0.145,,,,6.478642732
1715744039677763844,0.145,,,,6.4863371
1715744039685458212,0.142,,,,6.494031468
1715744039693152580,0.142,,,,6.501725836
1715744039700846948,0.142,,,,6.509420204
1715744039708541316,0.14,,,,6.517114572
1715744039716235684,0.14,,,,6.52480894
1715744039723930052,0.142,,,,6.532503308
1715744039731624420,0.142,,,,6.540197676
1715744039739318788,0.14,,,,6.547892044
1715744039747013156,0.14,,,,6.555586412
1715744039754707524,0.138,,,,6.56328078
1715744039762401892,0.14,,,,6.570975148
1715744039770096260,0.138,,,,6.578669516
1715744039777790628,0.138,,,,6.586363884
1715744039785484996,0.135,,,,6.594058252
1715744039793179364,0.138,,,,6.60175262
1715744039800873732,0.14,,,,6.609446988
1715744039808568100,0.14,,,,6.617141356
1715744039816262468,0.145,,,,6.624835724
1715744039823956836,0.15,,,,6.632530092
1715744039831651204,0.152,,,,6.64022446
1715744039839345572,0.135,,,,6.647918828
1715744039847039940,0.113,,,,6.655613196
1715744039854734308,0.106,,,,6.663307564
1715744039862428676,0.108,,,,6.671001932
1715744039870123044,0.106,,,,6.6786963
1715744039877817412,0.111,,,,6.686390668
1715744039885511780,0.125,,,,6.694085036
1715744039893206148,0.135,,,,6.701779404
1715744039900900516,0.14,,,,6.709473772
1715744039908594884,0.145,,,,6.71716814
1715744039916289252,0.145,,,,6.724862508
1715744039923983620,0.14,,,,6.732556876
1715744039931678000,0.14,,,,6.740251256
1715744039939372368,0.142,,,,6.747945624
1715744039947066736,0.142,,,,6.755639992
1715744039954761104,0.142,,,,6.76333436
1715744039962455472,0.147,,,,6.771028728
1715744039970149840,0.094,,,,6.778723096
1715744039977844208,-0.096,,,,6.786417464
1715744039985538576,-0.346,,,,6.794111832
1715744039993232944,-0.433,,,,6.8018062
1715744040000927312,-0.232,,,,6.809500568
1715744040008621680,0.084,,,,6.817194936
1715744040016316048,0.196,,,,6.824889304
1715744040024010416,0.13,,,,6.832583672
1715744040031704784,0.123,,,,6.84027804
1715744040039399152,0.157,,,,6.847972408
1715744040047093520,0.138,,,,6.855666776
1715744040054787888,0.121,,,,6.863361144
1715744040062482256,0.13,,,,6.871055512
1715744040070176624,0.125,,,,6.87874988
1715744040077870992,0.116,,,,6.886444248
1715744040085565360,0.116,,,,6.894138616
1715744040093259728,0.113,,,,6.901832984
1715744040100954096,0.106,,,,6.909527352
1715744040108648464,0.101,,,,6.91722172
1715744040116342832,0.101,,,,6.924916088
1715744040124037200,0.096,,,,6.932610456
1715744040131731568,0.089,,,,6.940304824
1715744040139425936,0.079,,,,6.947999192
1715744040147120304,0.075,,,,6.95569356
1715744040154814672,0.07,,,,6.963387928
1715744040162509040,0.058,,,,6.971082296
1715744040170203408,0.046,,,,6.978776664
1715744040177897776,0.043,,,,6.986471032
1715744040185592144,0.036,,,,6.9941654
1715744040193286512,0.026,,,,7.001859768
1715744040200980880,0.019,,,,7.009554136
1715744040208675248,0.014,,,,7.017248504
1715744040216369616,0.012,,,,7.024942872
1715744040224063984,0.012,,,,7.03263724
1715744040231758352,0.019,,,,7.040331608
1715744040239452720,0.031,,,,7.048025976
1715744040247147088,0.05,,,,7.055720344
1715744040254841456,0.079,,,,7.063414712
1715744040262535824,0.106,,,,7.07110908
1715744040270230192,0.128,,,,7.078803448
1715744040277924560,0.142,,,,7.086497816
1715744040285618928,0.152,,,,7.094192184
1715744040293313296,0.157,,,,7.101886552
1715744040301007664,0.159,,,,7.10958092
1715744040308702032,0.159,,,,7.117275288
1715744040316396400,0.154,,,,7.124969656
1715744040324090768,0.157,,,,7.132664024
1715744040331785136,0.159,,,,7.140358392
1715744040339479504,0.152,,,,7.14805276
1715744040347173872,0.14,,,,7.155747128
1715744040354868240,0.138,,,,7.163441496
1715744040362562608,0.142,,,,7.171135864
1715744040370256976,0.142,,,,7.178830232
1715744040377951344,0.142,,,,7.1865246
1715744040385645712,0.145,,,,7.194218968
1715744040393340080,0.145,,,,7.201913336
1715744040401034448,0.142,,,,7.209607704
1715744040408728816,0.14,,,,7.217302072
1715744040416423184,0.14,,,,7.22499644
1715744040424117552,0.145,,,,7.232690808
1715744040431811920,0.145,,,,7.240385176
1715744040439506288,0.142,,,,7.248079544
1715744040447200656,0.145,,,,7.255773912
1715744040454895024,0.15,,,,7.26346828
1715744040462589392,0.15,,,,7.271162648
1715744040470283760,0.15,,,,7.278857016
1715744040477978128,0.15,,,,7.286551384
1715744040485672496,0.135,,,,7.294245752
1715744040493366876,0.116,97.0,681.0,,7.301940132
1715744040501061244,0.113,,,,7.3096345
1715744040508755612,0.121,,,,7.317328868
1715744040516449980,0.121,,,,7.325023236
1715744040524144348,0.125,,,,7.332717604
1715744040531838716,0.14,,,,7.340411972
1715744040539533084,0.147,,,,7.34810634
1715744040547227452,0.145,,,,7.355800708
1715744040554921820,0.14,,,,7.363495076
1715744040562616188,0.138,,,,7.371189444
1715744040570310556,0.14,,,,7.378883812
1715744040578004924,0.133,,,,7.38657818
1715744040585699292,0.128,,,,7.394272548
1715744040593393660,0.135,,,,7.401966916
1715744040601088028,0.142,,,,7.409661284
1715744040608782396,0.133,,,,7.417355652
1715744040616476764,0.031,,,,7.42505002
1715744040624171132,-0.198,,,,7.432744388
1715744040631865500,-0.399,,,,7.440438756
1715744040639559868,-0.358,,,,7.448133124
1715744040647254236,-0.077,,,,7.455827492
1715744040654948604,0.167,,,,7.46352186
1715744040662642972,0.176,,,,7.471216228
1715744040670337340,0.123,,,,7.478910596
1715744040678031708,0.15,,,,7.486604964
1715744040685726076,0.169,,,,7.494299332
1715744040693420444,0.147,,,,7.5019937
1715744040701114812,0.14,,,,7.509688068
1715744040708809180,0.142,,,,7.517382436
1715744040716503548,0.133,,,,7.525076804
1715744040724197916,0.125,,,,7.532771172
1715744040731892284,0.125,,,,7.54046554
1715744040739586652,0.123,,,,7.548159908
1715744040747281020,0.121,,,,7.555854276
1715744040754975388,0.118,,,,7.563548644
1715744040762669756,0.111,,,,7.571243012
1715744040770364124,0.106,,,,7.57893738
1715744040778058492,0.099,,,,7.586631748
1715744040785752860,0.092,,,,7.594326116
1715744040793447228,0.087,,,,7.602020484
1715744040801141596,0.079,,,,7.609714852
1715744040808835964,0.065,,,,7.61740922
1715744040816530332,0.058,,,,7.625103588
1715744040824224700,0.05,,,,7.632797956
1715744040831919068,0.041,,,,7.640492324
1715744040839613436,0.033,,,,7.648186692
1715744040847307804,0.026,,,,7.65588106
1715744040855002172,0.014,,,,7.663575428
1715744040862696540,0.004,,,,7.671269796
1715744040870390908,0.014,,,,7.678964164
1715744040878085276,0.029,,,,7.686658532
1715744040885779644,0.048,,,,7.6943529
1715744040893474012,0.077,,,,7.702047268
1715744040901168380,0.104,,,,7.709741636
1715744040908862748,0.125,,,,7.717436004
1715744040916557116,0.142,,,,7.725130372
1715744040924251484,0.154,,,,7.73282474
1715744040931945852,0.164,,,,7.740519108
1715744040939640220,0.167,,,,7.748213476
1715744040947334588,0.164,,,,7.755907844
1715744040955028956,0.167,,,,7.763602212
1715744040962723324,0.169,,,,7.77129658
1715744040970417692,0.167,,,,7.778990948
1715744040978112060,0.162,,,,7.786685316
1715744040985806428,0.154,,,,7.794379684
1715744040993500796,0.152,,,,7.802074052
1715744041001195164,0.154,,,,7.80976842
1715744041008889532,0.152,,,,7.817462788
1715744041016583900,0.152,,,,7.825157156
1715744041024278268,0.154,,,,7.832851524
1715744041031972636,0.15,,,,7.840545892
1715744041039667004,0.145,,,,7.84824026
1715744041047361372,0.15,,,,7.855934628
1715744041055055752,0.157,,,,7.863629008
1715744041062750120,0.154,,,,7.871323376
1715744041070444488,0.15,,,,7.879017744
1715744041078138856,0.152,,,,7.886712112
1715744041085833224,0.152,,,,7.89440648
1715744041093527592,0.145,,,,7.902100848
1715744041101221960,0.14,,,,7.909795216
1715744041108916328,0.142,,,,7.917489584
1715744041116610696,0.147,,,,7.925183952
1715744041124305064,0.142,,,,7.93287832
1715744041131999432,0.128,,,,7.940572688
1715744041139693800,0.116,,,,7.948267056
1715744041147388168,0.113,,,,7.955961424
1715744041155082536,0.116,,,,7.963655792
1715744041162776904,0.123,,,,7.97135016
1715744041170471272,0.138,,,,7.979044528
1715744041178165640,0.147,,,,7.986738896
1715744041185860008,0.15,,,,7.994433264
1715744041193554376,0.15,,,,8.002127632
1715744041201248744,0.154,,,,8.009822
1715744041208943112,0.157,,,,8.017516368
1715744041216637480,0.15,,,,8.025210736
1715744041224331848,0.142,,,,8.032905104
1715744041232026216,0.14,,,,8.040599472
1715744041239720584,0.14,,,,8.04829384
1715744041247414952,0.15,,,,8.055988208
1715744041255109320,0.118,,,,8.063682576
1715744041262803688,-0.036,,,,8.071376944
1715744041270498056,-0.271,,,,8.079071312
1715744041278192424,-0.389,,,,8.08676568
1715744041285886792,-0.244,,,,8.094460048
1715744041293581160,0.053,,,,8.102154416
1715744041301275528,0.196,,,,8.109848784
1715744041308969896,0.142,,,,8.117543152
1715744041316664264,0.123,,,,8.12523752
1715744041324358632,0.164,,,,8.132931888
1715744041332053000,0.159,,,,8.140626256
1715744041339747368,0.138,,,,8.148320624
1715744041347441736,0.147,,,,8.156014992
1715744041355136104,0.145,,,,8.16370936
1715744041362830472,0.118,,,,8.171403728
1715744041370524840,0.111,,,,8.179098096
1715744041378219208,0.118,,,,8.186792464
1715744041385913576,0.113,,,,8.194486832
1715744041393607944,0.106,,,,8.2021812
1715744041401302312,0.104,,,,8.209875568
1715744041408996680,0.099,,,,8.217569936
1715744041416691048,0.094,,,,8.225264304
1715744041424385416,0.092,,,,8.232958672
1715744041432079784,0.079,,,,8.24065304
1715744041439774152,0.072,,,,8.248347408
1715744041447468520,0.067,,,,8.256041776
1715744041455162888,0.055,,,,8.263736144
1715744041462857256,0.043,,,,8.271430512
1715744041470551624,0.036,,,,8.27912488
1715744041478245992,0.029,,,,8.286819248
1715744041485940360,0.019,,,,8.294513616
1715744041493634728,0.019,,,,8.302207984
1715744041501329096,0.019,,,,8.309902352
1715744041509023464,0.016,,,,8.31759672
1715744041516717832,0.019,,,,8.325291088
1715744041524412200,0.036,,,,8.332985456
1715744041532106568,0.062,,,,8.340679824
1715744041539800936,0.087,,,,8.348374192
1715744041547495304,0.111,,,,8.35606856
1715744041555189672,0.135,,,,8.363762928
1715744041562884040,0.15,,,,8.371457296
1715744041570578408,0.162,,,,8.379151664
1715744041578272776,0.164,,,,8.386846032
1715744041585967144,0.167,,,,8.3945404
1715744041593661512,0.167,,,,8.402234768
1715744041601355880,0.169,,,,8.409929136
1715744041609050248,0.167,,,,8.417623504
1715744041616744628,0.167,95.0,644.0,,8.425317884
1715744041624438996,0.167,,677.0,,8.433012252
1715744041632133364,0.164,,,,8.44070662
1715744041639827732,0.159,,,,8.448400988
1715744041647522100,0.159,,,,8.456095356
1715744041655216468,0.164,,,,8.463789724
1715744041662910836,0.157,,,,8.471484092
1715744041670605204,0.147,,,,8.47917846
1715744041678299572,0.15,,,,8.486872828
1715744041685993940,0.15,,,,8.494567196
1715744041693688308,0.145,,,,8.502261564
1715744041701382676,0.138,,,,8.509955932
1715744041709077044,0.14,,,,8.5176503
1715744041716771412,0.14,,,,8.525344668
1715744041724465780,0.135,,,,8.533039036
1715744041732160148,0.135,,,,8.540733404
1715744041739854516,0.138,,,,8.548427772
1715744041747548884,0.133,,,,8.55612214
1715744041755243252,0.125,,,,8.563816508
1715744041762937620,0.118,,,,8.571510876
1715744041770631988,0.116,,,,8.579205244
1715744041778326356,0.113,,,,8.586899612
1715744041786020724,0.121,,,,8.59459398
1715744041793715092,0.135,,,,8.602288348
1715744041801409460,0.147,,,,8.609982716
1715744041809103828,0.152,,,,8.617677084
1715744041816798196,0.154,,,,8.625371452
1715744041824492564,0.157,,,,8.63306582
1715744041832186932,0.154,,,,8.640760188
1715744041839881300,0.157,,,,8.648454556
1715744041847575668,0.159,,,,8.656148924
1715744041855270036,0.154,,,,8.663843292
1715744041862964404,0.15,,,,8.67153766
1715744041870658772,0.15,,,,8.679232028
1715744041878353140,0.116,,,,8.686926396
1715744041886047508,-0.038,,,,8.694620764
1715744041893741876,-0.268,,,,8.702315132
1715744041901436244,-0.372,,,,8.7100095
1715744041909130612,-0.208,,,,8.717703868
1715744041916824980,0.087,,,,8.725398236
1715744041924519348,0.217,,,,8.733092604
1715744041932213716,0.169,,,,8.740786972
1715744041939908084,0.152,,,,8.74848134
1715744041947602452,0.186,,,,8.756175708
1715744041955296820,0.179,,,,8.763870076
1715744041962991188,0.164,,,,8.771564444
1715744041970685556,0.164,,,,8.779258812
1715744041978379924,0.159,,,,8.78695318
1715744041986074292,0.147,,,,8.794647548
1715744041993768660,0.145,,,,8.802341916
1715744042001463028,0.138,,,,8.810036284
1715744042009157396,0.128,,,,8.817730652
1715744042016851764,0.123,,,,8.82542502
1715744042024546132,0.116,,,,8.833119388
1715744042032240500,0.108,,,,8.840813756
1715744042039934868,0.106,,,,8.848508124
1715744042047629236,0.099,,,,8.856202492
1715744042055323604,0.089,,,,8.86389686
1715744042063017972,0.079,,,,8.871591228
1715744042070712340,0.075,,,,8.879285596
1715744042078406708,0.07,,,,8.886979964
1715744042086101076,0.055,,,,8.894674332
1715744042093795444,0.043,,,,8.9023687
1715744042101489812,0.038,,,,8.910063068
1715744042109184180,0.036,,,,8.917757436
1715744042116878548,0.031,,,,8.925451804
1715744042124572916,0.026,,,,8.933146172
1715744042132267284,0.029,,,,8.94084054
1715744042139961652,0.038,,,,8.948534908
1715744042147656020,0.055,,,,8.956229276
1715744042155350388,0.082,,,,8.963923644
1715744042163044756,0.111,,,,8.971618012
1715744042170739124,0.14,,,,8.97931238
1715744042178433506,0.159,94.0,643.0,,8.987006762
1715744042186127734,0.171,,,,8.99470099
1715744042193821962,0.181,,,,9.002395218
1715744042201516190,0.186,,,,9.010089446
1715744042209210418,0.186,,,,9.017783674
1715744042216904646,0.184,,,,9.025477902
1715744042224598874,0.186,,,,9.03317213
1715744042232293102,0.186,,,,9.040866358
1715744042239987330,0.179,,,,9.048560586
1715744042247681558,0.176,,,,9.056254814
1715744042255375786,0.181,,,,9.063949042
1715744042263070014,0.174,,,,9.07164327
1715744042270764242,0.159,,,,9.079337498
1715744042278458470,0.159,,,,9.087031726
1715744042286152698,0.164,,,,9.094725954
1715744042293846926,0.162,,,,9.102420182
1715744042301541154,0.159,,,,9.11011441
1715744042309235382,0.162,,,,9.117808638
1715744042316929610,0.167,,,,9.125502866
1715744042324623838,0.167,,,,9.133197094
1715744042332318066,0.167,,,,9.140891322
1715744042340012294,0.167,,,,9.14858555
1715744042347706522,0.169,,,,9.156279778
1715744042355400750,0.159,,,,9.163974006
1715744042363094978,0.14,,,,9.171668234
1715744042370789206,0.128,,,,9.179362462
1715744042378483434,0.125,,,,9.18705669
1715744042386177662,0.13,,,,9.194750918
1715744042393871890,0.142,,,,9.202445146
1715744042401566118,0.159,,,,9.210139374
1715744042409260346,0.169,,,,9.217833602
1715744042416954574,0.169,,,,9.22552783
1715744042424648802,0.169,,,,9.233222058
1715744042432343030,0.171,,,,9.240916286
1715744042440037258,0.174,,,,9.248610514
1715744042447731486,0.171,,,,9.256304742
1715744042455425714,0.171,,,,9.26399897
1715744042463119942,0.167,,,,9.271693198
1715744042470814170,0.171,,,,9.279387426
1715744042478508398,0.152,,,,9.287081654
1715744042486202626,0.019,,,,9.294775882
1715744042493896854,-0.222,,,,9.30247011
1715744042501591082,-0.377,,,,9.310164338
1715744042509285310,-0.261,,,,9.317858566
1715744042516979538,0.046,,,,9.325552794
1715744042524673766,0.234,,,,9.333247022
1715744042532367994,0.21,,,,9.34094125
1715744042540062222,0.179,,,,9.348635478
1715744042547756450,0.213,,,,9.356329706
1715744042555450678,0.213,,,,9.364023934
1715744042563144906,0.191,,,,9.371718162
1715744042570839134,0.191,,,,9.37941239
1715744042578533362,0.196,,,,9.387106618
1715744042586227590,0.188,,,,9.394800846
1715744042593921818,0.184,,,,9.402495074
1715744042601616046,0.176,,,,9.410189302
1715744042609310274,0.169,,,,9.41788353
1715744042617004502,0.169,,,,9.425577758
1715744042624698730,0.159,,,,9.433271986
1715744042632392958,0.15,,,,9.440966214
1715744042640087186,0.147,,,,9.448660442
1715744042647781414,0.14,,,,9.45635467
1715744042655475642,0.125,,,,9.464048898
1715744042663169870,0.111,,,,9.471743126
1715744042670864098,0.101,,,,9.479437354
1715744042678558326,0.092,,,,9.487131582
1715744042686252554,0.079,,,,9.49482581
1715744042693946782,0.062,,,,9.502520038
1715744042701641010,0.046,,,,9.510214266
1715744042709335238,0.033,,,,9.517908494
1715744042717029466,0.029,,,,9.525602722
1715744042724723694,0.029,,,,9.53329695
1715744042732417922,0.031,,,,9.540991178
1715744042740112210,0.031,,,,9.548685466
1715744042747806299,0.043,,,,9.556379555
1715744042755500388,0.07,,,,9.564073644
1715744042763194477,0.099,,,,9.571767733
1715744042770888566,0.125,,,,9.579461822
1715744042778582655,0.15,,,,9.587155911
1715744042786276744,0.164,,,,9.59485
1715744042793970833,0.174,,,,9.602544089
1715744042801664922,0.174,,,,9.610238178
1715744042809359011,0.164,,,,9.617932267
1715744042817053100,0.162,,,,9.625626356
1715744042824747189,0.169,,,,9.633320445
1715744042832441278,0.167,,,,9.641014534
1715744042840135367,0.152,,,,9.648708623
1715744042847829456,0.15,,,,9.656402712
1715744042855523545,0.152,,,,9.664096801
1715744042863217634,0.147,,,,9.67179089
1715744042870911723,0.135,,,,9.679484979
1715744042878605812,0.135,,,,9.687179068
1715744042886299901,0.135,,,,9.694873157
1715744042893993990,0.13,,,,9.702567246
1715744042901688079,0.128,,,,9.710261335
1715744042909382168,0.133,,,,9.717955424
1715744042917076257,0.138,,,,9.725649513
1715744042924770346,0.135,,,,9.733343602
1715744042932464435,0.133,,,,9.741037691
1715744042940158524,0.13,,,,9.74873178
1715744042947852613,0.125,,,,9.756425869
1715744042955546702,0.113,,,,9.764119958
1715744042963240791,0.106,,,,9.771814047
1715744042970934880,0.104,,,,9.779508136
1715744042978628969,0.096,,,,9.787202225
1715744042986323058,0.096,,,,9.794896314
1715744042994017147,0.108,,,,9.802590403
1715744043001711236,0.121,,,,9.810284492
1715744043009405325,0.13,,,,9.817978581
1715744043017099414,0.135,,,,9.82567267
1715744043024793503,0.133,,,,9.833366759
1715744043032487592,0.13,,,,9.841060848
1715744043040181681,0.135,,,,9.848754937
1715744043047875770,0.142,,,,9.856449026
1715744043055569859,0.138,,,,9.864143115
1715744043063263948,0.128,,,,9.871837204
1715744043070958037,0.13,,,,9.879531293
1715744043078652126,0.128,,,,9.887225382
1715744043086346215,0.031,,,,9.894919471
1715744043094040304,-0.196,,,,9.90261356
1715744043101734393,-0.399,,,,9.910307649
1715744043109428482,-0.355,,,,9.918001738
1715744043117122571,-0.072,,,,9.925695827
1715744043124816660,0.169,,,,9.933389916
1715744043132510749,0.188,,,,9.941084005
1715744043140204838,0.138,,,,9.948778094
1715744043147898927,0.162,,,,9.956472183
1715744043155593016,0.176,,,,9.964166272
1715744043163287105,0.152,,,,9.971860361
1715744043170981194,0.147,,,,9.97955445
1715744043178675283,0.159,,,,9.987248539
1715744043186369372,0.152,,,,9.994942628
1715744043194063461,0.138,,,,10.002636717
1715744043201757550,0.128,,,,10.010330806
1715744043209451639,0.121,,,,10.018024895
1715744043217145728,0.116,,,,10.025718984
1715744043224839817,0.118,,,,10.033413073
1715744043232533906,0.113,,,,10.041107162
1715744043240227995,0.108,,,,10.048801251
1715744043247922084,0.101,,,,10.05649534
1715744043255616173,0.092,,,,10.064189429
1715744043263310262,0.079,,,,10.071883518
1715744043271004351,0.067,,,,10.079577607
1715744043278698440,0.053,,,,10.087271696
1715744043286392529,0.043,,,,10.094965785
1715744043294086618,0.033,,,,10.102659874
1715744043301780740,0.024,93.0,644.0,,10.110353996
1715744043309475247,0.021,,623.0,,10.118048503
1715744043317169754,0.016,,,,10.12574301
1715744043324864261,0.002,,,,10.133437517
1715744043332558768,-0.004,,,,10.141132024
1715744043340253275,-0.007,,,,10.148826531
1715744043347947782,-0.004,,,,10.156521038
1715744043355642289,0.019,,,,10.164215545
1715744043363336796,0.048,,,,10.171910052
1715744043371031303,0.062,,,,10.179604559
1715744043378725810,0.075,,,,10.187299066
1715744043386420317,0.096,,,,10.194993573
1715744043394114824,0.113,,,,10.20268808
1715744043401809331,0.113,,,,10.210382587
1715744043409503838,0.118,,,,10.218077094
1715744043417198345,0.121,,,,10.225771601
1715744043424892852,0.123,,,,10.233466108
1715744043432587359,0.123,,,,10.241160615
1715744043440281866,0.118,,,,10.248855122
1715744043447976373,0.113,,,,10.256549629
1715744043455670880,0.113,,,,10.264244136
1715744043463365387,0.111,,,,10.271938643
1715744043471059894,0.108,,,,10.27963315
1715744043478754401,0.108,,,,10.287327657
1715744043486448908,0.108,,,,10.295022164
1715744043494143415,0.108,,,,10.302716671
1715744043501837922,0.111,,,,10.310411178
1715744043509532429,0.113,,,,10.318105685
1715744043517226936,0.113,,,,10.325800192
1715744043524921443,0.111,,,,10.333494699
1715744043532615950,0.113,,,,10.341189206
1715744043540310457,0.121,,,,10.348883713
1715744043548004964,0.125,,,,10.35657822
1715744043555699471,0.125,,,,10.364272727
1715744043563393978,0.123,,,,10.371967234
1715744043571088485,0.113,,,,10.379661741
1715744043578782992,0.099,,,,10.387356248
1715744043586477499,0.092,,,,10.395050755
1715744043594172006,0.089,,,,10.402745262
1715744043601866513,0.094,,,,10.410439769
1715744043609561020,0.111,,,,10.418134276
1715744043617255527,0.123,,,,10.425828783
1715744043624950034,0.128,,,,10.43352329
1715744043632644541,0.13,,,,10.441217797
1715744043640339048,0.135,,,,10.448912304
1715744043648033555,0.135,,,,10.456606811
1715744043655728062,0.138,,,,10.464301318
1715744043663422569,0.135,,,,10.471995825
1715744043671117076,0.13,,,,10.479690332
1715744043678811583,0.13,,,,10.487384839
1715744043686506090,0.135,,,,10.495079346
1715744043694200597,0.116,,,,10.502773853
1715744043701895104,-0.012,,,,10.51046836
1715744043709589611,-0.244,,,,10.518162867
1715744043717284118,-0.411,,,,10.525857374
1715744043724978625,-0.319,,,,10.533551881
1715744043732673132,-0.009,,,,10.541246388
1715744043740367639,0.198,,,,10.548940895
1715744043748062146,0.174,,,,10.556635402
1715744043755756653,0.128,,,,10.564329909
1715744043763451160,0.159,,,,10.572024416
1715744043771145667,0.169,,,,10.579718923
1715744043778840174,0.152,,,,10.58741343
1715744043786534681,0.15,,,,10.595107937
1715744043794229188,0.154,,,,10.602802444
1715744043801923695,0.154,,,,10.610496951
1715744043809618202,0.147,,,,10.618191458
1715744043817312709,0.135,,,,10.625885965
1715744043825007216,0.125,,,,10.633580472
1715744043832701723,0.125,,,,10.641274979
1715744043840396230,0.125,,,,10.648969486
1715744043848090737,0.116,,,,10.656663993
1715744043855785244,0.106,,,,10.6643585
1715744043863479790,0.104,,,,10.672053046
1715744043871174018,0.101,,,,10.679747274
1715744043878868246,0.079,,,,10.687441502
1715744043886562474,0.055,,,,10.69513573
1715744043894256702,0.046,,,,10.702829958
1715744043901950930,0.038,,,,10.710524186
1715744043909645158,0.029,,,,10.718218414
1715744043917339386,0.014,,,,10.725912642
1715744043925033614,0.007,,,,10.73360687
1715744043932727842,0.004,,,,10.741301098
1715744043940422070,-0.004,,,,10.748995326
1715744043948116298,-0.016,,,,10.756689554
1715744043955810526,-0.014,,,,10.764383782
1715744043963504754,0.002,,,,10.77207801
1715744043971198982,0.033,,,,10.779772238
1715744043978893210,0.062,,,,10.787466466
1715744043986587438,0.077,,,,10.795160694
1715744043994281666,0.094,,,,10.802854922
1715744044001975894,0.111,,,,10.81054915
1715744044009670122,0.121,,,,10.818243378
1715744044017364350,0.118,,,,10.825937606
1715744044025058578,0.113,,,,10.833631834
1715744044032752806,0.113,,,,10.841326062
1715744044040447034,0.111,,,,10.84902029
1715744044048141262,0.113,,,,10.856714518
1715744044055835490,0.113,,,,10.864408746
1715744044063529718,0.101,,,,10.872102974
1715744044071223946,0.099,,,,10.879797202
1715744044078918174,0.106,,,,10.88749143
1715744044086612402,0.104,,,,10.895185658
1715744044094306630,0.094,,,,10.902879886
1715744044102000858,0.089,,,,10.910574114
1715744044109695086,0.104,,,,10.918268342
1715744044117389314,0.111,,,,10.92596257
1715744044125083542,0.087,,,,10.933656798
1715744044132777770,0.077,,,,10.941351026
1715744044140471998,0.106,,,,10.949045254
1715744044148166226,0.108,,,,10.956739482
1715744044155860454,0.079,,,,10.96443371
1715744044163554682,0.082,,,,10.972127938
1715744044171248910,0.106,,,,10.979822166
1715744044178943138,0.106,,,,10.987516394
1715744044186637366,0.084,,,,10.995210622
1715744044194331594,0.072,,,,11.00290485
1715744044202025822,0.072,,,,11.010599078
1715744044209720050,0.062,,,,11.018293306
1715744044217414278,0.048,,,,11.025987534
1715744044225108506,0.046,,,,11.033681762
1715744044232802734,0.046,,,,11.04137599
1715744044240496962,0.053,,,,11.049070218
1715744044248191190,0.072,,,,11.056764446
1715744044255885418,0.087,,,,11.064458674
1715744044263579646,0.084,,,,11.072152902
1715744044271273874,0.079,,,,11.07984713
1715744044278968102,0.092,,,,11.087541358
1715744044286662330,0.087,,,,11.095235586
1715744044294356558,0.072,,,,11.102929814
1715744044302050786,0.075,,,,11.110624042
1715744044309745014,0.082,,,,11.11831827
1715744044317439242,0.079,,,,11.126012498
1715744044325133470,0.058,,,,11.133706726
1715744044332827698,-0.043,,,,11.141400954
1715744044340521926,-0.259,,,,11.149095182
1715744044348216154,-0.43,,,,11.15678941
1715744044355910382,-0.351,,,,11.164483638
1715744044363604610,-0.065,,,,11.172177866
1715744044371298838,0.138,,,,11.179872094
1715744044378993066,0.121,,,,11.187566322
1715744044386687294,0.06,,,,11.19526055
1715744044394381522,0.087,,,,11.202954778
1715744044402075750,0.111,,,,11.210649006
1715744044409769978,0.089,,,,11.218343234
1715744044417464206,0.082,,,,11.226037462
1715744044425158492,0.094,94.0,602.0,,11.233731748
1715744044432852860,0.077,,603.0,,11.241426116
1715744044440547228,0.062,,,,11.249120484
1715744044448241596,0.07,,,,11.256814852
1715744044455935964,0.06,,,,11.26450922
1715744044463630332,0.043,,,,11.272203588
1715744044471324700,0.041,,,,11.279897956
1715744044479019068,0.033,,,,11.287592324
1715744044486713436,0.031,,,,11.295286692
1715744044494407804,0.036,,,,11.30298106
1715744044502102172,0.021,,,,11.310675428
1715744044509796540,0.007,,,,11.318369796
1715744044517490908,0.004,,,,11.326064164
1715744044525185276,-0.002,,,,11.333758532
1715744044532879644,-0.009,,,,11.3414529
1715744044540574012,-0.007,,,,11.349147268
1715744044548268380,-0.009,,,,11.356841636
1715744044555962748,-0.026,,,,11.364536004
1715744044563657116,-0.043,,,,11.372230372
1715744044571351484,-0.033,,,,11.37992474
1715744044579045852,-0.021,,,,11.387619108
1715744044586740220,-0.026,,,,11.395313476
1715744044594434588,-0.021,,,,11.403007844
1715744044602128956,0.012,,,,11.410702212
1715744044609823324,0.046,,,,11.41839658
1715744044617517692,0.065,,,,11.426090948
1715744044625212060,0.087,,,,11.433785316
1715744044632906428,0.099,,,,11.441479684
1715744044640600796,0.101,,,,11.449174052
1715744044648295164,0.118,,,,11.45686842
1715744044655989532,0.125,,,,11.464562788
1715744044663683900,0.108,,,,11.472257156
1715744044671378268,0.101,,,,11.479951524
1715744044679072636,0.106,,,,11.487645892
1715744044686767004,0.089,,,,11.49534026
1715744044694461372,0.079,,,,11.503034628
1715744044702155740,0.089,,,,11.510728996
1715744044709850108,0.089,,,,11.518423364
1715744044717544476,0.099,,,,11.526117732
1715744044725238844,0.104,,,,11.5338121
1715744044732933212,0.087,,,,11.541506468
1715744044740627580,0.082,,,,11.549200836
1715744044748321948,0.092,,,,11.556895204
1715744044756016316,0.087,,,,11.564589572
1715744044763710684,0.079,,,,11.57228394
1715744044771405052,0.082,,,,11.579978308
1715744044779099420,0.087,,,,11.587672676
1715744044786793788,0.089,,,,11.595367044
1715744044794488156,0.089,,,,11.603061412
1715744044802182524,0.094,,,,11.61075578
1715744044809876892,0.096,,,,11.618450148
1715744044817571260,0.101,,,,11.626144516
1715744044825265628,0.106,,,,11.633838884
1715744044832959996,0.111,,,,11.641533252
1715744044840654364,0.108,,,,11.64922762
1715744044848348732,0.101,,,,11.656921988
1715744044856043100,0.096,,,,11.664616356
1715744044863737468,0.089,,,,11.672310724
1715744044871431836,0.084,,,,11.680005092
1715744044879126204,0.084,,,,11.68769946
1715744044886820572,0.077,,,,11.695393828
1715744044894514940,0.077,,,,11.703088196
1715744044902209308,0.096,,,,11.710782564
1715744044909903676,0.111,,,,11.718476932
1715744044917598044,0.113,,,,11.7261713
1715744044925292412,0.108,,,,11.733865668
1715744044932986780,0.106,,,,11.741560036
1715744044940681148,0.108,,,,11.749254404
1715744044948375516,0.116,,,,11.756948772
1715744044956069884,0.118,,,,11.76464314
1715744044963764252,0.108,,,,11.772337508
1715744044971458620,0.111,,,,11.780031876
1715744044979152988,0.123,,,,11.787726244
1715744044986847368,0.077,,,,11.795420624
1715744044994541666,-0.087,,,,11.803114922
1715744045002235964,-0.295,,,,11.81080922
1715744045009930262,-0.329,,,,11.818503518
1715744045017624560,-0.113,,,,11.826197816
1715744045025318858,0.135,,,,11.833892114
1715744045033013156,0.191,,,,11.841586412
1715744045040707454,0.133,,,,11.84928071
1715744045048401752,0.125,,,,11.856975008
1715744045056096050,0.147,,,,11.864669306
1715744045063790348,0.138,,,,11.872363604
1715744045071484646,0.133,,,,11.880057902
1715744045079178944,0.138,,,,11.8877522
1715744045086873242,0.121,,,,11.895446498
1715744045094567540,0.121,,,,11.903140796
1715744045102261838,0.133,,,,11.910835094
1715744045109956136,0.123,,,,11.918529392
1715744045117650434,0.111,,,,11.92622369
1715744045125344732,0.118,,,,11.933917988
1715744045133039030,0.116,,,,11.941612286
1715744045140733328,0.096,,,,11.949306584
1715744045148427626,0.089,,,,11.957000882
1715744045156121924,0.094,,,,11.96469518
1715744045163816222,0.084,,,,11.972389478
1715744045171510520,0.067,,,,11.980083776
1715744045179204818,0.065,,,,11.987778074
1715744045186899116,0.058,,,,11.995472372
1715744045194593414,0.041,,,,12.00316667
1715744045202287712,0.033,,,,12.010860968
1715744045209982010,0.031,,,,12.018555266
1715744045217676308,0.029,,,,12.026249564
1715744045225370606,0.024,,,,12.033943862
1715744045233064904,0.016,,,,12.04163816
1715744045240759202,0.016,,,,12.049332458
1715744045248453500,0.026,,,,12.057026756
1715744045256147798,0.043,,,,12.064721054
1715744045263842096,0.065,,,,12.072415352
1715744045271536394,0.096,,,,12.08010965
1715744045279230692,0.118,,,,12.087803948
1715744045286924990,0.13,,,,12.095498246
1715744045294619288,0.145,,,,12.103192544
1715744045302313586,0.147,,,,12.110886842
1715744045310007884,0.15,,,,12.11858114
1715744045317702182,0.159,,,,12.126275438
1715744045325396480,0.157,,,,12.133969736
1715744045333090778,0.154,,,,12.141664034
1715744045340785076,0.154,,,,12.149358332
1715744045348479374,0.15,,,,12.15705263
1715744045356173672,0.15,,,,12.164746928
1715744045363867970,0.154,,,,12.172441226
1715744045371562268,0.152,,,,12.180135524
1715744045379256566,0.145,,,,12.187829822
1715744045386950864,0.138,,,,12.19552412
1715744045394645162,0.13,,,,12.203218418
1715744045402339460,0.13,,,,12.210912716
1715744045410033758,0.13,,,,12.218607014
1715744045417728056,0.125,,,,12.226301312
1715744045425422354,0.123,,,,12.23399561
1715744045433116652,0.128,,,,12.241689908
1715744045440810950,0.125,,,,12.249384206
1715744045448505248,0.128,,,,12.257078504
1715744045456199546,0.13,,,,12.264772802
1715744045463893844,0.13,,,,12.2724671
1715744045471588142,0.133,,,,12.280161398
1715744045479282440,0.135,,,,12.287855696
1715744045486976738,0.14,,,,12.295549994
1715744045494671036,0.142,,,,12.303244292
1715744045502365334,0.142,,,,12.31093859
1715744045510059632,0.135,,,,12.318632888
1715744045517753930,0.116,,,,12.326327186
1715744045525448228,0.108,,,,12.334021484
1715744045533142526,0.123,,,,12.341715782
1715744045540836824,0.128,,,,12.34941008
1715744045548531160,0.123,95.0,614.0,,12.357104416
1715744045556225458,0.138,,,,12.364798714
1715744045563919756,0.154,,,,12.372493012
1715744045571614054,0.154,,,,12.38018731
1715744045579308352,0.154,,,,12.387881608
1715744045587002650,0.157,,,,12.395575906
1715744045594696948,0.162,,,,12.403270204
1715744045602391246,0.169,,,,12.410964502
1715744045610085544,0.167,,,,12.4186588
1715744045617779842,0.157,,,,12.426353098
1715744045625474140,0.152,,,,12.434047396
1715744045633168438,0.157,,,,12.441741694
1715744045640862736,0.123,,,,12.449435992
1715744045648557034,-0.036,,,,12.45713029
1715744045656251332,-0.261,,,,12.464824588
1715744045663945630,-0.322,,,,12.472518886
1715744045671639928,-0.106,,,,12.480213184
1715744045679334226,0.174,,,,12.487907482
1715744045687028524,0.244,,,,12.49560178
1715744045694722822,0.169,,,,12.503296078
1715744045702417120,0.159,,,,12.510990376
1715744045710111418,0.198,,,,12.518684674
1715744045717805716,0.186,,,,12.526378972
1715744045725500014,0.169,,,,12.53407327
1715744045733194312,0.181,,,,12.541767568
1715744045740888610,0.186,,,,12.549461866
1715744045748582908,0.174,,,,12.557156164
1715744045756277206,0.169,,,,12.564850462
1715744045763971504,0.169,,,,12.57254476
1715744045771665802,0.167,,,,12.580239058
1715744045779360100,0.169,,,,12.587933356
1715744045787054398,0.164,,,,12.595627654
1715744045794748696,0.154,,,,12.603321952
1715744045802442994,0.152,,,,12.61101625
1715744045810137292,0.147,,,,12.618710548
1715744045817831590,0.138,,,,12.626404846
1715744045825525888,0.138,,,,12.634099144
1715744045833220186,0.135,,,,12.641793442
1715744045840914484,0.123,,,,12.64948774
1715744045848608782,0.111,,,,12.657182038
1715744045856303080,0.101,,,,12.664876336
1715744045863997378,0.089,,,,12.672570634
1715744045871691676,0.084,,,,12.680264932
1715744045879385974,0.089,,,,12.68795923
1715744045887080272,0.087,,,,12.695653528
1715744045894774570,0.072,,,,12.703347826
1715744045902468868,0.065,,,,12.711042124
1715744045910163166,0.084,,,,12.718736422
1715744045917857464,0.121,,,,12.72643072
1715744045925551762,0.145,,,,12.734125018
1715744045933246060,0.169,,,,12.741819316
1715744045940940358,0.196,,,,12.749513614
1715744045948634656,0.213,,,,12.757207912
1715744045956328954,0.217,,,,12.76490221
1715744045964023252,0.225,,,,12.772596508
1715744045971717550,0.237,,,,12.780290806
1715744045979411848,0.239,,,,12.787985104
1715744045987106146,0.234,,,,12.795679402
1715744045994800444,0.239,,,,12.8033737
1715744046002494742,0.242,,,,12.811067998
1715744046010189040,0.234,,,,12.818762296
1715744046017883338,0.234,,,,12.826456594
1715744046025577636,0.237,,,,12.834150892
1715744046033271934,0.234,,,,12.84184519
1715744046040966232,0.23,,,,12.849539488
1715744046048660530,0.232,,,,12.857233786
1715744046056354828,0.23,,,,12.864928084
1715744046064049126,0.227,,,,12.872622382
1715744046071743424,0.225,,,,12.88031668
1715744046079437722,0.225,,,,12.888010978
1715744046087132020,0.227,,,,12.895705276
1715744046094826318,0.23,,,,12.903399574
1715744046102520616,0.225,,,,12.911093872
1715744046110214950,0.217,96.0,631.0,,12.918788206
1715744046117909248,0.22,,657.0,,12.926482504
1715744046125603546,0.232,,,,12.934176802
1715744046133297844,0.23,,,,12.9418711
1715744046140992142,0.213,,,,12.949565398
1715744046148686440,0.203,,,,12.957259696
1715744046156380738,0.198,,,,12.964953994
1715744046164075036,0.184,,,,12.972648292
1715744046171769334,0.174,,,,12.98034259
1715744046179463632,0.184,,,,12.988036888
1715744046187157930,0.203,,,,12.995731186
1715744046194852228,0.213,,,,13.003425484
1715744046202546526,0.208,,,,13.011119782
1715744046210240824,0.208,,,,13.01881408
1715744046217935122,0.215,,,,13.026508378
1715744046225629420,0.213,,,,13.034202676
1715744046233323718,0.208,,,,13.041896974
1715744046241018016,0.21,,,,13.049591272
1715744046248712314,0.213,,,,13.05728557
1715744046256406612,0.215,,,,13.064979868
1715744046264100910,0.215,,,,13.072674166
1715744046271795208,0.147,,,,13.080368464
1715744046279489506,-0.072,,,,13.088062762
1715744046287183804,-0.324,,,,13.09575706
1715744046294878102,-0.322,,,,13.103451358
1715744046302572400,-0.007,,,,13.111145656
1715744046310266698,0.29,,,,13.118839954
1715744046317960996,0.309,,,,13.126534252
1715744046325655294,0.23,,,,13.13422855
1715744046333349592,0.246,,,,13.141922848
1715744046341043890,0.263,,,,13.149617146
1715744046348738188,0.244,,,,13.157311444
1715744046356432486,0.242,,,,13.165005742
1715744046364126784,0.242,,,,13.17270004
1715744046371821082,0.23,,,,13.180394338
1715744046379515380,0.23,,,,13.188088636
1715744046387209678,0.227,,,,13.195782934
1715744046394903976,0.21,,,,13.203477232
1715744046402598274,0.191,,,,13.21117153
1715744046410292572,0.179,,,,13.218865828
1715744046417986870,0.176,,,,13.226560126
1715744046425681168,0.174,,,,13.234254424
1715744046433375466,0.167,,,,13.241948722
1715744046441069764,0.157,,,,13.24964302
1715744046448764062,0.14,,,,13.257337318
1715744046456458360,0.128,,,,13.265031616
1715744046464152658,0.121,,,,13.272725914
1715744046471846956,0.101,,,,13.280420212
1715744046479541254,0.089,,,,13.28811451
1715744046487235552,0.089,,,,13.295808808
1715744046494929850,0.07,,,,13.303503106
1715744046502624148,0.058,,,,13.311197404
1715744046510318446,0.06,,,,13.318891702
1715744046518012744,0.053,,,,13.326586
1715744046525707042,0.043,,,,13.334280298
1715744046533401340,0.05,,,,13.341974596
1715744046541095638,0.082,,,,13.349668894
1715744046548789936,0.121,,,,13.357363192
1715744046556484234,0.152,,,,13.36505749
1715744046564178532,0.176,,,,13.372751788
1715744046571872830,0.2,,,,13.380446086
1715744046579567128,0.215,,,,13.388140384
1715744046587261426,0.213,,,,13.395834682
1715744046594955724,0.208,,,,13.40352898
1715744046602650022,0.22,,,,13.411223278
1715744046610344320,0.217,,,,13.418917576
1715744046618038618,0.21,,,,13.426611874
1715744046625732916,0.215,,,,13.434306172
1715744046633427214,0.208,,,,13.44200047
1715744046641121512,0.2,,,,13.449694768
1715744046648815810,0.213,,,,13.457389066
1715744046656510108,0.203,,,,13.465083364
1715744046664204406,0.176,,,,13.472777662
1715744046671898740,0.176,,,,13.480471996
1715744046679592899,0.181,,,,13.488166155
1715744046687287058,0.171,,,,13.495860314
1715744046694981217,0.179,,,,13.503554473
1715744046702675376,0.193,,,,13.511248632
1715744046710369535,0.179,,,,13.518942791
1715744046718063694,0.164,,,,13.52663695
1715744046725757853,0.162,,,,13.534331109
1715744046733452012,0.142,,,,13.542025268
1715744046741146171,0.128,,,,13.549719427
1715744046748840330,0.125,,,,13.557413586
1715744046756534489,0.116,,,,13.565107745
1715744046764228648,0.116,,,,13.572801904
1715744046771922807,0.138,,,,13.580496063
1715744046779616966,0.157,,,,13.588190222
1715744046787311125,0.152,,,,13.595884381
1715744046795005284,0.14,,,,13.60357854
1715744046802699443,0.147,,,,13.611272699
1715744046810393602,0.154,,,,13.618966858
1715744046818087761,0.142,,,,13.626661017
1715744046825781920,0.135,,,,13.634355176
1715744046833476079,0.142,,,,13.642049335
1715744046841170238,0.162,,,,13.649743494
1715744046848864397,0.164,,,,13.657437653
1715744046856558556,0.026,,,,13.665131812
1715744046864252715,-0.288,,,,13.672825971
1715744046871946874,-0.527,,,,13.68052013
1715744046879641033,-0.43,,,,13.688214289
1715744046887335192,-0.053,,,,13.695908448
1715744046895029351,0.249,,,,13.703602607
1715744046902723510,0.225,,,,13.711296766
1715744046910417669,0.123,,,,13.718990925
1715744046918111828,0.157,,,,13.726685084
1715744046925805987,0.181,,,,13.734379243
1715744046933500146,0.142,,,,13.742073402
1715744046941194305,0.147,,,,13.749767561
1715744046948888464,0.169,,,,13.75746172
1715744046956582623,0.14,,,,13.765155879
1715744046964276782,0.116,,,,13.772850038
1715744046971970941,0.128,,,,13.780544197
1715744046979665100,0.125,,,,13.788238356
1715744046987359259,0.108,,,,13.795932515
1715744046995053418,0.111,,,,13.803626674
1715744047002747577,0.108,,,,13.811320833
1715744047010441736,0.092,,,,13.819014992
1715744047018135895,0.084,,,,13.826709151
1715744047025830054,0.075,,,,13.83440331
1715744047033524213,0.055,,,,13.842097469
1715744047041218372,0.053,,,,13.849791628
1715744047048912531,0.055,,,,13.857485787
1715744047056606690,0.024,,,,13.865179946
1715744047064300849,-0.009,,,,13.872874105
1715744047071995008,-0.007,,,,13.880568264
1715744047079689167,0.004,,,,13.888262423
1715744047087383326,-0.009,,,,13.895956582
1715744047095077485,-0.019,,,,13.903650741
1715744047102771644,-0.016,,,,13.9113449
1715744047110465803,-0.009,,,,13.919039059
1715744047118159962,0.021,,,,13.926733218
1715744047125854121,0.05,,,,13.934427377
1715744047133548280,0.058,,,,13.942121536
1715744047141242439,0.089,,,,13.949815695
1715744047148936598,0.125,,,,13.957509854
1715744047156630757,0.138,,,,13.965204013
1715744047164324916,0.147,,,,13.972898172
1715744047172019075,0.147,,,,13.980592331
1715744047179713234,0.135,,,,13.98828649
1715744047187407393,0.142,,,,13.995980649
1715744047195101552,0.157,,,,14.003674808
1715744047202795711,0.14,,,,14.011368967
1715744047210489870,0.125,,,,14.019063126
1715744047218184029,0.142,,,,14.026757285
1715744047225878188,0.14,,,,14.034451444
1715744047233572356,0.116,95.0,654.0,,14.042145612
1715744047241266724,0.111,,,,14.04983998
1715744047248961092,0.121,,,,14.057534348
1715744047256655460,0.125,,,,14.065228716
1715744047264349828,0.125,,,,14.072923084
1715744047272044196,0.113,,,,14.080617452
1715744047279738564,0.099,,,,14.08831182
1715744047287432932,0.104,,,,14.096006188
1715744047295127300,0.104,,,,14.103700556
1715744047302821668,0.089,,,,14.111394924
1715744047310516036,0.087,,,,14.119089292
1715744047318210404,0.094,,,,14.12678366
1715744047325904772,0.089,,,,14.134478028
1715744047333599140,0.082,,,,14.142172396
1715744047341293508,0.099,,,,14.149866764
1715744047348987876,0.125,,,,14.157561132
1715744047356682244,0.125,,,,14.1652555
1715744047364376612,0.118,,,,14.172949868
1715744047372070980,0.118,,,,14.180644236
1715744047379765348,0.125,,,,14.188338604
1715744047387459716,0.13,,,,14.196032972
1715744047395154084,0.118,,,,14.20372734
1715744047402848452,0.113,,,,14.211421708
1715744047410542820,0.123,,,,14.219116076
1715744047418237188,0.125,,,,14.226810444
1715744047425931556,0.019,,,,14.234504812
1715744047433625924,-0.276,,,,14.24219918
1715744047441320292,-0.561,,,,14.249893548
1715744047449014660,-0.535,,,,14.257587916
1715744047456709028,-0.152,,,,14.265282284
1715744047464403396,0.215,,,,14.272976652
1715744047472097764,0.225,,,,14.28067102
1715744047479792132,0.118,,,,14.288365388
1715744047487486500,0.164,,,,14.296059756
1715744047495180868,0.205,,,,14.303754124
1715744047502875236,0.169,,,,14.311448492
1715744047510569604,0.159,,,,14.31914286
1715744047518263972,0.169,,,,14.326837228
1715744047525958340,0.159,,,,14.334531596
1715744047533652708,0.159,,,,14.342225964
1715744047541347076,0.162,,,,14.349920332
1715744047549041444,0.154,,,,14.3576147
1715744047556735812,0.145,,,,14.365309068
1715744047564430180,0.142,,,,14.373003436
1715744047572124548,0.145,,,,14.380697804
1715744047579818916,0.13,,,,14.388392172
1715744047587513284,0.116,,,,14.39608654
1715744047595207652,0.121,,,,14.403780908
1715744047602902020,0.121,,,,14.411475276
1715744047610596388,0.104,,,,14.419169644
1715744047618290756,0.089,,,,14.426864012
1715744047625985124,0.082,,,,14.43455838
1715744047633679492,0.072,,,,14.442252748
1715744047641373860,0.06,,,,14.449947116
1715744047649068228,0.055,,,,14.457641484
1715744047656762596,0.05,,,,14.465335852
1715744047664456964,0.046,,,,14.47303022
1715744047672151332,0.053,,,,14.480724588
1715744047679845700,0.062,,,,14.488418956
1715744047687540068,0.077,,,,14.496113324
1715744047695234436,0.108,,,,14.503807692
1715744047702928804,0.133,,,,14.51150206
1715744047710623172,0.162,,,,14.519196428
1715744047718317540,0.191,,,,14.526890796
1715744047726011908,0.203,,,,14.534585164
1715744047733706276,0.203,,,,14.542279532
1715744047741400644,0.2,,,,14.5499739
1715744047749095012,0.203,,,,14.557668268
1715744047756789380,0.21,,,,14.565362636
1715744047764483748,0.2,,,,14.573057004
1715744047772178116,0.191,,,,14.580751372
1715744047779872484,0.2,,,,14.58844574
1715744047787566852,0.196,,,,14.596140108
1715744047795261232,0.184,,,,14.603834488
1715744047802955600,0.188,,,,14.611528856
1715744047810649968,0.188,,,,14.619223224
1715744047818344336,0.176,,,,14.626917592
1715744047826038704,0.174,,,,14.63461196
1715744047833733072,0.176,,,,14.642306328
1715744047841427440,0.162,,,,14.650000696
1715744047849121808,0.157,,,,14.657695064
1715744047856816176,0.164,,,,14.665389432
1715744047864510544,0.162,,,,14.6730838
1715744047872204912,0.157,,,,14.680778168
1715744047879899280,0.157,,,,14.688472536
1715744047887593648,0.162,,,,14.696166904
1715744047895288016,0.164,,,,14.703861272
1715744047902982384,0.164,,,,14.71155564
1715744047910676752,0.157,,,,14.719250008
1715744047918371120,0.14,,,,14.726944376
1715744047926065488,0.123,,,,14.734638744
1715744047933759856,0.123,,,,14.742333112
1715744047941454224,0.14,,,,14.75002748
1715744047949148592,0.15,,,,14.757721848
1715744047956842960,0.147,,,,14.765416216
1715744047964537328,0.152,,,,14.773110584
1715744047972231696,0.169,,,,14.780804952
1715744047979926064,0.171,,,,14.78849932
1715744047987620432,0.162,,,,14.796193688
1715744047995314800,0.167,,,,14.803888056
1715744048003009168,0.174,,,,14.811582424
1715744048010703536,0.164,,,,14.819276792
1715744048018397904,0.159,,,,14.82697116
1715744048026092272,0.171,,,,14.834665528
1715744048033786640,0.181,,,,14.842359896
1715744048041481008,0.108,,,,14.850054264
1715744048049175376,-0.133,,,,14.857748632
1715744048056869744,-0.433,,,,14.865443
1715744048064564112,-0.51,,,,14.873137368
1715744048072258480,-0.227,,,,14.880831736
1715744048079952848,0.167,,,,14.888526104
1715744048087647216,0.29,,,,14.896220472
1715744048095341584,0.193,,,,14.90391484
1715744048103035952,0.181,,,,14.911609208
1715744048110730320,0.225,,,,14.919303576
1715744048118424688,0.21,,,,14.926997944
1715744048126119056,0.196,,,,14.934692312
1715744048133813424,0.2,,,,14.94238668
1715744048141507792,0.188,,,,14.950081048
1715744048149202160,0.184,,,,14.957775416
1715744048156896528,0.188,,,,14.965469784
1715744048164590896,0.179,,,,14.973164152
1715744048172285264,0.167,,,,14.98085852
1715744048179979632,0.164,,,,14.988552888
1715744048187674000,0.162,,,,14.996247256
1715744048195368368,0.159,,,,15.003941624
1715744048203062736,0.147,,,,15.011635992
1715744048210757104,0.138,,,,15.01933036
1715744048218451472,0.13,,,,15.027024728
1715744048226145840,0.123,,,,15.034719096
1715744048233840208,0.113,,,,15.042413464
1715744048241534576,0.104,,,,15.050107832
1715744048249228944,0.092,,,,15.0578022
1715744048256923312,0.082,,,,15.065496568
1715744048264617680,0.072,,,,15.073190936
1715744048272312048,0.065,,,,15.080885304
1715744048280006416,0.058,,,,15.088579672
1715744048287700784,0.048,,,,15.09627404
1715744048295395152,0.048,,,,15.103968408
1715744048303089520,0.058,,,,15.111662776
1715744048310783888,0.07,,,,15.119357144
1715744048318478256,0.092,,,,15.127051512
1715744048326172624,0.125,,,,15.13474588
1715744048333866992,0.157,,,,15.142440248
1715744048341561360,0.174,,,,15.150134616
1715744048349255728,0.181,,,,15.157828984
1715744048356950108,0.181,95.0,629.0,,15.165523364
1715744048364644476,0.176,,583.0,,15.173217732
1715744048372338844,0.169,,,,15.1809121
1715744048380033212,0.154,,,,15.188606468
1715744048387727580,0.14,,,,15.196300836
1715744048395421948,0.138,,,,15.203995204
1715744048403116316,0.142,,,,15.211689572
1715744048410810684,0.138,,,,15.21938394
1715744048418505052,0.13,,,,15.227078308
1715744048426199420,0.121,,,,15.234772676
1715744048433893788,0.118,,,,15.242467044
1715744048441588156,0.116,,,,15.250161412
1715744048449282524,0.113,,,,15.25785578
1715744048456976892,0.116,,,,15.265550148
1715744048464671260,0.118,,,,15.273244516
1715744048472365628,0.116,,,,15.280938884
1715744048480059996,0.113,,,,15.288633252
1715744048487754364,0.118,,,,15.29632762
1715744048495448732,0.125,,,,15.304021988
1715744048503143100,0.13,,,,15.311716356
1715744048510837468,0.128,,,,15.319410724
1715744048518531836,0.13,,,,15.327105092
1715744048526226204,0.133,,,,15.33479946
1715744048533920572,0.133,,,,15.342493828
1715744048541614940,0.133,,,,15.350188196
1715744048549309308,0.138,,,,15.357882564
1715744048557003676,0.14,,,,15.365576932
1715744048564698044,0.138,,,,15.3732713
1715744048572392412,0.14,,,,15.380965668
1715744048580086780,0.145,,,,15.388660036
1715744048587781148,0.15,,,,15.396354404
1715744048595475516,0.147,,,,15.404048772
1715744048603169884,0.142,,,,15.41174314
1715744048610864252,0.14,,,,15.419437508
1715744048618558620,0.135,,,,15.427131876
1715744048626252988,0.135,,,,15.434826244
1715744048633947356,0.138,,,,15.442520612
1715744048641641724,0.14,,,,15.45021498
1715744048649336092,0.135,,,,15.457909348
1715744048657030460,0.135,,,,15.465603716
1715744048664724828,0.14,,,,15.473298084
1715744048672419196,0.14,,,,15.480992452
1715744048680113564,0.135,,,,15.48868682
1715744048687807932,0.133,,,,15.496381188
1715744048695502300,0.14,,,,15.504075556
1715744048703196668,0.14,,,,15.511769924
1715744048710891036,0.135,,,,15.519464292
1715744048718585404,0.138,,,,15.52715866
1715744048726279772,0.145,,,,15.534853028
1715744048733974140,0.138,,,,15.542547396
1715744048741668508,0.121,,,,15.550241764
1715744048749362876,0.106,,,,15.557936132
1715744048757057244,0.108,,,,15.5656305
1715744048764751612,0.116,,,,15.573324868
1715744048772445980,0.113,,,,15.581019236
1715744048780140348,0.118,,,,15.588713604
1715744048787834716,0.128,,,,15.596407972
1715744048795529084,0.138,,,,15.60410234
1715744048803223452,0.138,,,,15.611796708
1715744048810917820,0.135,,,,15.619491076
1715744048818612188,0.135,,,,15.627185444
1715744048826306556,0.135,,,,15.634879812
1715744048834000924,0.138,,,,15.64257418
1715744048841695292,0.135,,,,15.650268548
1715744048849389660,0.138,,,,15.657962916
1715744048857084028,0.138,,,,15.665657284
1715744048864778396,0.053,,,,15.673351652
1715744048872472764,-0.181,,,,15.68104602
1715744048880167132,-0.445,,,,15.688740388
1715744048887861500,-0.481,,,,15.696434756
1715744048895555868,-0.193,,,,15.704129124
1715744048903250236,0.154,,,,15.711823492
1715744048910944604,0.234,,,,15.71951786
1715744048918638986,0.14,,,,15.727212242
1715744048926333354,0.135,,,,15.73490661
1715744048934027722,0.169,,,,15.742600978
1715744048941722090,0.152,,,,15.750295346
1715744048949416458,0.142,,,,15.757989714
1715744048957110826,0.147,,,,15.765684082
1715744048964805194,0.135,,,,15.77337845
1715744048972499562,0.123,,,,15.781072818
1715744048980193930,0.113,,,,15.788767186
1715744048987888298,0.101,,,,15.796461554
1715744048995582666,0.094,,,,15.804155922
1715744049003277034,0.089,,,,15.81185029
1715744049010971402,0.079,,,,15.819544658
1715744049018665770,0.072,,,,15.827239026
1715744049026360138,0.06,,,,15.834933394
1715744049034054506,0.048,,,,15.842627762
1715744049041748874,0.043,,,,15.85032213
1715744049049443242,0.043,,,,15.858016498
1715744049057137610,0.033,,,,15.865710866
1715744049064831978,0.014,,,,15.873405234
1715744049072526346,0.004,,,,15.881099602
1715744049080220714,0.0,,,,15.88879397
1715744049087915082,-0.012,,,,15.896488338
1715744049095609450,-0.019,,,,15.904182706
1715744049103303818,-0.016,,,,15.911877074
1715744049110998186,-0.024,,,,15.919571442
1715744049118692554,-0.031,,,,15.92726581
1715744049126386922,-0.026,,,,15.934960178
1715744049134081290,-0.012,,,,15.942654546
1715744049141775658,0.007,,,,15.950348914
1715744049149470026,0.036,,,,15.958043282
1715744049157164394,0.072,,,,15.96573765
1715744049164858762,0.094,,,,15.973432018
1715744049172553130,0.108,,,,15.981126386
1715744049180247498,0.128,,,,15.988820754
1715744049187941866,0.145,,,,15.996515122
1715744049195636234,0.15,,,,16.00420949
1715744049203330602,0.147,,,,16.011903858
1715744049211024970,0.142,,,,16.019598226
1715744049218719338,0.142,,,,16.027292594
1715744049226413706,0.14,,,,16.034986962
1715744049234108074,0.14,,,,16.04268133
1715744049241802442,0.142,,,,16.050375698
1715744049249496810,0.138,,,,16.058070066
1715744049257191178,0.13,,,,16.065764434
1715744049264885546,0.128,,,,16.073458802
1715744049272579914,0.135,,,,16.08115317
1715744049280274282,0.138,,,,16.088847538
1715744049287968650,0.135,,,,16.096541906
1715744049295663018,0.133,,,,16.104236274
1715744049303357386,0.133,,,,16.111930642
1715744049311051754,0.133,,,,16.11962501
1715744049318746122,0.13,,,,16.127319378
1715744049326440490,0.13,,,,16.135013746
1715744049334134858,0.13,,,,16.142708114
1715744049341829226,0.138,,,,16.150402482
1715744049349523594,0.138,,,,16.15809685
1715744049357217962,0.123,,,,16.165791218
1715744049364912330,0.121,,,,16.173485586
1715744049372606698,0.128,,,,16.181179954
1715744049380301066,0.128,,,,16.188874322
1715744049387995434,0.123,,,,16.19656869
1715744049395689802,0.125,,,,16.204263058
1715744049403384170,0.13,,,,16.211957426
1715744049411078538,0.128,,,,16.219651794
1715744049418772906,0.125,,,,16.227346162
1715744049426467274,0.125,,,,16.23504053
1715744049434161642,0.121,,,,16.242734898
1715744049441856010,0.111,,,,16.250429266
1715744049449550378,0.113,,,,16.258123634
1715744049457244746,0.118,,,,16.265818002
1715744049464939114,0.118,,,,16.27351237
1715744049472633482,0.118,,,,16.281206738
1715744049480327862,0.116,95.0,571.0,,16.288901118
1715744049488022230,0.116,,,,16.296595486
1715744049495716598,0.118,,,,16.304289854
1715744049503410966,0.118,,,,16.311984222
1715744049511105334,0.118,,,,16.31967859
1715744049518799702,0.123,,,,16.327372958
1715744049526494070,0.123,,,,16.335067326
1715744049534188438,0.116,,,,16.342761694
1715744049541882806,0.106,,,,16.350456062
1715744049549577174,0.096,,,,16.35815043
1715744049557271542,0.087,,,,16.365844798
1715744049564965910,0.079,,,,16.373539166
1715744049572660278,0.087,,,,16.381233534
1715744049580354646,0.094,,,,16.388927902
1715744049588049014,0.099,,,,16.39662227
1715744049595743382,0.111,,,,16.404316638
1715744049603437750,0.113,,,,16.412011006
1715744049611132118,0.104,,,,16.419705374
1715744049618826486,0.099,,,,16.427399742
1715744049626520854,0.101,,,,16.43509411
1715744049634215222,0.108,,,,16.442788478
1715744049641909590,0.106,,,,16.450482846
1715744049649603958,0.099,,,,16.458177214
1715744049657298326,0.104,,,,16.465871582
1715744049664992694,0.084,,,,16.47356595
1715744049672687062,-0.053,,,,16.481260318
1715744049680381430,-0.305,,,,16.488954686
1715744049688075798,-0.481,,,,16.496649054
1715744049695770166,-0.384,,,,16.504343422
1715744049703464534,-0.053,,,,16.51203779
1715744049711158902,0.176,,,,16.519732158
1715744049718853270,0.15,,,,16.527426526
1715744049726547638,0.092,,,,16.535120894
1715744049734242006,0.125,,,,16.542815262
1715744049741936374,0.135,,,,16.55050963
1715744049749630742,0.111,,,,16.558203998
1715744049757325110,0.111,,,,16.565898366
1715744049765019478,0.116,,,,16.573592734
1715744049772713846,0.106,,,,16.581287102
1715744049780408214,0.101,,,,16.58898147
1715744049788102582,0.099,,,,16.596675838
1715744049795796950,0.094,,,,16.604370206
1715744049803491318,0.087,,,,16.612064574
1715744049811185686,0.079,,,,16.619758942
1715744049818880054,0.077,,,,16.62745331
1715744049826574422,0.077,,,,16.635147678
1715744049834268790,0.075,,,,16.642842046
1715744049841963158,0.062,,,,16.650536414
1715744049849657526,0.048,,,,16.658230782
1715744049857351894,0.036,,,,16.66592515
1715744049865046262,0.029,,,,16.673619518
1715744049872740630,0.026,,,,16.681313886
1715744049880434998,0.019,,,,16.689008254
1715744049888129366,0.004,,,,16.696702622
1715744049895823734,-0.002,,,,16.70439699
1715744049903518102,-0.004,,,,16.712091358
1715744049911212470,-0.012,,,,16.719785726
1715744049918906838,-0.014,,,,16.727480094
1715744049926601206,-0.002,,,,16.735174462
1715744049934295574,0.004,,,,16.74286883
1715744049941989942,0.009,,,,16.750563198
1715744049949684310,0.024,,,,16.758257566
1715744049957378678,0.058,,,,16.765951934
1715744049965073046,0.089,,,,16.773646302
1715744049972767414,0.111,,,,16.78134067
1715744049980461782,0.125,,,,16.789035038
1715744049988156150,0.138,,,,16.796729406
1715744049995850518,0.145,,,,16.804423774
1715744050003544886,0.145,,,,16.812118142
1715744050011239254,0.147,,,,16.81981251
1715744050018933622,0.152,,,,16.827506878
1715744050026627990,0.15,,,,16.835201246
1715744050034322358,0.145,,,,16.842895614
1715744050042016738,0.142,,,,16.850589994
1715744050049711106,0.142,,,,16.858284362
1715744050057405474,0.142,,,,16.86597873
1715744050065099842,0.14,,,,16.873673098
1715744050072794210,0.135,,,,16.881367466
1715744050080488578,0.138,,,,16.889061834
1715744050088182946,0.135,,,,16.896756202
1715744050095877314,0.128,,,,16.90445057
1715744050103571682,0.125,,,,16.912144938
1715744050111266050,0.135,,,,16.919839306
1715744050118960418,0.133,,,,16.927533674
1715744050126654786,0.121,,,,16.935228042
1715744050134349154,0.113,,,,16.94292241
1715744050142043522,0.116,,,,16.950616778
1715744050149737890,0.123,,,,16.958311146
1715744050157432258,0.125,,,,16.966005514
1715744050165126626,0.128,,,,16.973699882
1715744050172820994,0.128,,,,16.98139425
1715744050180515362,0.125,,,,16.989088618
1715744050188209730,0.125,,,,16.996782986
1715744050195904098,0.125,,,,17.004477354
1715744050203598466,0.125,,,,17.012171722
1715744050211292834,0.125,,,,17.01986609
1715744050218987202,0.125,,,,17.027560458
1715744050226681570,0.123,,,,17.035254826
1715744050234375938,0.128,,,,17.042949194
1715744050242070306,0.128,,,,17.050643562
1715744050249764674,0.121,,,,17.05833793
1715744050257459042,0.123,,,,17.066032298
1715744050265153410,0.125,,,,17.073726666
1715744050272847778,0.118,,,,17.081421034
1715744050280542146,0.118,,,,17.089115402
1715744050288236514,0.121,,,,17.09680977
1715744050295930882,0.116,,,,17.104504138
1715744050303625250,0.108,,,,17.112198506
1715744050311319618,0.106,,,,17.119892874
1715744050319013986,0.104,,,,17.127587242
1715744050326708354,0.096,,,,17.13528161
1715744050334402722,0.084,,,,17.142975978
1715744050342097090,0.072,,,,17.150670346
1715744050349791458,0.07,,,,17.158364714
1715744050357485826,0.07,,,,17.166059082
1715744050365180194,0.07,,,,17.17375345
1715744050372874562,0.079,,,,17.181447818
1715744050380568930,0.096,,,,17.189142186
1715744050388263298,0.104,,,,17.196836554
1715744050395957666,0.104,,,,17.204530922
1715744050403652034,0.106,,,,17.21222529
1715744050411346402,0.106,,,,17.219919658
1715744050419040770,0.104,,,,17.227614026
1715744050426735138,0.104,,,,17.235308394
1715744050434429506,0.106,,,,17.243002762
1715744050442123874,0.111,,,,17.25069713
1715744050449818242,0.108,,,,17.258391498
1715744050457512610,0.046,,,,17.266085866
1715744050465206978,-0.13,,,,17.273780234
1715744050472901346,-0.358,,,,17.281474602
1715744050480595714,-0.44,,,,17.28916897
1715744050488290082,-0.239,,,,17.296863338
1715744050495984450,0.079,,,,17.304557706
1715744050503678818,0.2,,,,17.312252074
1715744050511373186,0.13,,,,17.319946442
1715744050519067554,0.118,,,,17.32764081
1715744050526761922,0.154,,,,17.335335178
1715744050534456290,0.142,,,,17.343029546
1715744050542150658,0.125,,,,17.350723914
1715744050549845026,0.135,,,,17.358418282
1715744050557539394,0.133,,,,17.36611265
1715744050565233762,0.123,,,,17.373807018
1715744050572928130,0.123,,,,17.381501386
1715744050580622498,0.118,,,,17.389195754
1715744050588316866,0.104,,,,17.396890122
1715744050596011234,0.099,,,,17.40458449
1715744050603705614,0.099,97.0,618.0,,17.41227887
1715744050611399982,0.092,,,,17.419973238
1715744050619094350,0.084,,,,17.427667606
1715744050626788718,0.084,,,,17.435361974
1715744050634483086,0.077,,,,17.443056342
1715744050642177454,0.065,,,,17.45075071
1715744050649871822,0.062,,,,17.458445078
1715744050657566190,0.053,,,,17.466139446
1715744050665260558,0.033,,,,17.473833814
1715744050672954926,0.019,,,,17.481528182
1715744050680649294,0.014,,,,17.48922255
1715744050688343662,0.009,,,,17.496916918
1715744050696038030,0.002,,,,17.504611286
1715744050703732398,-0.004,,,,17.512305654
1715744050711426766,-0.002,,,,17.520000022
1715744050719121134,0.004,,,,17.52769439
1715744050726815502,0.014,,,,17.535388758
1715744050734509870,0.033,,,,17.543083126
1715744050742204238,0.062,,,,17.550777494
1715744050749898606,0.096,,,,17.558471862
1715744050757592974,0.128,,,,17.56616623
1715744050765287342,0.152,,,,17.573860598
1715744050772981710,0.164,,,,17.581554966
1715744050780676078,0.169,,,,17.589249334
1715744050788370446,0.174,,,,17.596943702
1715744050796064814,0.186,,,,17.60463807
1715744050803759182,0.193,,,,17.612332438
1715744050811453550,0.186,,,,17.620026806
1715744050819147918,0.176,,,,17.627721174
1715744050826842286,0.167,,,,17.635415542
1715744050834536654,0.164,,,,17.64310991
1715744050842231022,0.159,,,,17.650804278
1715744050849925390,0.157,,,,17.658498646
1715744050857619758,0.159,,,,17.666193014
1715744050865314126,0.157,,,,17.673887382
1715744050873008494,0.142,,,,17.68158175
1715744050880702862,0.135,,,,17.689276118
1715744050888397230,0.142,,,,17.696970486
1715744050896091598,0.14,,,,17.704664854
1715744050903785966,0.135,,,,17.712359222
1715744050911480334,0.14,,,,17.72005359
1715744050919174702,0.14,,,,17.727747958
1715744050926869070,0.125,,,,17.735442326
1715744050934563438,0.123,,,,17.743136694
1715744050942257806,0.135,,,,17.750831062
1715744050949952174,0.135,,,,17.75852543
1715744050957646542,0.123,,,,17.766219798
1715744050965340910,0.118,,,,17.773914166
1715744050973035278,0.123,,,,17.781608534
1715744050980729646,0.125,,,,17.789302902
1715744050988424014,0.123,,,,17.79699727
1715744050996118382,0.128,,,,17.804691638
1715744051003812750,0.133,,,,17.812386006
1715744051011507118,0.13,,,,17.820080374
1715744051019201486,0.128,,,,17.827774742
1715744051026895854,0.133,,,,17.83546911
1715744051034590222,0.142,,,,17.843163478
1715744051042284590,0.142,,,,17.850857846
1715744051049978958,0.13,,,,17.858552214
1715744051057673326,0.118,,,,17.866246582
1715744051065367694,0.116,,,,17.87394095
1715744051073062062,0.116,,,,17.881635318
1715744051080756430,0.113,,,,17.889329686
1715744051088450798,0.113,,,,17.897024054
1715744051096145166,0.123,,,,17.904718422
1715744051103839534,0.138,,,,17.91241279
1715744051111533902,0.147,,,,17.920107158
1715744051119228270,0.147,,,,17.927801526
1715744051126922638,0.15,,,,17.935495894
1715744051134617006,0.152,,,,17.943190262
1715744051142311374,0.152,,,,17.95088463
1715744051150005742,0.15,,,,17.958578998
1715744051157700110,0.15,,,,17.966273366
1715744051165394490,0.157,100.0,822.0,,17.973967746
1715744051173089276,0.157,,805.0,,17.981662532
1715744051180784062,0.07,,,,17.989357318
1715744051188478848,-0.164,,,,17.997052104
1715744051196173634,-0.397,,,,18.00474689
1715744051203868420,-0.37,,,,18.012441676
1715744051211563206,-0.062,,,,18.020136462
1715744051219257992,0.217,,,,18.027831248
1715744051226952778,0.232,,,,18.035526034
1715744051234647564,0.157,,,,18.04322082
1715744051242342350,0.171,,,,18.050915606
1715744051250037136,0.193,,,,18.058610392
1715744051257731922,0.181,,,,18.066305178
1715744051265426708,0.174,,,,18.073999964
1715744051273121494,0.169,,,,18.08169475
1715744051280816280,0.167,,,,18.089389536
1715744051288511066,0.169,,,,18.097084322
1715744051296205852,0.162,,,,18.104779108
1715744051303900638,0.15,,,,18.112473894
1715744051311595424,0.15,,,,18.12016868
1715744051319290210,0.152,,,,18.127863466
1715744051326984996,0.138,,,,18.135558252
1715744051334679782,0.121,,,,18.143253038
1715744051342374568,0.121,,,,18.150947824
1715744051350069354,0.116,,,,18.15864261
1715744051357764140,0.108,,,,18.166337396
1715744051365458926,0.104,,,,18.174032182
1715744051373153712,0.094,,,,18.181726968
1715744051380848498,0.079,,,,18.189421754
1715744051388543284,0.065,,,,18.19711654
1715744051396238070,0.058,,,,18.204811326
1715744051403932856,0.048,,,,18.212506112
1715744051411627642,0.041,,,,18.220200898
1715744051419322428,0.033,,,,18.227895684
1715744051427017214,0.029,,,,18.23559047
1715744051434712000,0.031,,,,18.243285256
1715744051442406786,0.036,,,,18.250980042
1715744051450101572,0.046,,,,18.258674828
1715744051457796358,0.067,,,,18.266369614
1715744051465491144,0.089,,,,18.2740644
1715744051473185930,0.108,,,,18.281759186
1715744051480880716,0.138,,,,18.289453972
1715744051488575502,0.164,,,,18.297148758
1715744051496270288,0.176,,,,18.304843544
1715744051503965074,0.179,,,,18.31253833
1715744051511659860,0.181,,,,18.320233116
1715744051519354646,0.181,,,,18.327927902
1715744051527049432,0.181,,,,18.335622688
1715744051534744218,0.174,,,,18.343317474
1715744051542439004,0.176,,,,18.35101226
1715744051550133790,0.181,,,,18.358707046
1715744051557828576,0.174,,,,18.366401832
1715744051565523362,0.164,,,,18.374096618
1715744051573218148,0.164,,,,18.381791404
1715744051580912934,0.159,,,,18.38948619
1715744051588607720,0.154,,,,18.397180976
1715744051596302506,0.154,,,,18.404875762
1715744051603997292,0.154,,,,18.412570548
1715744051611692078,0.147,,,,18.420265334
1715744051619386864,0.142,,,,18.42796012
1715744051627081650,0.147,,,,18.435654906
1715744051634776436,0.154,,,,18.443349692
1715744051642471222,0.152,,,,18.451044478
1715744051650166008,0.145,,,,18.458739264
1715744051657860794,0.14,,,,18.46643405
1715744051665555580,0.142,,,,18.474128836
1715744051673250366,0.147,,,,18.481823622
1715744051680945152,0.15,,,,18.489518408
1715744051688639938,0.15,,,,18.497213194
1715744051696334724,0.152,,,,18.50490798
1715744051704029510,0.147,,,,18.512602766
1715744051711724296,0.133,,,,18.520297552
1715744051719419082,0.125,,,,18.527992338
1715744051727113882,0.125,,,,18.535687138
1715744051734807762,0.123,,,,18.543381018
1715744051742501642,0.118,,,,18.551074898
1715744051750195522,0.121,,,,18.558768778
1715744051757889402,0.138,,,,18.566462658
1715744051765583282,0.152,,,,18.574156538
1715744051773277162,0.145,,,,18.581850418
1715744051780971042,0.133,,,,18.589544298
1715744051788664922,0.135,,,,18.597238178
1715744051796358802,0.142,,,,18.604932058
1715744051804052682,0.14,,,,18.612625938
1715744051811746562,0.133,,,,18.620319818
1715744051819440442,0.128,,,,18.628013698
1715744051827134322,0.135,,,,18.635707578
1715744051834828202,0.123,,,,18.643401458
1715744051842522082,0.002,,,,18.651095338
1715744051850215962,-0.249,,,,18.658789218
1715744051857909842,-0.445,,,,18.666483098
1715744051865603722,-0.355,,,,18.674176978
1715744051873297602,-0.016,,,,18.681870858
1715744051880991482,0.222,,,,18.689564738
1715744051888685362,0.196,,,,18.697258618
1715744051896379242,0.133,,,,18.704952498
1715744051904073122,0.162,,,,18.712646378
1715744051911767002,0.171,,,,18.720340258
1715744051919460882,0.154,,,,18.728034138
1715744051927154762,0.154,,,,18.735728018
1715744051934848642,0.15,,,,18.743421898
1715744051942542522,0.138,,,,18.751115778
1715744051950236402,0.138,,,,18.758809658
1715744051957930282,0.135,,,,18.766503538
1715744051965624162,0.118,,,,18.774197418
1715744051973318042,0.104,,,,18.781891298
1715744051981011922,0.101,,,,18.789585178
1715744051988705802,0.101,,,,18.797279058
1715744051996399682,0.092,,,,18.804972938
1715744052004093562,0.084,,,,18.812666818
1715744052011787442,0.084,,,,18.820360698
1715744052019481322,0.067,,,,18.828054578
1715744052027175202,0.048,,,,18.835748458
1715744052034869082,0.046,,,,18.843442338
1715744052042562962,0.043,,,,18.851136218
1715744052050256842,0.021,,,,18.858830098
1715744052057950722,0.007,,,,18.866523978
1715744052065644602,-0.002,,,,18.874217858
1715744052073338482,-0.012,,,,18.881911738
1715744052081032362,-0.026,,,,18.889605618
1715744052088726242,-0.036,,,,18.897299498
1715744052096420122,-0.029,,,,18.904993378
1715744052104114002,-0.014,,,,18.912687258
1715744052111807882,0.002,,,,18.920381138
1715744052119501762,0.029,,,,18.928075018
1715744052127195642,0.06,,,,18.935768898
1715744052134889522,0.092,,,,18.943462778
1715744052142583402,0.121,,,,18.951156658
1715744052150277282,0.14,,,,18.958850538
1715744052157971162,0.14,,,,18.966544418
1715744052165665042,0.142,,,,18.974238298
1715744052173358922,0.147,,,,18.981932178
1715744052181052802,0.147,,,,18.989626058
1715744052188746682,0.145,,,,18.997319938
1715744052196440562,0.15,,,,19.005013818
1715744052204134442,0.15,,,,19.012707698
1715744052211828322,0.145,,,,19.020401578
1715744052219522202,0.138,,,,19.028095458
1715744052227216082,0.135,,,,19.035789338
1715744052234909962,0.135,,,,19.043483218
1715744052242603842,0.138,,,,19.051177098
1715744052250297722,0.133,,,,19.058870978
1715744052257991602,0.13,,,,19.066564858
1715744052265685482,0.135,,,,19.074258738
1715744052273379362,0.14,,,,19.081952618
1715744052281073242,0.14,,,,19.089646498
1715744052288767158,0.135,100.0,790.0,,19.097340414
1715744052296461595,0.128,,,,19.105034851
1715744052304156032,0.128,,,,19.112729288
1715744052311850469,0.128,,,,19.120423725
1715744052319544906,0.13,,,,19.128118162
1715744052327239343,0.13,,,,19.135812599
1715744052334933780,0.138,,,,19.143507036
1715744052342628217,0.14,,,,19.151201473
1715744052350322654,0.138,,,,19.15889591
1715744052358017091,0.125,,,,19.166590347
1715744052365711528,0.113,,,,19.174284784
1715744052373405965,0.104,,,,19.181979221
1715744052381100402,0.094,,,,19.189673658
1715744052388794839,0.101,,,,19.197368095
1715744052396489276,0.118,,,,19.205062532
1715744052404183713,0.128,,,,19.212756969
1715744052411878150,0.13,,,,19.220451406
1715744052419572587,0.135,,,,19.228145843
1715744052427267024,0.142,,,,19.23584028
1715744052434961461,0.142,,,,19.243534717
1715744052442655898,0.14,,,,19.251229154
1715744052450350335,0.14,,,,19.258923591
1715744052458044772,0.14,,,,19.266618028
1715744052465739209,0.138,,,,19.274312465
1715744052473433646,0.138,,,,19.282006902
1715744052481128083,0.111,,,,19.289701339
1715744052488822520,-0.048,,,,19.297395776
1715744052496516957,-0.309,,,,19.305090213
1715744052504211394,-0.45,,,,19.31278465
1715744052511905831,-0.285,,,,19.320479087
1715744052519600268,0.06,,,,19.328173524
1715744052527294705,0.237,,,,19.335867961
1715744052534989142,0.179,,,,19.343562398
1715744052542683579,0.142,,,,19.351256835
1715744052550378016,0.186,,,,19.358951272
1715744052558072453,0.184,,,,19.366645709
1715744052565766890,0.159,,,,19.374340146
1715744052573461327,0.169,,,,19.382034583
1715744052581155764,0.167,,,,19.38972902
1715744052588850201,0.15,,,,19.397423457
1715744052596544638,0.147,,,,19.405117894
1715744052604239075,0.152,,,,19.412812331
1715744052611933512,0.145,,,,19.420506768
1715744052619627949,0.135,,,,19.428201205
1715744052627322386,0.13,,,,19.435895642
1715744052635016823,0.128,,,,19.443590079
1715744052642711260,0.121,,,,19.451284516
1715744052650405697,0.113,,,,19.458978953
1715744052658100134,0.108,,,,19.46667339
1715744052665794571,0.104,,,,19.474367827
1715744052673489008,0.089,,,,19.482062264
1715744052681183445,0.077,,,,19.489756701
1715744052688877882,0.07,,,,19.497451138
1715744052696572319,0.062,,,,19.505145575
1715744052704266756,0.053,,,,19.512840012
1715744052711961193,0.036,,,,19.520534449
1715744052719655630,0.031,,,,19.528228886
1715744052727350067,0.031,,,,19.535923323
1715744052735044504,0.029,,,,19.54361776
1715744052742738941,0.036,,,,19.551312197
1715744052750433378,0.053,,,,19.559006634
1715744052758127815,0.072,,,,19.566701071
1715744052765822252,0.099,,,,19.574395508
1715744052773516689,0.128,,,,19.582089945
1715744052781211126,0.157,,,,19.589784382
1715744052788905563,0.179,,,,19.597478819
1715744052796600000,0.191,,,,19.605173256
1715744052804294437,0.188,,,,19.612867693
1715744052811988874,0.188,,,,19.62056213
1715744052819683311,0.193,,,,19.628256567
1715744052827377748,0.188,,,,19.635951004
1715744052835072185,0.186,,,,19.643645441
1715744052842766622,0.186,,,,19.651339878
1715744052850461120,0.176,,,,19.659034376
1715744052858155488,0.164,,,,19.666728744
1715744052865849856,0.167,,,,19.674423112
1715744052873544224,0.169,,,,19.68211748
1715744052881238592,0.164,,,,19.689811848
1715744052888932960,0.154,,,,19.697506216
1715744052896627328,0.152,,,,19.705200584
1715744052904321696,0.152,,,,19.712894952
1715744052912016064,0.142,,,,19.72058932
1715744052919710432,0.138,,,,19.728283688
1715744052927404800,0.14,,,,19.735978056
1715744052935099168,0.138,,,,19.743672424
1715744052942793536,0.133,,,,19.751366792
1715744052950487904,0.128,,,,19.75906116
1715744052958182272,0.128,,,,19.766755528
1715744052965876640,0.125,,,,19.774449896
1715744052973571008,0.121,,,,19.782144264
1715744052981265376,0.121,,,,19.789838632
1715744052988959744,0.125,,,,19.797533
1715744052996654112,0.128,,,,19.805227368
1715744053004348480,0.125,,,,19.812921736
1715744053012042848,0.118,,,,19.820616104
1715744053019737216,0.106,,,,19.828310472
1715744053027431584,0.099,,,,19.83600484
1715744053035125952,0.101,,,,19.843699208
1715744053042820320,0.099,,,,19.851393576
1715744053050514688,0.094,,,,19.859087944
1715744053058209056,0.104,,,,19.866782312
1715744053065903424,0.123,,,,19.87447668
1715744053073597792,0.13,,,,19.882171048
1715744053081292160,0.133,,,,19.889865416
1715744053088986528,0.135,,,,19.897559784
1715744053096680896,0.138,,,,19.905254152
1715744053104375264,0.138,,,,19.91294852
1715744053112069632,0.135,,,,19.920642888
1715744053119764000,0.138,,,,19.928337256
1715744053127458368,0.145,,,,19.936031624
1715744053135152736,0.145,,,,19.943725992
1715744053142847104,0.067,,,,19.95142036
1715744053150541472,-0.135,,,,19.959114728
1715744053158235840,-0.358,,,,19.966809096
1715744053165930208,-0.387,,,,19.974503464
1715744053173624576,-0.133,,,,19.982197832
1715744053181318944,0.164,,,,19.9898922
1715744053189013312,0.225,,,,19.997586568
1715744053196707680,0.157,,,,20.005280936
1715744053204402048,0.171,,,,20.012975304
1715744053212096416,0.2,,,,20.020669672
1715744053219790784,0.184,,,,20.02836404
1715744053227485152,0.171,,,,20.036058408
1715744053235179520,0.174,,,,20.043752776
1715744053242873888,0.169,,,,20.051447144
1715744053250568256,0.164,,,,20.059141512
1715744053258262624,0.162,,,,20.06683588
1715744053265956992,0.154,,,,20.074530248
1715744053273651360,0.15,,,,20.082224616
1715744053281345728,0.147,,,,20.089918984
1715744053289040096,0.14,,,,20.097613352
1715744053296734464,0.128,,,,20.10530772
1715744053304428832,0.123,,,,20.113002088
1715744053312123200,0.113,,,,20.120696456
1715744053319817568,0.104,,,,20.128390824
1715744053327511936,0.101,,,,20.136085192
1715744053335206304,0.094,,,,20.14377956
1715744053342900672,0.079,,,,20.151473928
1715744053350595040,0.072,,,,20.159168296
1715744053358289408,0.07,,,,20.166862664
1715744053365983776,0.058,,,,20.174557032
1715744053373678144,0.048,,,,20.1822514
1715744053381372512,0.046,,,,20.189945768
1715744053389066880,0.043,,,,20.197640136
1715744053396761248,0.041,,,,20.205334504
1715744053404455616,0.046,,,,20.213028872
1715744053412149996,0.058,99.0,721.0,,20.220723252
1715744053419844364,0.084,,660.0,,20.22841762
1715744053427538732,0.118,,,,20.236111988
1715744053435233100,0.147,,,,20.243806356
1715744053442927468,0.167,,,,20.251500724
1715744053450621836,0.179,,,,20.259195092
1715744053458316204,0.181,,,,20.26688946
1715744053466010572,0.179,,,,20.274583828
1715744053473704940,0.184,,,,20.282278196
1715744053481399308,0.181,,,,20.289972564
1715744053489093676,0.171,,,,20.297666932
1715744053496788044,0.171,,,,20.3053613
1715744053504482412,0.171,,,,20.313055668
1715744053512176780,0.164,,,,20.320750036
1715744053519871148,0.162,,,,20.328444404
1715744053527565516,0.162,,,,20.336138772
1715744053535259884,0.159,,,,20.34383314
1715744053542954252,0.154,,,,20.351527508
1715744053550648620,0.147,,,,20.359221876
1715744053558342988,0.147,,,,20.366916244
1715744053566037356,0.154,,,,20.374610612
1715744053573731724,0.154,,,,20.38230498
1715744053581426092,0.15,,,,20.389999348
1715744053589120460,0.152,,,,20.397693716
1715744053596814828,0.154,,,,20.405388084
1715744053604509196,0.15,,,,20.413082452
1715744053612203564,0.15,,,,20.42077682
1715744053619897932,0.157,,,,20.428471188
1715744053627592300,0.154,,,,20.436165556
1715744053635286668,0.147,,,,20.443859924
1715744053642981036,0.147,,,,20.451554292
1715744053650675404,0.152,,,,20.45924866
1715744053658369772,0.15,,,,20.466943028
1715744053666064140,0.145,,,,20.474637396
1715744053673758508,0.145,,,,20.482331764
1715744053681452876,0.147,,,,20.490026132
1715744053689147244,0.147,,,,20.4977205
1715744053696841612,0.145,,,,20.505414868
1715744053704535980,0.128,,,,20.513109236
1715744053712230348,0.111,,,,20.520803604
1715744053719924716,0.108,,,,20.528497972
1715744053727619084,0.106,,,,20.53619234
1715744053735313452,0.099,,,,20.543886708
1715744053743007820,0.106,,,,20.551581076
1715744053750702188,0.125,,,,20.559275444
1715744053758396556,0.135,,,,20.566969812
1715744053766090924,0.135,,,,20.57466418
1715744053773785292,0.135,,,,20.582358548
1715744053781479660,0.133,,,,20.590052916
1715744053789174028,0.13,,,,20.597747284
1715744053796868396,0.13,,,,20.605441652
1715744053804562764,0.133,,,,20.61313602
1715744053812257132,0.133,,,,20.620830388
1715744053819951500,0.14,,,,20.628524756
1715744053827645868,0.13,,,,20.636219124
1715744053835340236,0.048,,,,20.643913492
1715744053843034604,-0.154,,,,20.65160786
1715744053850728972,-0.363,,,,20.659302228
1715744053858423340,-0.363,,,,20.666996596
1715744053866117708,-0.101,,,,20.674690964
1715744053873812076,0.164,,,,20.682385332
1715744053881506444,0.203,,,,20.6900797
1715744053889200812,0.142,,,,20.697774068
1715744053896895180,0.157,,,,20.705468436
1715744053904589548,0.186,,,,20.713162804
1715744053912283916,0.169,,,,20.720857172
1715744053919978284,0.159,,,,20.72855154
1715744053927672652,0.167,,,,20.736245908
1715744053935367020,0.159,,,,20.743940276
1715744053943061388,0.152,,,,20.751634644
1715744053950755756,0.154,,,,20.759329012
1715744053958450124,0.15,,,,20.76702338
1715744053966144492,0.133,,,,20.774717748
1715744053973838872,0.13,,,,20.782412128
1715744053981533240,0.13,,,,20.790106496
1715744053989227608,0.113,,,,20.797800864
1715744053996921976,0.096,,,,20.805495232
1715744054004616344,0.099,,,,20.8131896
1715744054012310712,0.094,,,,20.820883968
1715744054020005080,0.084,,,,20.828578336
1715744054027699448,0.077,,,,20.836272704
1715744054035393816,0.062,,,,20.843967072
1715744054043088184,0.048,,,,20.85166144
1715744054050782552,0.041,,,,20.859355808
1715744054058476920,0.026,,,,20.867050176
1715744054066171288,0.016,,,,20.874744544
1715744054073865656,0.016,,,,20.882438912
1715744054081560024,0.016,,,,20.89013328
1715744054089254392,0.014,,,,20.897827648
1715744054096948760,0.016,,,,20.905522016
1715744054104643128,0.033,,,,20.913216384
1715744054112337496,0.062,,,,20.920910752
1715744054120031864,0.089,,,,20.92860512
1715744054127726232,0.116,,,,20.936299488
1715744054135420600,0.145,,,,20.943993856
1715744054143114968,0.162,,,,20.951688224
1715744054150809336,0.167,,,,20.959382592
1715744054158503704,0.176,,,,20.96707696
1715744054166198072,0.181,,,,20.974771328
1715744054173892440,0.179,,,,20.982465696
1715744054181586808,0.174,,,,20.990160064
1715744054189281176,0.174,,,,20.997854432
1715744054196975544,0.174,,,,21.0055488
1715744054204669912,0.169,,,,21.013243168
1715744054212364280,0.169,,,,21.020937536
1715744054220058648,0.174,,,,21.028631904
1715744054227753016,0.167,,,,21.036326272
1715744054235447384,0.164,,,,21.04402064
1715744054243141752,0.162,,,,21.051715008
1715744054250836120,0.164,,,,21.059409376
1715744054258530488,0.164,,,,21.067103744
1715744054266224856,0.159,,,,21.074798112
1715744054273919224,0.154,,,,21.08249248
1715744054281613592,0.152,,,,21.090186848
1715744054289307960,0.15,,,,21.097881216
1715744054297002328,0.147,,,,21.105575584
1715744054304696696,0.145,,,,21.113269952
1715744054312391064,0.15,,,,21.12096432
1715744054320085432,0.157,,,,21.128658688
1715744054327779800,0.15,,,,21.136353056
1715744054335474168,0.142,,,,21.144047424
1715744054343168536,0.147,,,,21.151741792
1715744054350862904,0.15,,,,21.15943616
1715744054358557272,0.147,,,,21.167130528
1715744054366251640,0.15,,,,21.174824896
1715744054373946008,0.15,,,,21.182519264
1715744054381640376,0.145,,,,21.190213632
1715744054389334744,0.147,,,,21.197908
1715744054397029112,0.15,,,,21.205602368
1715744054404723480,0.147,,,,21.213296736
1715744054412417848,0.147,,,,21.220991104
1715744054420112216,0.152,,,,21.228685472
1715744054427806584,0.147,,,,21.23637984
1715744054435500952,0.135,,,,21.244074208
1715744054443195320,0.121,,,,21.251768576
1715744054450889688,0.116,,,,21.259462944
1715744054458584056,0.116,,,,21.267157312
1715744054466278424,0.116,,,,21.27485168
1715744054473972792,0.118,,,,21.282546048
1715744054481667160,0.118,,,,21.290240416
1715744054489361528,0.118,,,,21.297934784
1715744054497055896,0.121,,,,21.305629152
1715744054504750264,0.116,,,,21.31332352
1715744054512444632,0.113,,,,21.321017888
1715744054520139000,0.111,,,,21.328712256
1715744054527833368,0.104,,,,21.336406624
1715744054535527748,0.104,98.0,645.0,,21.344101004
1715744054543221698,0.108,,,,21.351794954
1715744054550915648,0.118,,,,21.359488904
1715744054558609598,0.108,,,,21.367182854
1715744054566303548,0.016,,,,21.374876804
1715744054573997498,-0.191,,,,21.382570754
1715744054581691448,-0.399,,,,21.390264704
1715744054589385398,-0.411,,,,21.397958654
1715744054597079348,-0.162,,,,21.405652604
1715744054604773298,0.116,,,,21.413346554
1715744054612467248,0.174,,,,21.421040504
1715744054620161198,0.118,,,,21.428734454
1715744054627855148,0.13,,,,21.436428404
1715744054635549098,0.162,,,,21.444122354
1715744054643243048,0.15,,,,21.451816304
1715744054650936998,0.138,,,,21.459510254
1715744054658630948,0.138,,,,21.467204204
1715744054666324898,0.135,,,,21.474898154
1715744054674018848,0.13,,,,21.482592104
1715744054681712798,0.13,,,,21.490286054
1715744054689406748,0.123,,,,21.497980004
1715744054697100698,0.123,,,,21.505673954
1715744054704794648,0.118,,,,21.513367904
1715744054712488598,0.111,,,,21.521061854
1715744054720182548,0.108,,,,21.528755804
1715744054727876498,0.106,,,,21.536449754
1715744054735570448,0.099,,,,21.544143704
1715744054743264398,0.089,,,,21.551837654
1715744054750958348,0.084,,,,21.559531604
1715744054758652298,0.077,,,,21.567225554
1715744054766346248,0.062,,,,21.574919504
1715744054774040198,0.048,,,,21.582613454
1715744054781734148,0.041,,,,21.590307404
1715744054789428098,0.038,,,,21.598001354
1715744054797122048,0.033,,,,21.605695304
1715744054804815998,0.026,,,,21.613389254
1715744054812509948,0.021,,,,21.621083204
1715744054820203898,0.021,,,,21.628777154
1715744054827897848,0.024,,,,21.636471104
1715744054835591798,0.038,,,,21.644165054
1715744054843285748,0.062,,,,21.651859004
1715744054850979698,0.092,,,,21.659552954
1715744054858673648,0.125,,,,21.667246904
1715744054866367598,0.152,,,,21.674940854
1715744054874061548,0.174,,,,21.682634804
1715744054881755498,0.184,,,,21.690328754
1715744054889449448,0.184,,,,21.698022704
1715744054897143398,0.188,,,,21.705716654
1715744054904837348,0.193,,,,21.713410604
1715744054912531298,0.193,,,,21.721104554
1715744054920225248,0.193,,,,21.728798504
1715744054927919198,0.191,,,,21.736492454
1715744054935613148,0.188,,,,21.744186404
1715744054943307098,0.191,,,,21.751880354
1715744054951001048,0.186,,,,21.759574304
1715744054958694998,0.181,,,,21.767268254
1715744054966388948,0.186,,,,21.774962204
1715744054974082898,0.188,,,,21.782656154
1715744054981776848,0.179,,,,21.790350104
1715744054989470798,0.169,,,,21.798044054
1715744054997164748,0.164,,,,21.805738004
1715744055004858698,0.164,,,,21.813431954
1715744055012552648,0.169,,,,21.821125904
1715744055020246598,0.162,,,,21.828819854
1715744055027940548,0.157,,,,21.836513804
1715744055035634498,0.167,,,,21.844207754
1715744055043328448,0.169,,,,21.851901704
1715744055051022398,0.167,,,,21.859595654
1715744055058716348,0.171,,,,21.867289604
1715744055066410298,0.169,,,,21.874983554
1715744055074104248,0.162,,,,21.882677504
1715744055081798198,0.164,,,,21.890371454
1715744055089492148,0.174,,,,21.898065404
1715744055097186108,0.181,96.0,659.0,,21.905759364
1715744055104880476,0.179,,691.0,,21.913453732
1715744055112574844,0.176,,,,21.9211481
1715744055120269212,0.169,,,,21.928842468
1715744055127963580,0.159,,,,21.936536836
1715744055135657948,0.142,,,,21.944231204
1715744055143352316,0.135,,,,21.951925572
1715744055151046684,0.138,,,,21.95961994
1715744055158741052,0.14,,,,21.967314308
1715744055166435420,0.142,,,,21.975008676
1715744055174129788,0.15,,,,21.982703044
1715744055181824156,0.157,,,,21.990397412
1715744055189518524,0.157,,,,21.99809178
1715744055197212892,0.154,,,,22.005786148
1715744055204907260,0.152,,,,22.013480516
1715744055212601628,0.15,,,,22.021174884
1715744055220295996,0.152,,,,22.028869252
1715744055227990364,0.145,,,,22.03656362
1715744055235684732,0.15,,,,22.044257988
1715744055243379100,0.157,,,,22.051952356
1715744055251073468,0.067,,,,22.059646724
1715744055258767836,-0.176,,,,22.067341092
1715744055266462204,-0.414,,,,22.07503546
1715744055274156572,-0.382,,,,22.082729828
1715744055281850940,-0.072,,,,22.090424196
1715744055289545308,0.198,,,,22.098118564
1715744055297239676,0.215,,,,22.105812932
1715744055304934044,0.154,,,,22.1135073
1715744055312628412,0.176,,,,22.121201668
1715744055320322780,0.193,,,,22.128896036
1715744055328017148,0.171,,,,22.136590404
1715744055335711516,0.171,,,,22.144284772
1715744055343405884,0.184,,,,22.15197914
1715744055351100252,0.174,,,,22.159673508
1715744055358794620,0.164,,,,22.167367876
1715744055366488988,0.167,,,,22.175062244
1715744055374183356,0.162,,,,22.182756612
1715744055381877724,0.15,,,,22.19045098
1715744055389572092,0.152,,,,22.198145348
1715744055397266460,0.15,,,,22.205839716
1715744055404960828,0.135,,,,22.213534084
1715744055412655196,0.128,,,,22.221228452
1715744055420349564,0.13,,,,22.22892282
1715744055428043932,0.125,,,,22.236617188
1715744055435738300,0.111,,,,22.244311556
1715744055443432668,0.101,,,,22.252005924
1715744055451127036,0.089,,,,22.259700292
1715744055458821404,0.079,,,,22.26739466
1715744055466515772,0.077,,,,22.275089028
1715744055474210140,0.079,,,,22.282783396
1715744055481904508,0.062,,,,22.290477764
1715744055489598876,0.048,,,,22.298172132
1715744055497293244,0.043,,,,22.3058665
