time,ecg,hr,rr,marker,norm_time
1715932944315848768,0.021,91.0,650.0,,0.0
1715932944323543345,0.044,,,,0.007694577
1715932944331237922,0.049,,,,0.015389154
1715932944338932499,0.044,,,,0.023083731
1715932944346627076,0.056,,,,0.030778308
1715932944354321653,0.063,,,,0.038472885
1715932944362016230,0.059,,,,0.046167462
1715932944369710807,0.068,,,,0.053862039
1715932944377405384,0.075,,,,0.061556616
1715932944385099961,0.071,,,,0.069251193
1715932944392794538,0.071,,,,0.07694577
1715932944400489115,0.082,,,,0.084640347
1715932944408183692,0.092,,,,0.092334924
1715932944415878269,0.092,,,,0.100029501
1715932944423572846,0.104,,,,0.107724078
1715932944431267423,0.123,,,,0.115418655
1715932944438962000,0.13,,,,0.123113232
1715932944446656577,0.132,,,,0.130807809
1715932944454351154,0.137,,,,0.138502386
1715932944462045731,0.142,,,,0.146196963
1715932944469740308,0.142,,,,0.15389154
1715932944477434885,0.132,,,,0.161586117
1715932944485129462,0.125,,,,0.169280694
1715932944492824039,0.113,,,,0.176975271
1715932944500518616,0.094,,,,0.184669848
1715932944508213193,0.075,,,,0.192364425
1715932944515907770,0.063,,,,0.200059002
1715932944523602347,0.052,,,,0.207753579
1715932944531296924,0.044,,,,0.215448156
1715932944538991501,0.037,,,,0.223142733
1715932944546686078,0.035,,,,0.23083731
1715932944554380655,0.04,,,,0.238531887
1715932944562075232,0.044,,,,0.246226464
1715932944569769809,0.044,,,,0.253921041
1715932944577464386,0.04,,,,0.261615618
1715932944585158963,0.04,,,,0.269310195
1715932944592853540,0.044,,,,0.277004772
1715932944600548117,0.047,,,,0.284699349
1715932944608242694,0.049,,,,0.292393926
1715932944615937271,0.052,,,,0.300088503
1715932944623631848,0.054,,,,0.30778308
1715932944631326425,0.056,,,,0.315477657
1715932944639021002,0.061,,,,0.323172234
1715932944646715579,0.068,,,,0.330866811
1715932944654410156,0.068,,,,0.338561388
1715932944662104733,0.068,,,,0.346255965
1715932944669799310,0.071,,,,0.353950542
1715932944677493887,0.066,,,,0.361645119
1715932944685188464,0.061,,,,0.369339696
1715932944692883041,0.066,,,,0.377034273
1715932944700577618,0.073,,,,0.38472885
1715932944708272195,0.071,,,,0.392423427
1715932944715966772,0.071,,,,0.400118004
1715932944723661349,0.075,,,,0.407812581
1715932944731355926,0.078,,,,0.415507158
1715932944739050503,0.078,,,,0.423201735
1715932944746745080,0.078,,,,0.430896312
1715932944754439657,0.078,,,,0.438590889
1715932944762134234,0.08,,,,0.446285466
1715932944769828811,0.08,,,,0.453980043
1715932944777523388,0.08,,,,0.46167462
1715932944785217965,0.082,,,,0.469369197
1715932944792912542,0.085,,,,0.477063774
1715932944800607119,0.082,,,,0.484758351
1715932944808301696,0.08,,,,0.492452928
1715932944815996273,0.078,,,,0.500147505
1715932944823690850,0.071,,,,0.507842082
1715932944831385427,0.08,,,,0.515536659
1715932944839080004,0.101,,,,0.523231236
1715932944846774581,0.12,,,,0.530925813
1715932944854469158,0.116,,,,0.53862039
1715932944862163735,0.092,,,,0.546314967
1715932944869858312,0.082,,,,0.554009544
1715932944877552902,0.087,91.0,660.0,,0.561704134
1715932944885247270,0.092,,702.0,,0.569398502
1715932944892941638,0.092,,,,0.57709287
1715932944900636006,0.089,,,,0.584787238
1715932944908330374,0.094,,,,0.592481606
1715932944916024742,0.097,,,,0.600175974
1715932944923719110,0.092,,,,0.607870342
1715932944931413478,0.087,,,,0.61556471
1715932944939107846,0.082,,,,0.623259078
1715932944946802214,0.201,,,,0.630953446
1715932944954496582,0.589,,,,0.638647814
1715932944962190950,1.015,,,,0.646342182
1715932944969885318,0.888,,,,0.65403655
1715932944977579686,0.215,,,,0.661730918
1715932944985274054,-0.144,,,,0.669425286
1715932944992968422,0.021,,,,0.677119654
1715932945000662790,0.075,,,,0.684814022
1715932945008357158,-0.026,,,,0.69250839
1715932945016051526,-0.002,,,,0.700202758
1715932945023745894,0.04,,,,0.707897126
1715932945031440262,0.018,,,,0.715591494
1715932945039134630,0.023,,,,0.723285862
1715932945046828998,0.044,,,,0.73098023
1715932945054523366,0.035,,,,0.738674598
1715932945062217734,0.03,,,,0.746368966
1715932945069912102,0.037,,,,0.754063334
1715932945077606470,0.035,,,,0.761757702
1715932945085300838,0.042,,,,0.76945207
1715932945092995206,0.049,,,,0.777146438
1715932945100689574,0.049,,,,0.784840806
1715932945108383942,0.056,,,,0.792535174
1715932945116078310,0.071,,,,0.800229542
1715932945123772678,0.08,,,,0.80792391
1715932945131467046,0.085,,,,0.815618278
1715932945139161414,0.092,,,,0.823312646
1715932945146855782,0.104,,,,0.831007014
1715932945154550150,0.118,,,,0.838701382
1715932945162244518,0.127,,,,0.84639575
1715932945169938886,0.137,,,,0.854090118
1715932945177633254,0.137,,,,0.861784486
1715932945185327622,0.125,,,,0.869478854
1715932945193021990,0.111,,,,0.877173222
1715932945200716358,0.104,,,,0.88486759
1715932945208410726,0.099,,,,0.892561958
1715932945216105094,0.089,,,,0.900256326
1715932945223799462,0.073,,,,0.907950694
1715932945231493830,0.054,,,,0.915645062
1715932945239188198,0.042,,,,0.92333943
1715932945246882566,0.037,,,,0.931033798
1715932945254576934,0.033,,,,0.938728166
1715932945262271302,0.033,,,,0.946422534
1715932945269965670,0.035,,,,0.954116902
1715932945277660038,0.033,,,,0.96181127
1715932945285354406,0.035,,,,0.969505638
1715932945293048774,0.04,,,,0.977200006
1715932945300743142,0.044,,,,0.984894374
1715932945308437510,0.044,,,,0.992588742
1715932945316131878,0.04,,,,1.00028311
1715932945323826246,0.042,,,,1.007977478
1715932945331520614,0.052,,,,1.015671846
1715932945339214982,0.056,,,,1.023366214
1715932945346909350,0.061,,,,1.031060582
1715932945354603718,0.066,,,,1.03875495
1715932945362298086,0.068,,,,1.046449318
1715932945369992454,0.068,,,,1.054143686
1715932945377686822,0.068,,,,1.061838054
1715932945385381190,0.075,,,,1.069532422
1715932945393075558,0.082,,,,1.07722679
1715932945400769926,0.082,,,,1.084921158
1715932945408464294,0.08,,,,1.092615526
1715932945416158662,0.078,,,,1.100309894
1715932945423853030,0.08,,,,1.108004262
1715932945431547398,0.085,,,,1.11569863
1715932945439241778,0.085,,,,1.12339301
1715932945446936146,0.087,,,,1.131087378
1715932945454630514,0.089,,,,1.138781746
1715932945462324882,0.085,,,,1.146476114
1715932945470019250,0.082,,,,1.154170482
1715932945477713618,0.089,,,,1.16186485
1715932945485407986,0.094,,,,1.169559218
1715932945493102354,0.085,,,,1.177253586
1715932945500796722,0.073,,,,1.184947954
1715932945508491090,0.078,,,,1.192642322
1715932945516185458,0.078,,,,1.20033669
1715932945523879826,0.071,,,,1.208031058
1715932945531574194,0.08,,,,1.215725426
1715932945539268562,0.106,,,,1.223419794
1715932945546962930,0.125,,,,1.231114162
1715932945554657298,0.118,,,,1.23880853
1715932945562351666,0.097,,,,1.246502898
1715932945570046034,0.087,,,,1.254197266
1715932945577740402,0.089,,,,1.261891634
1715932945585434770,0.089,,,,1.269586002
1715932945593129138,0.089,,,,1.27728037
1715932945600823506,0.092,,,,1.284974738
1715932945608517874,0.094,,,,1.292669106
1715932945616212242,0.094,,,,1.300363474
1715932945623906610,0.097,,,,1.308057842
1715932945631600978,0.099,,,,1.31575221
1715932945639295346,0.101,,,,1.323446578
1715932945646989714,0.236,,,,1.331140946
1715932945654684082,0.627,,,,1.338835314
1715932945662378450,0.996,,,,1.346529682
1715932945670072818,0.802,,,,1.35422405
1715932945677767186,0.163,,,,1.361918418
1715932945685461554,-0.108,,,,1.369612786
1715932945693155922,0.049,,,,1.377307154
1715932945700850290,0.059,,,,1.385001522
1715932945708544658,-0.033,,,,1.39269589
1715932945716239026,0.002,,,,1.400390258
1715932945723933394,0.03,,,,1.408084626
1715932945731627762,0.007,,,,1.415778994
1715932945739322130,0.018,,,,1.423473362
1715932945747016498,0.035,,,,1.43116773
1715932945754710866,0.035,,,,1.438862098
1715932945762405234,0.04,,,,1.446556466
1715932945770099602,0.044,,,,1.454250834
1715932945777793970,0.049,,,,1.461945202
1715932945785488338,0.063,,,,1.46963957
1715932945793182706,0.066,,,,1.477333938
1715932945800877074,0.063,,,,1.485028306
1715932945808571442,0.068,,,,1.492722674
1715932945816265810,0.078,,,,1.500417042
1715932945823960178,0.085,,,,1.50811141
1715932945831654546,0.094,,,,1.515805778
1715932945839348914,0.101,,,,1.523500146
1715932945847043282,0.108,,,,1.531194514
1715932945854737650,0.12,,,,1.538888882
1715932945862432018,0.137,,,,1.54658325
1715932945870126386,0.144,,,,1.554277618
1715932945877820754,0.142,,,,1.561971986
1715932945885515122,0.137,,,,1.569666354
1715932945893209490,0.132,,,,1.577360722
1715932945900903858,0.12,,,,1.58505509
1715932945908598226,0.106,,,,1.592749458
1715932945916292594,0.092,,,,1.600443826
1715932945923986962,0.078,,,,1.608138194
1715932945931681330,0.066,,,,1.615832562
1715932945939375698,0.054,,,,1.62352693
1715932945947070066,0.047,,,,1.631221298
1715932945954764434,0.042,,,,1.638915666
1715932945962458802,0.042,,,,1.646610034
1715932945970153170,0.042,,,,1.654304402
1715932945977847538,0.04,,,,1.66199877
1715932945985541906,0.042,,,,1.669693138
1715932945993236274,0.052,,,,1.677387506
1715932946000930654,0.054,91.0,724.0,,1.685081886
1715932946008625022,0.059,,,,1.692776254
1715932946016319390,0.063,,,,1.700470622
1715932946024013758,0.059,,,,1.70816499
1715932946031708126,0.054,,,,1.715859358
1715932946039402494,0.059,,,,1.723553726
1715932946047096862,0.061,,,,1.731248094
1715932946054791230,0.063,,,,1.738942462
1715932946062485598,0.066,,,,1.74663683
1715932946070179966,0.068,,,,1.754331198
1715932946077874334,0.063,,,,1.762025566
1715932946085568702,0.063,,,,1.769719934
1715932946093263070,0.061,,,,1.777414302
1715932946100957438,0.061,,,,1.78510867
1715932946108651806,0.059,,,,1.792803038
1715932946116346174,0.059,,,,1.800497406
1715932946124040542,0.061,,,,1.808191774
1715932946131734910,0.061,,,,1.815886142
1715932946139429278,0.056,,,,1.82358051
1715932946147123646,0.059,,,,1.831274878
1715932946154818014,0.061,,,,1.838969246
1715932946162512382,0.061,,,,1.846663614
1715932946170206750,0.059,,,,1.854357982
1715932946177901118,0.059,,,,1.86205235
1715932946185595486,0.059,,,,1.869746718
1715932946193289854,0.052,,,,1.877441086
1715932946200984222,0.042,,,,1.885135454
1715932946208678590,0.042,,,,1.892829822
1715932946216372958,0.049,,,,1.90052419
1715932946224067326,0.063,,,,1.908218558
1715932946231761694,0.089,,,,1.915912926
1715932946239456062,0.092,,,,1.923607294
1715932946247150430,0.066,,,,1.931301662
1715932946254844798,0.052,,,,1.93899603
1715932946262539166,0.061,,,,1.946690398
1715932946270233534,0.066,,,,1.954384766
1715932946277927902,0.056,,,,1.962079134
1715932946285622270,0.052,,,,1.969773502
1715932946293316638,0.059,,,,1.97746787
1715932946301011006,0.059,,,,1.985162238
1715932946308705374,0.056,,,,1.992856606
1715932946316399742,0.056,,,,2.000550974
1715932946324094110,0.061,,,,2.008245342
1715932946331788478,0.153,,,,2.01593971
1715932946339482846,0.464,,,,2.023634078
1715932946347177214,0.85,,,,2.031328446
1715932946354871582,0.798,,,,2.039022814
1715932946362565950,0.215,,,,2.046717182
1715932946370260318,-0.137,,,,2.05441155
1715932946377954686,-0.004,,,,2.062105918
1715932946385649054,0.044,,,,2.069800286
1715932946393343422,-0.056,,,,2.077494654
1715932946401037790,-0.033,,,,2.085189022
1715932946408732158,0.007,,,,2.09288339
1715932946416426526,-0.018,,,,2.100577758
1715932946424120894,-0.016,,,,2.108272126
1715932946431815262,0.009,,,,2.115966494
1715932946439509630,0.011,,,,2.123660862
1715932946447203998,0.011,,,,2.13135523
1715932946454898366,0.018,,,,2.139049598
1715932946462592734,0.023,,,,2.146743966
1715932946470287102,0.033,,,,2.154438334
1715932946477981470,0.04,,,,2.162132702
1715932946485675838,0.044,,,,2.16982707
1715932946493370206,0.054,,,,2.177521438
1715932946501064574,0.066,,,,2.185215806
1715932946508758942,0.078,,,,2.192910174
1715932946516453310,0.087,,,,2.200604542
1715932946524147678,0.092,,,,2.20829891
1715932946531842046,0.106,,,,2.215993278
1715932946539536414,0.12,,,,2.223687646
1715932946547230782,0.118,,,,2.231382014
1715932946554925150,0.118,,,,2.239076382
1715932946562619532,0.125,,,,2.246770764
1715932946570313900,0.12,,,,2.254465132
1715932946578008268,0.104,,,,2.2621595
1715932946585702636,0.097,,,,2.269853868
1715932946593397004,0.099,,,,2.277548236
1715932946601091372,0.085,,,,2.285242604
1715932946608785740,0.063,,,,2.292936972
1715932946616480108,0.049,,,,2.30063134
1715932946624174476,0.04,,,,2.308325708
1715932946631868844,0.026,,,,2.316020076
1715932946639563212,0.014,,,,2.323714444
1715932946647257580,0.014,,,,2.331408812
1715932946654951948,0.014,,,,2.33910318
1715932946662646316,0.007,,,,2.346797548
1715932946670340684,0.002,,,,2.354491916
1715932946678035052,0.014,,,,2.362186284
1715932946685729420,0.028,,,,2.369880652
1715932946693423788,0.033,,,,2.37757502
1715932946701118156,0.03,,,,2.385269388
1715932946708812524,0.028,,,,2.392963756
1715932946716506892,0.035,,,,2.400658124
1715932946724201260,0.042,,,,2.408352492
1715932946731895628,0.04,,,,2.41604686
1715932946739589996,0.044,,,,2.423741228
1715932946747284364,0.054,,,,2.431435596
1715932946754978732,0.052,,,,2.439129964
1715932946762673100,0.049,,,,2.446824332
1715932946770367468,0.052,,,,2.4545187
1715932946778061836,0.059,,,,2.462213068
1715932946785756204,0.061,,,,2.469907436
1715932946793450572,0.056,,,,2.477601804
1715932946801144940,0.052,,,,2.485296172
1715932946808839308,0.056,,,,2.49299054
1715932946816533676,0.059,,,,2.500684908
1715932946824228044,0.056,,,,2.508379276
1715932946831922412,0.061,,,,2.516073644
1715932946839616780,0.061,,,,2.523768012
1715932946847311148,0.059,,,,2.53146238
1715932946855005516,0.056,,,,2.539156748
1715932946862699884,0.056,,,,2.546851116
1715932946870394252,0.056,,,,2.554545484
1715932946878088620,0.052,,,,2.562239852
1715932946885782988,0.061,,,,2.56993422
1715932946893477356,0.089,,,,2.577628588
1715932946901171724,0.106,,,,2.585322956
1715932946908866092,0.097,,,,2.593017324
1715932946916560460,0.08,,,,2.600711692
1715932946924254828,0.08,,,,2.60840606
1715932946931949196,0.082,,,,2.616100428
1715932946939643564,0.078,,,,2.623794796
1715932946947337932,0.073,,,,2.631489164
1715932946955032300,0.075,,,,2.639183532
1715932946962726668,0.082,,,,2.6468779
1715932946970421036,0.087,,,,2.654572268
1715932946978115404,0.089,,,,2.662266636
1715932946985809772,0.089,,,,2.669961004
1715932946993504140,0.104,,,,2.677655372
1715932947001198508,0.277,,,,2.68534974
1715932947008892876,0.705,,,,2.693044108
1715932947016587244,1.011,,,,2.700738476
1715932947024281612,0.667,,,,2.708432844
1715932947031975980,0.028,,,,2.716127212
1715932947039670348,-0.101,,,,2.72382158
1715932947047364716,0.078,,,,2.731515948
1715932947055059084,0.033,,,,2.739210316
1715932947062753452,-0.042,,,,2.746904684
1715932947070447820,0.011,,,,2.754599052
1715932947078142188,0.026,,,,2.76229342
1715932947085836556,-0.002,,,,2.769987788
1715932947093530924,0.011,,,,2.777682156
1715932947101225292,0.03,,,,2.785376524
1715932947108919660,0.028,,,,2.793070892
1715932947116614028,0.03,,,,2.80076526
1715932947124308408,0.04,89.0,720.0,,2.80845964
1715932947132002776,0.042,,699.0,,2.816154008
1715932947139697144,0.044,,,,2.823848376
1715932947147391512,0.054,,,,2.831542744
1715932947155085880,0.059,,,,2.839237112
1715932947162780248,0.068,,,,2.84693148
1715932947170474616,0.073,,,,2.854625848
1715932947178168984,0.071,,,,2.862320216
1715932947185863352,0.078,,,,2.870014584
1715932947193557720,0.097,,,,2.877708952
1715932947201252088,0.101,,,,2.88540332
1715932947208946456,0.099,,,,2.893097688
1715932947216640824,0.104,,,,2.900792056
1715932947224335192,0.113,,,,2.908486424
1715932947232029560,0.113,,,,2.916180792
1715932947239723928,0.104,,,,2.92387516
1715932947247418296,0.101,,,,2.931569528
1715932947255112664,0.097,,,,2.939263896
1715932947262807032,0.08,,,,2.946958264
1715932947270501400,0.066,,,,2.954652632
1715932947278195768,0.059,,,,2.962347
1715932947285890136,0.047,,,,2.970041368
1715932947293584504,0.035,,,,2.977735736
1715932947301278872,0.033,,,,2.985430104
1715932947308973240,0.028,,,,2.993124472
1715932947316667608,0.026,,,,3.00081884
1715932947324361976,0.033,,,,3.008513208
1715932947332056344,0.044,,,,3.016207576
1715932947339750712,0.047,,,,3.023901944
1715932947347445080,0.047,,,,3.031596312
1715932947355139448,0.049,,,,3.03929068
1715932947362833816,0.052,,,,3.046985048
1715932947370528184,0.059,,,,3.054679416
1715932947378222552,0.063,,,,3.062373784
1715932947385916920,0.068,,,,3.070068152
1715932947393611288,0.075,,,,3.07776252
1715932947401305656,0.073,,,,3.085456888
1715932947409000024,0.071,,,,3.093151256
1715932947416694392,0.075,,,,3.100845624
1715932947424388760,0.078,,,,3.108539992
1715932947432083128,0.08,,,,3.11623436
1715932947439777496,0.08,,,,3.123928728
1715932947447471864,0.08,,,,3.131623096
1715932947455166232,0.078,,,,3.139317464
1715932947462860600,0.08,,,,3.147011832
1715932947470554968,0.082,,,,3.1547062
1715932947478249336,0.08,,,,3.162400568
1715932947485943704,0.08,,,,3.170094936
1715932947493638072,0.082,,,,3.177789304
1715932947501332440,0.082,,,,3.185483672
1715932947509026808,0.087,,,,3.19317804
1715932947516721176,0.087,,,,3.200872408
1715932947524415544,0.078,,,,3.208566776
1715932947532109912,0.073,,,,3.216261144
1715932947539804280,0.073,,,,3.223955512
1715932947547498648,0.085,,,,3.23164988
1715932947555193016,0.106,,,,3.239344248
1715932947562887384,0.118,,,,3.247038616
1715932947570581752,0.104,,,,3.254732984
1715932947578276120,0.089,,,,3.262427352
1715932947585970488,0.089,,,,3.27012172
1715932947593664856,0.094,,,,3.277816088
1715932947601359224,0.094,,,,3.285510456
1715932947609053592,0.094,,,,3.293204824
1715932947616747960,0.099,,,,3.300899192
1715932947624442328,0.104,,,,3.30859356
1715932947632136696,0.104,,,,3.316287928
1715932947639831064,0.106,,,,3.323982296
1715932947647525432,0.104,,,,3.331676664
1715932947655219800,0.161,,,,3.339371032
1715932947662914168,0.459,,,,3.3470654
1715932947670608536,0.909,,,,3.354759768
1715932947678302904,0.968,,,,3.362454136
1715932947685997284,0.395,,,,3.370148516
1715932947693691791,-0.089,,,,3.377843023
1715932947701386298,-0.002,,,,3.38553753
1715932947709080805,0.108,,,,3.393232037
1715932947716775312,-0.004,,,,3.400926544
1715932947724469819,-0.018,,,,3.408621051
1715932947732164326,0.037,,,,3.416315558
1715932947739858833,0.021,,,,3.424010065
1715932947747553340,0.014,,,,3.431704572
1715932947755247847,0.037,,,,3.439399079
1715932947762942354,0.042,,,,3.447093586
1715932947770636861,0.044,,,,3.454788093
1715932947778331368,0.049,,,,3.4624826
1715932947786025875,0.049,,,,3.470177107
1715932947793720382,0.054,,,,3.477871614
1715932947801414889,0.059,,,,3.485566121
1715932947809109396,0.059,,,,3.493260628
1715932947816803903,0.061,,,,3.500955135
1715932947824498410,0.071,,,,3.508649642
1715932947832192917,0.078,,,,3.516344149
1715932947839887424,0.085,,,,3.524038656
1715932947847581931,0.097,,,,3.531733163
1715932947855276438,0.106,,,,3.53942767
1715932947862970945,0.113,,,,3.547122177
1715932947870665452,0.118,,,,3.554816684
1715932947878359959,0.123,,,,3.562511191
1715932947886054466,0.127,,,,3.570205698
1715932947893748973,0.123,,,,3.577900205
1715932947901443480,0.108,,,,3.585594712
1715932947909137987,0.104,,,,3.593289219
1715932947916832494,0.097,,,,3.600983726
1715932947924527001,0.087,,,,3.608678233
1715932947932221508,0.08,,,,3.61637274
1715932947939916015,0.073,,,,3.624067247
1715932947947610522,0.063,,,,3.631761754
1715932947955305029,0.054,,,,3.639456261
1715932947962999536,0.049,,,,3.647150768
1715932947970694043,0.049,,,,3.654845275
1715932947978388550,0.052,,,,3.662539782
1715932947986083057,0.049,,,,3.670234289
1715932947993777564,0.054,,,,3.677928796
1715932948001472071,0.066,,,,3.685623303
1715932948009166578,0.068,,,,3.69331781
1715932948016861085,0.071,,,,3.701012317
1715932948024555592,0.075,,,,3.708706824
1715932948032250099,0.078,,,,3.716401331
1715932948039944606,0.078,,,,3.724095838
1715932948047639113,0.08,,,,3.731790345
1715932948055333620,0.08,,,,3.739484852
1715932948063028127,0.085,,,,3.747179359
1715932948070722634,0.094,,,,3.754873866
1715932948078417141,0.092,,,,3.762568373
1715932948086111648,0.092,,,,3.77026288
1715932948093806155,0.097,,,,3.777957387
1715932948101500662,0.094,,,,3.785651894
1715932948109195169,0.089,,,,3.793346401
1715932948116889676,0.087,,,,3.801040908
1715932948124584183,0.089,,,,3.808735415
1715932948132278690,0.097,,,,3.816429922
1715932948139973197,0.097,,,,3.824124429
1715932948147667704,0.092,,,,3.831818936
1715932948155362211,0.094,,,,3.839513443
1715932948163056718,0.092,,,,3.84720795
1715932948170751225,0.087,,,,3.854902457
1715932948178445732,0.087,,,,3.862596964
1715932948186140239,0.087,,,,3.870291471
1715932948193834746,0.087,,,,3.877985978
1715932948201529253,0.097,,,,3.885680485
1715932948209223760,0.12,,,,3.893374992
1715932948216918267,0.125,,,,3.901069499
1715932948224612774,0.099,,,,3.908764006
1715932948232307281,0.085,,,,3.916458513
1715932948240001788,0.085,,,,3.92415302
1715932948247696334,0.089,88.0,687.0,,3.931847566
1715932948255390980,0.099,,,,3.939542212
1715932948263085626,0.097,,,,3.947236858
1715932948270780272,0.089,,,,3.954931504
1715932948278474918,0.087,,,,3.96262615
1715932948286169564,0.08,,,,3.970320796
1715932948293864210,0.085,,,,3.978015442
1715932948301558856,0.087,,,,3.985710088
1715932948309253502,0.125,,,,3.993404734
1715932948316948148,0.381,,,,4.00109938
1715932948324642794,0.8260000000000001,,,,4.008794026
1715932948332337440,0.933,,,,4.016488672
1715932948340032086,0.4,,,,4.024183318
1715932948347726732,-0.092,,,,4.031877964
1715932948355421378,-0.009,,,,4.03957261
1715932948363116024,0.118,,,,4.047267256
1715932948370810670,0.007,,,,4.054961902
1715932948378505316,-0.018,,,,4.062656548
1715932948386199962,0.047,,,,4.070351194
1715932948393894608,0.033,,,,4.07804584
1715932948401589254,0.016,,,,4.085740486
1715932948409283900,0.044,,,,4.093435132
1715932948416978546,0.052,,,,4.101129778
1715932948424673192,0.044,,,,4.108824424
1715932948432367838,0.054,,,,4.11651907
1715932948440062484,0.061,,,,4.124213716
1715932948447757130,0.063,,,,4.131908362
1715932948455451776,0.071,,,,4.139603008
1715932948463146422,0.08,,,,4.147297654
1715932948470841068,0.085,,,,4.1549923
1715932948478535714,0.089,,,,4.162686946
1715932948486230360,0.099,,,,4.170381592
1715932948493925006,0.111,,,,4.178076238
1715932948501619652,0.12,,,,4.185770884
1715932948509314298,0.125,,,,4.19346553
1715932948517008944,0.118,,,,4.201160176
1715932948524703590,0.111,,,,4.208854822
1715932948532398236,0.116,,,,4.216549468
1715932948540092882,0.116,,,,4.224244114
1715932948547787528,0.111,,,,4.23193876
1715932948555482174,0.106,,,,4.239633406
1715932948563176820,0.094,,,,4.247328052
1715932948570871466,0.08,,,,4.255022698
1715932948578566112,0.071,,,,4.262717344
1715932948586260758,0.063,,,,4.27041199
1715932948593955404,0.061,,,,4.278106636
1715932948601650050,0.054,,,,4.285801282
1715932948609344696,0.042,,,,4.293495928
1715932948617039342,0.035,,,,4.301190574
1715932948624733988,0.037,,,,4.30888522
1715932948632428634,0.044,,,,4.316579866
1715932948640123280,0.049,,,,4.324274512
1715932948647817926,0.044,,,,4.331969158
1715932948655512572,0.042,,,,4.339663804
1715932948663207218,0.044,,,,4.34735845
1715932948670901864,0.056,,,,4.355053096
1715932948678596510,0.059,,,,4.362747742
1715932948686291156,0.056,,,,4.370442388
1715932948693985802,0.059,,,,4.378137034
1715932948701680448,0.063,,,,4.38583168
1715932948709375094,0.066,,,,4.393526326
1715932948717069740,0.068,,,,4.401220972
1715932948724764386,0.068,,,,4.408915618
1715932948732459032,0.063,,,,4.416610264
1715932948740153678,0.059,,,,4.42430491
1715932948747848324,0.056,,,,4.431999556
1715932948755542970,0.061,,,,4.439694202
1715932948763237616,0.061,,,,4.447388848
1715932948770932262,0.061,,,,4.455083494
1715932948778626908,0.063,,,,4.46277814
1715932948786321554,0.059,,,,4.470472786
1715932948794016200,0.056,,,,4.478167432
1715932948801710846,0.063,,,,4.485862078
1715932948809405554,0.071,88.0,666.0,,4.493556786
1715932948817099922,0.066,,658.0,,4.501251154
1715932948824794290,0.059,,,,4.508945522
1715932948832488658,0.056,,,,4.51663989
1715932948840183026,0.054,,,,4.524334258
1715932948847877394,0.071,,,,4.532028626
1715932948855571762,0.094,,,,4.539722994
1715932948863266130,0.092,,,,4.547417362
1715932948870960498,0.075,,,,4.55511173
1715932948878654866,0.068,,,,4.562806098
1715932948886349234,0.068,,,,4.570500466
1715932948894043602,0.073,,,,4.578194834
1715932948901737970,0.075,,,,4.585889202
1715932948909432338,0.075,,,,4.59358357
1715932948917126706,0.078,,,,4.601277938
1715932948924821074,0.082,,,,4.608972306
1715932948932515442,0.087,,,,4.616666674
1715932948940209810,0.092,,,,4.624361042
1715932948947904178,0.087,,,,4.63205541
1715932948955598546,0.156,,,,4.639749778
1715932948963292914,0.468,,,,4.647444146
1715932948970987282,0.885,,,,4.655138514
1715932948978681650,0.847,,,,4.662832882
1715932948986376018,0.258,,,,4.67052725
1715932948994070386,-0.099,,,,4.678221618
1715932949001764754,0.042,,,,4.685915986
1715932949009459122,0.099,,,,4.693610354
1715932949017153490,-0.007,,,,4.701304722
1715932949024847858,0.011,,,,4.70899909
1715932949032542226,0.063,,,,4.716693458
1715932949040236594,0.035,,,,4.724387826
1715932949047930962,0.03,,,,4.732082194
1715932949055625330,0.056,,,,4.739776562
1715932949063319698,0.059,,,,4.74747093
1715932949071014066,0.056,,,,4.755165298
1715932949078708434,0.071,,,,4.762859666
1715932949086402802,0.073,,,,4.770554034
1715932949094097170,0.061,,,,4.778248402
1715932949101791538,0.073,,,,4.78594277
1715932949109485906,0.089,,,,4.793637138
1715932949117180274,0.089,,,,4.801331506
1715932949124874642,0.094,,,,4.809025874
1715932949132569010,0.111,,,,4.816720242
1715932949140263378,0.113,,,,4.82441461
1715932949147957746,0.12,,,,4.832108978
1715932949155652114,0.132,,,,4.839803346
1715932949163346482,0.137,,,,4.847497714
1715932949171040850,0.142,,,,4.855192082
1715932949178735218,0.146,,,,4.86288645
1715932949186429586,0.144,,,,4.870580818
1715932949194123954,0.132,,,,4.878275186
1715932949201818322,0.12,,,,4.885969554
1715932949209512690,0.113,,,,4.893663922
1715932949217207058,0.108,,,,4.90135829
1715932949224901426,0.092,,,,4.909052658
1715932949232595794,0.075,,,,4.916747026
1715932949240290162,0.063,,,,4.924441394
1715932949247984530,0.052,,,,4.932135762
1715932949255678898,0.033,,,,4.93983013
1715932949263373266,0.026,,,,4.947524498
1715932949271067634,0.04,,,,4.955218866
1715932949278762002,0.042,,,,4.962913234
1715932949286456370,0.04,,,,4.970607602
1715932949294150738,0.049,,,,4.97830197
1715932949301845106,0.059,,,,4.985996338
1715932949309539474,0.066,,,,4.993690706
1715932949317233842,0.066,,,,5.001385074
1715932949324928210,0.063,,,,5.009079442
1715932949332622578,0.066,,,,5.01677381
1715932949340316946,0.071,,,,5.024468178
1715932949348011314,0.078,,,,5.032162546
1715932949355705682,0.078,,,,5.039856914
1715932949363400050,0.073,,,,5.047551282
1715932949371094430,0.078,,,,5.055245662
1715932949378788798,0.089,,,,5.06294003
1715932949386483166,0.094,,,,5.070634398
1715932949394177534,0.078,,,,5.078328766
1715932949401871902,0.068,,,,5.086023134
1715932949409566270,0.078,,,,5.093717502
1715932949417260638,0.087,,,,5.10141187
1715932949424955006,0.085,,,,5.109106238
1715932949432649374,0.071,,,,5.116800606
1715932949440343742,0.056,,,,5.124494974
1715932949448038110,0.066,,,,5.132189342
1715932949455732478,0.089,,,,5.13988371
1715932949463426846,0.082,,,,5.147578078
1715932949471121214,0.066,,,,5.155272446
1715932949478815582,0.066,,,,5.162966814
1715932949486509950,0.071,,,,5.170661182
1715932949494204318,0.078,,,,5.17835555
1715932949501898686,0.101,,,,5.186049918
1715932949509593054,0.125,,,,5.193744286
1715932949517287422,0.116,,,,5.201438654
1715932949524981790,0.089,,,,5.209133022
1715932949532676158,0.08,,,,5.21682739
1715932949540370526,0.087,,,,5.224521758
1715932949548064894,0.087,,,,5.232216126
1715932949555759262,0.078,,,,5.239910494
1715932949563453630,0.08,,,,5.247604862
1715932949571147998,0.089,,,,5.25529923
1715932949578842366,0.089,,,,5.262993598
1715932949586536734,0.092,,,,5.270687966
1715932949594231102,0.097,,,,5.278382334
1715932949601925470,0.092,,,,5.286076702
1715932949609619838,0.168,,,,5.29377107
1715932949617314206,0.476,,,,5.301465438
1715932949625008574,0.847,,,,5.309159806
1715932949632702942,0.75,,,,5.316854174
1715932949640397310,0.184,,,,5.324548542
1715932949648091678,-0.097,,,,5.33224291
1715932949655786046,0.054,,,,5.339937278
1715932949663480414,0.097,,,,5.347631646
1715932949671174782,0.009,,,,5.355326014
1715932949678869150,0.026,,,,5.363020382
1715932949686563518,0.066,,,,5.37071475
1715932949694257886,0.054,,,,5.378409118
1715932949701952254,0.049,,,,5.386103486
1715932949709646622,0.066,,,,5.393797854
1715932949717340990,0.073,,,,5.401492222
1715932949725035358,0.071,,,,5.40918659
1715932949732729726,0.066,,,,5.416880958
1715932949740424094,0.061,,,,5.424575326
1715932949748118462,0.068,,,,5.432269694
1715932949755812830,0.089,,,,5.439964062
1715932949763507198,0.094,,,,5.44765843
1715932949771201566,0.073,,,,5.455352798
1715932949778895934,0.075,,,,5.463047166
1715932949786590302,0.094,,,,5.470741534
1715932949794284670,0.097,,,,5.478435902
1715932949801979038,0.111,,,,5.48613027
1715932949809673406,0.125,,,,5.493824638
1715932949817367774,0.123,,,,5.501519006
1715932949825062142,0.12,,,,5.509213374
1715932949832756510,0.125,,,,5.516907742
1715932949840450878,0.12,,,,5.52460211
1715932949848145246,0.116,,,,5.532296478
1715932949855839614,0.113,,,,5.539990846
1715932949863533982,0.104,,,,5.547685214
1715932949871228350,0.092,,,,5.555379582
1715932949878922718,0.082,,,,5.56307395
1715932949886617086,0.073,,,,5.570768318
1715932949894311454,0.052,,,,5.578462686
1715932949902005822,0.033,,,,5.586157054
1715932949909700190,0.033,,,,5.593851422
1715932949917394558,0.026,,,,5.60154579
1715932949925088926,0.014,,,,5.609240158
1715932949932783308,0.014,88.0,654.0,,5.61693454
1715932949940477676,0.014,,,,5.624628908
1715932949948172044,0.018,,,,5.632323276
1715932949955866412,0.03,,,,5.640017644
1715932949963560780,0.033,,,,5.647712012
1715932949971255148,0.033,,,,5.65540638
1715932949978949516,0.037,,,,5.663100748
1715932949986643884,0.042,,,,5.670795116
1715932949994338252,0.035,,,,5.678489484
1715932950002032620,0.028,,,,5.686183852
1715932950009726988,0.035,,,,5.69387822
1715932950017421356,0.037,,,,5.701572588
1715932950025115724,0.033,,,,5.709266956
1715932950032810092,0.03,,,,5.716961324
1715932950040504460,0.028,,,,5.724655692
1715932950048198828,0.035,,,,5.73235006
1715932950055893196,0.037,,,,5.740044428
1715932950063587564,0.03,,,,5.747738796
1715932950071281932,0.037,,,,5.755433164
1715932950078976300,0.044,,,,5.763127532
1715932950086670668,0.035,,,,5.7708219
1715932950094365036,0.03,,,,5.778516268
1715932950102059404,0.044,,,,5.786210636
1715932950109753772,0.047,,,,5.793905004
1715932950117448140,0.03,,,,5.801599372
1715932950125142508,0.035,,,,5.80929374
1715932950132836876,0.063,,,,5.816988108
1715932950140531244,0.089,,,,5.824682476
1715932950148225612,0.089,,,,5.832376844
1715932950155919980,0.073,,,,5.840071212
1715932950163614348,0.061,,,,5.84776558
1715932950171308716,0.059,,,,5.855459948
1715932950179003084,0.059,,,,5.863154316
1715932950186697452,0.061,,,,5.870848684
1715932950194391820,0.066,,,,5.878543052
1715932950202086188,0.073,,,,5.88623742
1715932950209780556,0.078,,,,5.893931788
1715932950217474924,0.078,,,,5.901626156
1715932950225169292,0.071,,,,5.909320524
1715932950232863660,0.056,,,,5.917014892
1715932950240558028,0.066,,,,5.92470926
1715932950248252396,0.234,,,,5.932403628
1715932950255946764,0.62,,,,5.940097996
1715932950263641132,0.843,,,,5.947792364
1715932950271335500,0.473,,,,5.955486732
1715932950279029868,-0.054,,,,5.9631811
1715932950286724236,-0.073,,,,5.970875468
1715932950294418604,0.082,,,,5.978569836
1715932950302112972,0.018,,,,5.986264204
1715932950309807340,-0.021,,,,5.993958572
1715932950317501708,0.03,,,,6.00165294
1715932950325196076,0.026,,,,6.009347308
1715932950332890444,0.007,,,,6.017041676
1715932950340584812,0.028,,,,6.024736044
1715932950348279180,0.047,,,,6.032430412
1715932950355973548,0.044,,,,6.04012478
1715932950363667916,0.04,,,,6.047819148
1715932950371362284,0.049,,,,6.055513516
1715932950379056652,0.056,,,,6.063207884
1715932950386751020,0.059,,,,6.070902252
1715932950394445388,0.066,,,,6.07859662
1715932950402139756,0.073,,,,6.086290988
1715932950409834124,0.078,,,,6.093985356
1715932950417528492,0.087,,,,6.101679724
1715932950425222860,0.097,,,,6.109374092
1715932950432917228,0.104,,,,6.11706846
1715932950440611596,0.104,,,,6.124762828
1715932950448305964,0.106,,,,6.132457196
1715932950456000332,0.118,,,,6.140151564
1715932950463694700,0.123,,,,6.147845932
1715932950471389068,0.118,,,,6.1555403
1715932950479083436,0.111,,,,6.163234668
1715932950486777804,0.099,,,,6.170929036
1715932950494472184,0.087,,,,6.178623416
1715932950502166552,0.078,,,,6.186317784
1715932950509860920,0.066,,,,6.194012152
1715932950517555288,0.052,,,,6.20170652
1715932950525249656,0.044,,,,6.209400888
1715932950532944024,0.037,,,,6.217095256
1715932950540638392,0.023,,,,6.224789624
1715932950548332760,0.016,,,,6.232483992
1715932950556027128,0.016,,,,6.24017836
1715932950563721496,0.007,,,,6.247872728
1715932950571415864,0.0,,,,6.255567096
1715932950579110232,0.004,,,,6.263261464
1715932950586804600,0.009,,,,6.270955832
1715932950594498968,0.009,,,,6.2786502
1715932950602193336,0.016,,,,6.286344568
1715932950609887704,0.023,,,,6.294038936
1715932950617582072,0.028,,,,6.301733304
1715932950625276440,0.03,,,,6.309427672
1715932950632970808,0.028,,,,6.31712204
1715932950640665176,0.028,,,,6.324816408
1715932950648359544,0.033,,,,6.332510776
1715932950656053912,0.033,,,,6.340205144
1715932950663748280,0.037,,,,6.347899512
1715932950671442648,0.044,,,,6.35559388
1715932950679137016,0.044,,,,6.363288248
1715932950686831384,0.042,,,,6.370982616
1715932950694525752,0.042,,,,6.378676984
1715932950702220120,0.042,,,,6.386371352
1715932950709914488,0.044,,,,6.39406572
1715932950717608856,0.047,,,,6.401760088
1715932950725303224,0.047,,,,6.409454456
1715932950732997592,0.04,,,,6.417148824
1715932950740691960,0.028,,,,6.424843192
1715932950748386328,0.03,,,,6.43253756
1715932950756080696,0.037,,,,6.440231928
1715932950763775064,0.042,,,,6.447926296
1715932950771469432,0.061,,,,6.455620664
1715932950779163800,0.085,,,,6.463315032
1715932950786858168,0.085,,,,6.4710094
1715932950794552536,0.066,,,,6.478703768
1715932950802246904,0.059,,,,6.486398136
1715932950809941272,0.061,,,,6.494092504
1715932950817635640,0.063,,,,6.501786872
1715932950825330008,0.059,,,,6.50948124
1715932950833024376,0.061,,,,6.517175608
1715932950840718744,0.073,,,,6.524869976
1715932950848413112,0.075,,,,6.532564344
1715932950856107480,0.073,,,,6.540258712
1715932950863801848,0.078,,,,6.54795308
1715932950871496216,0.071,,,,6.555647448
1715932950879190584,0.158,,,,6.563341816
1715932950886884952,0.52,,,,6.571036184
1715932950894579320,0.947,,,,6.578730552
1715932950902273688,0.85,,,,6.58642492
1715932950909968056,0.215,,,,6.594119288
1715932950917662424,-0.125,,,,6.601813656
1715932950925356792,0.037,,,,6.609508024
1715932950933051160,0.087,,,,6.617202392
1715932950940745528,-0.018,,,,6.62489676
1715932950948439896,0.009,,,,6.632591128
1715932950956134264,0.052,,,,6.640285496
1715932950963828632,0.026,,,,6.647979864
1715932950971523000,0.03,,,,6.655674232
1715932950979217368,0.049,,,,6.6633686
1715932950986911736,0.044,,,,6.671062968
1715932950994606104,0.052,,,,6.678757336
1715932951002300472,0.066,,,,6.686451704
1715932951009994840,0.071,,,,6.694146072
1715932951017689208,0.073,,,,6.70184044
1715932951025383576,0.08,,,,6.709534808
1715932951033077944,0.082,,,,6.717229176
1715932951040772312,0.089,,,,6.724923544
1715932951048466680,0.104,,,,6.732617912
1715932951056161060,0.116,89.0,645.0,,6.740312292
1715932951063855428,0.12,,653.0,,6.74800666
1715932951071549796,0.127,,,,6.755701028
1715932951079244164,0.132,,,,6.763395396
1715932951086938532,0.139,,,,6.771089764
1715932951094632900,0.144,,,,6.778784132
1715932951102327268,0.132,,,,6.7864785
1715932951110021636,0.118,,,,6.794172868
1715932951117716004,0.118,,,,6.801867236
1715932951125410372,0.116,,,,6.809561604
1715932951133104740,0.106,,,,6.817255972
1715932951140799108,0.097,,,,6.82495034
1715932951148493476,0.087,,,,6.832644708
1715932951156187844,0.078,,,,6.840339076
1715932951163882212,0.071,,,,6.848033444
1715932951171576580,0.063,,,,6.855727812
1715932951179270948,0.059,,,,6.86342218
1715932951186965316,0.056,,,,6.871116548
1715932951194659684,0.052,,,,6.878810916
1715932951202354052,0.052,,,,6.886505284
1715932951210048420,0.061,,,,6.894199652
1715932951217742788,0.061,,,,6.90189402
1715932951225437156,0.056,,,,6.909588388
1715932951233131524,0.059,,,,6.917282756
1715932951240825892,0.054,,,,6.924977124
1715932951248520260,0.049,,,,6.932671492
1715932951256214628,0.052,,,,6.94036586
1715932951263908996,0.061,,,,6.948060228
1715932951271603364,0.071,,,,6.955754596
1715932951279297732,0.073,,,,6.963448964
1715932951286992100,0.071,,,,6.971143332
1715932951294686468,0.075,,,,6.9788377
1715932951302380836,0.078,,,,6.986532068
1715932951310075204,0.078,,,,6.994226436
1715932951317769572,0.078,,,,7.001920804
1715932951325463940,0.078,,,,7.009615172
1715932951333158308,0.075,,,,7.01730954
1715932951340852676,0.08,,,,7.025003908
1715932951348547044,0.085,,,,7.032698276
1715932951356241412,0.085,,,,7.040392644
1715932951363935780,0.087,,,,7.048087012
1715932951371630148,0.085,,,,7.05578138
1715932951379324516,0.08,,,,7.063475748
1715932951387018884,0.075,,,,7.071170116
1715932951394713252,0.08,,,,7.078864484
1715932951402407620,0.097,,,,7.086558852
1715932951410101988,0.12,,,,7.09425322
1715932951417796356,0.13,,,,7.101947588
1715932951425490724,0.116,,,,7.109641956
1715932951433185092,0.097,,,,7.117336324
1715932951440879460,0.094,,,,7.125030692
1715932951448573828,0.101,,,,7.13272506
1715932951456268196,0.101,,,,7.140419428
1715932951463962564,0.099,,,,7.148113796
1715932951471656932,0.099,,,,7.155808164
1715932951479351300,0.099,,,,7.163502532
1715932951487045668,0.104,,,,7.1711969
1715932951494740036,0.108,,,,7.178891268
1715932951502434404,0.108,,,,7.186585636
1715932951510128772,0.099,,,,7.194280004
1715932951517823140,0.196,,,,7.201974372
1715932951525517508,0.5700000000000001,,,,7.20966874
1715932951533211876,0.989,,,,7.217363108
1715932951540906244,0.833,,,,7.225057476
1715932951548600612,0.175,,,,7.232751844
1715932951556294980,-0.104,,,,7.240446212
1715932951563989348,0.085,,,,7.24814058
1715932951571683716,0.106,,,,7.255834948
1715932951579378084,0.0,,,,7.263529316
1715932951587072452,0.042,,,,7.271223684
1715932951594766820,0.082,,,,7.278918052
1715932951602461188,0.052,,,,7.28661242
1715932951610155556,0.056,,,,7.294306788
1715932951617849936,0.078,,,,7.302001168
1715932951625544373,0.078,,,,7.309695605
1715932951633238810,0.08,,,,7.317390042
1715932951640933247,0.089,,,,7.325084479
1715932951648627684,0.094,,,,7.332778916
1715932951656322121,0.094,,,,7.340473353
1715932951664016558,0.104,,,,7.34816779
1715932951671710995,0.111,,,,7.355862227
1715932951679405432,0.111,,,,7.363556664
1715932951687099869,0.116,,,,7.371251101
1715932951694794306,0.127,,,,7.378945538
1715932951702488743,0.134,,,,7.386639975
1715932951710183180,0.142,,,,7.394334412
1715932951717877617,0.153,,,,7.402028849
1715932951725572054,0.161,,,,7.409723286
1715932951733266491,0.158,,,,7.417417723
1715932951740960928,0.146,,,,7.42511216
1715932951748655365,0.13,,,,7.432806597
1715932951756349802,0.12,,,,7.440501034
1715932951764044239,0.12,,,,7.448195471
1715932951771738676,0.116,,,,7.455889908
1715932951779433113,0.111,,,,7.463584345
1715932951787127550,0.099,,,,7.471278782
1715932951794821987,0.078,,,,7.478973219
1715932951802516424,0.066,,,,7.486667656
1715932951810210861,0.071,,,,7.494362093
1715932951817905298,0.068,,,,7.50205653
1715932951825599735,0.066,,,,7.509750967
1715932951833294172,0.075,,,,7.517445404
1715932951840988609,0.075,,,,7.525139841
1715932951848683046,0.059,,,,7.532834278
1715932951856377483,0.054,,,,7.540528715
1715932951864071920,0.061,,,,7.548223152
1715932951871766357,0.063,,,,7.555917589
1715932951879460794,0.068,,,,7.563612026
1715932951887155231,0.078,,,,7.571306463
1715932951894849668,0.078,,,,7.5790009
1715932951902544105,0.078,,,,7.586695337
1715932951910238542,0.078,,,,7.594389774
1715932951917932979,0.08,,,,7.602084211
1715932951925627416,0.085,,,,7.609778648
1715932951933321853,0.087,,,,7.617473085
1715932951941016290,0.085,,,,7.625167522
1715932951948710727,0.085,,,,7.632861959
1715932951956405164,0.087,,,,7.640556396
1715932951964099601,0.085,,,,7.648250833
1715932951971794038,0.078,,,,7.65594527
1715932951979488475,0.073,,,,7.663639707
1715932951987182912,0.08,,,,7.671334144
1715932951994877349,0.087,,,,7.679028581
1715932952002571786,0.085,,,,7.686723018
1715932952010266223,0.08,,,,7.694417455
1715932952017960660,0.082,,,,7.702111892
1715932952025655097,0.089,,,,7.709806329
1715932952033349534,0.087,,,,7.717500766
1715932952041043971,0.087,,,,7.725195203
1715932952048738408,0.087,,,,7.73288964
1715932952056432845,0.097,,,,7.740584077
1715932952064127282,0.113,,,,7.748278514
1715932952071821719,0.127,,,,7.755972951
1715932952079516156,0.12,,,,7.763667388
1715932952087210593,0.106,,,,7.771361825
1715932952094905030,0.097,,,,7.779056262
1715932952102599467,0.097,,,,7.786750699
1715932952110293904,0.099,,,,7.794445136
1715932952117988341,0.097,,,,7.802139573
1715932952125682778,0.097,,,,7.80983401
1715932952133377215,0.104,,,,7.817528447
1715932952141071652,0.108,,,,7.825222884
1715932952148766089,0.111,,,,7.832917321
1715932952156460526,0.111,,,,7.840611758
1715932952164154963,0.097,,,,7.848306195
1715932952171849400,0.118,,,,7.856000632
1715932952179543900,0.336,90.0,635.0,,7.863695132
1715932952187238616,0.774,,,,7.871389848
1715932952194933332,0.996,,,,7.879084564
1715932952202628048,0.556,,,,7.88677928
1715932952210322764,-0.033,,,,7.894473996
1715932952218017480,-0.056,,,,7.902168712
1715932952225712196,0.111,,,,7.909863428
1715932952233406912,0.033,,,,7.917558144
1715932952241101628,-0.011,,,,7.92525286
1715932952248796344,0.044,,,,7.932947576
1715932952256491060,0.035,,,,7.940642292
1715932952264185776,0.018,,,,7.948337008
1715932952271880492,0.049,,,,7.956031724
1715932952279575208,0.056,,,,7.96372644
1715932952287269924,0.047,,,,7.971421156
1715932952294964640,0.061,,,,7.979115872
1715932952302659356,0.073,,,,7.986810588
1715932952310354072,0.073,,,,7.994505304
1715932952318048788,0.082,,,,8.00220002
1715932952325743504,0.097,,,,8.009894736
1715932952333438220,0.101,,,,8.017589452
1715932952341132936,0.104,,,,8.025284168
1715932952348827652,0.118,,,,8.032978884
1715932952356522368,0.13,,,,8.0406736
1715932952364217084,0.132,,,,8.048368316
1715932952371911800,0.134,,,,8.056063032
1715932952379606516,0.146,,,,8.063757748
1715932952387301232,0.156,,,,8.071452464
1715932952394995948,0.156,,,,8.07914718
1715932952402690664,0.149,,,,8.086841896
1715932952410385380,0.144,,,,8.094536612
1715932952418080096,0.132,,,,8.102231328
1715932952425774812,0.127,,,,8.109926044
1715932952433469528,0.123,,,,8.11762076
1715932952441164244,0.113,,,,8.125315476
1715932952448858960,0.097,,,,8.133010192
1715932952456553676,0.08,,,,8.140704908
1715932952464248392,0.071,,,,8.148399624
1715932952471943108,0.071,,,,8.15609434
1715932952479637824,0.063,,,,8.163789056
1715932952487332540,0.054,,,,8.171483772
1715932952495027256,0.044,,,,8.179178488
1715932952502721972,0.049,,,,8.186873204
1715932952510416688,0.068,,,,8.19456792
1715932952518111404,0.071,,,,8.202262636
1715932952525806120,0.063,,,,8.209957352
1715932952533500836,0.061,,,,8.217652068
1715932952541195552,0.066,,,,8.225346784
1715932952548890268,0.073,,,,8.2330415
1715932952556584984,0.082,,,,8.240736216
1715932952564279700,0.089,,,,8.248430932
1715932952571974416,0.087,,,,8.256125648
1715932952579669132,0.073,,,,8.263820364
1715932952587363848,0.066,,,,8.27151508
1715932952595058564,0.075,,,,8.279209796
1715932952602753280,0.082,,,,8.286904512
1715932952610447996,0.082,,,,8.294599228
1715932952618142712,0.078,,,,8.302293944
1715932952625837428,0.08,,,,8.30998866
1715932952633532144,0.08,,,,8.317683376
1715932952641226860,0.078,,,,8.325378092
1715932952648921576,0.082,,,,8.333072808
1715932952656616292,0.082,,,,8.340767524
1715932952664311008,0.08,,,,8.34846224
1715932952672005724,0.082,,,,8.356156956
1715932952679700440,0.089,,,,8.363851672
1715932952687395156,0.092,,,,8.371546388
1715932952695089872,0.082,,,,8.379241104
1715932952702784588,0.08,,,,8.38693582
1715932952710479304,0.08,,,,8.394630536
1715932952718174020,0.071,,,,8.402325252
1715932952725868736,0.071,,,,8.410019968
1715932952733563452,0.082,,,,8.417714684
1715932952741258206,0.078,,,,8.425409438
1715932952748952504,0.061,,,,8.433103736
1715932952756646802,0.056,,,,8.440798034
1715932952764341100,0.073,,,,8.448492332
1715932952772035398,0.099,,,,8.45618663
1715932952779729696,0.097,,,,8.463880928
1715932952787423994,0.066,,,,8.471575226
1715932952795118292,0.047,,,,8.479269524
1715932952802812590,0.056,,,,8.486963822
1715932952810506888,0.066,,,,8.49465812
1715932952818201186,0.061,,,,8.502352418
1715932952825895484,0.066,,,,8.510046716
1715932952833589782,0.075,,,,8.517741014
1715932952841284080,0.075,,,,8.525435312
1715932952848978378,0.066,,,,8.53312961
1715932952856672676,0.063,,,,8.540823908
1715932952864366974,0.063,,,,8.548518206
1715932952872061272,0.075,,,,8.556212504
1715932952879755570,0.22,,,,8.563906802
1715932952887449868,0.603,,,,8.5716011
1715932952895144166,0.899,,,,8.579295398
1715932952902838464,0.594,,,,8.586989696
1715932952910532762,0.007,,,,8.594683994
1715932952918227060,-0.097,,,,8.602378292
1715932952925921358,0.085,,,,8.61007259
1715932952933615656,0.042,,,,8.617766888
1715932952941309954,-0.037,,,,8.625461186
1715932952949004252,0.007,,,,8.633155484
1715932952956698550,0.026,,,,8.640849782
1715932952964392848,0.007,,,,8.64854408
1715932952972087146,0.018,,,,8.656238378
1715932952979781444,0.035,,,,8.663932676
1715932952987475742,0.035,,,,8.671626974
1715932952995170040,0.033,,,,8.679321272
1715932953002864338,0.04,,,,8.68701557
1715932953010558636,0.047,,,,8.694709868
1715932953018252934,0.049,,,,8.702404166
1715932953025947232,0.044,,,,8.710098464
1715932953033641530,0.052,,,,8.717792762
1715932953041335828,0.066,,,,8.72548706
1715932953049030126,0.078,,,,8.733181358
1715932953056724424,0.071,,,,8.740875656
1715932953064418722,0.078,,,,8.748569954
1715932953072113020,0.101,,,,8.756264252
1715932953079807318,0.111,,,,8.76395855
1715932953087501616,0.106,,,,8.771652848
1715932953095195914,0.111,,,,8.779347146
1715932953102890212,0.113,,,,8.787041444
1715932953110584510,0.108,,,,8.794735742
1715932953118278808,0.099,,,,8.80243004
1715932953125973106,0.085,,,,8.810124338
1715932953133667404,0.08,,,,8.817818636
1715932953141361702,0.075,,,,8.825512934
1715932953149056000,0.056,,,,8.833207232
1715932953156750298,0.049,,,,8.84090153
1715932953164444596,0.047,,,,8.848595828
1715932953172138894,0.026,,,,8.856290126
1715932953179833192,0.004,,,,8.863984424
1715932953187527490,0.004,,,,8.871678722
1715932953195221788,-0.002,,,,8.87937302
1715932953202916086,-0.011,,,,8.887067318
1715932953210610384,-0.009,,,,8.894761616
1715932953218304682,-0.007,,,,8.902455914
1715932953225998980,-0.007,,,,8.910150212
1715932953233693278,0.0,,,,8.91784451
1715932953241387576,0.007,,,,8.925538808
1715932953249081874,0.016,,,,8.933233106
1715932953256776172,0.023,,,,8.940927404
1715932953264470470,0.018,,,,8.948621702
1715932953272164768,0.009,,,,8.956316
1715932953279859066,0.009,,,,8.964010298
1715932953287553364,0.014,,,,8.971704596
1715932953295247662,0.021,,,,8.979398894
1715932953302941998,0.018,91.0,635.0,,8.98709323
1715932953310636296,0.023,,638.0,,8.994787528
1715932953318330594,0.033,,,,9.002481826
1715932953326024892,0.023,,,,9.010176124
1715932953333719190,0.021,,,,9.017870422
1715932953341413488,0.037,,,,9.02556472
1715932953349107786,0.037,,,,9.033259018
1715932953356802084,0.021,,,,9.040953316
1715932953364496382,0.023,,,,9.048647614
1715932953372190680,0.037,,,,9.056341912
1715932953379884978,0.03,,,,9.06403621
1715932953387579276,0.016,,,,9.071730508
1715932953395273574,0.021,,,,9.079424806
1715932953402967872,0.03,,,,9.087119104
1715932953410662170,0.026,,,,9.094813402
1715932953418356468,0.018,,,,9.1025077
1715932953426050766,0.021,,,,9.110201998
1715932953433745064,0.023,,,,9.117896296
1715932953441439362,0.021,,,,9.125590594
1715932953449133660,0.016,,,,9.133284892
1715932953456827958,0.03,,,,9.14097919
1715932953464522256,0.061,,,,9.148673488
1715932953472216554,0.063,,,,9.156367786
1715932953479910852,0.042,,,,9.164062084
1715932953487605150,0.042,,,,9.171756382
1715932953495299448,0.052,,,,9.17945068
1715932953502993746,0.047,,,,9.187144978
1715932953510688044,0.052,,,,9.194839276
1715932953518382342,0.063,,,,9.202533574
1715932953526076640,0.063,,,,9.210227872
1715932953533770938,0.056,,,,9.21792217
1715932953541465236,0.059,,,,9.225616468
1715932953549159534,0.073,,,,9.233310766
1715932953556853832,0.073,,,,9.241005064
1715932953564548130,0.116,,,,9.248699362
1715932953572242428,0.369,,,,9.25639366
1715932953579936726,0.798,,,,9.264087958
1715932953587631024,0.897,,,,9.271782256
1715932953595325322,0.376,,,,9.279476554
1715932953603019620,-0.099,,,,9.287170852
1715932953610713918,-0.021,,,,9.29486515
1715932953618408216,0.097,,,,9.302559448
1715932953626102514,-0.002,,,,9.310253746
1715932953633796812,-0.018,,,,9.317948044
1715932953641491110,0.042,,,,9.325642342
1715932953649185408,0.037,,,,9.33333664
1715932953656879706,0.028,,,,9.341030938
1715932953664574004,0.047,,,,9.348725236
1715932953672268302,0.052,,,,9.356419534
1715932953679962600,0.052,,,,9.364113832
1715932953687656898,0.056,,,,9.37180813
1715932953695351196,0.054,,,,9.379502428
1715932953703045494,0.063,,,,9.387196726
1715932953710739792,0.078,,,,9.394891024
1715932953718434090,0.075,,,,9.402585322
1715932953726128388,0.078,,,,9.41027962
1715932953733822686,0.094,,,,9.417973918
1715932953741516984,0.101,,,,9.425668216
1715932953749211282,0.108,,,,9.433362514
1715932953756905580,0.113,,,,9.441056812
1715932953764599878,0.113,,,,9.44875111
1715932953772294176,0.113,,,,9.456445408
1715932953779988474,0.12,,,,9.464139706
1715932953787682772,0.132,,,,9.471834004
1715932953795377070,0.134,,,,9.479528302
1715932953803071368,0.13,,,,9.4872226
1715932953810765666,0.116,,,,9.494916898
1715932953818459964,0.101,,,,9.502611196
1715932953826154262,0.092,,,,9.510305494
1715932953833848560,0.075,,,,9.517999792
1715932953841542858,0.061,,,,9.52569409
1715932953849237156,0.052,,,,9.533388388
1715932953856931454,0.037,,,,9.541082686
1715932953864625788,0.028,91.0,658.0,,9.54877702
1715932953872320295,0.023,,,,9.556471527
1715932953880014802,0.016,,,,9.564166034
1715932953887709309,0.016,,,,9.571860541
1715932953895403816,0.021,,,,9.579555048
1715932953903098323,0.023,,,,9.587249555
1715932953910792830,0.023,,,,9.594944062
1715932953918487337,0.026,,,,9.602638569
1715932953926181844,0.033,,,,9.610333076
1715932953933876351,0.042,,,,9.618027583
1715932953941570858,0.042,,,,9.62572209
1715932953949265365,0.04,,,,9.633416597
1715932953956959872,0.04,,,,9.641111104
1715932953964654379,0.042,,,,9.648805611
1715932953972348886,0.052,,,,9.656500118
1715932953980043393,0.054,,,,9.664194625
1715932953987737900,0.059,,,,9.671889132
1715932953995432407,0.061,,,,9.679583639
1715932954003126914,0.059,,,,9.687278146
1715932954010821421,0.059,,,,9.694972653
1715932954018515928,0.063,,,,9.70266716
1715932954026210435,0.066,,,,9.710361667
1715932954033904942,0.063,,,,9.718056174
1715932954041599449,0.063,,,,9.725750681
1715932954049293956,0.063,,,,9.733445188
1715932954056988463,0.066,,,,9.741139695
1715932954064682970,0.073,,,,9.748834202
1715932954072377477,0.075,,,,9.756528709
1715932954080071984,0.068,,,,9.764223216
1715932954087766491,0.073,,,,9.771917723
1715932954095460998,0.08,,,,9.77961223
1715932954103155505,0.073,,,,9.787306737
1715932954110850012,0.073,,,,9.795001244
1715932954118544519,0.075,,,,9.802695751
1715932954126239026,0.071,,,,9.810390258
1715932954133933533,0.068,,,,9.818084765
1715932954141628040,0.082,,,,9.825779272
1715932954149322547,0.108,,,,9.833473779
1715932954157017054,0.118,,,,9.841168286
1715932954164711561,0.101,,,,9.848862793
1715932954172406068,0.085,,,,9.8565573
1715932954180100575,0.082,,,,9.864251807
1715932954187795082,0.082,,,,9.871946314
1715932954195489589,0.08,,,,9.879640821
1715932954203184096,0.085,,,,9.887335328
1715932954210878603,0.089,,,,9.895029835
1715932954218573110,0.092,,,,9.902724342
1715932954226267617,0.094,,,,9.910418849
1715932954233962124,0.099,,,,9.918113356
1715932954241656631,0.099,,,,9.925807863
1715932954249351138,0.108,,,,9.93350237
1715932954257045645,0.262,,,,9.941196877
1715932954264740152,0.677,,,,9.948891384
1715932954272434659,1.032,,,,9.956585891
1715932954280129166,0.757,,,,9.964280398
1715932954287823673,0.087,,,,9.971974905
1715932954295518180,-0.116,,,,9.979669412
1715932954303212687,0.075,,,,9.987363919
1715932954310907194,0.061,,,,9.995058426
1715932954318601701,-0.033,,,,10.002752933
1715932954326296208,0.014,,,,10.01044744
1715932954333990715,0.037,,,,10.018141947
1715932954341685222,0.011,,,,10.025836454
1715932954349379729,0.03,,,,10.033530961
1715932954357074236,0.054,,,,10.041225468
1715932954364768743,0.049,,,,10.048919975
1715932954372463250,0.052,,,,10.056614482
1715932954380157757,0.059,,,,10.064308989
1715932954387852264,0.066,,,,10.072003496
1715932954395546771,0.071,,,,10.079698003
1715932954403241278,0.073,,,,10.08739251
1715932954410935785,0.082,,,,10.095087017
1715932954418630292,0.089,,,,10.102781524
1715932954426324836,0.092,,,,10.110476068
1715932954434019204,0.094,,,,10.118170436
1715932954441713572,0.101,,,,10.125864804
1715932954449407940,0.113,,,,10.133559172
1715932954457102308,0.12,,,,10.14125354
1715932954464796676,0.125,,,,10.148947908
1715932954472491044,0.13,,,,10.156642276
1715932954480185412,0.132,,,,10.164336644
1715932954487879780,0.132,,,,10.172031012
1715932954495574148,0.125,,,,10.17972538
1715932954503268516,0.116,,,,10.187419748
1715932954510962884,0.108,,,,10.195114116
1715932954518657252,0.097,,,,10.202808484
1715932954526351620,0.078,,,,10.210502852
1715932954534045988,0.063,,,,10.21819722
1715932954541740356,0.056,,,,10.225891588
1715932954549434724,0.047,,,,10.233585956
1715932954557129092,0.03,,,,10.241280324
1715932954564823460,0.023,,,,10.248974692
1715932954572517828,0.028,,,,10.25666906
1715932954580212196,0.028,,,,10.264363428
1715932954587906564,0.028,,,,10.272057796
1715932954595600932,0.035,,,,10.279752164
1715932954603295300,0.035,,,,10.287446532
1715932954610989668,0.035,,,,10.2951409
1715932954618684036,0.04,,,,10.302835268
1715932954626378404,0.049,,,,10.310529636
1715932954634072772,0.056,,,,10.318224004
1715932954641767140,0.063,,,,10.325918372
1715932954649461508,0.066,,,,10.33361274
1715932954657155876,0.068,,,,10.341307108
1715932954664850244,0.078,,,,10.349001476
1715932954672544612,0.08,,,,10.356695844
1715932954680238980,0.075,,,,10.364390212
1715932954687933348,0.08,,,,10.37208458
1715932954695627716,0.085,,,,10.379778948
1715932954703322084,0.08,,,,10.387473316
1715932954711016452,0.08,,,,10.395167684
1715932954718710820,0.085,,,,10.402862052
1715932954726405188,0.087,,,,10.41055642
1715932954734099556,0.087,,,,10.418250788
1715932954741793924,0.085,,,,10.425945156
1715932954749488292,0.087,,,,10.433639524
1715932954757182660,0.089,,,,10.441333892
1715932954764877028,0.089,,,,10.44902826
1715932954772571396,0.085,,,,10.456722628
1715932954780265764,0.078,,,,10.464416996
1715932954787960132,0.08,,,,10.472111364
1715932954795654500,0.082,,,,10.479805732
1715932954803348868,0.082,,,,10.4875001
1715932954811043236,0.082,,,,10.495194468
1715932954818737604,0.08,,,,10.502888836
1715932954826431972,0.078,,,,10.510583204
1715932954834126340,0.092,,,,10.518277572
1715932954841820708,0.111,,,,10.52597194
1715932954849515076,0.125,,,,10.533666308
1715932954857209444,0.118,,,,10.541360676
1715932954864903812,0.106,,,,10.549055044
1715932954872598180,0.099,,,,10.556749412
1715932954880292548,0.097,,,,10.56444378
1715932954887986916,0.099,,,,10.572138148
1715932954895681284,0.104,,,,10.579832516
1715932954903375652,0.104,,,,10.587526884
1715932954911070020,0.106,,,,10.595221252
1715932954918764388,0.106,,,,10.60291562
1715932954926458756,0.106,,,,10.610609988
1715932954934153124,0.111,,,,10.618304356
1715932954941847492,0.106,,,,10.625998724
1715932954949541860,0.175,,,,10.633693092
1715932954957236228,0.506,,,,10.64138746
1715932954964930596,0.975,,,,10.649081828
1715932954972624964,0.996,,,,10.656776196
1715932954980319332,0.367,,,,10.664470564
1715932954988013712,-0.111,91.0,701.0,,10.672164944
1715932954995708080,0.007,,689.0,,10.679859312
1715932955003402448,0.108,,,,10.68755368
1715932955011096816,-0.004,,,,10.695248048
1715932955018791184,0.0,,,,10.702942416
1715932955026485552,0.056,,,,10.710636784
1715932955034179920,0.03,,,,10.718331152
1715932955041874288,0.018,,,,10.72602552
1715932955049568656,0.047,,,,10.733719888
1715932955057263024,0.054,,,,10.741414256
1715932955064957392,0.054,,,,10.749108624
1715932955072651760,0.063,,,,10.756802992
1715932955080346128,0.066,,,,10.76449736
1715932955088040496,0.066,,,,10.772191728
1715932955095734864,0.068,,,,10.779886096
1715932955103429232,0.071,,,,10.787580464
1715932955111123600,0.071,,,,10.795274832
1715932955118817968,0.075,,,,10.8029692
1715932955126512336,0.089,,,,10.810663568
1715932955134206704,0.104,,,,10.818357936
1715932955141901072,0.111,,,,10.826052304
1715932955149595440,0.116,,,,10.833746672
1715932955157289808,0.123,,,,10.84144104
1715932955164984176,0.125,,,,10.849135408
1715932955172678544,0.125,,,,10.856829776
1715932955180372912,0.123,,,,10.864524144
1715932955188067280,0.118,,,,10.872218512
1715932955195761648,0.118,,,,10.87991288
1715932955203456016,0.116,,,,10.887607248
1715932955211150384,0.104,,,,10.895301616
1715932955218844752,0.085,,,,10.902995984
1715932955226539120,0.073,,,,10.910690352
1715932955234233488,0.061,,,,10.91838472
1715932955241927856,0.052,,,,10.926079088
1715932955249622224,0.047,,,,10.933773456
1715932955257316592,0.04,,,,10.941467824
1715932955265010960,0.04,,,,10.949162192
1715932955272705328,0.035,,,,10.95685656
1715932955280399696,0.026,,,,10.964550928
1715932955288094064,0.026,,,,10.972245296
1715932955295788432,0.035,,,,10.979939664
1715932955303482800,0.033,,,,10.987634032
1715932955311177168,0.03,,,,10.9953284
1715932955318871536,0.037,,,,11.003022768
1715932955326565904,0.047,,,,11.010717136
1715932955334260272,0.049,,,,11.018411504
1715932955341954640,0.049,,,,11.026105872
1715932955349649008,0.052,,,,11.03380024
1715932955357343376,0.063,,,,11.041494608
1715932955365037744,0.068,,,,11.049188976
1715932955372732112,0.063,,,,11.056883344
1715932955380426480,0.068,,,,11.064577712
1715932955388120848,0.073,,,,11.07227208
1715932955395815216,0.068,,,,11.079966448
1715932955403509584,0.068,,,,11.087660816
1715932955411203952,0.073,,,,11.095355184
1715932955418898320,0.063,,,,11.103049552
1715932955426592688,0.056,,,,11.11074392
1715932955434287056,0.061,,,,11.118438288
1715932955441981424,0.066,,,,11.126132656
1715932955449675792,0.066,,,,11.133827024
1715932955457370160,0.066,,,,11.141521392
1715932955465064528,0.063,,,,11.14921576
1715932955472758896,0.063,,,,11.156910128
1715932955480453264,0.068,,,,11.164604496
1715932955488147632,0.073,,,,11.172298864
1715932955495842000,0.071,,,,11.179993232
1715932955503536368,0.066,,,,11.1876876
1715932955511230736,0.063,,,,11.195381968
1715932955518925104,0.061,,,,11.203076336
1715932955526619472,0.059,,,,11.210770704
1715932955534313840,0.056,,,,11.218465072
1715932955542008208,0.056,,,,11.22615944
1715932955549702588,0.073,,,,11.23385382
1715932955557396956,0.101,,,,11.241548188
1715932955565091324,0.108,,,,11.249242556
1715932955572785692,0.089,,,,11.256936924
1715932955580480060,0.073,,,,11.264631292
1715932955588174428,0.075,,,,11.27232566
1715932955595868796,0.08,,,,11.280020028
1715932955603563164,0.071,,,,11.287714396
1715932955611257532,0.056,,,,11.295408764
1715932955618951900,0.059,,,,11.303103132
1715932955626646268,0.071,,,,11.3107975
1715932955634340636,0.068,,,,11.318491868
1715932955642035004,0.068,,,,11.326186236
1715932955649729372,0.073,,,,11.333880604
1715932955657423740,0.071,,,,11.341574972
1715932955665118108,0.179,,,,11.34926934
1715932955672812476,0.544,,,,11.356963708
1715932955680506844,0.93,,,,11.364658076
1715932955688201212,0.772,,,,11.372352444
1715932955695895580,0.137,,,,11.380046812
1715932955703589948,-0.137,,,,11.38774118
1715932955711284316,0.037,,,,11.395435548
1715932955718978684,0.054,,,,11.403129916
1715932955726673052,-0.052,,,,11.410824284
1715932955734367420,-0.014,,,,11.418518652
1715932955742061788,0.03,,,,11.42621302
1715932955749756156,0.002,,,,11.433907388
1715932955757450524,-0.007,,,,11.441601756
1715932955765144892,0.011,,,,11.449296124
1715932955772839260,0.016,,,,11.456990492
1715932955780533628,0.009,,,,11.46468486
1715932955788227996,0.014,,,,11.472379228
1715932955795922364,0.026,,,,11.480073596
1715932955803616732,0.028,,,,11.487767964
1715932955811311100,0.033,,,,11.495462332
1715932955819005468,0.037,,,,11.5031567
1715932955826699836,0.047,,,,11.510851068
1715932955834394204,0.061,,,,11.518545436
1715932955842088572,0.068,,,,11.526239804
1715932955849782940,0.075,,,,11.533934172
1715932955857477308,0.087,,,,11.54162854
1715932955865171676,0.101,,,,11.549322908
1715932955872866044,0.108,,,,11.557017276
1715932955880560412,0.113,,,,11.564711644
1715932955888254780,0.118,,,,11.572406012
1715932955895949148,0.118,,,,11.58010038
1715932955903643516,0.106,,,,11.587794748
1715932955911337884,0.099,,,,11.595489116
1715932955919032252,0.097,,,,11.603183484
1715932955926726620,0.089,,,,11.610877852
1715932955934420988,0.075,,,,11.61857222
1715932955942115356,0.059,,,,11.626266588
1715932955949809724,0.049,,,,11.633960956
1715932955957504092,0.044,,,,11.641655324
1715932955965198460,0.035,,,,11.649349692
1715932955972892828,0.03,,,,11.65704406
1715932955980587196,0.03,,,,11.664738428
1715932955988281564,0.03,,,,11.672432796
1715932955995975932,0.03,,,,11.680127164
1715932956003670300,0.035,,,,11.687821532
1715932956011364668,0.037,,,,11.6955159
1715932956019059036,0.04,,,,11.703210268
1715932956026753404,0.042,,,,11.710904636
1715932956034447772,0.047,,,,11.718599004
1715932956042142140,0.056,,,,11.726293372
1715932956049836508,0.068,,,,11.73398774
1715932956057530876,0.068,,,,11.741682108
1715932956065225244,0.073,,,,11.749376476
1715932956072919612,0.075,,,,11.757070844
1715932956080613980,0.073,,,,11.764765212
1715932956088308348,0.073,,,,11.77245958
1715932956096002716,0.08,,,,11.780153948
1715932956103697084,0.082,,,,11.787848316
1715932956111391464,0.08,90.0,688.0,,11.795542696
1715932956119085832,0.08,,,,11.803237064
1715932956126780200,0.08,,,,11.810931432
1715932956134474568,0.078,,,,11.8186258
1715932956142168936,0.08,,,,11.826320168
1715932956149863304,0.078,,,,11.834014536
1715932956157557672,0.073,,,,11.841708904
1715932956165252040,0.075,,,,11.849403272
1715932956172946408,0.075,,,,11.85709764
1715932956180640776,0.066,,,,11.864792008
1715932956188335144,0.066,,,,11.872486376
1715932956196029512,0.073,,,,11.880180744
1715932956203723880,0.073,,,,11.887875112
1715932956211418248,0.073,,,,11.89556948
1715932956219112616,0.078,,,,11.903263848
1715932956226806984,0.078,,,,11.910958216
1715932956234501352,0.075,,,,11.918652584
1715932956242195720,0.073,,,,11.926346952
1715932956249890088,0.073,,,,11.93404132
1715932956257584456,0.073,,,,11.941735688
1715932956265278824,0.075,,,,11.949430056
1715932956272973192,0.085,,,,11.957124424
1715932956280667560,0.099,,,,11.964818792
1715932956288361928,0.108,,,,11.97251316
1715932956296056296,0.092,,,,11.980207528
1715932956303750664,0.078,,,,11.987901896
1715932956311445032,0.08,,,,11.995596264
1715932956319139400,0.075,,,,12.003290632
1715932956326833768,0.071,,,,12.010985
1715932956334528136,0.071,,,,12.018679368
1715932956342222504,0.075,,,,12.026373736
1715932956349916872,0.082,,,,12.034068104
1715932956357611240,0.082,,,,12.041762472
1715932956365305608,0.085,,,,12.04945684
1715932956372999976,0.085,,,,12.057151208
1715932956380694344,0.075,,,,12.064845576
1715932956388388712,0.161,,,,12.072539944
1715932956396083080,0.502,,,,12.080234312
1715932956403777448,0.944,,,,12.08792868
1715932956411471816,0.914,,,,12.095623048
1715932956419166184,0.286,,,,12.103317416
1715932956426860552,-0.127,,,,12.111011784
1715932956434554920,0.007,,,,12.118706152
1715932956442249288,0.08,,,,12.12640052
1715932956449943656,-0.033,,,,12.134094888
1715932956457638024,-0.023,,,,12.141789256
1715932956465332392,0.026,,,,12.149483624
1715932956473026760,0.004,,,,12.157177992
1715932956480721128,0.002,,,,12.16487236
1715932956488415496,0.028,,,,12.172566728
1715932956496109864,0.028,,,,12.180261096
1715932956503804232,0.028,,,,12.187955464
1715932956511498600,0.042,,,,12.195649832
1715932956519192968,0.049,,,,12.2033442
1715932956526887336,0.054,,,,12.211038568
1715932956534581704,0.059,,,,12.218732936
1715932956542276072,0.059,,,,12.226427304
1715932956549970440,0.063,,,,12.234121672
1715932956557664808,0.078,,,,12.24181604
1715932956565359176,0.085,,,,12.249510408
1715932956573053544,0.089,,,,12.257204776
1715932956580747912,0.099,,,,12.264899144
1715932956588442280,0.111,,,,12.272593512
1715932956596136648,0.116,,,,12.28028788
1715932956603831016,0.127,,,,12.287982248
1715932956611525384,0.137,,,,12.295676616
1715932956619219752,0.132,,,,12.303370984
1715932956626914120,0.127,,,,12.311065352
1715932956634608488,0.123,,,,12.31875972
1715932956642302856,0.108,,,,12.326454088
1715932956649997224,0.094,,,,12.334148456
1715932956657691592,0.087,,,,12.341842824
1715932956665385960,0.082,,,,12.349537192
1715932956673080342,0.071,,,,12.357231574
1715932956680774710,0.059,,,,12.364925942
1715932956688469078,0.054,,,,12.37262031
1715932956696163446,0.049,,,,12.380314678
1715932956703857814,0.049,,,,12.388009046
1715932956711552182,0.047,,,,12.395703414
1715932956719246550,0.047,,,,12.403397782
1715932956726940918,0.052,,,,12.41109215
1715932956734635286,0.052,,,,12.418786518
1715932956742329654,0.049,,,,12.426480886
1715932956750024022,0.047,,,,12.434175254
1715932956757718390,0.054,,,,12.441869622
1715932956765412758,0.061,,,,12.44956399
1715932956773107126,0.059,,,,12.457258358
1715932956780801494,0.056,,,,12.464952726
1715932956788495862,0.056,,,,12.472647094
1715932956796190230,0.056,,,,12.480341462
1715932956803884598,0.061,,,,12.48803583
1715932956811578966,0.068,,,,12.495730198
1715932956819273334,0.071,,,,12.503424566
1715932956826967702,0.071,,,,12.511118934
1715932956834662070,0.073,,,,12.518813302
1715932956842356438,0.073,,,,12.52650767
1715932956850050806,0.078,,,,12.534202038
1715932956857745174,0.082,,,,12.541896406
1715932956865439542,0.078,,,,12.549590774
1715932956873133910,0.073,,,,12.557285142
1715932956880828278,0.078,,,,12.56497951
1715932956888522646,0.078,,,,12.572673878
1715932956896217014,0.073,,,,12.580368246
1715932956903911382,0.075,,,,12.588062614
1715932956911605750,0.082,,,,12.595756982
1715932956919300118,0.078,,,,12.60345135
1715932956926994486,0.075,,,,12.611145718
1715932956934688854,0.082,,,,12.618840086
1715932956942383222,0.085,,,,12.626534454
1715932956950077590,0.082,,,,12.634228822
1715932956957771958,0.082,,,,12.64192319
1715932956965466326,0.085,,,,12.649617558
1715932956973160694,0.087,,,,12.657311926
1715932956980855062,0.089,,,,12.665006294
1715932956988549430,0.089,,,,12.672700662
1715932956996243798,0.087,,,,12.68039503
1715932957003938166,0.085,,,,12.688089398
1715932957011632534,0.078,,,,12.695783766
1715932957019326902,0.075,,,,12.703478134
1715932957027021270,0.094,,,,12.711172502
1715932957034715638,0.125,,,,12.71886687
1715932957042410006,0.127,,,,12.726561238
1715932957050104374,0.106,,,,12.734255606
1715932957057798742,0.094,,,,12.741949974
1715932957065493110,0.097,,,,12.749644342
1715932957073187478,0.097,,,,12.75733871
1715932957080881846,0.092,,,,12.765033078
1715932957088576214,0.094,,,,12.772727446
1715932957096270582,0.099,,,,12.780421814
1715932957103964950,0.099,,,,12.788116182
1715932957111659318,0.101,,,,12.79581055
1715932957119353686,0.104,,,,12.803504918
1715932957127048054,0.099,,,,12.811199286
1715932957134742422,0.082,,,,12.818893654
1715932957142436790,0.163,,,,12.826588022
1715932957150131158,0.509,,,,12.83428239
1715932957157825526,0.954,,,,12.841976758
1715932957165519894,0.925,,,,12.849671126
1715932957173214262,0.298,,,,12.857365494
1715932957180908630,-0.12,,,,12.865059862
1715932957188602998,0.016,,,,12.87275423
1715932957196297366,0.087,,,,12.880448598
1715932957203991734,-0.028,,,,12.888142966
1715932957211686102,-0.009,,,,12.895837334
1715932957219380470,0.042,,,,12.903531702
1715932957227074838,0.018,,,,12.91122607
1715932957234769218,0.021,90.0,695.0,,12.91892045
1715932957242463377,0.049,,,,12.926614609
1715932957250157536,0.049,,,,12.934308768
1715932957257851695,0.044,,,,12.942002927
1715932957265545854,0.056,,,,12.949697086
1715932957273240013,0.066,,,,12.957391245
1715932957280934172,0.066,,,,12.965085404
1715932957288628331,0.063,,,,12.972779563
1715932957296322490,0.059,,,,12.980473722
1715932957304016649,0.073,,,,12.988167881
1715932957311710808,0.082,,,,12.99586204
1715932957319404967,0.075,,,,13.003556199
1715932957327099126,0.085,,,,13.011250358
1715932957334793285,0.101,,,,13.018944517
1715932957342487444,0.108,,,,13.026638676
1715932957350181603,0.116,,,,13.034332835
1715932957357875762,0.13,,,,13.042026994
1715932957365569921,0.139,,,,13.049721153
1715932957373264080,0.137,,,,13.057415312
1715932957380958239,0.13,,,,13.065109471
1715932957388652398,0.123,,,,13.07280363
1715932957396346557,0.116,,,,13.080497789
1715932957404040716,0.106,,,,13.088191948
1715932957411734875,0.099,,,,13.095886107
1715932957419429034,0.089,,,,13.103580266
1715932957427123193,0.08,,,,13.111274425
1715932957434817352,0.068,,,,13.118968584
1715932957442511511,0.059,,,,13.126662743
1715932957450205670,0.061,,,,13.134356902
1715932957457899829,0.063,,,,13.142051061
1715932957465593988,0.056,,,,13.14974522
1715932957473288147,0.054,,,,13.157439379
1715932957480982306,0.063,,,,13.165133538
1715932957488676465,0.068,,,,13.172827697
1715932957496370624,0.071,,,,13.180521856
1715932957504064783,0.075,,,,13.188216015
1715932957511758942,0.071,,,,13.195910174
1715932957519453101,0.063,,,,13.203604333
1715932957527147260,0.068,,,,13.211298492
1715932957534841419,0.078,,,,13.218992651
1715932957542535578,0.078,,,,13.22668681
1715932957550229737,0.082,,,,13.234380969
1715932957557923896,0.087,,,,13.242075128
1715932957565618055,0.087,,,,13.249769287
1715932957573312214,0.089,,,,13.257463446
1715932957581006373,0.094,,,,13.265157605
1715932957588700532,0.094,,,,13.272851764
1715932957596394691,0.094,,,,13.280545923
1715932957604088850,0.097,,,,13.288240082
1715932957611783009,0.094,,,,13.295934241
1715932957619477168,0.092,,,,13.3036284
1715932957627171327,0.094,,,,13.311322559
1715932957634865486,0.089,,,,13.319016718
1715932957642559645,0.089,,,,13.326710877
1715932957650253804,0.092,,,,13.334405036
1715932957657947963,0.094,,,,13.342099195
1715932957665642122,0.097,,,,13.349793354
1715932957673336281,0.097,,,,13.357487513
1715932957681030440,0.089,,,,13.365181672
1715932957688724599,0.085,,,,13.372875831
1715932957696418758,0.087,,,,13.38056999
1715932957704112917,0.082,,,,13.388264149
1715932957711807076,0.082,,,,13.395958308
1715932957719501235,0.089,,,,13.403652467
1715932957727195394,0.092,,,,13.411346626
1715932957734889553,0.085,,,,13.419040785
1715932957742583712,0.08,,,,13.426734944
1715932957750277871,0.082,,,,13.434429103
1715932957757972030,0.085,,,,13.442123262
1715932957765666189,0.08,,,,13.449817421
1715932957773360348,0.078,,,,13.45751158
1715932957781054507,0.089,,,,13.465205739
1715932957788748666,0.113,,,,13.472899898
1715932957796442836,0.123,89.0,714.0,,13.480594068
1715932957804137134,0.104,,725.0,,13.488288366
1715932957811831432,0.085,,,,13.495982664
1715932957819525730,0.078,,,,13.503676962
1715932957827220028,0.068,,,,13.51137126
1715932957834914326,0.066,,,,13.519065558
1715932957842608624,0.066,,,,13.526759856
1715932957850302922,0.066,,,,13.534454154
1715932957857997220,0.066,,,,13.542148452
1715932957865691518,0.066,,,,13.54984275
1715932957873385816,0.068,,,,13.557537048
1715932957881080114,0.066,,,,13.565231346
1715932957888774412,0.052,,,,13.572925644
1715932957896468710,0.063,,,,13.580619942
1715932957904163008,0.253,,,,13.58831424
1715932957911857306,0.677,,,,13.596008538
1715932957919551604,0.966,,,,13.603702836
1715932957927245902,0.632,,,,13.611397134
1715932957934940200,0.014,,,,13.619091432
1715932957942634498,-0.106,,,,13.62678573
1715932957950328796,0.075,,,,13.634480028
1715932957958023094,0.033,,,,13.642174326
1715932957965717392,-0.042,,,,13.649868624
1715932957973411690,0.016,,,,13.657562922
1715932957981105988,0.037,,,,13.66525722
1715932957988800286,0.011,,,,13.672951518
1715932957996494584,0.018,,,,13.680645816
1715932958004188882,0.037,,,,13.688340114
1715932958011883180,0.037,,,,13.696034412
1715932958019577478,0.042,,,,13.70372871
1715932958027271776,0.054,,,,13.711423008
1715932958034966074,0.061,,,,13.719117306
1715932958042660372,0.063,,,,13.726811604
1715932958050354670,0.073,,,,13.734505902
1715932958058048968,0.08,,,,13.7422002
1715932958065743266,0.082,,,,13.749894498
1715932958073437564,0.089,,,,13.757588796
1715932958081131862,0.101,,,,13.765283094
1715932958088826160,0.108,,,,13.772977392
1715932958096520458,0.113,,,,13.78067169
1715932958104214756,0.125,,,,13.788365988
1715932958111909054,0.137,,,,13.796060286
1715932958119603352,0.134,,,,13.803754584
1715932958127297650,0.132,,,,13.811448882
1715932958134991948,0.132,,,,13.81914318
1715932958142686246,0.132,,,,13.826837478
1715932958150380544,0.13,,,,13.834531776
1715932958158074842,0.12,,,,13.842226074
1715932958165769140,0.104,,,,13.849920372
1715932958173463438,0.089,,,,13.85761467
1715932958181157736,0.089,,,,13.865308968
1715932958188852034,0.082,,,,13.873003266
1715932958196546332,0.075,,,,13.880697564
1715932958204240630,0.068,,,,13.888391862
1715932958211934928,0.059,,,,13.89608616
1715932958219629226,0.052,,,,13.903780458
1715932958227323524,0.059,,,,13.911474756
1715932958235017822,0.061,,,,13.919169054
1715932958242712120,0.059,,,,13.926863352
1715932958250406418,0.061,,,,13.93455765
1715932958258100716,0.068,,,,13.942251948
1715932958265795014,0.071,,,,13.949946246
1715932958273489312,0.068,,,,13.957640544
1715932958281183610,0.071,,,,13.965334842
1715932958288877908,0.078,,,,13.97302914
1715932958296572206,0.075,,,,13.980723438
1715932958304266504,0.066,,,,13.988417736
1715932958311960802,0.071,,,,13.996112034
1715932958319655100,0.078,,,,14.003806332
1715932958327349398,0.082,,,,14.01150063
1715932958335043696,0.082,,,,14.019194928
1715932958342737994,0.082,,,,14.026889226
1715932958350432292,0.082,,,,14.034583524
1715932958358126626,0.08,,,,14.042277858
1715932958365820924,0.078,,,,14.049972156
1715932958373515222,0.078,,,,14.057666454
1715932958381209520,0.082,,,,14.065360752
1715932958388903818,0.078,,,,14.07305505
1715932958396598116,0.061,,,,14.080749348
1715932958404292414,0.056,,,,14.088443646
1715932958411986712,0.063,,,,14.096137944
1715932958419681010,0.066,,,,14.103832242
1715932958427375308,0.063,,,,14.11152654
1715932958435069606,0.066,,,,14.119220838
1715932958442763904,0.068,,,,14.126915136
1715932958450458202,0.066,,,,14.134609434
1715932958458152500,0.071,,,,14.142303732
1715932958465846798,0.082,,,,14.14999803
1715932958473541096,0.08,,,,14.157692328
1715932958481235394,0.066,,,,14.165386626
1715932958488929692,0.066,,,,14.173080924
1715932958496623990,0.071,,,,14.180775222
1715932958504318288,0.068,,,,14.18846952
1715932958512012586,0.059,,,,14.196163818
1715932958519706884,0.059,,,,14.203858116
1715932958527401182,0.073,,,,14.211552414
1715932958535095480,0.089,,,,14.219246712
1715932958542789778,0.099,,,,14.22694101
1715932958550484076,0.092,,,,14.234635308
1715932958558178374,0.075,,,,14.242329606
1715932958565872672,0.073,,,,14.250023904
1715932958573566970,0.068,,,,14.257718202
1715932958581261268,0.063,,,,14.2654125
1715932958588955566,0.071,,,,14.273106798
1715932958596649864,0.073,,,,14.280801096
1715932958604344162,0.073,,,,14.288495394
1715932958612038460,0.078,,,,14.296189692
1715932958619732758,0.078,,,,14.30388399
1715932958627427056,0.073,,,,14.311578288
1715932958635121354,0.063,,,,14.319272586
1715932958642815652,0.078,,,,14.326966884
1715932958650509950,0.274,,,,14.334661182
1715932958658204248,0.6980000000000001,,,,14.34235548
1715932958665898546,0.947,,,,14.350049778
1715932958673592844,0.5650000000000001,,,,14.357744076
1715932958681287142,-0.018,,,,14.365438374
1715932958688981440,-0.075,,,,14.373132672
1715932958696675738,0.092,,,,14.38082697
1715932958704370036,0.028,,,,14.388521268
1715932958712064334,-0.028,,,,14.396215566
1715932958719758632,0.03,,,,14.403909864
1715932958727452930,0.035,,,,14.411604162
1715932958735147228,0.014,,,,14.41929846
1715932958742841526,0.035,,,,14.426992758
1715932958750535824,0.052,,,,14.434687056
1715932958758230122,0.049,,,,14.442381354
1715932958765924420,0.056,,,,14.450075652
1715932958773618718,0.063,,,,14.45776995
1715932958781313016,0.061,,,,14.465464248
1715932958789007314,0.068,,,,14.473158546
1715932958796701612,0.073,,,,14.480852844
1715932958804395910,0.071,,,,14.488547142
1715932958812090208,0.075,,,,14.49624144
1715932958819784506,0.082,,,,14.503935738
1715932958827478804,0.089,,,,14.511630036
1715932958835173102,0.099,,,,14.519324334
1715932958842867400,0.113,,,,14.527018632
1715932958850561698,0.12,,,,14.53471293
1715932958858255996,0.123,,,,14.542407228
1715932958865950294,0.125,,,,14.550101526
1715932958873644592,0.125,,,,14.557795824
1715932958881338890,0.125,,,,14.565490122
1715932958889033188,0.12,,,,14.57318442
1715932958896727486,0.111,,,,14.580878718
1715932958904421784,0.106,,,,14.588573016
1715932958912116082,0.099,,,,14.596267314
1715932958919810416,0.082,88.0,754.0,,14.603961648
1715932958927504714,0.075,,,,14.611655946
1715932958935199012,0.075,,,,14.619350244
1715932958942893310,0.066,,,,14.627044542
1715932958950587608,0.049,,,,14.63473884
1715932958958281906,0.04,,,,14.642433138
1715932958965976204,0.037,,,,14.650127436
1715932958973670502,0.035,,,,14.657821734
1715932958981364800,0.042,,,,14.665516032
1715932958989059098,0.052,,,,14.67321033
1715932958996753396,0.047,,,,14.680904628
1715932959004447694,0.044,,,,14.688598926
1715932959012141992,0.052,,,,14.696293224
1715932959019836290,0.054,,,,14.703987522
1715932959027530588,0.056,,,,14.71168182
1715932959035224886,0.068,,,,14.719376118
1715932959042919184,0.073,,,,14.727070416
1715932959050613482,0.063,,,,14.734764714
1715932959058307780,0.066,,,,14.742459012
1715932959066002078,0.078,,,,14.75015331
1715932959073696376,0.08,,,,14.757847608
1715932959081390674,0.075,,,,14.765541906
1715932959089084972,0.078,,,,14.773236204
1715932959096779270,0.078,,,,14.780930502
1715932959104473568,0.073,,,,14.7886248
1715932959112167866,0.066,,,,14.796319098
1715932959119862164,0.059,,,,14.804013396
1715932959127556462,0.059,,,,14.811707694
1715932959135250760,0.066,,,,14.819401992
1715932959142945058,0.066,,,,14.82709629
1715932959150639356,0.061,,,,14.834790588
1715932959158333654,0.059,,,,14.842484886
1715932959166027952,0.063,,,,14.850179184
1715932959173722250,0.061,,,,14.857873482
1715932959181416548,0.063,,,,14.86556778
1715932959189110846,0.068,,,,14.873262078
1715932959196805144,0.063,,,,14.880956376
1715932959204499442,0.063,,,,14.888650674
1715932959212193740,0.071,,,,14.896344972
1715932959219888038,0.068,,,,14.90403927
1715932959227582336,0.059,,,,14.911733568
1715932959235276634,0.049,,,,14.919427866
1715932959242970932,0.042,,,,14.927122164
1715932959250665230,0.042,,,,14.934816462
1715932959258359528,0.056,,,,14.94251076
1715932959266053826,0.073,,,,14.950205058
1715932959273748124,0.087,,,,14.957899356
1715932959281442422,0.085,,,,14.965593654
1715932959289136720,0.063,,,,14.973287952
1715932959296831018,0.049,,,,14.98098225
1715932959304525316,0.042,,,,14.988676548
1715932959312219614,0.04,,,,14.996370846
1715932959319913912,0.04,,,,15.004065144
1715932959327608210,0.047,,,,15.011759442
1715932959335302508,0.056,,,,15.01945374
1715932959342996806,0.056,,,,15.027148038
1715932959350691104,0.049,,,,15.034842336
1715932959358385402,0.052,,,,15.042536634
1715932959366079700,0.049,,,,15.050230932
1715932959373773998,0.047,,,,15.05792523
1715932959381468296,0.177,,,,15.065619528
1715932959389162594,0.558,,,,15.073313826
1715932959396856892,0.873,,,,15.081008124
1715932959404551190,0.601,,,,15.088702422
1715932959412245488,0.018,,,,15.09639672
1715932959419939786,-0.106,,,,15.104091018
1715932959427634084,0.073,,,,15.111785316
1715932959435328382,0.037,,,,15.119479614
1715932959443022680,-0.037,,,,15.127173912
1715932959450716978,0.014,,,,15.13486821
1715932959458411276,0.023,,,,15.142562508
1715932959466105574,0.002,,,,15.150256806
1715932959473799872,0.023,,,,15.157951104
1715932959481494204,0.037,,,,15.165645436
1715932959489188572,0.035,,,,15.173339804
1715932959496882940,0.042,,,,15.181034172
1715932959504577308,0.044,,,,15.18872854
1715932959512271676,0.035,,,,15.196422908
1715932959519966044,0.042,,,,15.204117276
1715932959527660412,0.066,,,,15.211811644
1715932959535354780,0.071,,,,15.219506012
1715932959543049148,0.063,,,,15.22720038
1715932959550743516,0.071,,,,15.234894748
1715932959558437884,0.094,,,,15.242589116
1715932959566132252,0.116,,,,15.250283484
1715932959573826620,0.116,,,,15.257977852
1715932959581520988,0.113,,,,15.26567222
1715932959589215356,0.125,,,,15.273366588
1715932959596909724,0.13,,,,15.281060956
1715932959604604092,0.123,,,,15.288755324
1715932959612298460,0.125,,,,15.296449692
1715932959619992828,0.125,,,,15.30414406
1715932959627687196,0.118,,,,15.311838428
1715932959635381564,0.104,,,,15.319532796
1715932959643075932,0.094,,,,15.327227164
1715932959650770300,0.085,,,,15.334921532
1715932959658464668,0.073,,,,15.3426159
1715932959666159036,0.061,,,,15.350310268
1715932959673853404,0.054,,,,15.358004636
1715932959681547772,0.049,,,,15.365699004
1715932959689242140,0.037,,,,15.373393372
1715932959696936508,0.033,,,,15.38108774
1715932959704630876,0.037,,,,15.388782108
1715932959712325244,0.047,,,,15.396476476
1715932959720019612,0.047,,,,15.404170844
1715932959727713980,0.047,,,,15.411865212
1715932959735408348,0.054,,,,15.41955958
1715932959743102716,0.059,,,,15.427253948
1715932959750797084,0.059,,,,15.434948316
1715932959758491452,0.066,,,,15.442642684
1715932959766185820,0.073,,,,15.450337052
1715932959773880188,0.068,,,,15.45803142
1715932959781574556,0.068,,,,15.465725788
1715932959789268924,0.078,,,,15.473420156
1715932959796963292,0.08,,,,15.481114524
1715932959804657660,0.075,,,,15.488808892
1715932959812352028,0.071,,,,15.49650326
1715932959820046396,0.068,,,,15.504197628
1715932959827740764,0.068,,,,15.511891996
1715932959835435132,0.061,,,,15.519586364
1715932959843129500,0.054,,,,15.527280732
1715932959850823868,0.052,,,,15.5349751
1715932959858518236,0.052,,,,15.542669468
1715932959866212604,0.052,,,,15.550363836
1715932959873906972,0.049,,,,15.558058204
1715932959881601340,0.056,,,,15.565752572
1715932959889295708,0.059,,,,15.57344694
1715932959896990076,0.052,,,,15.581141308
1715932959904684444,0.054,,,,15.588835676
1715932959912378812,0.056,,,,15.596530044
1715932959920073180,0.054,,,,15.604224412
1715932959927767548,0.054,,,,15.61191878
1715932959935461916,0.052,,,,15.619613148
1715932959943156284,0.056,,,,15.627307516
1715932959950850652,0.056,,,,15.635001884
1715932959958545020,0.042,,,,15.642696252
1715932959966239388,0.035,,,,15.65039062
1715932959973933756,0.052,,,,15.658084988
1715932959981628124,0.075,,,,15.665779356
1715932959989322492,0.08,,,,15.673473724
1715932959997016860,0.066,,,,15.681168092
1715932960004711228,0.052,,,,15.68886246
1715932960012405596,0.044,,,,15.696556828
1715932960020099964,0.04,,,,15.704251196
1715932960027794332,0.047,,,,15.711945564
1715932960035488700,0.052,,,,15.719639932
1715932960043183082,0.054,87.0,758.0,,15.727334314
1715932960050877310,0.052,,,,15.735028542
1715932960058571538,0.054,,,,15.74272277
1715932960066265766,0.059,,,,15.750416998
1715932960073959994,0.059,,,,15.758111226
1715932960081654222,0.049,,,,15.765805454
1715932960089348450,0.087,,,,15.773499682
1715932960097042678,0.338,,,,15.78119391
1715932960104736906,0.757,,,,15.788888138
1715932960112431134,0.854,,,,15.796582366
1715932960120125362,0.338,,,,15.804276594
1715932960127819590,-0.132,,,,15.811970822
1715932960135513818,-0.052,,,,15.81966505
1715932960143208046,0.068,,,,15.827359278
1715932960150902274,-0.03,,,,15.835053506
1715932960158596502,-0.04,,,,15.842747734
1715932960166290730,0.021,,,,15.850441962
1715932960173984958,0.007,,,,15.85813619
1715932960181679186,0.0,,,,15.865830418
1715932960189373414,0.023,,,,15.873524646
1715932960197067642,0.028,,,,15.881218874
1715932960204761870,0.026,,,,15.888913102
1715932960212456098,0.04,,,,15.89660733
1715932960220150326,0.047,,,,15.904301558
1715932960227844554,0.049,,,,15.911995786
1715932960235538782,0.056,,,,15.919690014
1715932960243233010,0.061,,,,15.927384242
1715932960250927238,0.066,,,,15.93507847
1715932960258621466,0.075,,,,15.942772698
1715932960266315694,0.087,,,,15.950466926
1715932960274009922,0.094,,,,15.958161154
1715932960281704150,0.099,,,,15.965855382
1715932960289398378,0.111,,,,15.97354961
1715932960297092606,0.127,,,,15.981243838
1715932960304786834,0.134,,,,15.988938066
1715932960312481062,0.132,,,,15.996632294
1715932960320175290,0.123,,,,16.004326522
1715932960327869518,0.116,,,,16.01202075
1715932960335563746,0.113,,,,16.019714978
1715932960343257974,0.104,,,,16.027409206
1715932960350952202,0.092,,,,16.035103434
1715932960358646430,0.087,,,,16.042797662
1715932960366340658,0.08,,,,16.05049189
1715932960374034886,0.066,,,,16.058186118
1715932960381729114,0.056,,,,16.065880346
1715932960389423342,0.054,,,,16.073574574
1715932960397117570,0.054,,,,16.081268802
1715932960404811798,0.047,,,,16.08896303
1715932960412506026,0.042,,,,16.096657258
1715932960420200254,0.047,,,,16.104351486
1715932960427894482,0.052,,,,16.112045714
1715932960435588710,0.049,,,,16.119739942
1715932960443282938,0.059,,,,16.12743417
1715932960450977166,0.071,,,,16.135128398
1715932960458671394,0.071,,,,16.142822626
1715932960466365622,0.066,,,,16.150516854
1715932960474059850,0.073,,,,16.158211082
1715932960481754078,0.08,,,,16.16590531
1715932960489448306,0.078,,,,16.173599538
1715932960497142534,0.08,,,,16.181293766
1715932960504836762,0.089,,,,16.188987994
1715932960512530990,0.092,,,,16.196682222
1715932960520225218,0.085,,,,16.20437645
1715932960527919446,0.089,,,,16.212070678
1715932960535613674,0.099,,,,16.219764906
1715932960543307902,0.094,,,,16.227459134
1715932960551002130,0.08,,,,16.235153362
1715932960558696358,0.08,,,,16.24284759
1715932960566390586,0.087,,,,16.250541818
1715932960574084814,0.089,,,,16.258236046
1715932960581779042,0.087,,,,16.265930274
1715932960589473270,0.085,,,,16.273624502
1715932960597167498,0.082,,,,16.28131873
1715932960604861786,0.082,,,,16.289013018
1715932960612556084,0.08,,,,16.296707316
1715932960620250382,0.078,,,,16.304401614
1715932960627944680,0.082,,,,16.312095912
1715932960635638978,0.082,,,,16.31979021
1715932960643333276,0.085,,,,16.327484508
1715932960651027574,0.087,,,,16.335178806
1715932960658721872,0.078,,,,16.342873104
1715932960666416170,0.071,,,,16.350567402
1715932960674110468,0.068,,,,16.3582617
1715932960681804766,0.071,,,,16.365955998
1715932960689499064,0.087,,,,16.373650296
1715932960697193362,0.106,,,,16.381344594
1715932960704887660,0.108,,,,16.389038892
1715932960712581958,0.092,,,,16.39673319
1715932960720276256,0.08,,,,16.404427488
1715932960727970554,0.068,,,,16.412121786
1715932960735664852,0.066,,,,16.419816084
1715932960743359150,0.071,,,,16.427510382
1715932960751053448,0.071,,,,16.43520468
1715932960758747746,0.071,,,,16.442898978
1715932960766442044,0.073,,,,16.450593276
1715932960774136342,0.08,,,,16.458287574
1715932960781830640,0.082,,,,16.465981872
1715932960789524938,0.082,,,,16.47367617
1715932960797219236,0.063,,,,16.481370468
1715932960804913534,0.099,,,,16.489064766
1715932960812607832,0.367,,,,16.496759064
1715932960820302130,0.8140000000000001,,,,16.504453362
1715932960827996428,0.921,,,,16.51214766
1715932960835690726,0.376,,,,16.519841958
1715932960843385024,-0.127,,,,16.527536256
1715932960851079322,-0.04,,,,16.535230554
1715932960858773620,0.094,,,,16.542924852
1715932960866467918,-0.011,,,,16.55061915
1715932960874162216,-0.023,,,,16.558313448
1715932960881856514,0.042,,,,16.566007746
1715932960889550812,0.028,,,,16.573702044
1715932960897245110,0.018,,,,16.581396342
1715932960904939408,0.049,,,,16.58909064
1715932960912633706,0.054,,,,16.596784938
1715932960920328004,0.044,,,,16.604479236
1715932960928022302,0.047,,,,16.612173534
1715932960935716600,0.059,,,,16.619867832
1715932960943410898,0.068,,,,16.62756213
1715932960951105196,0.073,,,,16.635256428
1715932960958799494,0.078,,,,16.642950726
1715932960966493792,0.087,,,,16.650645024
1715932960974188090,0.087,,,,16.658339322
1715932960981882388,0.087,,,,16.66603362
1715932960989576686,0.101,,,,16.673727918
1715932960997270984,0.118,,,,16.681422216
1715932961004965282,0.123,,,,16.689116514
1715932961012659580,0.132,,,,16.696810812
1715932961020353878,0.146,,,,16.70450511
1715932961028048176,0.151,,,,16.712199408
1715932961035742474,0.144,,,,16.719893706
1715932961043436772,0.137,,,,16.727588004
1715932961051131070,0.134,,,,16.735282302
1715932961058825368,0.127,,,,16.7429766
1715932961066519666,0.118,,,,16.750670898
1715932961074213964,0.106,,,,16.758365196
1715932961081908262,0.097,,,,16.766059494
1715932961089602560,0.092,,,,16.773753792
1715932961097296858,0.082,,,,16.78144809
1715932961104991156,0.071,,,,16.789142388
1715932961112685454,0.068,,,,16.796836686
1715932961120379752,0.066,,,,16.804530984
1715932961128074050,0.066,,,,16.812225282
1715932961135768348,0.063,,,,16.81991958
1715932961143462646,0.068,,,,16.827613878
1715932961151156944,0.073,,,,16.835308176
1715932961158851242,0.075,,,,16.843002474
1715932961166545576,0.08,85.0,746.0,,16.850696808
1715932961174239874,0.089,,732.0,,16.858391106
1715932961181934172,0.089,,,,16.866085404
1715932961189628470,0.089,,,,16.873779702
1715932961197322768,0.092,,,,16.881474
1715932961205017066,0.099,,,,16.889168298
1715932961212711364,0.099,,,,16.896862596
1715932961220405662,0.092,,,,16.904556894
1715932961228099960,0.087,,,,16.912251192
1715932961235794258,0.092,,,,16.91994549
1715932961243488556,0.099,,,,16.927639788
1715932961251182854,0.099,,,,16.935334086
1715932961258877152,0.099,,,,16.943028384
1715932961266571450,0.099,,,,16.950722682
1715932961274265748,0.099,,,,16.95841698
1715932961281960046,0.099,,,,16.966111278
1715932961289654344,0.099,,,,16.973805576
1715932961297348642,0.099,,,,16.981499874
1715932961305042940,0.099,,,,16.989194172
1715932961312737238,0.101,,,,16.99688847
1715932961320431536,0.097,,,,17.004582768
1715932961328125834,0.087,,,,17.012277066
1715932961335820132,0.075,,,,17.019971364
1715932961343514430,0.071,,,,17.027665662
1715932961351208728,0.073,,,,17.03535996
1715932961358903026,0.082,,,,17.043054258
1715932961366597324,0.085,,,,17.050748556
1715932961374291622,0.078,,,,17.058442854
1715932961381985920,0.071,,,,17.066137152
1715932961389680218,0.075,,,,17.07383145
1715932961397374516,0.085,,,,17.081525748
1715932961405068814,0.101,,,,17.089220046
1715932961412763112,0.123,,,,17.096914344
1715932961420457410,0.123,,,,17.104608642
1715932961428151708,0.106,,,,17.11230294
1715932961435846006,0.094,,,,17.119997238
1715932961443540304,0.092,,,,17.127691536
1715932961451234602,0.092,,,,17.135385834
1715932961458928900,0.092,,,,17.143080132
1715932961466623198,0.094,,,,17.15077443
1715932961474317496,0.094,,,,17.158468728
1715932961482011794,0.089,,,,17.166163026
1715932961489706092,0.082,,,,17.173857324
1715932961497400390,0.085,,,,17.181551622
1715932961505094688,0.092,,,,17.18924592
1715932961512788986,0.092,,,,17.196940218
1715932961520483284,0.187,,,,17.204634516
1715932961528177582,0.528,,,,17.212328814
1715932961535871880,0.907,,,,17.220023112
1715932961543566178,0.755,,,,17.22771741
1715932961551260476,0.132,,,,17.235411708
1715932961558954774,-0.12,,,,17.243106006
1715932961566649072,0.066,,,,17.250800304
1715932961574343370,0.073,,,,17.258494602
1715932961582037668,-0.026,,,,17.2661889
1715932961589731966,0.023,,,,17.273883198
1715932961597426264,0.061,,,,17.281577496
1715932961605120562,0.03,,,,17.289271794
1715932961612814860,0.04,,,,17.296966092
1715932961620509158,0.059,,,,17.30466039
1715932961628203456,0.054,,,,17.312354688
1715932961635897754,0.056,,,,17.320048986
1715932961643592052,0.073,,,,17.327743284
1715932961651286350,0.078,,,,17.335437582
1715932961658980648,0.078,,,,17.34313188
1715932961666674946,0.087,,,,17.350826178
1715932961674369244,0.094,,,,17.358520476
1715932961682063542,0.097,,,,17.366214774
1715932961689757840,0.101,,,,17.373909072
1715932961697452138,0.113,,,,17.38160337
1715932961705146436,0.125,,,,17.389297668
1715932961712840734,0.132,,,,17.396991966
1715932961720535032,0.139,,,,17.404686264
1715932961728229366,0.151,,,,17.412380598
1715932961735924012,0.158,,,,17.420075244
1715932961743618658,0.163,,,,17.42776989
1715932961751313304,0.158,,,,17.435464536
1715932961759007950,0.146,,,,17.443159182
1715932961766702596,0.137,,,,17.450853828
1715932961774397242,0.127,,,,17.458548474
1715932961782091888,0.113,,,,17.46624312
1715932961789786534,0.099,,,,17.473937766
1715932961797481180,0.097,,,,17.481632412
1715932961805175826,0.087,,,,17.489327058
1715932961812870472,0.071,,,,17.497021704
1715932961820565118,0.061,,,,17.50471635
1715932961828259764,0.059,,,,17.512410996
1715932961835954410,0.054,,,,17.520105642
1715932961843649056,0.049,,,,17.527800288
1715932961851343702,0.049,,,,17.535494934
1715932961859038348,0.056,,,,17.54318958
1715932961866732994,0.059,,,,17.550884226
1715932961874427640,0.059,,,,17.558578872
1715932961882122286,0.061,,,,17.566273518
1715932961889816932,0.071,,,,17.573968164
1715932961897511578,0.082,,,,17.58166281
1715932961905206224,0.085,,,,17.589357456
1715932961912900870,0.085,,,,17.597052102
1715932961920595516,0.089,,,,17.604746748
1715932961928290162,0.092,,,,17.612441394
1715932961935984808,0.094,,,,17.62013604
1715932961943679454,0.094,,,,17.627830686
1715932961951374100,0.099,,,,17.635525332
1715932961959068746,0.097,,,,17.643219978
1715932961966763392,0.094,,,,17.650914624
1715932961974458038,0.097,,,,17.65860927
1715932961982152684,0.099,,,,17.666303916
1715932961989847330,0.101,,,,17.673998562
1715932961997541976,0.099,,,,17.681693208
1715932962005236622,0.094,,,,17.689387854
1715932962012931268,0.094,,,,17.6970825
1715932962020625914,0.097,,,,17.704777146
1715932962028320560,0.099,,,,17.712471792
1715932962036015206,0.101,,,,17.720166438
1715932962043709852,0.104,,,,17.727861084
1715932962051404498,0.101,,,,17.73555573
1715932962059099144,0.099,,,,17.743250376
1715932962066793790,0.094,,,,17.750945022
1715932962074488436,0.089,,,,17.758639668
1715932962082183082,0.089,,,,17.766334314
1715932962089877728,0.101,,,,17.77402896
1715932962097572374,0.125,,,,17.781723606
1715932962105267020,0.132,,,,17.789418252
1715932962112961666,0.111,,,,17.797112898
1715932962120656312,0.099,,,,17.804807544
1715932962128350958,0.099,,,,17.81250219
1715932962136045604,0.094,,,,17.820196836
1715932962143740250,0.094,,,,17.827891482
1715932962151434896,0.099,,,,17.835586128
1715932962159129542,0.104,,,,17.843280774
1715932962166824188,0.108,,,,17.85097542
1715932962174518834,0.106,,,,17.858670066
1715932962182213480,0.104,,,,17.866364712
1715932962189908126,0.104,,,,17.874059358
1715932962197602772,0.092,,,,17.881754004
1715932962205297418,0.163,,,,17.88944865
1715932962212992064,0.485,,,,17.897143296
1715932962220686710,0.888,,,,17.904837942
1715932962228381356,0.8,,,,17.912532588
1715932962236076002,0.189,,,,17.920227234
1715932962243770648,-0.127,,,,17.92792188
1715932962251465294,0.047,,,,17.935616526
1715932962259159940,0.092,,,,17.943311172
1715932962266854586,-0.023,,,,17.951005818
1715932962274549232,0.0,,,,17.958700464
1715932962282243878,0.052,,,,17.96639511
1715932962289938586,0.028,85.0,712.0,,17.974089818
1715932962297632954,0.023,,,,17.981784186
1715932962305327322,0.044,,,,17.989478554
1715932962313021690,0.042,,,,17.997172922
1715932962320716058,0.042,,,,18.00486729
1715932962328410426,0.052,,,,18.012561658
1715932962336104794,0.047,,,,18.020256026
1715932962343799162,0.049,,,,18.027950394
1715932962351493530,0.061,,,,18.035644762
1715932962359187898,0.054,,,,18.04333913
1715932962366882266,0.047,,,,18.051033498
1715932962374576634,0.063,,,,18.058727866
1715932962382271002,0.08,,,,18.066422234
1715932962389965370,0.085,,,,18.074116602
1715932962397659738,0.097,,,,18.08181097
1715932962405354106,0.106,,,,18.089505338
1715932962413048474,0.108,,,,18.097199706
1715932962420742842,0.111,,,,18.104894074
1715932962428437210,0.12,,,,18.112588442
1715932962436131578,0.12,,,,18.12028281
1715932962443825946,0.113,,,,18.127977178
1715932962451520314,0.101,,,,18.135671546
1715932962459214682,0.092,,,,18.143365914
1715932962466909050,0.089,,,,18.151060282
1715932962474603418,0.08,,,,18.15875465
1715932962482297786,0.066,,,,18.166449018
1715932962489992154,0.059,,,,18.174143386
1715932962497686522,0.052,,,,18.181837754
1715932962505380890,0.042,,,,18.189532122
1715932962513075258,0.035,,,,18.19722649
1715932962520769626,0.037,,,,18.204920858
1715932962528463994,0.04,,,,18.212615226
1715932962536158362,0.033,,,,18.220309594
1715932962543852730,0.03,,,,18.228003962
1715932962551547098,0.035,,,,18.23569833
1715932962559241466,0.04,,,,18.243392698
1715932962566935834,0.042,,,,18.251087066
1715932962574630202,0.049,,,,18.258781434
1715932962582324570,0.056,,,,18.266475802
1715932962590018938,0.059,,,,18.27417017
1715932962597713306,0.059,,,,18.281864538
1715932962605407674,0.061,,,,18.289558906
1715932962613102042,0.068,,,,18.297253274
1715932962620796410,0.073,,,,18.304947642
1715932962628490778,0.073,,,,18.31264201
1715932962636185146,0.073,,,,18.320336378
1715932962643879514,0.075,,,,18.328030746
1715932962651573882,0.075,,,,18.335725114
1715932962659268250,0.073,,,,18.343419482
1715932962666962618,0.075,,,,18.35111385
1715932962674656986,0.082,,,,18.358808218
1715932962682351354,0.08,,,,18.366502586
1715932962690045722,0.078,,,,18.374196954
1715932962697740090,0.08,,,,18.381891322
1715932962705434458,0.082,,,,18.38958569
1715932962713128826,0.082,,,,18.397280058
1715932962720823194,0.08,,,,18.404974426
1715932962728517562,0.08,,,,18.412668794
1715932962736211930,0.078,,,,18.420363162
1715932962743906298,0.08,,,,18.42805753
1715932962751600666,0.087,,,,18.435751898
1715932962759295034,0.104,,,,18.443446266
1715932962766989402,0.125,,,,18.451140634
1715932962774683770,0.125,,,,18.458835002
1715932962782378138,0.101,,,,18.46652937
1715932962790072506,0.092,,,,18.474223738
1715932962797766874,0.092,,,,18.481918106
1715932962805461242,0.087,,,,18.489612474
1715932962813155610,0.087,,,,18.497306842
1715932962820849978,0.087,,,,18.50500121
1715932962828544346,0.082,,,,18.512695578
1715932962836238714,0.08,,,,18.520389946
1715932962843933082,0.078,,,,18.528084314
1715932962851627462,0.082,84.0,716.0,,18.535778694
1715932962859321830,0.08,,713.0,,18.543473062
1715932962867016198,0.082,,,,18.55116743
1715932962874710566,0.222,,,,18.558861798
1715932962882404934,0.61,,,,18.566556166
1715932962890099302,0.933,,,,18.574250534
1715932962897793670,0.651,,,,18.581944902
1715932962905488038,0.035,,,,18.58963927
1715932962913182406,-0.106,,,,18.597333638
1715932962920876774,0.08,,,,18.605028006
1715932962928571142,0.049,,,,18.612722374
1715932962936265510,-0.028,,,,18.620416742
1715932962943959878,0.026,,,,18.62811111
1715932962951654246,0.042,,,,18.635805478
1715932962959348614,0.014,,,,18.643499846
1715932962967042982,0.023,,,,18.651194214
1715932962974737350,0.044,,,,18.658888582
1715932962982431718,0.047,,,,18.66658295
1715932962990126086,0.049,,,,18.674277318
1715932962997820454,0.061,,,,18.681971686
1715932963005514822,0.066,,,,18.689666054
1715932963013209190,0.066,,,,18.697360422
1715932963020903558,0.073,,,,18.70505479
1715932963028597926,0.08,,,,18.712749158
1715932963036292294,0.087,,,,18.720443526
1715932963043986662,0.092,,,,18.728137894
1715932963051681030,0.097,,,,18.735832262
1715932963059375398,0.104,,,,18.74352663
1715932963067069766,0.12,,,,18.751220998
1715932963074764134,0.134,,,,18.758915366
1715932963082458502,0.139,,,,18.766609734
1715932963090152870,0.142,,,,18.774304102
1715932963097847238,0.144,,,,18.78199847
1715932963105541606,0.134,,,,18.789692838
1715932963113235974,0.12,,,,18.797387206
1715932963120930342,0.118,,,,18.805081574
1715932963128624710,0.12,,,,18.812775942
1715932963136319078,0.111,,,,18.82047031
1715932963144013446,0.101,,,,18.828164678
1715932963151707814,0.092,,,,18.835859046
1715932963159402182,0.087,,,,18.843553414
1715932963167096550,0.075,,,,18.851247782
1715932963174790918,0.059,,,,18.85894215
1715932963182485286,0.056,,,,18.866636518
1715932963190179654,0.059,,,,18.874330886
1715932963197874022,0.059,,,,18.882025254
1715932963205568390,0.066,,,,18.889719622
1715932963213262758,0.073,,,,18.89741399
1715932963220957126,0.08,,,,18.905108358
1715932963228651494,0.085,,,,18.912802726
1715932963236345862,0.087,,,,18.920497094
1715932963244040230,0.094,,,,18.928191462
1715932963251734598,0.097,,,,18.93588583
1715932963259428966,0.097,,,,18.943580198
1715932963267123334,0.104,,,,18.951274566
1715932963274817702,0.111,,,,18.958968934
1715932963282512070,0.104,,,,18.966663302
1715932963290206438,0.097,,,,18.97435767
1715932963297900806,0.097,,,,18.982052038
1715932963305595174,0.101,,,,18.989746406
1715932963313289542,0.106,,,,18.997440774
1715932963320983910,0.101,,,,19.005135142
1715932963328678278,0.099,,,,19.01282951
1715932963336372646,0.094,,,,19.020523878
1715932963344067014,0.089,,,,19.028218246
1715932963351761382,0.092,,,,19.035912614
1715932963359455750,0.092,,,,19.043606982
1715932963367150118,0.08,,,,19.05130135
1715932963374844486,0.073,,,,19.058995718
1715932963382538854,0.078,,,,19.066690086
1715932963390233222,0.08,,,,19.074384454
1715932963397927590,0.092,,,,19.082078822
1715932963405621958,0.116,,,,19.08977319
1715932963413316340,0.13,,,,19.097467572
1715932963421010708,0.127,,,,19.10516194
1715932963428705076,0.116,,,,19.112856308
1715932963436399444,0.094,,,,19.120550676
1715932963444093812,0.085,,,,19.128245044
1715932963451788180,0.097,,,,19.135939412
1715932963459482548,0.106,,,,19.14363378
1715932963467176916,0.099,,,,19.151328148
1715932963474871284,0.097,,,,19.159022516
1715932963482565652,0.108,,,,19.166716884
1715932963490260020,0.118,,,,19.174411252
1715932963497954388,0.108,,,,19.18210562
1715932963505648756,0.092,,,,19.189799988
1715932963513343124,0.094,,,,19.197494356
1715932963521037492,0.203,,,,19.205188724
1715932963528731860,0.547,,,,19.212883092
1715932963536426228,0.918,,,,19.22057746
1715932963544120596,0.767,,,,19.228271828
1715932963551814964,0.153,,,,19.235966196
1715932963559509332,-0.104,,,,19.243660564
1715932963567203700,0.073,,,,19.251354932
1715932963574898068,0.094,,,,19.2590493
1715932963582592436,0.007,,,,19.266743668
1715932963590286804,0.042,,,,19.274438036
1715932963597981172,0.063,,,,19.282132404
1715932963605675540,0.04,,,,19.289826772
1715932963613369908,0.054,,,,19.29752114
1715932963621064276,0.075,,,,19.305215508
1715932963628758644,0.075,,,,19.312909876
1715932963636453012,0.082,,,,19.320604244
1715932963644147380,0.092,,,,19.328298612
1715932963651841748,0.092,,,,19.33599298
1715932963659536116,0.094,,,,19.343687348
1715932963667230484,0.106,,,,19.351381716
1715932963674924852,0.111,,,,19.359076084
1715932963682619220,0.113,,,,19.366770452
1715932963690313588,0.123,,,,19.37446482
1715932963698007956,0.134,,,,19.382159188
1715932963705702324,0.142,,,,19.389853556
1715932963713396692,0.146,,,,19.397547924
1715932963721091060,0.158,,,,19.405242292
1715932963728785428,0.175,,,,19.41293666
1715932963736479796,0.179,,,,19.420631028
1715932963744174164,0.177,,,,19.428325396
1715932963751868532,0.17,,,,19.436019764
1715932963759562900,0.161,,,,19.443714132
1715932963767257268,0.161,,,,19.4514085
1715932963774951636,0.165,,,,19.459102868
1715932963782646004,0.153,,,,19.466797236
1715932963790340372,0.134,,,,19.474491604
1715932963798034740,0.125,,,,19.482185972
1715932963805729108,0.12,,,,19.48988034
1715932963813423476,0.113,,,,19.497574708
1715932963821117844,0.116,,,,19.505269076
1715932963828812212,0.12,,,,19.512963444
1715932963836506580,0.111,,,,19.520657812
1715932963844200948,0.099,,,,19.52835218
1715932963851895316,0.099,,,,19.536046548
1715932963859589684,0.104,,,,19.543740916
1715932963867284052,0.113,,,,19.551435284
1715932963874978420,0.125,,,,19.559129652
1715932963882672788,0.13,,,,19.56682402
1715932963890367156,0.132,,,,19.574518388
1715932963898061524,0.139,,,,19.582212756
1715932963905755892,0.146,,,,19.589907124
1715932963913450260,0.151,,,,19.597601492
1715932963921144628,0.153,,,,19.60529586
1715932963928838996,0.158,,,,19.612990228
1715932963936533364,0.161,,,,19.620684596
1715932963944227732,0.158,,,,19.628378964
1715932963951922100,0.161,,,,19.636073332
1715932963959616468,0.163,,,,19.6437677
1715932963967310836,0.163,,,,19.651462068
1715932963975005216,0.158,84.0,686.0,,19.659156448
1715932963982699584,0.151,,,,19.666850816
1715932963990393952,0.158,,,,19.674545184
1715932963998088320,0.168,,,,19.682239552
1715932964005782688,0.163,,,,19.68993392
1715932964013477056,0.156,,,,19.697628288
1715932964021171424,0.151,,,,19.705322656
1715932964028865792,0.139,,,,19.713017024
1715932964036560160,0.13,,,,19.720711392
1715932964044254528,0.149,,,,19.72840576
1715932964051948896,0.182,,,,19.736100128
1715932964059643264,0.187,,,,19.743794496
1715932964067337632,0.17,,,,19.751488864
1715932964075032000,0.151,,,,19.759183232
1715932964082726368,0.142,,,,19.7668776
1715932964090420736,0.139,,,,19.774571968
1715932964098115104,0.139,,,,19.782266336
1715932964105809472,0.137,,,,19.789960704
1715932964113503840,0.134,,,,19.797655072
1715932964121198208,0.137,,,,19.80534944
1715932964128892576,0.139,,,,19.813043808
1715932964136586944,0.137,,,,19.820738176
1715932964144281312,0.134,,,,19.828432544
1715932964151975680,0.125,,,,19.836126912
1715932964159670048,0.196,,,,19.84382128
1715932964167364416,0.506,,,,19.851515648
1715932964175058784,0.895,,,,19.859210016
1715932964182753152,0.8280000000000001,,,,19.866904384
1715932964190447520,0.246,,,,19.874598752
1715932964198141888,-0.092,,,,19.88229312
1715932964205836256,0.052,,,,19.889987488
1715932964213530624,0.104,,,,19.897681856
1715932964221224992,-0.004,,,,19.905376224
1715932964228919360,0.014,,,,19.913070592
1715932964236613728,0.054,,,,19.92076496
1715932964244308096,0.016,,,,19.928459328
1715932964252002464,0.004,,,,19.936153696
1715932964259696832,0.023,,,,19.943848064
1715932964267391200,0.021,,,,19.951542432
1715932964275085568,0.021,,,,19.9592368
1715932964282779936,0.023,,,,19.966931168
1715932964290474304,0.018,,,,19.974625536
1715932964298168672,0.018,,,,19.982319904
1715932964305863040,0.018,,,,19.990014272
1715932964313557408,0.011,,,,19.99770864
1715932964321251776,0.014,,,,20.005403008
1715932964328946144,0.028,,,,20.013097376
1715932964336640512,0.035,,,,20.020791744
1715932964344334880,0.033,,,,20.028486112
1715932964352029248,0.035,,,,20.03618048
1715932964359723616,0.037,,,,20.043874848
1715932964367417984,0.042,,,,20.051569216
1715932964375112352,0.04,,,,20.059263584
1715932964382806720,0.035,,,,20.066957952
1715932964390501088,0.035,,,,20.07465232
1715932964398195456,0.033,,,,20.082346688
1715932964405889824,0.021,,,,20.090041056
1715932964413584192,0.004,,,,20.097735424
1715932964421278560,0.0,,,,20.105429792
1715932964428972928,0.002,,,,20.11312416
1715932964436667296,-0.004,,,,20.120818528
1715932964444361664,-0.018,,,,20.128512896
1715932964452056032,-0.028,,,,20.136207264
1715932964459750400,-0.035,,,,20.143901632
1715932964467444768,-0.033,,,,20.151596
1715932964475139136,-0.035,,,,20.159290368
1715932964482833504,-0.042,,,,20.166984736
1715932964490527872,-0.037,,,,20.174679104
1715932964498222240,-0.028,,,,20.182373472
1715932964505916608,-0.023,,,,20.19006784
1715932964513610976,-0.009,,,,20.197762208
1715932964521305344,0.0,,,,20.205456576
1715932964528999712,-0.004,,,,20.213150944
1715932964536694092,-0.002,,,,20.220845324
1715932964544388460,0.014,,,,20.228539692
1715932964552082828,0.021,,,,20.23623406
1715932964559777196,0.016,,,,20.243928428
1715932964567471564,0.021,,,,20.251622796
1715932964575165932,0.026,,,,20.259317164
1715932964582860300,0.023,,,,20.267011532
1715932964590554668,0.021,,,,20.2747059
1715932964598249036,0.023,,,,20.282400268
1715932964605943404,0.021,,,,20.290094636
1715932964613637772,0.014,,,,20.297789004
1715932964621332140,0.014,,,,20.305483372
1715932964629026508,0.023,,,,20.31317774
1715932964636720876,0.026,,,,20.320872108
1715932964644415244,0.018,,,,20.328566476
1715932964652109612,0.014,,,,20.336260844
1715932964659803980,0.018,,,,20.343955212
1715932964667498348,0.021,,,,20.35164958
1715932964675192716,0.026,,,,20.359343948
1715932964682887084,0.054,,,,20.367038316
1715932964690581452,0.068,,,,20.374732684
1715932964698275820,0.049,,,,20.382427052
1715932964705970188,0.033,,,,20.39012142
1715932964713664556,0.03,,,,20.397815788
1715932964721358924,0.03,,,,20.405510156
1715932964729053292,0.033,,,,20.413204524
1715932964736747660,0.037,,,,20.420898892
1715932964744442028,0.047,,,,20.42859326
1715932964752136396,0.056,,,,20.436287628
1715932964759830764,0.049,,,,20.443981996
1715932964767525132,0.037,,,,20.451676364
1715932964775219500,0.037,,,,20.459370732
1715932964782913868,0.044,,,,20.4670651
1715932964790608236,0.13,,,,20.474759468
1715932964798302604,0.452,,,,20.482453836
1715932964805996972,0.8280000000000001,,,,20.490148204
1715932964813691340,0.71,,,,20.497842572
1715932964821385708,0.123,,,,20.50553694
1715932964829080076,-0.137,,,,20.513231308
1715932964836774444,0.035,,,,20.520925676
1715932964844468812,0.056,,,,20.528620044
1715932964852163180,-0.049,,,,20.536314412
1715932964859857548,-0.023,,,,20.54400878
1715932964867551916,0.011,,,,20.551703148
1715932964875246284,-0.004,,,,20.559397516
1715932964882940652,0.004,,,,20.567091884
1715932964890635020,0.026,,,,20.574786252
1715932964898329388,0.026,,,,20.58248062
1715932964906023756,0.033,,,,20.590174988
1715932964913718124,0.037,,,,20.597869356
1715932964921412492,0.04,,,,20.605563724
1715932964929106860,0.056,,,,20.613258092
1715932964936801228,0.063,,,,20.62095246
1715932964944495596,0.056,,,,20.628646828
1715932964952189964,0.063,,,,20.636341196
1715932964959884332,0.08,,,,20.644035564
1715932964967578700,0.087,,,,20.651729932
1715932964975273068,0.092,,,,20.6594243
1715932964982967436,0.097,,,,20.667118668
1715932964990661804,0.106,,,,20.674813036
1715932964998356172,0.116,,,,20.682507404
1715932965006050540,0.125,,,,20.690201772
1715932965013744908,0.12,,,,20.69789614
1715932965021439276,0.108,,,,20.705590508
1715932965029133644,0.101,,,,20.713284876
1715932965036828012,0.094,,,,20.720979244
1715932965044522380,0.085,,,,20.728673612
1715932965052216748,0.082,,,,20.73636798
1715932965059911116,0.066,,,,20.744062348
1715932965067605484,0.042,,,,20.751756716
1715932965075299852,0.033,,,,20.759451084
1715932965082994220,0.026,,,,20.767145452
1715932965090688588,0.004,,,,20.77483982
1715932965098382968,-0.004,85.0,667.0,,20.7825342
1715932965106076987,-0.004,,647.0,,20.790228219
1715932965113771006,-0.002,,,,20.797922238
1715932965121465025,-0.002,,,,20.805616257
1715932965129159044,0.002,,,,20.813310276
1715932965136853063,0.011,,,,20.821004295
1715932965144547082,0.011,,,,20.828698314
1715932965152241101,0.007,,,,20.836392333
1715932965159935120,0.016,,,,20.844086352
1715932965167629139,0.028,,,,20.851780371
1715932965175323158,0.026,,,,20.85947439
1715932965183017177,0.023,,,,20.867168409
1715932965190711196,0.033,,,,20.874862428
1715932965198405215,0.042,,,,20.882556447
1715932965206099234,0.037,,,,20.890250466
1715932965213793253,0.044,,,,20.897944485
1715932965221487272,0.052,,,,20.905638504
1715932965229181291,0.044,,,,20.913332523
1715932965236875310,0.037,,,,20.921026542
1715932965244569329,0.042,,,,20.928720561
1715932965252263348,0.049,,,,20.93641458
1715932965259957367,0.047,,,,20.944108599
1715932965267651386,0.04,,,,20.951802618
1715932965275345405,0.035,,,,20.959496637
1715932965283039424,0.037,,,,20.967190656
1715932965290733443,0.035,,,,20.974884675
1715932965298427462,0.042,,,,20.982578694
1715932965306121481,0.071,,,,20.990272713
1715932965313815500,0.092,,,,20.997966732
1715932965321509519,0.078,,,,21.005660751
1715932965329203538,0.059,,,,21.01335477
1715932965336897557,0.054,,,,21.021048789
1715932965344591576,0.052,,,,21.028742808
1715932965352285595,0.054,,,,21.036436827
1715932965359979614,0.054,,,,21.044130846
1715932965367673633,0.049,,,,21.051824865
1715932965375367652,0.054,,,,21.059518884
1715932965383061671,0.063,,,,21.067212903
1715932965390755690,0.063,,,,21.074906922
1715932965398449709,0.063,,,,21.082600941
1715932965406143728,0.063,,,,21.09029496
1715932965413837747,0.094,,,,21.097988979
1715932965421531766,0.322,,,,21.105682998
1715932965429225785,0.772,,,,21.113377017
1715932965436919804,0.963,,,,21.121071036
1715932965444613823,0.49,,,,21.128765055
1715932965452307842,-0.071,,,,21.136459074
1715932965460001861,-0.059,,,,21.144153093
1715932965467695880,0.097,,,,21.151847112
1715932965475389899,0.009,,,,21.159541131
1715932965483083918,-0.028,,,,21.16723515
1715932965490777937,0.04,,,,21.174929169
1715932965498471956,0.035,,,,21.182623188
1715932965506165975,0.016,,,,21.190317207
1715932965513859994,0.035,,,,21.198011226
1715932965521554013,0.047,,,,21.205705245
1715932965529248032,0.052,,,,21.213399264
1715932965536942051,0.061,,,,21.221093283
1715932965544636070,0.063,,,,21.228787302
1715932965552330089,0.068,,,,21.236481321
1715932965560024108,0.078,,,,21.24417534
1715932965567718127,0.082,,,,21.251869359
1715932965575412146,0.087,,,,21.259563378
1715932965583106165,0.094,,,,21.267257397
1715932965590800184,0.101,,,,21.274951416
1715932965598494203,0.106,,,,21.282645435
1715932965606188222,0.118,,,,21.290339454
1715932965613882241,0.13,,,,21.298033473
1715932965621576260,0.139,,,,21.305727492
1715932965629270279,0.146,,,,21.313421511
1715932965636964298,0.144,,,,21.32111553
1715932965644658317,0.137,,,,21.328809549
1715932965652352336,0.127,,,,21.336503568
1715932965660046414,0.12,,,,21.344197646
1715932965667740712,0.116,,,,21.351891944
1715932965675435010,0.106,,,,21.359586242
1715932965683129308,0.092,,,,21.36728054
1715932965690823606,0.078,,,,21.374974838
1715932965698517904,0.071,,,,21.382669136
1715932965706212202,0.063,,,,21.390363434
1715932965713906500,0.049,,,,21.398057732
1715932965721600798,0.04,,,,21.40575203
1715932965729295096,0.042,,,,21.413446328
1715932965736989394,0.04,,,,21.421140626
1715932965744683692,0.037,,,,21.428834924
1715932965752377990,0.037,,,,21.436529222
1715932965760072288,0.037,,,,21.44422352
1715932965767766586,0.037,,,,21.451917818
1715932965775460884,0.04,,,,21.459612116
1715932965783155182,0.042,,,,21.467306414
1715932965790849480,0.042,,,,21.475000712
1715932965798543778,0.047,,,,21.48269501
1715932965806238076,0.052,,,,21.490389308
1715932965813932374,0.054,,,,21.498083606
1715932965821626672,0.056,,,,21.505777904
1715932965829320970,0.059,,,,21.513472202
1715932965837015268,0.056,,,,21.5211665
1715932965844709566,0.056,,,,21.528860798
1715932965852403864,0.059,,,,21.536555096
1715932965860098162,0.052,,,,21.544249394
1715932965867792460,0.044,,,,21.551943692
1715932965875486758,0.047,,,,21.55963799
1715932965883181056,0.049,,,,21.567332288
1715932965890875354,0.047,,,,21.575026586
1715932965898569652,0.047,,,,21.582720884
1715932965906263950,0.047,,,,21.590415182
1715932965913958248,0.047,,,,21.59810948
1715932965921652546,0.054,,,,21.605803778
1715932965929346844,0.075,,,,21.613498076
1715932965937041142,0.092,,,,21.621192374
1715932965944735440,0.087,,,,21.628886672
1715932965952429738,0.071,,,,21.63658097
1715932965960124036,0.061,,,,21.644275268
1715932965967818334,0.063,,,,21.651969566
1715932965975512632,0.063,,,,21.659663864
1715932965983206930,0.066,,,,21.667358162
1715932965990901228,0.071,,,,21.67505246
1715932965998595526,0.071,,,,21.682746758
1715932966006289824,0.068,,,,21.690441056
1715932966013984122,0.071,,,,21.698135354
1715932966021678420,0.078,,,,21.705829652
1715932966029372718,0.073,,,,21.71352395
1715932966037067016,0.106,,,,21.721218248
1715932966044761314,0.376,,,,21.728912546
1715932966052455612,0.864,,,,21.736606844
1715932966060149910,1.004,,,,21.744301142
1715932966067844208,0.435,,,,21.75199544
1715932966075538506,-0.108,,,,21.759689738
1715932966083232804,-0.033,,,,21.767384036
1715932966090927102,0.104,,,,21.775078334
1715932966098621400,0.0,,,,21.782772632
1715932966106315698,-0.016,,,,21.79046693
1715932966114009996,0.044,,,,21.798161228
1715932966121704294,0.03,,,,21.805855526
1715932966129398592,0.021,,,,21.813549824
1715932966137092890,0.049,,,,21.821244122
1715932966144787188,0.054,,,,21.82893842
1715932966152481486,0.054,,,,21.836632718
1715932966160175784,0.066,,,,21.844327016
1715932966167870082,0.075,,,,21.852021314
1715932966175564380,0.075,,,,21.859715612
1715932966183258678,0.082,,,,21.86740991
1715932966190952976,0.089,,,,21.875104208
1715932966198647274,0.092,,,,21.882798506
1715932966206341572,0.104,,,,21.890492804
1715932966214035870,0.111,,,,21.898187102
1715932966221730204,0.116,87.0,640.0,,21.905881436
1715932966229424572,0.125,,630.0,,21.913575804
1715932966237118940,0.137,,,,21.921270172
1715932966244813308,0.139,,,,21.92896454
1715932966252507676,0.134,,,,21.936658908
1715932966260202044,0.132,,,,21.944353276
1715932966267896412,0.132,,,,21.952047644
1715932966275590780,0.13,,,,21.959742012
1715932966283285148,0.12,,,,21.96743638
1715932966290979516,0.106,,,,21.975130748
1715932966298673884,0.097,,,,21.982825116
1715932966306368252,0.092,,,,21.990519484
1715932966314062620,0.078,,,,21.998213852
1715932966321756988,0.063,,,,22.00590822
1715932966329451356,0.056,,,,22.013602588
1715932966337145724,0.054,,,,22.021296956
1715932966344840092,0.049,,,,22.028991324
1715932966352534460,0.049,,,,22.036685692
1715932966360228828,0.047,,,,22.04438006
1715932966367923196,0.04,,,,22.052074428
1715932966375617564,0.033,,,,22.059768796
1715932966383311932,0.035,,,,22.067463164
1715932966391006300,0.04,,,,22.075157532
1715932966398700668,0.042,,,,22.0828519
1715932966406395036,0.047,,,,22.090546268
1715932966414089404,0.056,,,,22.098240636
1715932966421783772,0.061,,,,22.105935004
1715932966429478140,0.063,,,,22.113629372
1715932966437172508,0.063,,,,22.12132374
1715932966444866876,0.066,,,,22.129018108
1715932966452561244,0.071,,,,22.136712476
1715932966460255612,0.068,,,,22.144406844
1715932966467949980,0.066,,,,22.152101212
1715932966475644348,0.066,,,,22.15979558
1715932966483338716,0.063,,,,22.167489948
1715932966491033084,0.061,,,,22.175184316
1715932966498727452,0.056,,,,22.182878684
1715932966506421820,0.061,,,,22.190573052
1715932966514116188,0.063,,,,22.19826742
1715932966521810556,0.059,,,,22.205961788
1715932966529504924,0.056,,,,22.213656156
1715932966537199292,0.056,,,,22.221350524
1715932966544893660,0.054,,,,22.229044892
1715932966552588028,0.056,,,,22.23673926
1715932966560282396,0.068,,,,22.244433628
1715932966567976764,0.092,,,,22.252127996
1715932966575671132,0.104,,,,22.259822364
1715932966583365500,0.089,,,,22.267516732
1715932966591059868,0.073,,,,22.2752111
