time,ecg,hr,rr,marker,norm_time
1715932764726423314,0.066,,,,0.0
1715932764734117682,0.071,,,,0.007694368
1715932764741812050,0.071,,,,0.015388736
1715932764749506418,0.071,,,,0.023083104
1715932764757200786,0.073,,,,0.030777472
1715932764764895154,0.078,,,,0.03847184
1715932764772589522,0.071,,,,0.046166208
1715932764780283890,0.059,,,,0.053860576
1715932764787978258,0.061,,,,0.061554944
1715932764795672626,0.066,,,,0.069249312
1715932764803366994,0.066,,,,0.07694368
1715932764811061362,0.066,,,,0.084638048
1715932764818755730,0.063,,,,0.092332416
1715932764826450098,0.061,,,,0.100026784
1715932764834144466,0.061,,,,0.107721152
1715932764841838834,0.056,,,,0.11541552
1715932764849533202,0.054,,,,0.123109888
1715932764857227570,0.078,,,,0.130804256
1715932764864921938,0.106,,,,0.138498624
1715932764872616306,0.094,,,,0.146192992
1715932764880310674,0.073,,,,0.15388736
1715932764888005042,0.075,,,,0.161581728
1715932764895699410,0.08,,,,0.169276096
1715932764903393778,0.075,,,,0.176970464
1715932764911088146,0.078,,,,0.184664832
1715932764918782514,0.08,,,,0.1923592
1715932764926476882,0.08,,,,0.200053568
1715932764934171250,0.087,,,,0.207747936
1715932764941865618,0.089,,,,0.215442304
1715932764949559986,0.085,,,,0.223136672
1715932764957254354,0.068,,,,0.23083104
1715932764964948722,0.125,,,,0.238525408
1715932764972643090,0.44,,,,0.246219776
1715932764980337458,0.925,,,,0.253914144
1715932764988031826,1.004,,,,0.261608512
1715932764995726194,0.4,,,,0.26930288
1715932765003420562,-0.118,,,,0.276997248
1715932765011114930,-0.033,,,,0.284691616
1715932765018809298,0.087,,,,0.292385984
1715932765026503666,-0.016,,,,0.300080352
1715932765034198034,-0.021,,,,0.30777472
1715932765041892402,0.037,,,,0.315469088
1715932765049586770,0.014,,,,0.323163456
1715932765057281138,0.007,,,,0.330857824
1715932765064975506,0.037,,,,0.338552192
1715932765072669874,0.04,,,,0.34624656
1715932765080364242,0.033,,,,0.353940928
1715932765088058610,0.042,,,,0.361635296
1715932765095752978,0.044,,,,0.369329664
1715932765103447346,0.047,,,,0.377024032
1715932765111141714,0.056,,,,0.3847184
1715932765118836082,0.059,,,,0.392412768
1715932765126530450,0.063,,,,0.400107136
1715932765134224818,0.073,,,,0.407801504
1715932765141919186,0.082,,,,0.415495872
1715932765149613554,0.092,,,,0.42319024
1715932765157307922,0.099,,,,0.430884608
1715932765165002290,0.104,,,,0.438578976
1715932765172696658,0.118,,,,0.446273344
1715932765180391026,0.134,,,,0.453967712
1715932765188085394,0.137,,,,0.46166208
1715932765195779762,0.13,,,,0.469356448
1715932765203474130,0.13,,,,0.477050816
1715932765211168498,0.132,,,,0.484745184
1715932765218862866,0.125,,,,0.492439552
1715932765226557234,0.113,,,,0.50013392
1715932765234251602,0.099,,,,0.507828288
1715932765241945970,0.085,,,,0.515522656
1715932765249640338,0.071,,,,0.523217024
1715932765257334706,0.056,,,,0.530911392
1715932765265029074,0.047,,,,0.53860576
1715932765272723442,0.042,,,,0.546300128
1715932765280417810,0.04,,,,0.553994496
1715932765288112190,0.035,83.0,689.0,,0.561688876
1715932765295806697,0.035,,663.0,,0.569383383
1715932765303501204,0.042,,,,0.57707789
1715932765311195711,0.044,,,,0.584772397
1715932765318890218,0.044,,,,0.592466904
1715932765326584725,0.047,,,,0.600161411
1715932765334279232,0.047,,,,0.607855918
1715932765341973739,0.042,,,,0.615550425
1715932765349668246,0.042,,,,0.623244932
1715932765357362753,0.047,,,,0.630939439
1715932765365057260,0.054,,,,0.638633946
1715932765372751767,0.052,,,,0.646328453
1715932765380446274,0.044,,,,0.65402296
1715932765388140781,0.052,,,,0.661717467
1715932765395835288,0.061,,,,0.669411974
1715932765403529795,0.061,,,,0.677106481
1715932765411224302,0.061,,,,0.684800988
1715932765418918809,0.063,,,,0.692495495
1715932765426613316,0.068,,,,0.700190002
1715932765434307823,0.068,,,,0.707884509
1715932765442002330,0.068,,,,0.715579016
1715932765449696837,0.068,,,,0.723273523
1715932765457391344,0.061,,,,0.73096803
1715932765465085851,0.054,,,,0.738662537
1715932765472780358,0.059,,,,0.746357044
1715932765480474865,0.063,,,,0.754051551
1715932765488169372,0.061,,,,0.761746058
1715932765495863879,0.056,,,,0.769440565
1715932765503558386,0.056,,,,0.777135072
1715932765511252893,0.059,,,,0.784829579
1715932765518947400,0.063,,,,0.792524086
1715932765526641907,0.085,,,,0.800218593
1715932765534336414,0.106,,,,0.8079131
1715932765542030921,0.104,,,,0.815607607
1715932765549725428,0.085,,,,0.823302114
1715932765557419935,0.075,,,,0.830996621
1715932765565114442,0.08,,,,0.838691128
1715932765572808949,0.085,,,,0.846385635
1715932765580503456,0.082,,,,0.854080142
1715932765588197963,0.08,,,,0.861774649
1715932765595892470,0.082,,,,0.869469156
1715932765603586977,0.087,,,,0.877163663
1715932765611281484,0.087,,,,0.88485817
1715932765618975991,0.089,,,,0.892552677
1715932765626670498,0.087,,,,0.900247184
1715932765634365005,0.142,,,,0.907941691
1715932765642059512,0.452,,,,0.915636198
1715932765649754019,0.942,,,,0.923330705
1715932765657448526,1.023,,,,0.931025212
1715932765665143033,0.419,,,,0.938719719
1715932765672837540,-0.108,,,,0.946414226
1715932765680532047,-0.023,,,,0.954108733
1715932765688226554,0.101,,,,0.96180324
1715932765695921061,-0.002,,,,0.969497747
1715932765703615568,-0.014,,,,0.977192254
1715932765711310075,0.044,,,,0.984886761
1715932765719004582,0.03,,,,0.992581268
1715932765726699089,0.021,,,,1.000275775
1715932765734393596,0.044,,,,1.007970282
1715932765742088103,0.047,,,,1.015664789
1715932765749782610,0.042,,,,1.023359296
1715932765757477117,0.054,,,,1.031053803
1715932765765171624,0.063,,,,1.03874831
1715932765772866131,0.059,,,,1.046442817
1715932765780560638,0.066,,,,1.054137324
1715932765788255145,0.078,,,,1.061831831
1715932765795949652,0.08,,,,1.069526338
1715932765803644159,0.085,,,,1.077220845
1715932765811338666,0.099,,,,1.084915352
1715932765819033173,0.106,,,,1.092609859
1715932765826727680,0.111,,,,1.100304366
1715932765834422187,0.118,,,,1.107998873
1715932765842116694,0.127,,,,1.11569338
1715932765849811240,0.137,83.0,656.0,,1.123387926
1715932765857505886,0.137,,,,1.131082572
1715932765865200532,0.139,,,,1.138777218
1715932765872895178,0.139,,,,1.146471864
1715932765880589824,0.13,,,,1.15416651
1715932765888284470,0.12,,,,1.161861156
1715932765895979116,0.111,,,,1.169555802
1715932765903673762,0.101,,,,1.177250448
1715932765911368408,0.087,,,,1.184945094
1715932765919063054,0.066,,,,1.19263974
1715932765926757700,0.049,,,,1.200334386
1715932765934452346,0.042,,,,1.208029032
1715932765942146992,0.037,,,,1.215723678
1715932765949841638,0.03,,,,1.223418324
1715932765957536284,0.023,,,,1.23111297
1715932765965230930,0.018,,,,1.238807616
1715932765972925576,0.021,,,,1.246502262
1715932765980620222,0.023,,,,1.254196908
1715932765988314868,0.026,,,,1.261891554
1715932765996009514,0.033,,,,1.2695862
1715932766003704160,0.037,,,,1.277280846
1715932766011398806,0.04,,,,1.284975492
1715932766019093452,0.047,,,,1.292670138
1715932766026788098,0.052,,,,1.300364784
1715932766034482744,0.054,,,,1.30805943
1715932766042177390,0.056,,,,1.315754076
1715932766049872036,0.061,,,,1.323448722
1715932766057566682,0.068,,,,1.331143368
1715932766065261328,0.073,,,,1.338838014
1715932766072955974,0.068,,,,1.34653266
1715932766080650620,0.063,,,,1.354227306
1715932766088345266,0.068,,,,1.361921952
1715932766096039912,0.073,,,,1.369616598
1715932766103734558,0.073,,,,1.377311244
1715932766111429204,0.075,,,,1.38500589
1715932766119123850,0.075,,,,1.392700536
1715932766126818496,0.073,,,,1.400395182
1715932766134513142,0.075,,,,1.408089828
1715932766142207788,0.078,,,,1.415784474
1715932766149902434,0.08,,,,1.42347912
1715932766157597080,0.08,,,,1.431173766
1715932766165291726,0.078,,,,1.438868412
1715932766172986372,0.082,,,,1.446563058
1715932766180681018,0.087,,,,1.454257704
1715932766188375664,0.085,,,,1.46195235
1715932766196070310,0.08,,,,1.469646996
1715932766203764956,0.082,,,,1.477341642
1715932766211459602,0.089,,,,1.485036288
1715932766219154248,0.089,,,,1.492730934
1715932766226848894,0.082,,,,1.50042558
1715932766234543540,0.08,,,,1.508120226
1715932766242238186,0.087,,,,1.515814872
1715932766249932832,0.099,,,,1.523509518
1715932766257627478,0.113,,,,1.531204164
1715932766265322124,0.12,,,,1.53889881
1715932766273016770,0.113,,,,1.546593456
1715932766280711416,0.101,,,,1.554288102
1715932766288406062,0.101,,,,1.561982748
1715932766296100708,0.113,,,,1.569677394
1715932766303795354,0.106,,,,1.57737204
1715932766311490000,0.087,,,,1.585066686
1715932766319184646,0.092,,,,1.592761332
1715932766326879292,0.106,,,,1.600455978
1715932766334573938,0.099,,,,1.608150624
1715932766342268584,0.101,,,,1.61584527
1715932766349963230,0.111,,,,1.623539916
1715932766357657876,0.113,,,,1.631234562
1715932766365352522,0.208,,,,1.638929208
1715932766373047168,0.5730000000000001,,,,1.646623854
1715932766380741814,1.006,,,,1.6543185
1715932766388436460,0.914,,,,1.662013146
1715932766396131106,0.262,,,,1.669707792
1715932766403825752,-0.104,,,,1.677402438
1715932766411520460,0.049,,,,1.685097146
1715932766419214828,0.101,,,,1.692791514
1715932766426909196,-0.009,,,,1.700485882
1715932766434603564,0.009,,,,1.70818025
1715932766442297932,0.054,,,,1.715874618
1715932766449992300,0.033,,,,1.723568986
1715932766457686668,0.026,,,,1.731263354
1715932766465381036,0.033,,,,1.738957722
1715932766473075404,0.028,,,,1.74665209
1715932766480769772,0.037,,,,1.754346458
1715932766488464140,0.049,,,,1.762040826
1715932766496158508,0.049,,,,1.769735194
1715932766503852876,0.054,,,,1.777429562
1715932766511547244,0.066,,,,1.78512393
1715932766519241612,0.068,,,,1.792818298
1715932766526935980,0.071,,,,1.800512666
1715932766534630348,0.08,,,,1.808207034
1715932766542324716,0.087,,,,1.815901402
1715932766550019084,0.087,,,,1.82359577
1715932766557713452,0.094,,,,1.831290138
1715932766565407820,0.101,,,,1.838984506
1715932766573102188,0.101,,,,1.846678874
1715932766580796556,0.106,,,,1.854373242
1715932766588490924,0.116,,,,1.86206761
1715932766596185292,0.113,,,,1.869761978
1715932766603879660,0.106,,,,1.877456346
1715932766611574028,0.104,,,,1.885150714
1715932766619268396,0.104,,,,1.892845082
1715932766626962764,0.101,,,,1.90053945
1715932766634657132,0.089,,,,1.908233818
1715932766642351500,0.075,,,,1.915928186
1715932766650045868,0.066,,,,1.923622554
1715932766657740236,0.054,,,,1.931316922
1715932766665434604,0.044,,,,1.93901129
1715932766673128972,0.037,,,,1.946705658
1715932766680823340,0.037,,,,1.954400026
1715932766688517708,0.04,,,,1.962094394
1715932766696212076,0.037,,,,1.969788762
1715932766703906444,0.042,,,,1.97748313
1715932766711600812,0.047,,,,1.985177498
1715932766719295180,0.049,,,,1.992871866
1715932766726989548,0.049,,,,2.000566234
1715932766734683916,0.054,,,,2.008260602
1715932766742378284,0.066,,,,2.01595497
1715932766750072652,0.075,,,,2.023649338
1715932766757767020,0.066,,,,2.031343706
1715932766765461388,0.059,,,,2.039038074
1715932766773155756,0.063,,,,2.046732442
1715932766780850124,0.056,,,,2.05442681
1715932766788544492,0.049,,,,2.062121178
1715932766796238860,0.075,,,,2.069815546
1715932766803933228,0.113,,,,2.077509914
1715932766811627596,0.106,,,,2.085204282
1715932766819321964,0.082,,,,2.09289865
1715932766827016332,0.078,,,,2.100593018
1715932766834710700,0.08,,,,2.108287386
1715932766842405068,0.078,,,,2.115981754
1715932766850099436,0.078,,,,2.123676122
1715932766857793804,0.078,,,,2.13137049
1715932766865488172,0.085,,,,2.139064858
1715932766873182540,0.089,,,,2.146759226
1715932766880876908,0.085,,,,2.154453594
1715932766888571276,0.087,,,,2.162147962
1715932766896265644,0.092,,,,2.16984233
1715932766903960012,0.087,,,,2.177536698
1715932766911654380,0.085,,,,2.185231066
1715932766919348748,0.087,,,,2.192925434
1715932766927043116,0.094,,,,2.200619802
1715932766934737484,0.094,,,,2.20831417
1715932766942431852,0.092,,,,2.216008538
1715932766950126220,0.092,,,,2.223702906
1715932766957820588,0.089,,,,2.231397274
1715932766965514956,0.085,,,,2.239091642
1715932766973209336,0.08,85.0,663.0,,2.246786022
1715932766980903704,0.08,,670.0,,2.25448039
1715932766988598072,0.094,,,,2.262174758
1715932766996292440,0.108,,,,2.269869126
1715932767003986808,0.104,,,,2.277563494
1715932767011681176,0.097,,,,2.285257862
1715932767019375544,0.087,,,,2.29295223
1715932767027069912,0.075,,,,2.300646598
1715932767034764280,0.075,,,,2.308340966
1715932767042458648,0.085,,,,2.316035334
1715932767050153016,0.087,,,,2.323729702
1715932767057847384,0.085,,,,2.33142407
1715932767065541752,0.089,,,,2.339118438
1715932767073236120,0.094,,,,2.346812806
1715932767080930488,0.094,,,,2.354507174
1715932767088624856,0.087,,,,2.362201542
1715932767096319224,0.099,,,,2.36989591
1715932767104013592,0.272,,,,2.377590278
1715932767111707960,0.682,,,,2.385284646
1715932767119402328,0.973,,,,2.392979014
1715932767127096696,0.655,,,,2.400673382
1715932767134791064,0.052,,,,2.40836775
1715932767142485432,-0.082,,,,2.416062118
1715932767150179800,0.082,,,,2.423756486
1715932767157874168,0.052,,,,2.431450854
1715932767165568536,-0.009,,,,2.439145222
1715932767173262904,0.037,,,,2.44683959
1715932767180957272,0.047,,,,2.454533958
1715932767188651640,0.033,,,,2.462228326
1715932767196346008,0.054,,,,2.469922694
1715932767204040376,0.066,,,,2.477617062
1715932767211734744,0.059,,,,2.48531143
1715932767219429112,0.063,,,,2.493005798
1715932767227123480,0.071,,,,2.500700166
1715932767234817848,0.071,,,,2.508394534
1715932767242512216,0.078,,,,2.516088902
1715932767250206584,0.085,,,,2.52378327
1715932767257900952,0.085,,,,2.531477638
1715932767265595320,0.092,,,,2.539172006
1715932767273289688,0.106,,,,2.546866374
1715932767280984056,0.116,,,,2.554560742
1715932767288678424,0.123,,,,2.56225511
1715932767296372792,0.132,,,,2.569949478
1715932767304067160,0.144,,,,2.577643846
1715932767311761528,0.168,,,,2.585338214
1715932767319455896,0.182,,,,2.593032582
1715932767327150264,0.149,,,,2.60072695
1715932767334844632,0.113,,,,2.608421318
1715932767342539000,0.127,,,,2.616115686
1715932767350233368,0.144,,,,2.623810054
1715932767357927736,0.13,,,,2.631504422
1715932767365622104,0.125,,,,2.63919879
1715932767373316472,0.127,,,,2.646893158
1715932767381010840,0.118,,,,2.654587526
1715932767388705208,0.101,,,,2.662281894
1715932767396399576,0.097,,,,2.669976262
1715932767404093944,0.094,,,,2.67767063
1715932767411788312,0.089,,,,2.685364998
1715932767419482680,0.082,,,,2.693059366
1715932767427177048,0.082,,,,2.700753734
1715932767434871416,0.092,,,,2.708448102
1715932767442565784,0.092,,,,2.71614247
1715932767450260152,0.089,,,,2.723836838
1715932767457954520,0.097,,,,2.731531206
1715932767465648888,0.106,,,,2.739225574
1715932767473343256,0.111,,,,2.746919942
1715932767481037624,0.108,,,,2.75461431
1715932767488731992,0.106,,,,2.762308678
1715932767496426360,0.111,,,,2.770003046
1715932767504120728,0.113,,,,2.777697414
1715932767511815096,0.113,,,,2.785391782
1715932767519509464,0.116,,,,2.79308615
1715932767527203832,0.12,,,,2.800780518
1715932767534898214,0.118,,,,2.8084749
1715932767542592860,0.116,,,,2.816169546
1715932767550287506,0.113,,,,2.823864192
1715932767557982152,0.111,,,,2.831558838
1715932767565676798,0.111,,,,2.839253484
1715932767573371444,0.111,,,,2.84694813
1715932767581066090,0.113,,,,2.854642776
1715932767588760736,0.111,,,,2.862337422
1715932767596455382,0.104,,,,2.870032068
1715932767604150028,0.099,,,,2.877726714
1715932767611844674,0.104,,,,2.88542136
1715932767619539320,0.108,,,,2.893116006
1715932767627233966,0.118,,,,2.900810652
1715932767634928612,0.127,,,,2.908505298
1715932767642623258,0.118,,,,2.916199944
1715932767650317904,0.111,,,,2.92389459
1715932767658012550,0.116,,,,2.931589236
1715932767665707196,0.125,,,,2.939283882
1715932767673401842,0.12,,,,2.946978528
1715932767681096488,0.111,,,,2.954673174
1715932767688791134,0.111,,,,2.96236782
1715932767696485780,0.113,,,,2.970062466
1715932767704180426,0.116,,,,2.977757112
1715932767711875072,0.127,,,,2.985451758
1715932767719569718,0.146,,,,2.993146404
1715932767727264364,0.153,,,,3.00084105
1715932767734959010,0.142,,,,3.008535696
1715932767742653656,0.118,,,,3.016230342
1715932767750348302,0.101,,,,3.023924988
1715932767758042948,0.101,,,,3.031619634
1715932767765737594,0.108,,,,3.03931428
1715932767773432240,0.108,,,,3.047008926
1715932767781126886,0.104,,,,3.054703572
1715932767788821532,0.104,,,,3.062398218
1715932767796516178,0.104,,,,3.070092864
1715932767804210824,0.099,,,,3.07778751
1715932767811905470,0.094,,,,3.085482156
1715932767819600116,0.099,,,,3.093176802
1715932767827294762,0.229,,,,3.100871448
1715932767834989408,0.596,,,,3.108566094
1715932767842684054,0.93,,,,3.11626074
1715932767850378700,0.7000000000000001,,,,3.123955386
1715932767858073346,0.087,,,,3.131650032
1715932767865767992,-0.123,,,,3.139344678
1715932767873462638,0.03,,,,3.147039324
1715932767881157284,0.011,,,,3.15473397
1715932767888851930,-0.085,,,,3.162428616
1715932767896546576,-0.049,,,,3.170123262
1715932767904241222,-0.028,,,,3.177817908
1715932767911935868,-0.063,,,,3.185512554
1715932767919630514,-0.068,,,,3.1932072
1715932767927325160,-0.052,,,,3.200901846
1715932767935019806,-0.059,,,,3.208596492
1715932767942714452,-0.059,,,,3.216291138
1715932767950409098,-0.044,,,,3.223985784
1715932767958103744,-0.04,,,,3.23168043
1715932767965798390,-0.037,,,,3.239375076
1715932767973493036,-0.03,,,,3.247069722
1715932767981187682,-0.03,,,,3.254764368
1715932767988882328,-0.028,,,,3.262459014
1715932767996576974,-0.014,,,,3.27015366
1715932768004271620,0.0,,,,3.277848306
1715932768011966266,0.004,,,,3.285542952
1715932768019660912,0.014,,,,3.293237598
1715932768027355558,0.028,,,,3.300932244
1715932768035050204,0.037,,,,3.30862689
1715932768042744850,0.042,,,,3.316321536
1715932768050439496,0.042,,,,3.324016182
1715932768058134142,0.042,,,,3.331710828
1715932768065828788,0.049,,,,3.339405474
1715932768073523434,0.054,,,,3.34710012
1715932768081218080,0.049,,,,3.354794766
1715932768088912726,0.044,,,,3.362489412
1715932768096607436,0.03,86.0,729.0,,3.370184122
1715932768104301943,0.016,,,,3.377878629
1715932768111996450,0.007,,,,3.385573136
1715932768119690957,0.0,,,,3.393267643
1715932768127385464,-0.007,,,,3.40096215
1715932768135079971,-0.009,,,,3.408656657
1715932768142774478,-0.011,,,,3.416351164
1715932768150468985,-0.016,,,,3.424045671
1715932768158163492,-0.016,,,,3.431740178
1715932768165857999,-0.011,,,,3.439434685
1715932768173552506,-0.004,,,,3.447129192
1715932768181247013,-0.002,,,,3.454823699
1715932768188941520,0.004,,,,3.462518206
1715932768196636027,0.002,,,,3.470212713
1715932768204330534,0.0,,,,3.47790722
1715932768212025041,0.007,,,,3.485601727
1715932768219719548,0.016,,,,3.493296234
1715932768227414055,0.023,,,,3.500990741
1715932768235108562,0.021,,,,3.508685248
1715932768242803069,0.018,,,,3.516379755
1715932768250497576,0.023,,,,3.524074262
1715932768258192083,0.028,,,,3.531768769
1715932768265886590,0.03,,,,3.539463276
1715932768273581097,0.03,,,,3.547157783
1715932768281275604,0.03,,,,3.55485229
1715932768288970111,0.026,,,,3.562546797
1715932768296664618,0.011,,,,3.570241304
1715932768304359125,0.014,,,,3.577935811
1715932768312053632,0.028,,,,3.585630318
1715932768319748139,0.028,,,,3.593324825
1715932768327442646,0.028,,,,3.601019332
1715932768335137153,0.03,,,,3.608713839
1715932768342831660,0.033,,,,3.616408346
1715932768350526167,0.033,,,,3.624102853
1715932768358220674,0.033,,,,3.63179736
1715932768365915181,0.033,,,,3.639491867
1715932768373609688,0.028,,,,3.647186374
1715932768381304195,0.03,,,,3.654880881
1715932768388998702,0.033,,,,3.662575388
1715932768396693209,0.023,,,,3.670269895
1715932768404387716,0.026,,,,3.677964402
1715932768412082223,0.061,,,,3.685658909
1715932768419776730,0.08,,,,3.693353416
1715932768427471237,0.059,,,,3.701047923
1715932768435165744,0.04,,,,3.70874243
1715932768442860251,0.035,,,,3.716436937
1715932768450554758,0.037,,,,3.724131444
1715932768458249265,0.04,,,,3.731825951
1715932768465943772,0.044,,,,3.739520458
1715932768473638279,0.052,,,,3.747214965
1715932768481332786,0.049,,,,3.754909472
1715932768489027293,0.035,,,,3.762603979
1715932768496721800,0.03,,,,3.770298486
1715932768504416307,0.042,,,,3.777992993
1715932768512110814,0.085,,,,3.7856875
1715932768519805321,0.26,,,,3.793382007
1715932768527499828,0.615,,,,3.801076514
1715932768535194335,0.8280000000000001,,,,3.808771021
1715932768542888842,0.48,,,,3.816465528
1715932768550583349,-0.063,,,,3.824160035
1715932768558277856,-0.13,,,,3.831854542
1715932768565972363,0.03,,,,3.839549049
1715932768573666870,-0.016,,,,3.847243556
1715932768581361377,-0.068,,,,3.854938063
1715932768589055884,-0.016,,,,3.86263257
1715932768596750391,-0.007,,,,3.870327077
1715932768604444898,-0.023,,,,3.878021584
1715932768612139405,-0.009,,,,3.885716091
1715932768619833912,-0.004,,,,3.893410598
1715932768627528419,0.004,,,,3.901105105
1715932768635222926,0.018,,,,3.908799612
1715932768642917433,0.023,,,,3.916494119
1715932768650611940,0.023,,,,3.924188626
1715932768658306484,0.033,,,,3.93188317
1715932768666000852,0.042,,,,3.939577538
1715932768673695220,0.049,,,,3.947271906
1715932768681389588,0.068,,,,3.954966274
1715932768689083956,0.075,,,,3.962660642
1715932768696778324,0.056,,,,3.97035501
1715932768704472692,0.063,,,,3.978049378
1715932768712167060,0.092,,,,3.985743746
1715932768719861428,0.101,,,,3.993438114
1715932768727555796,0.104,,,,4.001132482
1715932768735250164,0.111,,,,4.00882685
1715932768742944532,0.118,,,,4.016521218
1715932768750638900,0.12,,,,4.024215586
1715932768758333268,0.113,,,,4.031909954
1715932768766027636,0.104,,,,4.039604322
1715932768773722004,0.097,,,,4.04729869
1715932768781416372,0.089,,,,4.054993058
1715932768789110740,0.068,,,,4.062687426
1715932768796805108,0.042,,,,4.070381794
1715932768804499476,0.04,,,,4.078076162
1715932768812193844,0.037,,,,4.08577053
1715932768819888212,0.021,,,,4.093464898
1715932768827582580,0.021,,,,4.101159266
1715932768835276948,0.026,,,,4.108853634
1715932768842971316,0.011,,,,4.116548002
1715932768850665684,0.002,,,,4.12424237
1715932768858360052,0.016,,,,4.131936738
1715932768866054420,0.033,,,,4.139631106
1715932768873748788,0.04,,,,4.147325474
1715932768881443156,0.047,,,,4.155019842
1715932768889137524,0.042,,,,4.16271421
1715932768896831892,0.044,,,,4.170408578
1715932768904526260,0.061,,,,4.178102946
1715932768912220628,0.066,,,,4.185797314
1715932768919914996,0.056,,,,4.193491682
1715932768927609364,0.061,,,,4.20118605
1715932768935303732,0.068,,,,4.208880418
1715932768942998100,0.061,,,,4.216574786
1715932768950692468,0.063,,,,4.224269154
1715932768958386836,0.073,,,,4.231963522
1715932768966081204,0.068,,,,4.23965789
1715932768973775572,0.056,,,,4.247352258
1715932768981469940,0.061,,,,4.255046626
1715932768989164308,0.075,,,,4.262740994
1715932768996858676,0.063,,,,4.270435362
1715932769004553044,0.052,,,,4.27812973
1715932769012247412,0.056,,,,4.285824098
1715932769019941780,0.054,,,,4.293518466
1715932769027636148,0.054,,,,4.301212834
1715932769035330516,0.054,,,,4.308907202
1715932769043024884,0.052,,,,4.31660157
1715932769050719252,0.052,,,,4.324295938
1715932769058413620,0.044,,,,4.331990306
1715932769066107988,0.035,,,,4.339684674
1715932769073802356,0.04,,,,4.347379042
1715932769081496724,0.068,,,,4.35507341
1715932769089191092,0.094,,,,4.362767778
1715932769096885460,0.082,,,,4.370462146
1715932769104579828,0.059,,,,4.378156514
1715932769112274196,0.056,,,,4.385850882
1715932769119968564,0.063,,,,4.39354525
1715932769127662932,0.063,,,,4.401239618
1715932769135357300,0.061,,,,4.408933986
1715932769143051668,0.063,,,,4.416628354
1715932769150746036,0.071,,,,4.424322722
1715932769158440404,0.075,,,,4.43201709
1715932769166134772,0.08,,,,4.439711458
1715932769173829140,0.08,,,,4.447405826
1715932769181523508,0.089,,,,4.455100194
1715932769189217876,0.21,,,,4.462794562
1715932769196912244,0.556,,,,4.47048893
1715932769204606612,0.907,,,,4.478183298
1715932769212300980,0.738,,,,4.485877666
1715932769219995360,0.132,86.0,736.0,,4.493572046
1715932769227689728,-0.125,,,,4.501266414
1715932769235384096,0.033,,,,4.508960782
1715932769243078464,0.047,,,,4.51665515
1715932769250772832,-0.044,,,,4.524349518
1715932769258467200,-0.007,,,,4.532043886
1715932769266161568,0.023,,,,4.539738254
1715932769273855936,-0.004,,,,4.547432622
1715932769281550304,-0.007,,,,4.55512699
1715932769289244672,0.014,,,,4.562821358
1715932769296939040,0.023,,,,4.570515726
1715932769304633408,0.028,,,,4.578210094
1715932769312327776,0.028,,,,4.585904462
1715932769320022144,0.028,,,,4.59359883
1715932769327716512,0.037,,,,4.601293198
1715932769335410880,0.047,,,,4.608987566
1715932769343105248,0.052,,,,4.616681934
1715932769350799616,0.054,,,,4.624376302
1715932769358493984,0.059,,,,4.63207067
1715932769366188352,0.075,,,,4.639765038
1715932769373882720,0.092,,,,4.647459406
1715932769381577088,0.094,,,,4.655153774
1715932769389271456,0.101,,,,4.662848142
1715932769396965824,0.113,,,,4.67054251
1715932769404660192,0.12,,,,4.678236878
1715932769412354560,0.132,,,,4.685931246
1715932769420048928,0.137,,,,4.693625614
1715932769427743296,0.127,,,,4.701319982
1715932769435437664,0.118,,,,4.70901435
1715932769443132032,0.12,,,,4.716708718
1715932769450826400,0.116,,,,4.724403086
1715932769458520768,0.094,,,,4.732097454
1715932769466215136,0.08,,,,4.739791822
1715932769473909504,0.08,,,,4.74748619
1715932769481603872,0.071,,,,4.755180558
1715932769489298240,0.054,,,,4.762874926
1715932769496992608,0.047,,,,4.770569294
1715932769504686976,0.04,,,,4.778263662
1715932769512381344,0.04,,,,4.78595803
1715932769520075712,0.047,,,,4.793652398
1715932769527770080,0.047,,,,4.801346766
1715932769535464448,0.047,,,,4.809041134
1715932769543158816,0.056,,,,4.816735502
1715932769550853184,0.066,,,,4.82442987
1715932769558547552,0.071,,,,4.832124238
1715932769566241920,0.073,,,,4.839818606
1715932769573936288,0.075,,,,4.847512974
1715932769581630656,0.078,,,,4.855207342
1715932769589325024,0.087,,,,4.86290171
1715932769597019392,0.089,,,,4.870596078
1715932769604713760,0.087,,,,4.878290446
1715932769612408128,0.089,,,,4.885984814
1715932769620102496,0.092,,,,4.893679182
1715932769627796864,0.089,,,,4.90137355
1715932769635491232,0.092,,,,4.909067918
1715932769643185600,0.097,,,,4.916762286
1715932769650879968,0.099,,,,4.924456654
1715932769658574336,0.097,,,,4.932151022
1715932769666268704,0.097,,,,4.93984539
1715932769673963072,0.099,,,,4.947539758
1715932769681657440,0.099,,,,4.955234126
1715932769689351808,0.097,,,,4.962928494
1715932769697046176,0.097,,,,4.970622862
1715932769704740544,0.101,,,,4.97831723
1715932769712434912,0.097,,,,4.986011598
1715932769720129280,0.085,,,,4.993705966
1715932769727823648,0.085,,,,5.001400334
1715932769735518016,0.101,,,,5.009094702
1715932769743212384,0.12,,,,5.01678907
1715932769750906752,0.137,,,,5.024483438
1715932769758601120,0.134,,,,5.032177806
1715932769766295488,0.113,,,,5.039872174
1715932769773989856,0.099,,,,5.047566542
1715932769781684236,0.099,,,,5.055260922
1715932769789378604,0.101,,,,5.06295529
1715932769797072972,0.099,,,,5.070649658
1715932769804767340,0.099,,,,5.078344026
1715932769812461708,0.092,,,,5.086038394
1715932769820156076,0.085,,,,5.093732762
1715932769827850444,0.097,,,,5.10142713
1715932769835544812,0.104,,,,5.109121498
1715932769843239180,0.108,,,,5.116815866
1715932769850933548,0.26,,,,5.124510234
1715932769858627916,0.674,,,,5.132204602
1715932769866322284,1.023,,,,5.13989897
1715932769874016652,0.738,,,,5.147593338
1715932769881711020,0.082,,,,5.155287706
1715932769889405388,-0.099,,,,5.162982074
1715932769897099756,0.089,,,,5.170676442
1715932769904794124,0.066,,,,5.17837081
1715932769912488492,-0.026,,,,5.186065178
1715932769920182860,0.023,,,,5.193759546
1715932769927877228,0.052,,,,5.201453914
1715932769935571596,0.023,,,,5.209148282
1715932769943265964,0.03,,,,5.21684265
1715932769950960332,0.047,,,,5.224537018
1715932769958654700,0.049,,,,5.232231386
1715932769966349068,0.061,,,,5.239925754
1715932769974043436,0.066,,,,5.247620122
1715932769981737804,0.063,,,,5.25531449
1715932769989432172,0.066,,,,5.263008858
1715932769997126540,0.071,,,,5.270703226
1715932770004820908,0.071,,,,5.278397594
1715932770012515276,0.071,,,,5.286091962
1715932770020209644,0.075,,,,5.29378633
1715932770027904012,0.08,,,,5.301480698
1715932770035598380,0.085,,,,5.309175066
1715932770043292748,0.101,,,,5.316869434
1715932770050987116,0.116,,,,5.324563802
1715932770058681484,0.127,,,,5.33225817
1715932770066375852,0.139,,,,5.339952538
1715932770074070220,0.146,,,,5.347646906
1715932770081764588,0.142,,,,5.355341274
1715932770089458956,0.137,,,,5.363035642
1715932770097153324,0.132,,,,5.37073001
1715932770104847692,0.127,,,,5.378424378
1715932770112542060,0.116,,,,5.386118746
1715932770120236428,0.104,,,,5.393813114
1715932770127930796,0.092,,,,5.401507482
1715932770135625164,0.078,,,,5.40920185
1715932770143319532,0.068,,,,5.416896218
1715932770151013900,0.066,,,,5.424590586
1715932770158708268,0.061,,,,5.432284954
1715932770166402636,0.061,,,,5.439979322
1715932770174097004,0.066,,,,5.44767369
1715932770181791372,0.063,,,,5.455368058
1715932770189485740,0.063,,,,5.463062426
1715932770197180108,0.071,,,,5.470756794
1715932770204874476,0.075,,,,5.478451162
1715932770212568844,0.078,,,,5.48614553
1715932770220263212,0.082,,,,5.493839898
1715932770227957580,0.089,,,,5.501534266
1715932770235651948,0.092,,,,5.509228634
1715932770243346316,0.092,,,,5.516923002
1715932770251040684,0.097,,,,5.52461737
1715932770258735052,0.101,,,,5.532311738
1715932770266429420,0.097,,,,5.540006106
1715932770274123788,0.094,,,,5.547700474
1715932770281818156,0.097,,,,5.555394842
1715932770289512524,0.104,,,,5.56308921
1715932770297206892,0.104,,,,5.570783578
1715932770304901260,0.099,,,,5.578477946
1715932770312595628,0.101,,,,5.586172314
1715932770320289996,0.101,,,,5.593866682
1715932770327984364,0.101,,,,5.60156105
1715932770335678732,0.104,,,,5.609255418
1715932770343373114,0.106,85.0,725.0,,5.6169498
1715932770351067900,0.106,,690.0,,5.624644586
1715932770358762686,0.104,,,,5.632339372
1715932770366457472,0.104,,,,5.640034158
1715932770374152258,0.101,,,,5.647728944
1715932770381847044,0.092,,,,5.65542373
1715932770389541830,0.085,,,,5.663118516
1715932770397236616,0.087,,,,5.670813302
1715932770404931402,0.097,,,,5.678508088
1715932770412626188,0.113,,,,5.686202874
1715932770420320974,0.13,,,,5.69389766
1715932770428015760,0.13,,,,5.701592446
1715932770435710546,0.111,,,,5.709287232
1715932770443405332,0.101,,,,5.716982018
1715932770451100118,0.101,,,,5.724676804
1715932770458794904,0.104,,,,5.73237159
1715932770466489690,0.108,,,,5.740066376
1715932770474184476,0.113,,,,5.747761162
1715932770481879262,0.113,,,,5.755455948
1715932770489574048,0.116,,,,5.763150734
1715932770497268834,0.12,,,,5.77084552
1715932770504963620,0.118,,,,5.778540306
1715932770512658406,0.111,,,,5.786235092
1715932770520353192,0.194,,,,5.793929878
1715932770528047978,0.558,,,,5.801624664
1715932770535742764,1.011,,,,5.80931945
1715932770543437550,0.923,,,,5.817014236
1715932770551132336,0.255,,,,5.824709022
1715932770558827122,-0.123,,,,5.832403808
1715932770566521908,0.03,,,,5.840098594
1715932770574216694,0.092,,,,5.84779338
1715932770581911480,-0.011,,,,5.855488166
1715932770589606266,0.009,,,,5.863182952
1715932770597301052,0.052,,,,5.870877738
1715932770604995838,0.033,,,,5.878572524
1715932770612690624,0.04,,,,5.88626731
1715932770620385410,0.061,,,,5.893962096
1715932770628080196,0.056,,,,5.901656882
1715932770635774982,0.056,,,,5.909351668
1715932770643469768,0.071,,,,5.917046454
1715932770651164554,0.078,,,,5.92474124
1715932770658859340,0.078,,,,5.932436026
1715932770666554126,0.08,,,,5.940130812
1715932770674248912,0.085,,,,5.947825598
1715932770681943698,0.08,,,,5.955520384
1715932770689638484,0.08,,,,5.96321517
1715932770697333270,0.094,,,,5.970909956
1715932770705028056,0.108,,,,5.978604742
1715932770712722842,0.113,,,,5.986299528
1715932770720417628,0.123,,,,5.993994314
1715932770728112414,0.134,,,,6.0016891
1715932770735807200,0.142,,,,6.009383886
1715932770743501986,0.144,,,,6.017078672
1715932770751196772,0.144,,,,6.024773458
1715932770758891558,0.134,,,,6.032468244
1715932770766586344,0.125,,,,6.04016303
1715932770774281130,0.12,,,,6.047857816
1715932770781975916,0.111,,,,6.055552602
1715932770789670702,0.099,,,,6.063247388
1715932770797365488,0.089,,,,6.070942174
1715932770805060274,0.075,,,,6.07863696
1715932770812755060,0.066,,,,6.086331746
1715932770820449846,0.056,,,,6.094026532
1715932770828144632,0.049,,,,6.101721318
1715932770835839418,0.047,,,,6.109416104
1715932770843534204,0.047,,,,6.11711089
1715932770851228990,0.049,,,,6.124805676
1715932770858923776,0.052,,,,6.132500462
1715932770866618562,0.052,,,,6.140195248
1715932770874313348,0.052,,,,6.147890034
1715932770882008134,0.059,,,,6.15558482
1715932770889702920,0.068,,,,6.163279606
1715932770897397706,0.068,,,,6.170974392
1715932770905092508,0.073,85.0,672.0,,6.178669194
1715932770912786876,0.082,,,,6.186363562
1715932770920481244,0.085,,,,6.19405793
1715932770928175612,0.082,,,,6.201752298
1715932770935869980,0.085,,,,6.209446666
1715932770943564348,0.089,,,,6.217141034
1715932770951258716,0.097,,,,6.224835402
1715932770958953084,0.094,,,,6.23252977
1715932770966647452,0.087,,,,6.240224138
1715932770974341820,0.089,,,,6.247918506
1715932770982036188,0.094,,,,6.255612874
1715932770989730556,0.087,,,,6.263307242
1715932770997424924,0.078,,,,6.27100161
1715932771005119292,0.078,,,,6.278695978
1715932771012813660,0.078,,,,6.286390346
1715932771020508028,0.073,,,,6.294084714
1715932771028202396,0.068,,,,6.301779082
1715932771035896764,0.073,,,,6.30947345
1715932771043591132,0.075,,,,6.317167818
1715932771051285500,0.073,,,,6.324862186
1715932771058979868,0.073,,,,6.332556554
1715932771066674236,0.08,,,,6.340250922
1715932771074368604,0.078,,,,6.34794529
1715932771082062972,0.073,,,,6.355639658
1715932771089757340,0.073,,,,6.363334026
1715932771097451708,0.078,,,,6.371028394
1715932771105146076,0.08,,,,6.378722762
1715932771112840444,0.094,,,,6.38641713
1715932771120534812,0.118,,,,6.394111498
1715932771128229180,0.125,,,,6.401805866
1715932771135923548,0.106,,,,6.409500234
1715932771143617916,0.092,,,,6.417194602
1715932771151312284,0.092,,,,6.42488897
1715932771159006652,0.094,,,,6.432583338
1715932771166701020,0.097,,,,6.440277706
1715932771174395388,0.099,,,,6.447972074
1715932771182089756,0.101,,,,6.455666442
1715932771189784124,0.108,,,,6.46336081
1715932771197478492,0.101,,,,6.471055178
1715932771205172860,0.097,,,,6.478749546
1715932771212867228,0.104,,,,6.486443914
1715932771220561596,0.125,,,,6.494138282
1715932771228255964,0.303,,,,6.50183265
1715932771235950332,0.741,,,,6.509527018
1715932771243644700,1.039,,,,6.517221386
1715932771251339068,0.667,,,,6.524915754
1715932771259033436,0.021,,,,6.532610122
1715932771266727804,-0.092,,,,6.54030449
1715932771274422172,0.092,,,,6.547998858
1715932771282116540,0.049,,,,6.555693226
1715932771289810908,-0.028,,,,6.563387594
1715932771297505276,0.018,,,,6.571081962
1715932771305199644,0.035,,,,6.57877633
1715932771312894012,0.014,,,,6.586470698
1715932771320588380,0.035,,,,6.594165066
1715932771328282748,0.056,,,,6.601859434
1715932771335977116,0.049,,,,6.609553802
1715932771343671484,0.052,,,,6.61724817
1715932771351365852,0.063,,,,6.624942538
1715932771359060220,0.073,,,,6.632636906
1715932771366754588,0.082,,,,6.640331274
1715932771374448956,0.089,,,,6.648025642
1715932771382143324,0.089,,,,6.65572001
1715932771389837692,0.089,,,,6.663414378
1715932771397532060,0.087,,,,6.671108746
1715932771405226428,0.087,,,,6.678803114
1715932771412920796,0.094,,,,6.686497482
1715932771420615164,0.106,,,,6.69419185
1715932771428309532,0.12,,,,6.701886218
1715932771436003900,0.127,,,,6.709580586
1715932771443698268,0.132,,,,6.717274954
1715932771451392636,0.139,,,,6.724969322
1715932771459087004,0.142,,,,6.73266369
1715932771466781384,0.132,,,,6.74035807
1715932771474475961,0.116,,,,6.748052647
1715932771482170538,0.106,,,,6.755747224
1715932771489865115,0.101,,,,6.763441801
1715932771497559692,0.087,,,,6.771136378
1715932771505254269,0.071,,,,6.778830955
1715932771512948846,0.063,,,,6.786525532
1715932771520643423,0.047,,,,6.794220109
1715932771528338000,0.033,,,,6.801914686
1715932771536032577,0.03,,,,6.809609263
1715932771543727154,0.03,,,,6.81730384
1715932771551421731,0.026,,,,6.824998417
1715932771559116308,0.018,,,,6.832692994
1715932771566810885,0.018,,,,6.840387571
1715932771574505462,0.026,,,,6.848082148
1715932771582200039,0.033,,,,6.855776725
1715932771589894616,0.033,,,,6.863471302
1715932771597589193,0.037,,,,6.871165879
1715932771605283770,0.047,,,,6.878860456
1715932771612978347,0.056,,,,6.886555033
1715932771620672924,0.061,,,,6.89424961
1715932771628367501,0.061,,,,6.901944187
1715932771636062078,0.063,,,,6.909638764
1715932771643756655,0.066,,,,6.917333341
1715932771651451232,0.068,,,,6.925027918
1715932771659145809,0.078,,,,6.932722495
1715932771666840386,0.082,,,,6.940417072
1715932771674534963,0.073,,,,6.948111649
1715932771682229540,0.071,,,,6.955806226
1715932771689924117,0.078,,,,6.963500803
1715932771697618694,0.078,,,,6.97119538
1715932771705313271,0.071,,,,6.978889957
1715932771713007848,0.071,,,,6.986584534
1715932771720702425,0.075,,,,6.994279111
1715932771728397002,0.078,,,,7.001973688
1715932771736091579,0.073,,,,7.009668265
1715932771743786156,0.066,,,,7.017362842
1715932771751480733,0.068,,,,7.025057419
1715932771759175310,0.073,,,,7.032751996
1715932771766869887,0.071,,,,7.040446573
1715932771774564464,0.068,,,,7.04814115
1715932771782259041,0.068,,,,7.055835727
1715932771789953618,0.068,,,,7.063530304
1715932771797648195,0.071,,,,7.071224881
1715932771805342772,0.073,,,,7.078919458
1715932771813037349,0.073,,,,7.086614035
1715932771820731926,0.068,,,,7.094308612
1715932771828426503,0.068,,,,7.102003189
1715932771836121080,0.075,,,,7.109697766
1715932771843815657,0.099,,,,7.117392343
1715932771851510234,0.12,,,,7.12508692
1715932771859204811,0.104,,,,7.132781497
1715932771866899388,0.08,,,,7.140476074
1715932771874593965,0.08,,,,7.148170651
1715932771882288542,0.087,,,,7.155865228
1715932771889983119,0.082,,,,7.163559805
1715932771897677696,0.08,,,,7.171254382
1715932771905372273,0.087,,,,7.178948959
1715932771913066850,0.089,,,,7.186643536
1715932771920761427,0.087,,,,7.194338113
1715932771928456004,0.094,,,,7.20203269
1715932771936150581,0.092,,,,7.209727267
1715932771943845158,0.089,,,,7.217421844
1715932771951539735,0.208,,,,7.225116421
1715932771959234312,0.561,,,,7.232810998
1715932771966928889,0.937,,,,7.240505575
1715932771974623466,0.809,,,,7.248200152
1715932771982318043,0.191,,,,7.255894729
1715932771990012620,-0.132,,,,7.263589306
1715932771997707197,0.016,,,,7.271283883
1715932772005401774,0.059,,,,7.27897846
1715932772013096351,-0.033,,,,7.286673037
1715932772020790928,-0.007,,,,7.294367614
1715932772028485520,0.018,86.0,661.0,,7.302062206
1715932772036180236,-0.016,,672.0,,7.309756922
1715932772043874952,-0.007,,,,7.317451638
1715932772051569668,0.023,,,,7.325146354
1715932772059264384,0.021,,,,7.33284107
1715932772066959100,0.018,,,,7.340535786
1715932772074653816,0.023,,,,7.348230502
1715932772082348532,0.023,,,,7.355925218
1715932772090043248,0.035,,,,7.363619934
1715932772097737964,0.037,,,,7.37131465
1715932772105432680,0.03,,,,7.379009366
1715932772113127396,0.037,,,,7.386704082
1715932772120822112,0.047,,,,7.394398798
1715932772128516828,0.049,,,,7.402093514
1715932772136211544,0.054,,,,7.40978823
1715932772143906260,0.063,,,,7.417482946
1715932772151600976,0.075,,,,7.425177662
1715932772159295692,0.082,,,,7.432872378
1715932772166990408,0.089,,,,7.440567094
1715932772174685124,0.089,,,,7.44826181
1715932772182379840,0.085,,,,7.455956526
1715932772190074556,0.097,,,,7.463651242
1715932772197769272,0.097,,,,7.471345958
1715932772205463988,0.075,,,,7.479040674
1715932772213158704,0.061,,,,7.48673539
1715932772220853420,0.059,,,,7.494430106
1715932772228548136,0.04,,,,7.502124822
1715932772236242852,0.014,,,,7.509819538
1715932772243937568,0.009,,,,7.517514254
1715932772251632284,0.009,,,,7.52520897
1715932772259327000,-0.009,,,,7.532903686
1715932772267021716,-0.016,,,,7.540598402
1715932772274716432,-0.014,,,,7.548293118
1715932772282411148,-0.011,,,,7.555987834
1715932772290105864,-0.002,,,,7.56368255
1715932772297800580,0.004,,,,7.571377266
1715932772305495296,0.0,,,,7.579071982
1715932772313190012,0.002,,,,7.586766698
1715932772320884728,0.016,,,,7.594461414
1715932772328579444,0.018,,,,7.60215613
1715932772336274160,0.007,,,,7.609850846
1715932772343968876,0.018,,,,7.617545562
1715932772351663592,0.042,,,,7.625240278
1715932772359358308,0.04,,,,7.632934994
1715932772367053024,0.03,,,,7.64062971
1715932772374747740,0.04,,,,7.648324426
1715932772382442456,0.052,,,,7.656019142
1715932772390137172,0.047,,,,7.663713858
1715932772397831888,0.03,,,,7.671408574
1715932772405526604,0.035,,,,7.67910329
1715932772413221320,0.047,,,,7.686798006
1715932772420916036,0.047,,,,7.694492722
1715932772428610752,0.037,,,,7.702187438
1715932772436305468,0.037,,,,7.709882154
1715932772444000184,0.04,,,,7.71757687
1715932772451694900,0.042,,,,7.725271586
1715932772459389616,0.04,,,,7.732966302
1715932772467084332,0.035,,,,7.740661018
1715932772474779048,0.04,,,,7.748355734
1715932772482473764,0.047,,,,7.75605045
1715932772490168480,0.047,,,,7.763745166
1715932772497863196,0.044,,,,7.771439882
1715932772505557912,0.04,,,,7.779134598
1715932772513252628,0.037,,,,7.786829314
1715932772520947344,0.047,,,,7.79452403
1715932772528642060,0.056,,,,7.802218746
1715932772536336776,0.035,,,,7.809913462
1715932772544031492,0.011,,,,7.817608178
1715932772551726208,0.021,,,,7.825302894
1715932772559420924,0.033,,,,7.83299761
1715932772567115640,0.049,,,,7.840692326
1715932772574810356,0.078,,,,7.848387042
1715932772582505072,0.08,,,,7.856081758
1715932772590199828,0.049,,,,7.863776514
1715932772597894056,0.037,,,,7.871470742
1715932772605588284,0.049,,,,7.87916497
1715932772613282512,0.052,,,,7.886859198
1715932772620976740,0.054,,,,7.894553426
1715932772628670968,0.054,,,,7.902247654
1715932772636365196,0.047,,,,7.909941882
1715932772644059424,0.049,,,,7.91763611
1715932772651753652,0.054,,,,7.925330338
1715932772659447880,0.054,,,,7.933024566
1715932772667142108,0.052,,,,7.940718794
1715932772674836336,0.13,,,,7.948413022
1715932772682530564,0.428,,,,7.95610725
1715932772690224792,0.8310000000000001,,,,7.963801478
1715932772697919020,0.8310000000000001,,,,7.971495706
1715932772705613248,0.272,,,,7.979189934
1715932772713307476,-0.134,,,,7.986884162
1715932772721001704,-0.028,,,,7.99457839
1715932772728695932,0.056,,,,8.002272618
1715932772736390160,-0.037,,,,8.009966846
1715932772744084388,-0.035,,,,8.017661074
1715932772751778616,0.007,,,,8.025355302
1715932772759472844,-0.016,,,,8.03304953
1715932772767167072,-0.023,,,,8.040743758
1715932772774861300,0.007,,,,8.048437986
1715932772782555528,0.014,,,,8.056132214
1715932772790249756,0.004,,,,8.063826442
1715932772797943984,0.014,,,,8.07152067
1715932772805638212,0.035,,,,8.079214898
1715932772813332440,0.04,,,,8.086909126
1715932772821026668,0.037,,,,8.094603354
1715932772828720896,0.049,,,,8.102297582
1715932772836415124,0.059,,,,8.10999181
1715932772844109352,0.059,,,,8.117686038
1715932772851803580,0.066,,,,8.125380266
1715932772859497808,0.087,,,,8.133074494
1715932772867192036,0.101,,,,8.140768722
1715932772874886264,0.108,,,,8.14846295
1715932772882580492,0.12,,,,8.156157178
1715932772890274720,0.13,,,,8.163851406
1715932772897968948,0.132,,,,8.171545634
1715932772905663176,0.134,,,,8.179239862
1715932772913357404,0.137,,,,8.18693409
1715932772921051632,0.134,,,,8.194628318
1715932772928745860,0.125,,,,8.202322546
1715932772936440088,0.116,,,,8.210016774
1715932772944134316,0.101,,,,8.217711002
1715932772951828544,0.085,,,,8.22540523
1715932772959522772,0.071,,,,8.233099458
1715932772967217000,0.056,,,,8.240793686
1715932772974911228,0.049,,,,8.248487914
1715932772982605456,0.044,,,,8.256182142
1715932772990299684,0.04,,,,8.26387637
1715932772997993912,0.037,,,,8.271570598
1715932773005688140,0.04,,,,8.279264826
1715932773013382368,0.042,,,,8.286959054
1715932773021076596,0.044,,,,8.294653282
1715932773028770824,0.047,,,,8.30234751
1715932773036465052,0.044,,,,8.310041738
1715932773044159280,0.044,,,,8.317735966
1715932773051853508,0.052,,,,8.325430194
1715932773059547736,0.059,,,,8.333124422
1715932773067241964,0.061,,,,8.34081865
1715932773074936192,0.063,,,,8.348512878
1715932773082630420,0.071,,,,8.356207106
1715932773090324648,0.078,,,,8.363901334
1715932773098018876,0.08,,,,8.371595562
1715932773105713104,0.082,,,,8.37928979
1715932773113407332,0.082,,,,8.386984018
1715932773121101560,0.08,,,,8.394678246
1715932773128795788,0.085,,,,8.402372474
1715932773136490016,0.089,,,,8.410066702
1715932773144184244,0.087,,,,8.41776093
1715932773151878530,0.082,86.0,705.0,,8.425455216
1715932773159572898,0.087,,,,8.433149584
1715932773167267266,0.092,,,,8.440843952
1715932773174961634,0.087,,,,8.44853832
1715932773182656002,0.078,,,,8.456232688
1715932773190350370,0.082,,,,8.463927056
1715932773198044738,0.092,,,,8.471621424
1715932773205739106,0.085,,,,8.479315792
1715932773213433474,0.073,,,,8.48701016
1715932773221127842,0.071,,,,8.494704528
1715932773228822210,0.073,,,,8.502398896
1715932773236516578,0.073,,,,8.510093264
1715932773244210946,0.068,,,,8.517787632
1715932773251905314,0.066,,,,8.525482
1715932773259599682,0.071,,,,8.533176368
1715932773267294050,0.082,,,,8.540870736
1715932773274988418,0.101,,,,8.548565104
1715932773282682786,0.113,,,,8.556259472
1715932773290377154,0.101,,,,8.56395384
1715932773298071522,0.082,,,,8.571648208
1715932773305765890,0.078,,,,8.579342576
1715932773313460258,0.082,,,,8.587036944
1715932773321154626,0.085,,,,8.594731312
1715932773328848994,0.087,,,,8.60242568
1715932773336543362,0.092,,,,8.610120048
1715932773344237730,0.094,,,,8.617814416
1715932773351932098,0.094,,,,8.625508784
1715932773359626466,0.092,,,,8.633203152
1715932773367320834,0.089,,,,8.64089752
1715932773375015202,0.113,,,,8.648591888
1715932773382709570,0.322,,,,8.656286256
1715932773390403938,0.772,,,,8.663980624
1715932773398098306,1.027,,,,8.671674992
1715932773405792674,0.608,,,,8.67936936
1715932773413487042,-0.018,,,,8.687063728
1715932773421181410,-0.094,,,,8.694758096
1715932773428875778,0.082,,,,8.702452464
1715932773436570146,0.021,,,,8.710146832
1715932773444264514,-0.044,,,,8.7178412
1715932773451958882,0.018,,,,8.725535568
1715932773459653250,0.026,,,,8.733229936
1715932773467347618,-0.002,,,,8.740924304
1715932773475041986,0.014,,,,8.748618672
1715932773482736354,0.033,,,,8.75631304
1715932773490430722,0.028,,,,8.764007408
1715932773498125090,0.033,,,,8.771701776
1715932773505819458,0.042,,,,8.779396144
1715932773513513826,0.044,,,,8.787090512
1715932773521208194,0.054,,,,8.79478488
1715932773528902562,0.063,,,,8.802479248
1715932773536596930,0.066,,,,8.810173616
1715932773544291298,0.063,,,,8.817867984
1715932773551985666,0.066,,,,8.825562352
1715932773559680034,0.075,,,,8.83325672
1715932773567374402,0.087,,,,8.840951088
1715932773575068770,0.099,,,,8.848645456
1715932773582763138,0.113,,,,8.856339824
1715932773590457506,0.123,,,,8.864034192
1715932773598151874,0.127,,,,8.87172856
1715932773605846242,0.134,,,,8.879422928
1715932773613540610,0.139,,,,8.887117296
1715932773621234978,0.134,,,,8.894811664
1715932773628929346,0.125,,,,8.902506032
1715932773636623714,0.116,,,,8.9102004
1715932773644318082,0.106,,,,8.917894768
1715932773652012450,0.094,,,,8.925589136
1715932773659706818,0.078,,,,8.933283504
1715932773667401186,0.066,,,,8.940977872
1715932773675095554,0.056,,,,8.94867224
1715932773682789922,0.047,,,,8.956366608
1715932773690484290,0.04,,,,8.964060976
1715932773698178658,0.04,,,,8.971755344
1715932773705873026,0.037,,,,8.979449712
1715932773713567406,0.033,,,,8.987144092
1715932773721262122,0.033,,,,8.994838808
1715932773728956838,0.037,,,,9.002533524
1715932773736651554,0.04,,,,9.01022824
1715932773744346270,0.04,,,,9.017922956
1715932773752040986,0.049,,,,9.025617672
1715932773759735702,0.054,,,,9.033312388
1715932773767430418,0.056,,,,9.041007104
1715932773775125134,0.056,,,,9.04870182
1715932773782819850,0.052,,,,9.056396536
1715932773790514566,0.059,,,,9.064091252
1715932773798209282,0.068,,,,9.071785968
1715932773805903998,0.071,,,,9.079480684
1715932773813598714,0.071,,,,9.0871754
1715932773821293430,0.073,,,,9.094870116
1715932773828988146,0.073,,,,9.102564832
1715932773836682862,0.073,,,,9.110259548
1715932773844377578,0.071,,,,9.117954264
1715932773852072294,0.075,,,,9.12564898
1715932773859767010,0.078,,,,9.133343696
1715932773867461726,0.078,,,,9.141038412
1715932773875156442,0.075,,,,9.148733128
1715932773882851158,0.078,,,,9.156427844
1715932773890545874,0.08,,,,9.16412256
1715932773898240590,0.08,,,,9.171817276
1715932773905935306,0.08,,,,9.179511992
1715932773913630022,0.087,,,,9.187206708
1715932773921324738,0.087,,,,9.194901424
1715932773929019454,0.085,,,,9.20259614
1715932773936714170,0.089,,,,9.210290856
1715932773944408886,0.092,,,,9.217985572
1715932773952103602,0.089,,,,9.225680288
1715932773959798318,0.08,,,,9.233375004
1715932773967493034,0.071,,,,9.24106972
1715932773975187750,0.073,,,,9.248764436
1715932773982882466,0.082,,,,9.256459152
1715932773990577182,0.094,,,,9.264153868
1715932773998271898,0.116,,,,9.271848584
1715932774005966614,0.125,,,,9.2795433
1715932774013661330,0.106,,,,9.287238016
1715932774021356046,0.089,,,,9.294932732
1715932774029050762,0.094,,,,9.302627448
1715932774036745478,0.101,,,,9.310322164
1715932774044440194,0.101,,,,9.31801688
1715932774052134910,0.097,,,,9.325711596
1715932774059829626,0.094,,,,9.333406312
1715932774067524342,0.097,,,,9.341101028
1715932774075219058,0.099,,,,9.348795744
1715932774082913774,0.097,,,,9.35649046
1715932774090608490,0.092,,,,9.364185176
1715932774098303206,0.153,,,,9.371879892
1715932774105997922,0.452,,,,9.379574608
1715932774113692638,0.911,,,,9.387269324
1715932774121387354,0.982,,,,9.39496404
1715932774129082070,0.407,,,,9.402658756
1715932774136776786,-0.099,,,,9.410353472
1715932774144471502,-0.028,,,,9.418048188
1715932774152166218,0.097,,,,9.425742904
1715932774159860934,0.004,,,,9.43343762
1715932774167555650,-0.009,,,,9.441132336
1715932774175250366,0.042,,,,9.448827052
1715932774182945082,0.033,,,,9.456521768
1715932774190639798,0.028,,,,9.464216484
1715932774198334514,0.049,,,,9.4719112
1715932774206029230,0.052,,,,9.479605916
1715932774213723946,0.054,,,,9.487300632
1715932774221418662,0.071,,,,9.494995348
1715932774229113378,0.073,,,,9.502690064
1715932774236808094,0.071,,,,9.51038478
1715932774244502810,0.075,,,,9.518079496
1715932774252197526,0.089,,,,9.525774212
1715932774259892242,0.094,,,,9.533468928
1715932774267586958,0.101,,,,9.541163644
1715932774275281716,0.113,86.0,726.0,,9.548858402
1715932774282976153,0.118,,725.0,,9.556552839
1715932774290670590,0.123,,,,9.564247276
1715932774298365027,0.139,,,,9.571941713
1715932774306059464,0.156,,,,9.57963615
1715932774313753901,0.165,,,,9.587330587
1715932774321448338,0.17,,,,9.595025024
1715932774329142775,0.17,,,,9.602719461
1715932774336837212,0.17,,,,9.610413898
1715932774344531649,0.165,,,,9.618108335
1715932774352226086,0.156,,,,9.625802772
1715932774359920523,0.146,,,,9.633497209
1715932774367614960,0.137,,,,9.641191646
1715932774375309397,0.12,,,,9.648886083
1715932774383003834,0.101,,,,9.65658052
1715932774390698271,0.097,,,,9.664274957
1715932774398392708,0.092,,,,9.671969394
1715932774406087145,0.078,,,,9.679663831
1715932774413781582,0.073,,,,9.687358268
1715932774421476019,0.078,,,,9.695052705
1715932774429170456,0.075,,,,9.702747142
1715932774436864893,0.068,,,,9.710441579
1715932774444559330,0.073,,,,9.718136016
1715932774452253767,0.073,,,,9.725830453
1715932774459948204,0.073,,,,9.73352489
1715932774467642641,0.075,,,,9.741219327
1715932774475337078,0.078,,,,9.748913764
1715932774483031515,0.082,,,,9.756608201
1715932774490725952,0.092,,,,9.764302638
1715932774498420389,0.097,,,,9.771997075
1715932774506114826,0.094,,,,9.779691512
1715932774513809263,0.101,,,,9.787385949
1715932774521503700,0.104,,,,9.795080386
1715932774529198137,0.097,,,,9.802774823
1715932774536892574,0.097,,,,9.81046926
1715932774544587011,0.106,,,,9.818163697
1715932774552281448,0.106,,,,9.825858134
1715932774559975885,0.097,,,,9.833552571
1715932774567670322,0.094,,,,9.841247008
1715932774575364759,0.099,,,,9.848941445
1715932774583059196,0.097,,,,9.856635882
1715932774590753633,0.097,,,,9.864330319
1715932774598448070,0.101,,,,9.872024756
1715932774606142507,0.097,,,,9.879719193
1715932774613836944,0.092,,,,9.88741363
1715932774621531381,0.097,,,,9.895108067
1715932774629225818,0.101,,,,9.902802504
1715932774636920255,0.101,,,,9.910496941
1715932774644614692,0.099,,,,9.918191378
1715932774652309129,0.097,,,,9.925885815
1715932774660003566,0.092,,,,9.933580252
1715932774667698003,0.085,,,,9.941274689
1715932774675392440,0.082,,,,9.948969126
1715932774683086877,0.089,,,,9.956663563
1715932774690781314,0.113,,,,9.964358
1715932774698475751,0.13,,,,9.972052437
1715932774706170188,0.113,,,,9.979746874
1715932774713864625,0.092,,,,9.987441311
1715932774721559062,0.092,,,,9.995135748
1715932774729253499,0.094,,,,10.002830185
1715932774736947936,0.092,,,,10.010524622
1715932774744642373,0.094,,,,10.018219059
1715932774752336810,0.097,,,,10.025913496
1715932774760031247,0.094,,,,10.033607933
1715932774767725684,0.097,,,,10.04130237
1715932774775420121,0.099,,,,10.048996807
1715932774783114558,0.097,,,,10.056691244
1715932774790808995,0.097,,,,10.064385681
1715932774798503432,0.213,,,,10.072080118
1715932774806197869,0.589,,,,10.079774555
1715932774813892306,0.963,,,,10.087468992
1715932774821586743,0.774,,,,10.095163429
1715932774829281180,0.134,,,,10.102857866
1715932774836975678,-0.127,86.0,703.0,,10.110552364
1715932774844670046,0.042,,,,10.118246732
1715932774852364414,0.063,,,,10.1259411
1715932774860058782,-0.03,,,,10.133635468
1715932774867753150,0.002,,,,10.141329836
1715932774875447518,0.037,,,,10.149024204
1715932774883141886,0.009,,,,10.156718572
1715932774890836254,0.007,,,,10.16441294
1715932774898530622,0.028,,,,10.172107308
1715932774906224990,0.033,,,,10.179801676
1715932774913919358,0.04,,,,10.187496044
1715932774921613726,0.047,,,,10.195190412
1715932774929308094,0.049,,,,10.20288478
1715932774937002462,0.054,,,,10.210579148
1715932774944696830,0.059,,,,10.218273516
1715932774952391198,0.059,,,,10.225967884
1715932774960085566,0.068,,,,10.233662252
1715932774967779934,0.08,,,,10.24135662
1715932774975474302,0.085,,,,10.249050988
1715932774983168670,0.092,,,,10.256745356
1715932774990863038,0.108,,,,10.264439724
1715932774998557406,0.12,,,,10.272134092
1715932775006251774,0.125,,,,10.27982846
1715932775013946142,0.139,,,,10.287522828
1715932775021640510,0.149,,,,10.295217196
1715932775029334878,0.146,,,,10.302911564
1715932775037029246,0.137,,,,10.310605932
1715932775044723614,0.13,,,,10.3183003
1715932775052417982,0.127,,,,10.325994668
1715932775060112350,0.111,,,,10.333689036
1715932775067806718,0.087,,,,10.341383404
1715932775075501086,0.071,,,,10.349077772
1715932775083195454,0.059,,,,10.35677214
1715932775090889822,0.044,,,,10.364466508
1715932775098584190,0.035,,,,10.372160876
1715932775106278558,0.028,,,,10.379855244
1715932775113972926,0.023,,,,10.387549612
1715932775121667294,0.021,,,,10.39524398
1715932775129361662,0.021,,,,10.402938348
1715932775137056030,0.023,,,,10.410632716
1715932775144750398,0.028,,,,10.418327084
1715932775152444766,0.035,,,,10.426021452
1715932775160139134,0.037,,,,10.43371582
1715932775167833502,0.044,,,,10.441410188
1715932775175527870,0.054,,,,10.449104556
1715932775183222238,0.054,,,,10.456798924
1715932775190916606,0.052,,,,10.464493292
1715932775198610974,0.059,,,,10.47218766
1715932775206305342,0.059,,,,10.479882028
1715932775213999710,0.054,,,,10.487576396
1715932775221694078,0.059,,,,10.495270764
1715932775229388446,0.068,,,,10.502965132
1715932775237082814,0.075,,,,10.5106595
1715932775244777182,0.071,,,,10.518353868
1715932775252471550,0.066,,,,10.526048236
1715932775260165918,0.068,,,,10.533742604
1715932775267860286,0.068,,,,10.541436972
1715932775275554654,0.061,,,,10.54913134
1715932775283249022,0.063,,,,10.556825708
1715932775290943390,0.075,,,,10.564520076
1715932775298637758,0.073,,,,10.572214444
1715932775306332126,0.059,,,,10.579908812
1715932775314026494,0.063,,,,10.58760318
1715932775321720862,0.075,,,,10.595297548
1715932775329415230,0.073,,,,10.602991916
1715932775337109598,0.061,,,,10.610686284
1715932775344803966,0.056,,,,10.618380652
1715932775352498334,0.061,,,,10.62607502
1715932775360192702,0.056,,,,10.633769388
1715932775367887070,0.049,,,,10.641463756
1715932775375581438,0.059,,,,10.649158124
1715932775383275806,0.073,,,,10.656852492
1715932775390970174,0.082,,,,10.66454686
1715932775398664554,0.089,,,,10.67224124
1715932775406359061,0.085,,,,10.679935747
1715932775414053568,0.068,,,,10.687630254
1715932775421748075,0.059,,,,10.695324761
1715932775429442582,0.061,,,,10.703019268
1715932775437137089,0.061,,,,10.710713775
1715932775444831596,0.052,,,,10.718408282
1715932775452526103,0.052,,,,10.726102789
1715932775460220610,0.054,,,,10.733797296
1715932775467915117,0.047,,,,10.741491803
1715932775475609624,0.052,,,,10.74918631
1715932775483304131,0.054,,,,10.756880817
1715932775490998638,0.08,,,,10.764575324
1715932775498693145,0.303,,,,10.772269831
1715932775506387652,0.724,,,,10.779964338
1715932775514082159,0.911,,,,10.787658845
1715932775521776666,0.48,,,,10.795353352
1715932775529471173,-0.078,,,,10.803047859
1715932775537165680,-0.116,,,,10.810742366
1715932775544860187,0.037,,,,10.818436873
1715932775552554694,-0.023,,,,10.82613138
1715932775560249201,-0.075,,,,10.833825887
1715932775567943708,-0.035,,,,10.841520394
1715932775575638215,-0.033,,,,10.849214901
1715932775583332722,-0.044,,,,10.856909408
1715932775591027229,-0.028,,,,10.864603915
1715932775598721736,-0.014,,,,10.872298422
1715932775606416243,-0.009,,,,10.879992929
1715932775614110750,-0.002,,,,10.887687436
1715932775621805257,0.004,,,,10.895381943
1715932775629499764,0.011,,,,10.90307645
1715932775637194271,0.014,,,,10.910770957
1715932775644888778,0.016,,,,10.918465464
1715932775652583285,0.023,,,,10.926159971
1715932775660277792,0.044,,,,10.933854478
1715932775667972299,0.056,,,,10.941548985
1715932775675666806,0.054,,,,10.949243492
1715932775683361313,0.061,,,,10.956937999
1715932775691055820,0.075,,,,10.964632506
1715932775698750327,0.078,,,,10.972327013
1715932775706444834,0.085,,,,10.98002152
1715932775714139341,0.101,,,,10.987716027
1715932775721833848,0.108,,,,10.995410534
1715932775729528355,0.106,,,,11.003105041
1715932775737222862,0.099,,,,11.010799548
1715932775744917369,0.099,,,,11.018494055
1715932775752611876,0.097,,,,11.026188562
1715932775760306383,0.078,,,,11.033883069
1715932775768000890,0.054,,,,11.041577576
1715932775775695397,0.049,,,,11.049272083
1715932775783389904,0.037,,,,11.05696659
1715932775791084411,0.021,,,,11.064661097
1715932775798778918,0.009,,,,11.072355604
1715932775806473425,0.004,,,,11.080050111
1715932775814167932,0.016,,,,11.087744618
1715932775821862439,0.018,,,,11.095439125
1715932775829556946,0.004,,,,11.103133632
1715932775837251453,0.002,,,,11.110828139
1715932775844945960,0.014,,,,11.118522646
1715932775852640467,0.026,,,,11.126217153
1715932775860334974,0.026,,,,11.13391166
1715932775868029481,0.026,,,,11.141606167
1715932775875723988,0.033,,,,11.149300674
1715932775883418495,0.042,,,,11.156995181
1715932775891113002,0.054,,,,11.164689688
1715932775898807509,0.059,,,,11.172384195
1715932775906502016,0.049,,,,11.180078702
1715932775914196523,0.047,,,,11.187773209
1715932775921891030,0.049,,,,11.195467716
1715932775929585537,0.049,,,,11.203162223
1715932775937280044,0.052,,,,11.21085673
1715932775944974551,0.054,,,,11.218551237
1715932775952669058,0.054,,,,11.226245744
1715932775960363604,0.056,86.0,721.0,,11.23394029
1715932775968058250,0.059,,,,11.241634936
1715932775975752896,0.059,,,,11.249329582
1715932775983447542,0.059,,,,11.257024228
1715932775991142188,0.054,,,,11.264718874
1715932775998836834,0.042,,,,11.27241352
1715932776006531480,0.04,,,,11.280108166
1715932776014226126,0.047,,,,11.287802812
1715932776021920772,0.054,,,,11.295497458
1715932776029615418,0.052,,,,11.303192104
1715932776037310064,0.042,,,,11.31088675
1715932776045004710,0.03,,,,11.318581396
1715932776052699356,0.035,,,,11.326276042
1715932776060394002,0.049,,,,11.333970688
1715932776068088648,0.068,,,,11.341665334
1715932776075783294,0.082,,,,11.34935998
1715932776083477940,0.073,,,,11.357054626
1715932776091172586,0.047,,,,11.364749272
1715932776098867232,0.042,,,,11.372443918
1715932776106561878,0.052,,,,11.380138564
1715932776114256524,0.049,,,,11.38783321
1715932776121951170,0.049,,,,11.395527856
1715932776129645816,0.054,,,,11.403222502
1715932776137340462,0.052,,,,11.410917148
1715932776145035108,0.056,,,,11.418611794
1715932776152729754,0.071,,,,11.42630644
1715932776160424400,0.071,,,,11.434001086
1715932776168119046,0.085,,,,11.441695732
1715932776175813692,0.265,,,,11.449390378
1715932776183508338,0.677,,,,11.457085024
1715932776191202984,0.956,,,,11.46477967
1715932776198897630,0.613,,,,11.472474316
1715932776206592276,-0.002,,,,11.480168962
1715932776214286922,-0.113,,,,11.487863608
1715932776221981568,0.063,,,,11.495558254
1715932776229676214,0.018,,,,11.5032529
1715932776237370860,-0.059,,,,11.510947546
1715932776245065506,-0.007,,,,11.518642192
1715932776252760152,0.007,,,,11.526336838
1715932776260454798,-0.018,,,,11.534031484
1715932776268149444,-0.004,,,,11.54172613
1715932776275844090,0.011,,,,11.549420776
1715932776283538736,0.009,,,,11.557115422
1715932776291233382,0.021,,,,11.564810068
1715932776298928028,0.03,,,,11.572504714
1715932776306622674,0.03,,,,11.58019936
1715932776314317320,0.04,,,,11.587894006
1715932776322011966,0.047,,,,11.595588652
1715932776329706612,0.047,,,,11.603283298
1715932776337401258,0.054,,,,11.610977944
1715932776345095904,0.068,,,,11.61867259
1715932776352790550,0.08,,,,11.626367236
1715932776360485196,0.085,,,,11.634061882
1715932776368179842,0.092,,,,11.641756528
1715932776375874488,0.111,,,,11.649451174
1715932776383569134,0.12,,,,11.65714582
1715932776391263780,0.13,,,,11.664840466
1715932776398958426,0.142,,,,11.672535112
1715932776406653072,0.139,,,,11.680229758
1715932776414347718,0.125,,,,11.687924404
1715932776422042364,0.116,,,,11.69561905
1715932776429737010,0.116,,,,11.703313696
1715932776437431656,0.108,,,,11.711008342
1715932776445126302,0.089,,,,11.718702988
1715932776452820948,0.071,,,,11.726397634
1715932776460515594,0.054,,,,11.73409228
1715932776468210240,0.047,,,,11.741786926
1715932776475904886,0.042,,,,11.749481572
1715932776483599532,0.037,,,,11.757176218
1715932776491294178,0.037,,,,11.764870864
1715932776498988824,0.037,,,,11.77256551
1715932776506683470,0.033,,,,11.780260156
1715932776514378116,0.035,,,,11.787954802
1715932776522072824,0.047,,,,11.79564951
1715932776529767192,0.052,,,,11.803343878
1715932776537461560,0.054,,,,11.811038246
1715932776545155928,0.056,,,,11.818732614
1715932776552850296,0.061,,,,11.826426982
1715932776560544664,0.063,,,,11.83412135
1715932776568239032,0.063,,,,11.841815718
1715932776575933400,0.061,,,,11.849510086
1715932776583627768,0.063,,,,11.857204454
1715932776591322136,0.066,,,,11.864898822
1715932776599016504,0.066,,,,11.87259319
1715932776606710872,0.063,,,,11.880287558
1715932776614405240,0.068,,,,11.887981926
1715932776622099608,0.071,,,,11.895676294
1715932776629793976,0.066,,,,11.903370662
1715932776637488344,0.063,,,,11.91106503
1715932776645182712,0.071,,,,11.918759398
1715932776652877080,0.078,,,,11.926453766
1715932776660571448,0.071,,,,11.934148134
1715932776668265816,0.066,,,,11.941842502
1715932776675960184,0.071,,,,11.94953687
1715932776683654552,0.071,,,,11.957231238
1715932776691348920,0.066,,,,11.964925606
1715932776699043288,0.068,,,,11.972619974
1715932776706737656,0.075,,,,11.980314342
1715932776714432024,0.071,,,,11.98800871
1715932776722126392,0.061,,,,11.995703078
1715932776729820760,0.071,,,,12.003397446
1715932776737515128,0.101,,,,12.011091814
1715932776745209496,0.118,,,,12.018786182
1715932776752903864,0.104,,,,12.02648055
1715932776760598232,0.087,,,,12.034174918
1715932776768292600,0.087,,,,12.041869286
1715932776775986968,0.087,,,,12.049563654
1715932776783681336,0.082,,,,12.057258022
1715932776791375704,0.087,,,,12.06495239
1715932776799070072,0.094,,,,12.072646758
1715932776806764440,0.094,,,,12.080341126
1715932776814458808,0.094,,,,12.088035494
1715932776822153176,0.094,,,,12.095729862
1715932776829847544,0.089,,,,12.10342423
1715932776837541912,0.101,,,,12.111118598
1715932776845236280,0.258,,,,12.118812966
1715932776852930648,0.672,,,,12.126507334
1715932776860625016,1.032,,,,12.134201702
1715932776868319384,0.767,,,,12.14189607
1715932776876013752,0.089,,,,12.149590438
1715932776883708120,-0.123,,,,12.157284806
1715932776891402488,0.075,,,,12.164979174
1715932776899096856,0.068,,,,12.172673542
1715932776906791224,-0.03,,,,12.18036791
1715932776914485592,0.014,,,,12.188062278
1715932776922179960,0.04,,,,12.195756646
1715932776929874328,0.011,,,,12.203451014
1715932776937568696,0.018,,,,12.211145382
1715932776945263064,0.042,,,,12.21883975
1715932776952957432,0.042,,,,12.226534118
1715932776960651800,0.033,,,,12.234228486
1715932776968346168,0.04,,,,12.241922854
1715932776976040536,0.052,,,,12.249617222
1715932776983734904,0.052,,,,12.25731159
1715932776991429272,0.049,,,,12.265005958
1715932776999123640,0.061,,,,12.272700326
1715932777006818008,0.078,,,,12.280394694
1715932777014512376,0.08,,,,12.288089062
1715932777022206744,0.082,,,,12.29578343
1715932777029901112,0.099,,,,12.303477798
1715932777037595480,0.111,,,,12.311172166
1715932777045289848,0.12,,,,12.318866534
1715932777052984216,0.134,,,,12.326560902
1715932777060678584,0.139,,,,12.33425527
1715932777068372952,0.139,,,,12.341949638
1715932777076067320,0.142,,,,12.349644006
1715932777083761700,0.139,85.0,697.0,,12.357338386
1715932777091456068,0.137,,697.0,,12.365032754
1715932777099150436,0.127,,,,12.372727122
1715932777106844804,0.101,,,,12.38042149
1715932777114539172,0.08,,,,12.388115858
1715932777122233540,0.071,,,,12.395810226
1715932777129927908,0.061,,,,12.403504594
1715932777137622276,0.049,,,,12.411198962
1715932777145316644,0.04,,,,12.41889333
1715932777153011012,0.035,,,,12.426587698
1715932777160705380,0.028,,,,12.434282066
1715932777168399748,0.023,,,,12.441976434
1715932777176094116,0.028,,,,12.449670802
1715932777183788484,0.035,,,,12.45736517
1715932777191482852,0.037,,,,12.465059538
1715932777199177220,0.04,,,,12.472753906
1715932777206871588,0.042,,,,12.480448274
1715932777214565956,0.049,,,,12.488142642
1715932777222260324,0.054,,,,12.49583701
1715932777229954692,0.059,,,,12.503531378
1715932777237649060,0.063,,,,12.511225746
1715932777245343428,0.071,,,,12.518920114
1715932777253037796,0.073,,,,12.526614482
1715932777260732164,0.078,,,,12.53430885
1715932777268426532,0.085,,,,12.542003218
1715932777276120900,0.089,,,,12.549697586
1715932777283815268,0.089,,,,12.557391954
1715932777291509636,0.087,,,,12.565086322
1715932777299204004,0.092,,,,12.57278069
1715932777306898372,0.097,,,,12.580475058
1715932777314592740,0.097,,,,12.588169426
1715932777322287108,0.094,,,,12.595863794
1715932777329981476,0.097,,,,12.603558162
1715932777337675844,0.099,,,,12.61125253
1715932777345370212,0.101,,,,12.618946898
1715932777353064580,0.101,,,,12.626641266
1715932777360758948,0.101,,,,12.634335634
1715932777368453316,0.101,,,,12.642030002
1715932777376147684,0.099,,,,12.64972437
1715932777383842052,0.094,,,,12.657418738
1715932777391536420,0.094,,,,12.665113106
1715932777399230788,0.092,,,,12.672807474
1715932777406925156,0.087,,,,12.680501842
1715932777414619524,0.097,,,,12.68819621
1715932777422313892,0.123,,,,12.695890578
1715932777430008260,0.137,,,,12.703584946
1715932777437702628,0.12,,,,12.711279314
1715932777445396996,0.104,,,,12.718973682
1715932777453091364,0.104,,,,12.72666805
1715932777460785732,0.106,,,,12.734362418
1715932777468480100,0.106,,,,12.742056786
1715932777476174468,0.106,,,,12.749751154
1715932777483868836,0.108,,,,12.757445522
1715932777491563204,0.111,,,,12.76513989
1715932777499257572,0.116,,,,12.772834258
1715932777506951940,0.116,,,,12.780528626
1715932777514646308,0.113,,,,12.788222994
1715932777522340676,0.116,,,,12.795917362
1715932777530035044,0.274,,,,12.80361173
1715932777537729412,0.724,,,,12.811306098
1715932777545423780,1.105,,,,12.819000466
1715932777553118148,0.8210000000000001,,,,12.826694834
1715932777560812516,0.113,,,,12.834389202
1715932777568506884,-0.118,,,,12.84208357
1715932777576201252,0.073,,,,12.849777938
1715932777583895620,0.056,,,,12.857472306
1715932777591589988,-0.042,,,,12.865166674
1715932777599284356,0.011,,,,12.872861042
1715932777606978724,0.042,,,,12.88055541
1715932777614673092,0.014,,,,12.888249778
1715932777622367460,0.026,,,,12.895944146
1715932777630061828,0.049,,,,12.903638514
1715932777637756196,0.047,,,,12.911332882
1715932777645450578,0.047,,,,12.919027264
1715932777653145224,0.054,,,,12.92672191
1715932777660839870,0.052,,,,12.934416556
1715932777668534516,0.054,,,,12.942111202
1715932777676229162,0.061,,,,12.949805848
1715932777683923808,0.061,,,,12.957500494
1715932777691618454,0.063,,,,12.96519514
1715932777699313100,0.073,,,,12.972889786
1715932777707007746,0.075,,,,12.980584432
1715932777714702392,0.078,,,,12.988279078
1715932777722397038,0.092,,,,12.995973724
1715932777730091684,0.106,,,,13.00366837
1715932777737786330,0.116,,,,13.011363016
1715932777745480976,0.125,,,,13.019057662
1715932777753175622,0.132,,,,13.026752308
1715932777760870268,0.132,,,,13.034446954
1715932777768564914,0.134,,,,13.0421416
1715932777776259560,0.132,,,,13.049836246
1715932777783954206,0.125,,,,13.057530892
1715932777791648852,0.113,,,,13.065225538
1715932777799343498,0.097,,,,13.072920184
1715932777807038144,0.08,,,,13.08061483
1715932777814732790,0.068,,,,13.088309476
1715932777822427436,0.059,,,,13.096004122
1715932777830122082,0.054,,,,13.103698768
1715932777837816728,0.047,,,,13.111393414
1715932777845511374,0.044,,,,13.11908806
1715932777853206020,0.047,,,,13.126782706
1715932777860900666,0.047,,,,13.134477352
1715932777868595312,0.049,,,,13.142171998
1715932777876289958,0.054,,,,13.149866644
1715932777883984604,0.056,,,,13.15756129
1715932777891679250,0.054,,,,13.165255936
1715932777899373896,0.054,,,,13.172950582
1715932777907068542,0.056,,,,13.180645228
1715932777914763188,0.061,,,,13.188339874
1715932777922457834,0.063,,,,13.19603452
1715932777930152480,0.068,,,,13.203729166
1715932777937847126,0.078,,,,13.211423812
1715932777945541772,0.08,,,,13.219118458
1715932777953236418,0.08,,,,13.226813104
1715932777960931064,0.087,,,,13.23450775
1715932777968625710,0.094,,,,13.242202396
1715932777976320356,0.092,,,,13.249897042
1715932777984015002,0.087,,,,13.257591688
1715932777991709648,0.094,,,,13.265286334
1715932777999404294,0.097,,,,13.27298098
1715932778007098940,0.094,,,,13.280675626
1715932778014793586,0.092,,,,13.288370272
1715932778022488232,0.094,,,,13.296064918
1715932778030182878,0.094,,,,13.303759564
1715932778037877524,0.094,,,,13.31145421
1715932778045572170,0.097,,,,13.319148856
1715932778053266816,0.097,,,,13.326843502
1715932778060961462,0.099,,,,13.334538148
1715932778068656108,0.097,,,,13.342232794
1715932778076350754,0.092,,,,13.34992744
1715932778084045400,0.087,,,,13.357622086
1715932778091740046,0.082,,,,13.365316732
1715932778099434692,0.085,,,,13.373011378
1715932778107129338,0.087,,,,13.380706024
1715932778114823984,0.089,,,,13.38840067
1715932778122518630,0.087,,,,13.396095316
1715932778130213276,0.089,,,,13.403789962
1715932778137907922,0.092,,,,13.411484608
1715932778145602568,0.089,,,,13.419179254
1715932778153297214,0.085,,,,13.4268739
1715932778160991860,0.078,,,,13.434568546
1715932778168686506,0.075,,,,13.442263192
1715932778176381152,0.087,,,,13.449957838
1715932778184075798,0.106,,,,13.457652484
1715932778191770444,0.125,,,,13.46534713
1715932778199465090,0.127,,,,13.473041776
1715932778207159800,0.113,85.0,679.0,,13.480736486
1715932778214854307,0.101,,,,13.488430993
1715932778222548814,0.097,,,,13.4961255
1715932778230243321,0.097,,,,13.503820007
1715932778237937828,0.097,,,,13.511514514
1715932778245632335,0.092,,,,13.519209021
1715932778253326842,0.092,,,,13.526903528
1715932778261021349,0.094,,,,13.534598035
1715932778268715856,0.097,,,,13.542292542
1715932778276410363,0.097,,,,13.549987049
1715932778284104870,0.092,,,,13.557681556
1715932778291799377,0.085,,,,13.565376063
1715932778299493884,0.156,,,,13.57307057
1715932778307188391,0.49,,,,13.580765077
1715932778314882898,0.973,,,,13.588459584
1715932778322577405,1.015,,,,13.596154091
1715932778330271912,0.395,,,,13.603848598
1715932778337966419,-0.111,,,,13.611543105
1715932778345660926,-0.021,,,,13.619237612
1715932778353355433,0.092,,,,13.626932119
1715932778361049940,-0.014,,,,13.634626626
1715932778368744447,-0.023,,,,13.642321133
1715932778376438954,0.03,,,,13.65001564
1715932778384133461,0.009,,,,13.657710147
1715932778391827968,-0.002,,,,13.665404654
1715932778399522475,0.021,,,,13.673099161
1715932778407216982,0.026,,,,13.680793668
1715932778414911489,0.023,,,,13.688488175
1715932778422605996,0.033,,,,13.696182682
1715932778430300503,0.037,,,,13.703877189
1715932778437995010,0.04,,,,13.711571696
1715932778445689517,0.044,,,,13.719266203
1715932778453384024,0.052,,,,13.72696071
1715932778461078531,0.059,,,,13.734655217
1715932778468773038,0.066,,,,13.742349724
1715932778476467545,0.078,,,,13.750044231
1715932778484162052,0.082,,,,13.757738738
1715932778491856559,0.089,,,,13.765433245
1715932778499551066,0.104,,,,13.773127752
1715932778507245573,0.118,,,,13.780822259
1715932778514940080,0.125,,,,13.788516766
1715932778522634587,0.132,,,,13.796211273
1715932778530329094,0.139,,,,13.80390578
1715932778538023601,0.139,,,,13.811600287
1715932778545718108,0.134,,,,13.819294794
1715932778553412615,0.13,,,,13.826989301
1715932778561107122,0.123,,,,13.834683808
1715932778568801629,0.113,,,,13.842378315
1715932778576496136,0.099,,,,13.850072822
1715932778584190643,0.082,,,,13.857767329
1715932778591885150,0.063,,,,13.865461836
1715932778599579657,0.049,,,,13.873156343
1715932778607274164,0.044,,,,13.88085085
1715932778614968671,0.044,,,,13.888545357
1715932778622663178,0.042,,,,13.896239864
1715932778630357685,0.042,,,,13.903934371
1715932778638052192,0.04,,,,13.911628878
1715932778645746699,0.04,,,,13.919323385
1715932778653441206,0.044,,,,13.927017892
1715932778661135713,0.047,,,,13.934712399
1715932778668830220,0.047,,,,13.942406906
1715932778676524727,0.049,,,,13.950101413
1715932778684219234,0.054,,,,13.95779592
1715932778691913741,0.059,,,,13.965490427
1715932778699608248,0.063,,,,13.973184934
1715932778707302755,0.068,,,,13.980879441
1715932778714997262,0.075,,,,13.988573948
1715932778722691769,0.078,,,,13.996268455
1715932778730386276,0.078,,,,14.003962962
1715932778738080783,0.082,,,,14.011657469
1715932778745775290,0.087,,,,14.019351976
1715932778753469797,0.087,,,,14.027046483
1715932778761164304,0.087,,,,14.03474099
1715932778768858848,0.089,,,,14.042435534
1715932778776553216,0.089,,,,14.050129902
1715932778784247584,0.087,,,,14.05782427
1715932778791941952,0.087,,,,14.065518638
1715932778799636320,0.087,,,,14.073213006
1715932778807330688,0.087,,,,14.080907374
1715932778815025056,0.078,,,,14.088601742
1715932778822719424,0.071,,,,14.09629611
1715932778830413792,0.075,,,,14.103990478
1715932778838108160,0.08,,,,14.111684846
1715932778845802528,0.078,,,,14.119379214
1715932778853496896,0.075,,,,14.127073582
1715932778861191264,0.078,,,,14.13476795
1715932778868885632,0.08,,,,14.142462318
1715932778876580000,0.078,,,,14.150156686
1715932778884274368,0.075,,,,14.157851054
1715932778891968736,0.075,,,,14.165545422
1715932778899663104,0.078,,,,14.17323979
1715932778907357472,0.073,,,,14.180934158
1715932778915051840,0.075,,,,14.188628526
1715932778922746208,0.082,,,,14.196322894
1715932778930440576,0.08,,,,14.204017262
1715932778938134944,0.075,,,,14.21171163
1715932778945829312,0.075,,,,14.219405998
1715932778953523680,0.075,,,,14.227100366
1715932778961218048,0.075,,,,14.234794734
1715932778968912416,0.075,,,,14.242489102
1715932778976606784,0.073,,,,14.25018347
1715932778984301152,0.071,,,,14.257877838
1715932778991995520,0.071,,,,14.265572206
1715932778999689888,0.08,,,,14.273266574
1715932779007384256,0.101,,,,14.280960942
1715932779015078624,0.113,,,,14.28865531
1715932779022772992,0.101,,,,14.296349678
1715932779030467360,0.085,,,,14.304044046
1715932779038161728,0.08,,,,14.311738414
1715932779045856096,0.078,,,,14.319432782
1715932779053550464,0.073,,,,14.32712715
1715932779061244832,0.071,,,,14.334821518
1715932779068939200,0.071,,,,14.342515886
1715932779076633568,0.073,,,,14.350210254
1715932779084327936,0.073,,,,14.357904622
1715932779092022304,0.071,,,,14.36559899
1715932779099716672,0.063,,,,14.373293358
1715932779107411040,0.047,,,,14.380987726
1715932779115105408,0.08,,,,14.388682094
1715932779122799776,0.329,,,,14.396376462
1715932779130494144,0.795,,,,14.40407083
1715932779138188512,1.004,,,,14.411765198
1715932779145882880,0.532,,,,14.419459566
1715932779153577248,-0.078,,,,14.427153934
1715932779161271616,-0.106,,,,14.434848302
1715932779168965984,0.061,,,,14.44254267
1715932779176660352,-0.014,,,,14.450237038
1715932779184354720,-0.063,,,,14.457931406
1715932779192049088,0.0,,,,14.465625774
1715932779199743456,0.007,,,,14.473320142
1715932779207437824,-0.011,,,,14.48101451
1715932779215132192,0.009,,,,14.488708878
1715932779222826560,0.023,,,,14.496403246
1715932779230520928,0.018,,,,14.504097614
1715932779238215296,0.026,,,,14.511791982
1715932779245909664,0.037,,,,14.51948635
1715932779253604032,0.042,,,,14.527180718
1715932779261298400,0.047,,,,14.534875086
1715932779268992768,0.054,,,,14.542569454
1715932779276687136,0.061,,,,14.550263822
1715932779284381504,0.068,,,,14.55795819
1715932779292075872,0.075,,,,14.565652558
1715932779299770240,0.082,,,,14.573346926
1715932779307464608,0.092,,,,14.581041294
1715932779315158976,0.104,,,,14.588735662
1715932779322853344,0.113,,,,14.59643003
1715932779330547724,0.123,86.0,671.0,,14.60412441
1715932779338242510,0.134,,685.0,,14.611819196
1715932779345937296,0.139,,,,14.619513982
1715932779353632082,0.137,,,,14.627208768
1715932779361326868,0.132,,,,14.634903554
1715932779369021654,0.127,,,,14.64259834
1715932779376716440,0.12,,,,14.650293126
1715932779384411226,0.101,,,,14.657987912
1715932779392106012,0.08,,,,14.665682698
1715932779399800798,0.068,,,,14.673377484
1715932779407495584,0.061,,,,14.68107227
1715932779415190370,0.042,,,,14.688767056
1715932779422885156,0.033,,,,14.696461842
1715932779430579942,0.035,,,,14.704156628
1715932779438274728,0.037,,,,14.711851414
1715932779445969514,0.03,,,,14.7195462
1715932779453664300,0.028,,,,14.727240986
1715932779461359086,0.033,,,,14.734935772
1715932779469053872,0.033,,,,14.742630558
1715932779476748658,0.035,,,,14.750325344
1715932779484443444,0.042,,,,14.75802013
1715932779492138230,0.044,,,,14.765714916
1715932779499833016,0.044,,,,14.773409702
1715932779507527802,0.049,,,,14.781104488
1715932779515222588,0.059,,,,14.788799274
1715932779522917374,0.066,,,,14.79649406
1715932779530612160,0.073,,,,14.804188846
1715932779538306946,0.075,,,,14.811883632
1715932779546001732,0.073,,,,14.819578418
1715932779553696518,0.073,,,,14.827273204
1715932779561391304,0.078,,,,14.83496799
1715932779569086090,0.078,,,,14.842662776
1715932779576780876,0.08,,,,14.850357562
1715932779584475662,0.089,,,,14.858052348
1715932779592170448,0.089,,,,14.865747134
1715932779599865234,0.075,,,,14.87344192
1715932779607560020,0.066,,,,14.881136706
1715932779615254806,0.061,,,,14.888831492
1715932779622949592,0.052,,,,14.896526278
1715932779630644378,0.049,,,,14.904221064
1715932779638339164,0.054,,,,14.91191585
1715932779646033950,0.049,,,,14.919610636
1715932779653728736,0.049,,,,14.927305422
1715932779661423522,0.054,,,,14.935000208
1715932779669118308,0.052,,,,14.942694994
1715932779676813094,0.054,,,,14.95038978
1715932779684507880,0.061,,,,14.958084566
1715932779692202666,0.059,,,,14.965779352
1715932779699897452,0.056,,,,14.973474138
1715932779707592238,0.059,,,,14.981168924
1715932779715287024,0.061,,,,14.98886371
1715932779722981810,0.061,,,,14.996558496
1715932779730676596,0.056,,,,15.004253282
1715932779738371382,0.054,,,,15.011948068
1715932779746066168,0.052,,,,15.019642854
1715932779753760954,0.052,,,,15.02733764
1715932779761455740,0.052,,,,15.035032426
1715932779769150526,0.049,,,,15.042727212
1715932779776845312,0.042,,,,15.050421998
1715932779784540098,0.04,,,,15.058116784
1715932779792234884,0.044,,,,15.06581157
1715932779799929670,0.056,,,,15.073506356
1715932779807624456,0.073,,,,15.081201142
1715932779815319242,0.085,,,,15.088895928
1715932779823014028,0.073,,,,15.096590714
1715932779830708814,0.059,,,,15.1042855
1715932779838403600,0.056,,,,15.111980286
1715932779846098386,0.047,,,,15.119675072
1715932779853793172,0.042,,,,15.127369858
1715932779861487958,0.052,,,,15.135064644
1715932779869182744,0.052,,,,15.14275943
1715932779876877530,0.044,,,,15.150454216
1715932779884572316,0.052,,,,15.158149002
1715932779892267118,0.056,86.0,772.0,,15.165843804
1715932779899961486,0.049,,,,15.173538172
1715932779907655854,0.042,,,,15.18123254
1715932779915350222,0.082,,,,15.188926908
1715932779923044590,0.314,,,,15.196621276
1715932779930738958,0.743,,,,15.204315644
1715932779938433326,0.947,,,,15.212010012
1715932779946127694,0.525,,,,15.21970438
1715932779953822062,-0.059,,,,15.227398748
1715932779961516430,-0.118,,,,15.235093116
1715932779969210798,0.042,,,,15.242787484
1715932779976905166,-0.011,,,,15.250481852
1715932779984599534,-0.061,,,,15.25817622
1715932779992293902,-0.011,,,,15.265870588
1715932779999988270,-0.009,,,,15.273564956
1715932780007682638,-0.021,,,,15.281259324
1715932780015377006,0.007,,,,15.288953692
1715932780023071374,0.011,,,,15.29664806
1715932780030765742,0.004,,,,15.304342428
1715932780038460110,0.026,,,,15.312036796
1715932780046154478,0.035,,,,15.319731164
1715932780053848846,0.023,,,,15.327425532
1715932780061543214,0.033,,,,15.3351199
1715932780069237582,0.047,,,,15.342814268
1715932780076931950,0.049,,,,15.350508636
1715932780084626318,0.061,,,,15.358203004
1715932780092320686,0.073,,,,15.365897372
1715932780100015054,0.071,,,,15.37359174
1715932780107709422,0.08,,,,15.381286108
1715932780115403790,0.097,,,,15.388980476
1715932780123098158,0.099,,,,15.396674844
1715932780130792526,0.104,,,,15.404369212
1715932780138486894,0.116,,,,15.41206358
1715932780146181262,0.12,,,,15.419757948
1715932780153875630,0.123,,,,15.427452316
1715932780161569998,0.12,,,,15.435146684
1715932780169264366,0.116,,,,15.442841052
1715932780176958734,0.108,,,,15.45053542
1715932780184653102,0.099,,,,15.458229788
1715932780192347470,0.082,,,,15.465924156
1715932780200041838,0.063,,,,15.473618524
1715932780207736206,0.049,,,,15.481312892
1715932780215430574,0.04,,,,15.48900726
1715932780223124942,0.03,,,,15.496701628
1715932780230819310,0.021,,,,15.504395996
1715932780238513678,0.023,,,,15.512090364
1715932780246208046,0.03,,,,15.519784732
1715932780253902414,0.023,,,,15.5274791
1715932780261596782,0.014,,,,15.535173468
1715932780269291150,0.023,,,,15.542867836
1715932780276985518,0.028,,,,15.550562204
1715932780284679886,0.026,,,,15.558256572
1715932780292374254,0.026,,,,15.56595094
1715932780300068622,0.03,,,,15.573645308
1715932780307762990,0.044,,,,15.581339676
1715932780315457358,0.054,,,,15.589034044
1715932780323151726,0.049,,,,15.596728412
1715932780330846094,0.044,,,,15.60442278
1715932780338540462,0.052,,,,15.612117148
1715932780346234830,0.056,,,,15.619811516
1715932780353929198,0.056,,,,15.627505884
1715932780361623566,0.061,,,,15.635200252
1715932780369317934,0.059,,,,15.64289462
1715932780377012302,0.044,,,,15.650588988
1715932780384706670,0.044,,,,15.658283356
1715932780392401038,0.052,,,,15.665977724
1715932780400095406,0.052,,,,15.673672092
1715932780407789774,0.047,,,,15.68136646
1715932780415484142,0.04,,,,15.689060828
1715932780423178510,0.042,,,,15.696755196
1715932780430872878,0.04,,,,15.704449564
1715932780438567246,0.035,,,,15.712143932
1715932780446261614,0.04,,,,15.7198383
1715932780453955994,0.044,,,,15.72753268
1715932780461650362,0.04,,,,15.735227048
1715932780469344730,0.037,,,,15.742921416
1715932780477039098,0.04,,,,15.750615784
1715932780484733466,0.04,,,,15.758310152
1715932780492427834,0.037,,,,15.76600452
1715932780500122202,0.04,,,,15.773698888
1715932780507816570,0.037,,,,15.781393256
1715932780515510938,0.035,,,,15.789087624
1715932780523205306,0.04,,,,15.796781992
1715932780530899674,0.042,,,,15.80447636
1715932780538594042,0.037,,,,15.812170728
1715932780546288410,0.035,,,,15.819865096
1715932780553982778,0.052,,,,15.827559464
1715932780561677146,0.073,,,,15.835253832
1715932780569371514,0.078,,,,15.8429482
1715932780577065882,0.075,,,,15.850642568
1715932780584760250,0.075,,,,15.858336936
1715932780592454618,0.066,,,,15.866031304
1715932780600148986,0.056,,,,15.873725672
1715932780607843354,0.054,,,,15.88142004
1715932780615537722,0.052,,,,15.889114408
1715932780623232090,0.047,,,,15.896808776
1715932780630926458,0.047,,,,15.904503144
1715932780638620826,0.059,,,,15.912197512
1715932780646315194,0.063,,,,15.91989188
1715932780654009562,0.061,,,,15.927586248
1715932780661703930,0.063,,,,15.935280616
1715932780669398298,0.089,,,,15.942974984
1715932780677092666,0.279,,,,15.950669352
1715932780684787034,0.6980000000000001,,,,15.95836372
1715932780692481402,0.992,,,,15.966058088
1715932780700175770,0.663,,,,15.973752456
1715932780707870138,0.026,,,,15.981446824
1715932780715564506,-0.113,,,,15.989141192
1715932780723258874,0.068,,,,15.99683556
1715932780730953242,0.033,,,,16.004529928
1715932780738647610,-0.042,,,,16.012224296
1715932780746341978,0.009,,,,16.019918664
1715932780754036346,0.028,,,,16.027613032
1715932780761730714,0.009,,,,16.0353074
1715932780769425082,0.023,,,,16.043001768
1715932780777119450,0.04,,,,16.050696136
1715932780784813818,0.042,,,,16.058390504
1715932780792508186,0.047,,,,16.066084872
1715932780800202554,0.052,,,,16.07377924
1715932780807896922,0.056,,,,16.081473608
1715932780815591290,0.071,,,,16.089167976
1715932780823285658,0.075,,,,16.096862344
1715932780830980026,0.078,,,,16.104556712
1715932780838674394,0.087,,,,16.11225108
1715932780846368762,0.094,,,,16.119945448
1715932780854063130,0.094,,,,16.127639816
1715932780861757498,0.101,,,,16.135334184
1715932780869451866,0.118,,,,16.143028552
1715932780877146234,0.13,,,,16.15072292
1715932780884840602,0.137,,,,16.158417288
1715932780892534970,0.139,,,,16.166111656
1715932780900229338,0.146,,,,16.173806024
1715932780907923706,0.158,,,,16.181500392
1715932780915618074,0.158,,,,16.18919476
1715932780923312442,0.149,,,,16.196889128
1715932780931006810,0.142,,,,16.204583496
1715932780938701178,0.132,,,,16.212277864
1715932780946395546,0.113,,,,16.219972232
1715932780954089914,0.094,,,,16.2276666
1715932780961784282,0.082,,,,16.235360968
1715932780969478650,0.068,,,,16.243055336
1715932780977173018,0.052,,,,16.250749704
1715932780984867386,0.042,,,,16.258444072
1715932780992561754,0.042,,,,16.26613844
1715932781000256122,0.044,,,,16.273832808
1715932781007950490,0.042,,,,16.281527176
1715932781015644872,0.044,86.0,817.0,,16.289221558
1715932781023339658,0.049,,,,16.296916344
1715932781031034444,0.049,,,,16.30461113
1715932781038729230,0.052,,,,16.312305916
1715932781046424016,0.059,,,,16.320000702
1715932781054118802,0.066,,,,16.327695488
1715932781061813588,0.073,,,,16.335390274
1715932781069508374,0.073,,,,16.34308506
1715932781077203160,0.075,,,,16.350779846
1715932781084897946,0.08,,,,16.358474632
1715932781092592732,0.08,,,,16.366169418
1715932781100287518,0.075,,,,16.373864204
1715932781107982304,0.071,,,,16.38155899
1715932781115677090,0.071,,,,16.389253776
1715932781123371876,0.066,,,,16.396948562
1715932781131066662,0.059,,,,16.404643348
1715932781138761448,0.061,,,,16.412338134
1715932781146456234,0.063,,,,16.42003292
1715932781154151020,0.059,,,,16.427727706
1715932781161845806,0.054,,,,16.435422492
1715932781169540592,0.052,,,,16.443117278
1715932781177235378,0.059,,,,16.450812064
1715932781184930164,0.063,,,,16.45850685
1715932781192624950,0.061,,,,16.466201636
1715932781200319736,0.063,,,,16.473896422
1715932781208014522,0.068,,,,16.481591208
1715932781215709308,0.068,,,,16.489285994
1715932781223404094,0.071,,,,16.49698078
1715932781231098880,0.075,,,,16.504675566
1715932781238793666,0.078,,,,16.512370352
1715932781246488452,0.078,,,,16.520065138
1715932781254183238,0.075,,,,16.527759924
1715932781261878024,0.078,,,,16.53545471
1715932781269572810,0.085,,,,16.543149496
1715932781277267596,0.082,,,,16.550844282
1715932781284962382,0.078,,,,16.558539068
1715932781292657168,0.078,,,,16.566233854
1715932781300351954,0.08,,,,16.57392864
1715932781308046740,0.085,,,,16.581623426
1715932781315741526,0.106,,,,16.589318212
1715932781323436312,0.127,,,,16.597012998
1715932781331131098,0.125,,,,16.604707784
1715932781338825884,0.108,,,,16.61240257
1715932781346520670,0.097,,,,16.620097356
1715932781354215456,0.094,,,,16.627792142
1715932781361910242,0.099,,,,16.635486928
1715932781369605028,0.101,,,,16.643181714
1715932781377299814,0.104,,,,16.6508765
1715932781384994600,0.108,,,,16.658571286
1715932781392689386,0.108,,,,16.666266072
1715932781400384172,0.111,,,,16.673960858
1715932781408078958,0.116,,,,16.681655644
1715932781415773744,0.111,,,,16.68935043
1715932781423468530,0.208,,,,16.697045216
1715932781431163316,0.589,,,,16.704740002
1715932781438858102,1.044,,,,16.712434788
1715932781446552888,0.956,,,,16.720129574
1715932781454247674,0.284,,,,16.72782436
1715932781461942460,-0.113,,,,16.735519146
1715932781469637246,0.04,,,,16.743213932
1715932781477332032,0.111,,,,16.750908718
1715932781485026818,-0.002,,,,16.758603504
1715932781492721604,0.014,,,,16.76629829
1715932781500416390,0.068,,,,16.773993076
1715932781508111176,0.049,,,,16.781687862
1715932781515805962,0.044,,,,16.789382648
1715932781523500748,0.071,,,,16.797077434
1715932781531195534,0.073,,,,16.80477222
1715932781538890320,0.071,,,,16.812467006
1715932781546585106,0.08,,,,16.820161792
1715932781554279892,0.087,,,,16.827856578
1715932781561974678,0.094,,,,16.835551364
1715932781569669464,0.101,,,,16.84324615
1715932781577364266,0.104,,,,16.850940952
1715932781585058634,0.101,,,,16.85863532
1715932781592753002,0.106,,,,16.866329688
1715932781600447370,0.113,,,,16.874024056
1715932781608141738,0.12,,,,16.881718424
1715932781615836106,0.132,,,,16.889412792
1715932781623530474,0.142,,,,16.89710716
1715932781631224842,0.142,,,,16.904801528
1715932781638919210,0.146,,,,16.912495896
1715932781646613578,0.158,,,,16.920190264
1715932781654307946,0.168,,,,16.927884632
1715932781662002314,0.163,,,,16.935579
1715932781669696682,0.151,,,,16.943273368
1715932781677391050,0.142,,,,16.950967736
1715932781685085418,0.137,,,,16.958662104
1715932781692779786,0.127,,,,16.966356472
1715932781700474154,0.108,,,,16.97405084
1715932781708168522,0.094,,,,16.981745208
1715932781715862890,0.085,,,,16.989439576
1715932781723557258,0.071,,,,16.997133944
1715932781731251626,0.061,,,,17.004828312
1715932781738945994,0.059,,,,17.01252268
1715932781746640362,0.054,,,,17.020217048
1715932781754334730,0.054,,,,17.027911416
1715932781762029098,0.054,,,,17.035605784
1715932781769723466,0.054,,,,17.043300152
1715932781777417834,0.056,,,,17.05099452
1715932781785112202,0.061,,,,17.058688888
1715932781792806570,0.063,,,,17.066383256
1715932781800500938,0.071,,,,17.074077624
1715932781808195306,0.073,,,,17.081771992
1715932781815889674,0.075,,,,17.08946636
1715932781823584042,0.08,,,,17.097160728
1715932781831278410,0.087,,,,17.104855096
1715932781838972778,0.085,,,,17.112549464
1715932781846667146,0.085,,,,17.120243832
1715932781854361514,0.087,,,,17.1279382
1715932781862055882,0.085,,,,17.135632568
1715932781869750250,0.082,,,,17.143326936
1715932781877444618,0.082,,,,17.151021304
1715932781885138986,0.08,,,,17.158715672
1715932781892833354,0.08,,,,17.16641004
1715932781900527722,0.082,,,,17.174104408
1715932781908222090,0.078,,,,17.181798776
1715932781915916458,0.08,,,,17.189493144
1715932781923610826,0.082,,,,17.197187512
1715932781931305194,0.08,,,,17.20488188
1715932781938999562,0.078,,,,17.212576248
1715932781946693930,0.08,,,,17.220270616
1715932781954388298,0.082,,,,17.227964984
1715932781962082666,0.082,,,,17.235659352
1715932781969777034,0.08,,,,17.24335372
1715932781977471402,0.085,,,,17.251048088
1715932781985165770,0.087,,,,17.258742456
1715932781992860138,0.087,,,,17.266436824
1715932782000554506,0.085,,,,17.274131192
1715932782008248874,0.082,,,,17.28182556
1715932782015943242,0.089,,,,17.289519928
1715932782023637610,0.092,,,,17.297214296
1715932782031331978,0.092,,,,17.304908664
1715932782039026346,0.092,,,,17.312603032
1715932782046720714,0.089,,,,17.3202974
1715932782054415082,0.085,,,,17.327991768
1715932782062109450,0.085,,,,17.335686136
1715932782069803818,0.092,,,,17.343380504
1715932782077498186,0.099,,,,17.351074872
1715932782085192554,0.108,,,,17.35876924
1715932782092886922,0.12,,,,17.366463608
1715932782100581290,0.118,,,,17.374157976
1715932782108275658,0.104,,,,17.381852344
1715932782115970026,0.097,,,,17.389546712
1715932782123664394,0.097,,,,17.39724108
1715932782131358762,0.099,,,,17.404935448
1715932782139053142,0.092,85.0,801.0,,17.412629828
1715932782146747510,0.085,,,,17.420324196
1715932782154441878,0.092,,,,17.428018564
1715932782162136246,0.099,,,,17.435712932
1715932782169830614,0.101,,,,17.4434073
1715932782177524982,0.101,,,,17.451101668
1715932782185219350,0.097,,,,17.458796036
1715932782192913718,0.208,,,,17.466490404
1715932782200608086,0.599,,,,17.474184772
1715932782208302454,1.03,,,,17.48187914
1715932782215996822,0.899,,,,17.489573508
1715932782223691190,0.227,,,,17.497267876
1715932782231385558,-0.13,,,,17.504962244
1715932782239079926,0.028,,,,17.512656612
1715932782246774294,0.082,,,,17.52035098
1715932782254468662,-0.018,,,,17.528045348
1715932782262163030,0.007,,,,17.535739716
1715932782269857398,0.049,,,,17.543434084
1715932782277551766,0.023,,,,17.551128452
1715932782285246134,0.03,,,,17.55882282
1715932782292940502,0.054,,,,17.566517188
1715932782300634870,0.056,,,,17.574211556
1715932782308329238,0.056,,,,17.581905924
1715932782316023606,0.068,,,,17.589600292
1715932782323717974,0.071,,,,17.59729466
1715932782331412342,0.068,,,,17.604989028
1715932782339106710,0.073,,,,17.612683396
1715932782346801078,0.082,,,,17.620377764
1715932782354495446,0.089,,,,17.628072132
1715932782362189814,0.092,,,,17.6357665
1715932782369884182,0.101,,,,17.643460868
1715932782377578550,0.113,,,,17.651155236
1715932782385272918,0.12,,,,17.658849604
1715932782392967286,0.127,,,,17.666543972
1715932782400661654,0.139,,,,17.67423834
1715932782408356022,0.151,,,,17.681932708
1715932782416050390,0.153,,,,17.689627076
1715932782423744758,0.153,,,,17.697321444
1715932782431439126,0.156,,,,17.705015812
1715932782439133494,0.153,,,,17.71271018
1715932782446827862,0.142,,,,17.720404548
1715932782454522230,0.132,,,,17.728098916
1715932782462216598,0.125,,,,17.735793284
1715932782469910966,0.111,,,,17.743487652
1715932782477605334,0.094,,,,17.75118202
1715932782485299702,0.085,,,,17.758876388
1715932782492994070,0.08,,,,17.766570756
1715932782500688438,0.071,,,,17.774265124
1715932782508382806,0.059,,,,17.781959492
1715932782516077174,0.056,,,,17.78965386
1715932782523771542,0.061,,,,17.797348228
1715932782531465910,0.061,,,,17.805042596
1715932782539160278,0.061,,,,17.812736964
1715932782546854646,0.063,,,,17.820431332
1715932782554549014,0.061,,,,17.8281257
1715932782562243382,0.061,,,,17.835820068
1715932782569937750,0.063,,,,17.843514436
1715932782577632118,0.066,,,,17.851208804
1715932782585326486,0.071,,,,17.858903172
1715932782593020854,0.075,,,,17.86659754
1715932782600715222,0.078,,,,17.874291908
1715932782608409590,0.078,,,,17.881986276
1715932782616103958,0.085,,,,17.889680644
1715932782623798326,0.087,,,,17.897375012
1715932782631492694,0.087,,,,17.90506938
1715932782639187062,0.087,,,,17.912763748
1715932782646881430,0.082,,,,17.920458116
1715932782654575798,0.073,,,,17.928152484
1715932782662270166,0.073,,,,17.935846852
1715932782669964534,0.078,,,,17.94354122
1715932782677658902,0.073,,,,17.951235588
1715932782685353270,0.068,,,,17.958929956
1715932782693047638,0.063,,,,17.966624324
1715932782700742018,0.063,,,,17.974318704
1715932782708436386,0.066,,,,17.982013072
1715932782716130754,0.063,,,,17.98970744
1715932782723825122,0.063,,,,17.997401808
1715932782731519490,0.063,,,,18.005096176
1715932782739213858,0.063,,,,18.012790544
1715932782746908226,0.061,,,,18.020484912
1715932782754602594,0.066,,,,18.02817928
1715932782762296962,0.068,,,,18.035873648
1715932782769991330,0.061,,,,18.043568016
1715932782777685698,0.054,,,,18.051262384
1715932782785380066,0.054,,,,18.058956752
1715932782793074434,0.063,,,,18.06665112
1715932782800768802,0.071,,,,18.074345488
1715932782808463170,0.066,,,,18.082039856
1715932782816157538,0.061,,,,18.089734224
1715932782823851906,0.056,,,,18.097428592
1715932782831546274,0.049,,,,18.10512296
1715932782839240642,0.049,,,,18.112817328
1715932782846935010,0.052,,,,18.120511696
1715932782854629378,0.059,,,,18.128206064
1715932782862323746,0.082,,,,18.135900432
1715932782870018114,0.101,,,,18.1435948
1715932782877712482,0.099,,,,18.151289168
1715932782885406850,0.087,,,,18.158983536
1715932782893101218,0.075,,,,18.166677904
1715932782900795586,0.073,,,,18.174372272
1715932782908489954,0.078,,,,18.18206664
1715932782916184322,0.085,,,,18.189761008
1715932782923878690,0.085,,,,18.197455376
1715932782931573058,0.082,,,,18.205149744
1715932782939267426,0.089,,,,18.212844112
1715932782946961794,0.092,,,,18.22053848
1715932782954656162,0.089,,,,18.228232848
1715932782962350530,0.089,,,,18.235927216
1715932782970044898,0.158,,,,18.243621584
1715932782977739266,0.447,,,,18.251315952
1715932782985433634,0.89,,,,18.25901032
1715932782993128002,0.968,,,,18.266704688
1715932783000822370,0.404,,,,18.274399056
1715932783008516738,-0.097,,,,18.282093424
1715932783016211106,-0.028,,,,18.289787792
1715932783023905474,0.094,,,,18.29748216
1715932783031599842,0.002,,,,18.305176528
1715932783039294210,-0.009,,,,18.312870896
1715932783046988578,0.044,,,,18.320565264
1715932783054682946,0.028,,,,18.328259632
1715932783062377314,0.018,,,,18.335954
1715932783070071682,0.04,,,,18.343648368
1715932783077766050,0.037,,,,18.351342736
1715932783085460418,0.035,,,,18.359037104
1715932783093154786,0.052,,,,18.366731472
1715932783100849154,0.059,,,,18.37442584
1715932783108543522,0.059,,,,18.382120208
1715932783116237890,0.061,,,,18.389814576
1715932783123932258,0.071,,,,18.397508944
1715932783131626626,0.082,,,,18.405203312
1715932783139320994,0.082,,,,18.41289768
1715932783147015362,0.08,,,,18.420592048
1715932783154709730,0.085,,,,18.428286416
1715932783162404098,0.092,,,,18.435980784
1715932783170098466,0.101,,,,18.443675152
1715932783177792834,0.116,,,,18.45136952
1715932783185487202,0.12,,,,18.459063888
1715932783193181570,0.125,,,,18.466758256
1715932783200875938,0.139,,,,18.474452624
1715932783208570306,0.139,,,,18.482146992
1715932783216264674,0.123,,,,18.48984136
1715932783223959042,0.116,,,,18.497535728
1715932783231653410,0.113,,,,18.505230096
1715932783239347778,0.099,,,,18.512924464
1715932783247042146,0.085,,,,18.520618832
1715932783254736514,0.073,,,,18.5283132
1715932783262430894,0.059,83.0,755.0,,18.53600758
1715932783270125262,0.047,,749.0,,18.543701948
1715932783277819630,0.037,,,,18.551396316
1715932783285513998,0.026,,,,18.559090684
1715932783293208366,0.021,,,,18.566785052
1715932783300902734,0.021,,,,18.57447942
1715932783308597102,0.023,,,,18.582173788
1715932783316291470,0.021,,,,18.589868156
1715932783323985838,0.016,,,,18.597562524
1715932783331680206,0.026,,,,18.605256892
1715932783339374574,0.035,,,,18.61295126
1715932783347068942,0.021,,,,18.620645628
1715932783354763310,0.014,,,,18.628339996
1715932783362457678,0.035,,,,18.636034364
1715932783370152046,0.042,,,,18.643728732
1715932783377846414,0.033,,,,18.6514231
1715932783385540782,0.03,,,,18.659117468
1715932783393235150,0.037,,,,18.666811836
1715932783400929518,0.042,,,,18.674506204
1715932783408623886,0.044,,,,18.682200572
1715932783416318254,0.042,,,,18.68989494
1715932783424012622,0.042,,,,18.697589308
1715932783431706990,0.042,,,,18.705283676
1715932783439401358,0.042,,,,18.712978044
1715932783447095726,0.047,,,,18.720672412
1715932783454790094,0.044,,,,18.72836678
1715932783462484462,0.04,,,,18.736061148
1715932783470178830,0.047,,,,18.743755516
1715932783477873198,0.047,,,,18.751449884
1715932783485567566,0.04,,,,18.759144252
1715932783493261934,0.035,,,,18.76683862
1715932783500956302,0.033,,,,18.774532988
1715932783508650670,0.028,,,,18.782227356
1715932783516345038,0.035,,,,18.789921724
1715932783524039406,0.04,,,,18.797616092
1715932783531733774,0.035,,,,18.80531046
1715932783539428142,0.037,,,,18.813004828
1715932783547122510,0.042,,,,18.820699196
1715932783554816878,0.04,,,,18.828393564
1715932783562511246,0.028,,,,18.836087932
1715932783570205614,0.03,,,,18.8437823
1715932783577899982,0.04,,,,18.851476668
1715932783585594350,0.033,,,,18.859171036
1715932783593288718,0.028,,,,18.866865404
1715932783600983086,0.042,,,,18.874559772
1715932783608677454,0.059,,,,18.88225414
1715932783616371822,0.078,,,,18.889948508
1715932783624066190,0.075,,,,18.897642876
1715932783631760558,0.054,,,,18.905337244
1715932783639454926,0.042,,,,18.913031612
1715932783647149294,0.049,,,,18.92072598
1715932783654843662,0.052,,,,18.928420348
1715932783662538030,0.037,,,,18.936114716
1715932783670232398,0.042,,,,18.943809084
1715932783677926766,0.054,,,,18.951503452
1715932783685621134,0.049,,,,18.95919782
1715932783693315502,0.054,,,,18.966892188
1715932783701009870,0.063,,,,18.974586556
1715932783708704238,0.063,,,,18.982280924
1715932783716398606,0.17,,,,18.989975292
1715932783724092974,0.52,,,,18.99766966
1715932783731787342,0.904,,,,19.005364028
1715932783739481710,0.793,,,,19.013058396
1715932783747176078,0.187,,,,19.020752764
1715932783754870446,-0.142,,,,19.028447132
1715932783762564814,0.009,,,,19.0361415
1715932783770259182,0.059,,,,19.043835868
1715932783777953550,-0.035,,,,19.051530236
1715932783785647918,-0.014,,,,19.059224604
1715932783793342286,0.033,,,,19.066918972
1715932783801036654,0.009,,,,19.07461334
1715932783808731022,-0.002,,,,19.082307708
1715932783816425390,0.023,,,,19.090002076
1715932783824119772,0.04,82.0,769.0,,19.097696458
1715932783831814488,0.035,,,,19.105391174
1715932783839509204,0.033,,,,19.11308589
1715932783847203920,0.044,,,,19.120780606
1715932783854898636,0.054,,,,19.128475322
1715932783862593352,0.061,,,,19.136170038
1715932783870288068,0.071,,,,19.143864754
1715932783877982784,0.082,,,,19.15155947
1715932783885677500,0.08,,,,19.159254186
1715932783893372216,0.075,,,,19.166948902
1715932783901066932,0.092,,,,19.174643618
1715932783908761648,0.111,,,,19.182338334
1715932783916456364,0.116,,,,19.19003305
1715932783924151080,0.116,,,,19.197727766
1715932783931845796,0.13,,,,19.205422482
1715932783939540512,0.139,,,,19.213117198
1715932783947235228,0.139,,,,19.220811914
1715932783954929944,0.137,,,,19.22850663
1715932783962624660,0.139,,,,19.236201346
1715932783970319376,0.134,,,,19.243896062
1715932783978014092,0.12,,,,19.251590778
1715932783985708808,0.104,,,,19.259285494
1715932783993403524,0.094,,,,19.26698021
1715932784001098240,0.089,,,,19.274674926
1715932784008792956,0.071,,,,19.282369642
1715932784016487672,0.054,,,,19.290064358
1715932784024182388,0.054,,,,19.297759074
1715932784031877104,0.054,,,,19.30545379
1715932784039571820,0.047,,,,19.313148506
1715932784047266536,0.04,,,,19.320843222
1715932784054961252,0.04,,,,19.328537938
1715932784062655968,0.047,,,,19.336232654
1715932784070350684,0.054,,,,19.34392737
1715932784078045400,0.059,,,,19.351622086
1715932784085740116,0.061,,,,19.359316802
1715932784093434832,0.068,,,,19.367011518
1715932784101129548,0.078,,,,19.374706234
1715932784108824264,0.078,,,,19.38240095
1715932784116518980,0.078,,,,19.390095666
1715932784124213696,0.078,,,,19.397790382
1715932784131908412,0.08,,,,19.405485098
1715932784139603128,0.082,,,,19.413179814
1715932784147297844,0.085,,,,19.42087453
1715932784154992560,0.085,,,,19.428569246
1715932784162687276,0.078,,,,19.436263962
1715932784170381992,0.073,,,,19.443958678
1715932784178076708,0.075,,,,19.451653394
1715932784185771424,0.078,,,,19.45934811
1715932784193466140,0.08,,,,19.467042826
1715932784201160856,0.082,,,,19.474737542
1715932784208855572,0.087,,,,19.482432258
1715932784216550288,0.087,,,,19.490126974
1715932784224245004,0.082,,,,19.49782169
1715932784231939720,0.078,,,,19.505516406
1715932784239634436,0.08,,,,19.513211122
1715932784247329152,0.082,,,,19.520905838
1715932784255023868,0.078,,,,19.528600554
1715932784262718584,0.073,,,,19.53629527
1715932784270413300,0.075,,,,19.543989986
1715932784278108016,0.078,,,,19.551684702
1715932784285802732,0.078,,,,19.559379418
1715932784293497448,0.078,,,,19.567074134
1715932784301192164,0.073,,,,19.57476885
1715932784308886880,0.063,,,,19.582463566
1715932784316581596,0.061,,,,19.590158282
1715932784324276312,0.073,,,,19.597852998
1715932784331971028,0.092,,,,19.605547714
1715932784339665744,0.111,,,,19.61324243
1715932784347360460,0.113,,,,19.620937146
1715932784355055176,0.097,,,,19.628631862
1715932784362749892,0.085,,,,19.636326578
1715932784370444608,0.085,,,,19.644021294
1715932784378139324,0.089,,,,19.65171601
1715932784385834080,0.094,,,,19.659410766
1715932784393528517,0.094,,,,19.667105203
1715932784401222954,0.097,,,,19.67479964
1715932784408917391,0.099,,,,19.682494077
1715932784416611828,0.104,,,,19.690188514
1715932784424306265,0.108,,,,19.697882951
1715932784432000702,0.104,,,,19.705577388
1715932784439695139,0.165,,,,19.713271825
1715932784447389576,0.478,,,,19.720966262
1715932784455084013,0.925,,,,19.728660699
1715932784462778450,0.94,,,,19.736355136
1715932784470472887,0.336,,,,19.744049573
1715932784478167324,-0.111,,,,19.75174401
1715932784485861761,0.002,,,,19.759438447
1715932784493556198,0.101,,,,19.767132884
1715932784501250635,-0.002,,,,19.774827321
1715932784508945072,-0.002,,,,19.782521758
1715932784516639509,0.054,,,,19.790216195
1715932784524333946,0.037,,,,19.797910632
1715932784532028383,0.033,,,,19.805605069
1715932784539722820,0.056,,,,19.813299506
1715932784547417257,0.056,,,,19.820993943
1715932784555111694,0.054,,,,19.82868838
1715932784562806131,0.068,,,,19.836382817
1715932784570500568,0.075,,,,19.844077254
1715932784578195005,0.073,,,,19.851771691
1715932784585889442,0.075,,,,19.859466128
1715932784593583879,0.085,,,,19.867160565
1715932784601278316,0.092,,,,19.874855002
1715932784608972753,0.097,,,,19.882549439
1715932784616667190,0.106,,,,19.890243876
1715932784624361627,0.118,,,,19.897938313
1715932784632056064,0.125,,,,19.90563275
1715932784639750501,0.132,,,,19.913327187
1715932784647444938,0.146,,,,19.921021624
1715932784655139375,0.156,,,,19.928716061
1715932784662833812,0.153,,,,19.936410498
1715932784670528249,0.146,,,,19.944104935
1715932784678222686,0.146,,,,19.951799372
1715932784685917123,0.146,,,,19.959493809
1715932784693611560,0.137,,,,19.967188246
1715932784701305997,0.127,,,,19.974882683
1715932784709000434,0.118,,,,19.98257712
1715932784716694871,0.108,,,,19.990271557
1715932784724389308,0.092,,,,19.997965994
1715932784732083745,0.078,,,,20.005660431
1715932784739778182,0.071,,,,20.013354868
1715932784747472619,0.068,,,,20.021049305
1715932784755167056,0.061,,,,20.028743742
1715932784762861493,0.059,,,,20.036438179
1715932784770555930,0.061,,,,20.044132616
1715932784778250367,0.063,,,,20.051827053
1715932784785944804,0.066,,,,20.05952149
1715932784793639241,0.063,,,,20.067215927
1715932784801333678,0.068,,,,20.074910364
1715932784809028115,0.073,,,,20.082604801
1715932784816722552,0.073,,,,20.090299238
1715932784824416989,0.075,,,,20.097993675
1715932784832111426,0.082,,,,20.105688112
1715932784839805863,0.092,,,,20.113382549
1715932784847500300,0.092,,,,20.121076986
1715932784855194737,0.089,,,,20.128771423
1715932784862889174,0.089,,,,20.13646586
1715932784870583611,0.089,,,,20.144160297
1715932784878278048,0.092,,,,20.151854734
1715932784885972485,0.094,,,,20.159549171
1715932784893666922,0.097,,,,20.167243608
1715932784901361359,0.097,,,,20.174938045
1715932784909055796,0.092,,,,20.182632482
1715932784916750233,0.092,,,,20.190326919
1715932784924444670,0.097,,,,20.198021356
1715932784932139107,0.097,,,,20.205715793
1715932784939833544,0.092,,,,20.21341023
1715932784947528042,0.092,82.0,779.0,,20.221104728
1715932784955222410,0.094,,,,20.228799096
1715932784962916778,0.094,,,,20.236493464
1715932784970611146,0.092,,,,20.244187832
1715932784978305514,0.094,,,,20.2518822
1715932784985999882,0.097,,,,20.259576568
1715932784993694250,0.092,,,,20.267270936
1715932785001388618,0.087,,,,20.274965304
1715932785009082986,0.085,,,,20.282659672
1715932785016777354,0.087,,,,20.29035404
1715932785024471722,0.08,,,,20.298048408
1715932785032166090,0.066,,,,20.305742776
1715932785039860458,0.059,,,,20.313437144
1715932785047554826,0.063,,,,20.321131512
1715932785055249194,0.073,,,,20.32882588
1715932785062943562,0.087,,,,20.336520248
1715932785070637930,0.106,,,,20.344214616
1715932785078332298,0.108,,,,20.351908984
1715932785086026666,0.092,,,,20.359603352
1715932785093721034,0.08,,,,20.36729772
1715932785101415402,0.085,,,,20.374992088
1715932785109109770,0.089,,,,20.382686456
1715932785116804138,0.087,,,,20.390380824
1715932785124498506,0.092,,,,20.398075192
1715932785132192874,0.097,,,,20.40576956
1715932785139887242,0.097,,,,20.413463928
1715932785147581610,0.104,,,,20.421158296
1715932785155275978,0.111,,,,20.428852664
1715932785162970346,0.108,,,,20.436547032
1715932785170664714,0.21,,,,20.4442414
1715932785178359082,0.589,,,,20.451935768
1715932785186053450,1.008,,,,20.459630136
1715932785193747818,0.864,,,,20.467324504
1715932785201442186,0.201,,,,20.475018872
1715932785209136554,-0.123,,,,20.48271324
1715932785216830922,0.047,,,,20.490407608
1715932785224525290,0.089,,,,20.498101976
1715932785232219658,-0.014,,,,20.505796344
1715932785239914026,0.016,,,,20.513490712
1715932785247608394,0.059,,,,20.52118508
1715932785255302762,0.037,,,,20.528879448
1715932785262997130,0.044,,,,20.536573816
1715932785270691498,0.068,,,,20.544268184
1715932785278385866,0.068,,,,20.551962552
1715932785286080234,0.063,,,,20.55965692
1715932785293774602,0.071,,,,20.567351288
1715932785301468970,0.08,,,,20.575045656
1715932785309163338,0.087,,,,20.582740024
1715932785316857706,0.092,,,,20.590434392
1715932785324552074,0.094,,,,20.59812876
1715932785332246442,0.099,,,,20.605823128
1715932785339940810,0.111,,,,20.613517496
1715932785347635178,0.12,,,,20.621211864
1715932785355329546,0.127,,,,20.628906232
1715932785363023914,0.132,,,,20.6366006
1715932785370718282,0.146,,,,20.644294968
1715932785378412650,0.161,,,,20.651989336
1715932785386107018,0.165,,,,20.659683704
1715932785393801386,0.165,,,,20.667378072
1715932785401495754,0.172,,,,20.67507244
1715932785409190122,0.172,,,,20.682766808
1715932785416884490,0.163,,,,20.690461176
1715932785424578858,0.151,,,,20.698155544
1715932785432273226,0.144,,,,20.705849912
1715932785439967594,0.134,,,,20.71354428
1715932785447661962,0.12,,,,20.721238648
1715932785455356330,0.104,,,,20.728933016
1715932785463050698,0.094,,,,20.736627384
1715932785470745066,0.092,,,,20.744321752
1715932785478439434,0.085,,,,20.75201612
1715932785486133802,0.078,,,,20.759710488
1715932785493828170,0.075,,,,20.767404856
1715932785501522538,0.075,,,,20.775099224
1715932785509216918,0.078,,,,20.782793604
1715932785516911425,0.078,,,,20.790488111
1715932785524605932,0.078,,,,20.798182618
1715932785532300439,0.08,,,,20.805877125
1715932785539994946,0.082,,,,20.813571632
1715932785547689453,0.082,,,,20.821266139
1715932785555383960,0.092,,,,20.828960646
1715932785563078467,0.099,,,,20.836655153
1715932785570772974,0.089,,,,20.84434966
1715932785578467481,0.092,,,,20.852044167
1715932785586161988,0.101,,,,20.859738674
1715932785593856495,0.101,,,,20.867433181
1715932785601551002,0.097,,,,20.875127688
1715932785609245509,0.104,,,,20.882822195
1715932785616940016,0.111,,,,20.890516702
1715932785624634523,0.106,,,,20.898211209
1715932785632329030,0.094,,,,20.905905716
1715932785640023537,0.097,,,,20.913600223
1715932785647718044,0.101,,,,20.92129473
1715932785655412551,0.097,,,,20.928989237
1715932785663107058,0.097,,,,20.936683744
1715932785670801565,0.101,,,,20.944378251
1715932785678496072,0.097,,,,20.952072758
1715932785686190579,0.082,,,,20.959767265
1715932785693885086,0.078,,,,20.967461772
1715932785701579593,0.082,,,,20.975156279
1715932785709274100,0.085,,,,20.982850786
1715932785716968607,0.087,,,,20.990545293
1715932785724663114,0.092,,,,20.9982398
1715932785732357621,0.092,,,,21.005934307
1715932785740052128,0.089,,,,21.013628814
1715932785747746635,0.085,,,,21.021323321
1715932785755441142,0.082,,,,21.029017828
1715932785763135649,0.08,,,,21.036712335
1715932785770830156,0.073,,,,21.044406842
1715932785778524663,0.071,,,,21.052101349
1715932785786219170,0.085,,,,21.059795856
1715932785793913677,0.111,,,,21.067490363
1715932785801608184,0.116,,,,21.07518487
1715932785809302691,0.094,,,,21.082879377
1715932785816997198,0.082,,,,21.090573884
1715932785824691705,0.082,,,,21.098268391
1715932785832386212,0.08,,,,21.105962898
1715932785840080719,0.082,,,,21.113657405
1715932785847775226,0.087,,,,21.121351912
1715932785855469733,0.089,,,,21.129046419
1715932785863164240,0.092,,,,21.136740926
1715932785870858747,0.092,,,,21.144435433
1715932785878553254,0.097,,,,21.15212994
1715932785886247761,0.094,,,,21.159824447
1715932785893942268,0.139,,,,21.167518954
1715932785901636775,0.404,,,,21.175213461
1715932785909331282,0.85,,,,21.182907968
1715932785917025789,0.963,,,,21.190602475
1715932785924720296,0.431,,,,21.198296982
1715932785932414803,-0.085,,,,21.205991489
1715932785940109310,-0.028,,,,21.213685996
1715932785947803817,0.104,,,,21.221380503
1715932785955498324,0.016,,,,21.22907501
1715932785963192831,-0.007,,,,21.236769517
1715932785970887338,0.035,,,,21.244464024
1715932785978581845,0.026,,,,21.252158531
1715932785986276352,0.023,,,,21.259853038
1715932785993970859,0.047,,,,21.267547545
1715932786001665366,0.049,,,,21.275242052
1715932786009359873,0.047,,,,21.282936559
1715932786017054380,0.061,,,,21.290631066
1715932786024748887,0.061,,,,21.298325573
1715932786032443394,0.054,,,,21.30602008
1715932786040137901,0.063,,,,21.313714587
1715932786047832408,0.068,,,,21.321409094
1715932786055526915,0.063,,,,21.329103601
1715932786063221422,0.073,,,,21.336798108
1715932786070915968,0.089,81.0,744.0,,21.344492654
1715932786078610614,0.099,,725.0,,21.3521873
1715932786086305260,0.106,,,,21.359881946
1715932786093999906,0.116,,,,21.367576592
1715932786101694552,0.118,,,,21.375271238
1715932786109389198,0.116,,,,21.382965884
1715932786117083844,0.123,,,,21.39066053
1715932786124778490,0.132,,,,21.398355176
1715932786132473136,0.134,,,,21.406049822
1715932786140167782,0.13,,,,21.413744468
1715932786147862428,0.113,,,,21.421439114
1715932786155557074,0.094,,,,21.42913376
1715932786163251720,0.092,,,,21.436828406
1715932786170946366,0.087,,,,21.444523052
1715932786178641012,0.061,,,,21.452217698
1715932786186335658,0.033,,,,21.459912344
1715932786194030304,0.026,,,,21.46760699
1715932786201724950,0.026,,,,21.475301636
1715932786209419596,0.016,,,,21.482996282
1715932786217114242,0.014,,,,21.490690928
1715932786224808888,0.016,,,,21.498385574
1715932786232503534,0.016,,,,21.50608022
1715932786240198180,0.018,,,,21.513774866
1715932786247892826,0.023,,,,21.521469512
1715932786255587472,0.023,,,,21.529164158
1715932786263282118,0.023,,,,21.536858804
1715932786270976764,0.028,,,,21.54455345
1715932786278671410,0.033,,,,21.552248096
1715932786286366056,0.04,,,,21.559942742
1715932786294060702,0.04,,,,21.567637388
1715932786301755348,0.044,,,,21.575332034
1715932786309449994,0.049,,,,21.58302668
1715932786317144640,0.047,,,,21.590721326
1715932786324839286,0.04,,,,21.598415972
1715932786332533932,0.042,,,,21.606110618
1715932786340228578,0.049,,,,21.613805264
1715932786347923224,0.052,,,,21.62149991
1715932786355617870,0.049,,,,21.629194556
1715932786363312516,0.042,,,,21.636889202
1715932786371007162,0.044,,,,21.644583848
1715932786378701808,0.054,,,,21.652278494
1715932786386396454,0.047,,,,21.65997314
1715932786394091100,0.04,,,,21.667667786
1715932786401785746,0.044,,,,21.675362432
1715932786409480392,0.037,,,,21.683057078
1715932786417175038,0.035,,,,21.690751724
1715932786424869684,0.04,,,,21.69844637
1715932786432564330,0.033,,,,21.706141016
1715932786440258976,0.03,,,,21.713835662
1715932786447953622,0.037,,,,21.721530308
1715932786455648268,0.035,,,,21.729224954
1715932786463342914,0.033,,,,21.7369196
1715932786471037560,0.04,,,,21.744614246
1715932786478732206,0.04,,,,21.752308892
1715932786486426852,0.028,,,,21.760003538
1715932786494121498,0.023,,,,21.767698184
1715932786501816144,0.037,,,,21.77539283
1715932786509510790,0.066,,,,21.783087476
1715932786517205436,0.078,,,,21.790782122
1715932786524900082,0.056,,,,21.798476768
1715932786532594728,0.033,,,,21.806171414
1715932786540289374,0.03,,,,21.81386606
1715932786547984020,0.03,,,,21.821560706
1715932786555678666,0.028,,,,21.829255352
1715932786563373312,0.03,,,,21.836949998
1715932786571067958,0.035,,,,21.844644644
1715932786578762604,0.035,,,,21.85233929
1715932786586457250,0.03,,,,21.860033936
1715932786594151896,0.042,,,,21.867728582
1715932786601846542,0.052,,,,21.875423228
1715932786609541188,0.066,,,,21.883117874
1715932786617235834,0.236,,,,21.89081252
1715932786624930480,0.632,,,,21.898507166
1715932786632625188,0.892,,,,21.906201874
1715932786640319556,0.556,,,,21.913896242
1715932786648013924,-0.026,,,,21.92159061
1715932786655708292,-0.13,,,,21.929284978
1715932786663402660,0.04,,,,21.936979346
1715932786671097028,0.004,,,,21.944673714
1715932786678791396,-0.066,,,,21.952368082
1715932786686485764,-0.028,,,,21.96006245
1715932786694180132,-0.018,,,,21.967756818
1715932786701874500,-0.037,,,,21.975451186
1715932786709568868,-0.021,,,,21.983145554
1715932786717263236,-0.011,,,,21.990839922
1715932786724957604,-0.007,,,,21.99853429
1715932786732651972,0.011,,,,22.006228658
1715932786740346340,0.016,,,,22.013923026
1715932786748040708,0.011,,,,22.021617394
1715932786755735076,0.023,,,,22.029311762
1715932786763429444,0.033,,,,22.03700613
1715932786771123812,0.035,,,,22.044700498
1715932786778818180,0.04,,,,22.052394866
1715932786786512548,0.054,,,,22.060089234
1715932786794206916,0.066,,,,22.067783602
1715932786801901284,0.075,,,,22.07547797
1715932786809595652,0.089,,,,22.083172338
1715932786817290020,0.101,,,,22.090866706
1715932786824984388,0.106,,,,22.098561074
1715932786832678756,0.116,,,,22.106255442
1715932786840373124,0.13,,,,22.11394981
1715932786848067492,0.127,,,,22.121644178
1715932786855761860,0.108,,,,22.129338546
1715932786863456228,0.101,,,,22.137032914
1715932786871150596,0.104,,,,22.144727282
1715932786878844964,0.097,,,,22.15242165
1715932786886539332,0.08,,,,22.160116018
1715932786894233700,0.056,,,,22.167810386
1715932786901928068,0.044,,,,22.175504754
1715932786909622436,0.037,,,,22.183199122
1715932786917316804,0.035,,,,22.19089349
1715932786925011172,0.026,,,,22.198587858
1715932786932705540,0.016,,,,22.206282226
1715932786940399908,0.018,,,,22.213976594
1715932786948094276,0.028,,,,22.221670962
1715932786955788644,0.03,,,,22.22936533
1715932786963483012,0.028,,,,22.237059698
1715932786971177380,0.028,,,,22.244754066
1715932786978871748,0.042,,,,22.252448434
1715932786986566116,0.049,,,,22.260142802
1715932786994260484,0.052,,,,22.26783717
1715932787001954852,0.063,,,,22.275531538
