HRV_ULF,HRV_VLF,HRV_LF,HRV_HF,HRV_VHF,HRV_TP,HRV_LFHF,HRV_LFn,HRV_HFn,HRV_LnHF,time
,,0.0214962850690526,0.019088276610090014,0.00012868543644834976,0.04071324711559097,1.1261511716405932,0.5279924003119045,0.46884682412816536,-3.9586809224234223,0.0
,,0.0214962850690526,0.019088276610090014,0.00012868543644834976,0.04071324711559097,1.1261511716405932,0.5279924003119045,0.46884682412816536,-3.9586809224234223,0.1
,,0.0214962850690526,0.019088276610090014,0.00012868543644834976,0.04071324711559097,1.1261511716405932,0.5279924003119045,0.46884682412816536,-3.9586809224234223,0.2
,,0.0214962850690526,0.019088276610090014,0.00012868543644834976,0.04071324711559097,1.1261511716405932,0.5279924003119045,0.46884682412816536,-3.9586809224234223,0.3
,,0.02816614443203997,0.020321342063076755,0.00018742352884513415,0.048674910023961855,1.1781284597744577,0.5786583769374045,0.4174911068777096,-3.8960836120415663,0.4
,,0.0409968488427175,0.028111051372366278,0.0001784986139705257,0.06928639882905431,1.2248385542161502,0.5917012506865349,0.4057225061115211,-3.571592492686784,0.5
,,0.0409968488427175,0.028111051372366278,0.0001784986139705257,0.06928639882905431,1.2582029073887875,0.5917012506865349,0.4057225061115211,-3.571592492686784,0.6
,,0.0409968488427175,0.028111051372366278,0.0001784986139705257,0.06928639882905431,1.2832261722682654,0.5917012506865349,0.4057225061115211,-3.571592492686784,0.7
,,0.0409968488427175,0.028111051372366278,0.0001784986139705257,0.06928639882905431,1.3026887116189707,0.5917012506865349,0.4057225061115211,-3.571592492686784,0.8
,,0.0409968488427175,0.028111051372366278,0.0001784986139705257,0.06928639882905431,1.3182587430995347,0.5917012506865349,0.4057225061115211,-3.571592492686784,0.9
,,0.0409968488427175,0.028111051372366278,0.0001784986139705257,0.06928639882905431,1.3309978597654508,0.5917012506865349,0.4057225061115211,-3.571592492686784,1.0
,,0.0409968488427175,0.028111051372366278,0.0001784986139705257,0.06928639882905431,1.341613790320381,0.5917012506865349,0.4057225061115211,-3.571592492686784,1.1
,,0.02900458408487465,0.021023583291470912,0.00018666856409831615,0.05021483594044388,1.3445374477417782,0.577609854571164,0.4186727467636345,-3.862110457487531,1.2
,,0.022709789156834706,0.020962200697896564,0.0001381297690424118,0.04381011962377368,1.3258825270944865,0.5183685721896815,0.478478508570914,-3.8650344299122454,1.3
,,0.022709789156834706,0.020962200697896564,0.0001381297690424118,0.04381011962377368,1.3097149292001673,0.5183685721896815,0.478478508570914,-3.8650344299122454,1.4
,,0.022709789156834706,0.020962200697896564,0.0001381297690424118,0.04381011962377368,1.2955682810426377,0.5183685721896815,0.478478508570914,-3.8650344299122454,1.5
,,0.022709789156834706,0.020962200697896564,0.0001381297690424118,0.04381011962377368,1.2830859444330527,0.5183685721896815,0.478478508570914,-3.8650344299122454,1.6
,,0.022709789156834706,0.020962200697896564,0.0001381297690424118,0.04381011962377368,1.271990534113422,0.5183685721896815,0.478478508570914,-3.8650344299122454,1.7
,,0.022709789156834706,0.020962200697896564,0.0001381297690424118,0.04381011962377368,1.262063061722173,0.5183685721896815,0.478478508570914,-3.8650344299122454,1.8
,,0.022709789156834706,0.020962200697896564,0.0001381297690424118,0.04381011962377368,1.2531283365700492,0.5183685721896815,0.478478508570914,-3.8650344299122454,1.9
,,0.022709789156834706,0.020962200697896564,0.0001381297690424118,0.04381011962377368,1.2450445376228896,0.5183685721896815,0.478478508570914,-3.8650344299122454,2.0
,,0.022709789156834706,0.020962200697896564,0.0001381297690424118,0.04381011962377368,1.237695629489108,0.5183685721896815,0.478478508570914,-3.8650344299122454,2.1
,,0.03170934441734404,0.02305497645523034,0.00014210329190856338,0.05490642416448294,1.243681889307253,0.5775161085404595,0.4198957919052358,-3.769873634567523,2.2
,,0.03170934441734404,0.02305497645523034,0.00014210329190856338,0.05490642416448294,1.2491692941405526,0.5775161085404595,0.4198957919052358,-3.769873634567523,2.3
,,0.03170934441734404,0.02305497645523034,0.00014210329190856338,0.05490642416448294,1.2542177065871882,0.5775161085404595,0.4198957919052358,-3.769873634567523,2.4
,,0.03170934441734404,0.02305497645523034,0.00014210329190856338,0.05490642416448294,1.2588777796148518,0.5775161085404595,0.4198957919052358,-3.769873634567523,2.5
,,0.03170934441734404,0.02305497645523034,0.00014210329190856338,0.05490642416448294,1.2631926620478737,0.5775161085404595,0.4198957919052358,-3.769873634567523,2.6
,,0.03170934441734404,0.02305497645523034,0.00014210329190856338,0.05490642416448294,1.2671993385928226,0.5775161085404595,0.4198957919052358,-3.769873634567523,2.7
,,0.03170934441734404,0.02305497645523034,0.00014210329190856338,0.05490642416448294,1.2709296926174303,0.5775161085404595,0.4198957919052358,-3.769873634567523,2.8
,,0.03170934441734404,0.02305497645523034,0.00014210329190856338,0.05490642416448294,1.2744113563737305,0.5775161085404595,0.4198957919052358,-3.769873634567523,2.9
,,0.03170934441734404,0.02305497645523034,0.00014210329190856338,0.05490642416448294,1.2776683966618825,0.5775161085404595,0.4198957919052358,-3.769873634567523,3.0
,,0.032055888960836935,0.025076699231351824,0.00020373568312710564,0.05733632387531587,1.2776885633664823,0.5590851801128022,0.437361475874942,-3.685816181473942,3.1
,,0.04700439238943634,0.03363749278795488,0.00020343251481223554,0.08084531769220346,1.2813156060719502,0.5814114376839086,0.41607224448075614,-3.3921139773340445,3.2
,,0.04700439238943634,0.03363749278795488,0.00020343251481223554,0.08084531769220346,1.2847292933241554,0.5814114376839086,0.41607224448075614,-3.3921139773340445,3.3
,,0.04700439238943634,0.03363749278795488,0.00020343251481223554,0.08084531769220346,1.2879479127333773,0.5814114376839086,0.41607224448075614,-3.3921139773340445,3.4
,,0.04700439238943634,0.03363749278795488,0.00020343251481223554,0.08084531769220346,1.290987719953198,0.5814114376839086,0.41607224448075614,-3.3921139773340445,3.5
,,0.04700439238943634,0.03363749278795488,0.00020343251481223554,0.08084531769220346,1.293863213269245,0.5814114376839086,0.41607224448075614,-3.3921139773340445,3.6
,,0.04700439238943634,0.03363749278795488,0.00020343251481223554,0.08084531769220346,1.2965873648318154,0.5814114376839086,0.41607224448075614,-3.3921139773340445,3.7
,,0.04700439238943634,0.03363749278795488,0.00020343251481223554,0.08084531769220346,1.299171816314254,0.5814114376839086,0.41607224448075614,-3.3921139773340445,3.8
,,0.03363822435333373,0.027686839248386105,0.000201043568799602,0.06152610717051944,1.2970663603067316,0.5467309066069381,0.45000147939885266,-3.586798096079656,3.9
,,0.03361486732004556,0.028003032753064934,0.00020835410311202223,0.06182625417622251,1.294708667546954,0.5436989150957386,0.45293109094476725,-3.5754424620628584,4.0
,,0.03361486732004556,0.028003032753064934,0.00020835410311202223,0.06182625417622251,1.292463245870975,0.5436989150957386,0.45293109094476725,-3.5754424620628584,4.1
,,0.03470381001601535,0.02867452139561244,0.00031758848559373145,0.06369591989722152,1.2905516915062853,0.5448356829136424,0.4501783072115307,-3.551746306755952,4.2
,,0.03470381001601535,0.02867452139561244,0.00031758848559373145,0.06369591989722152,1.288727025976354,0.5448356829136424,0.4501783072115307,-3.551746306755952,4.3
,,0.03470381001601535,0.02867452139561244,0.00031758848559373145,0.06369591989722152,1.2869834566921974,0.5448356829136424,0.4501783072115307,-3.551746306755952,4.4
,,0.03470381001601535,0.02867452139561244,0.00031758848559373145,0.06369591989722152,1.2853156947682216,0.5448356829136424,0.4501783072115307,-3.551746306755952,4.5
,,0.03470381001601535,0.02867452139561244,0.00031758848559373145,0.06369591989722152,1.2837189014367554,0.5448356829136424,0.4501783072115307,-3.551746306755952,4.6
,,0.03470381001601535,0.02867452139561244,0.00031758848559373145,0.06369591989722152,1.2821886411607668,0.5448356829136424,0.4501783072115307,-3.551746306755952,4.7
,,0.03470381001601535,0.02867452139561244,0.00031758848559373145,0.06369591989722152,1.28072084048788,0.5448356829136424,0.4501783072115307,-3.551746306755952,4.8
,,0.03470381001601535,0.02867452139561244,0.00031758848559373145,0.06369591989722152,1.2793117518419086,0.5448356829136424,0.4501783072115307,-3.551746306755952,4.9
,,0.03440210238779143,0.03107326016880289,0.00021290649770494728,0.06568826905429927,1.2759356162538114,0.523717596506523,0.4730412388111049,-3.471407631284602,5.0
,,0.03440210238779143,0.03107326016880289,0.00021290649770494728,0.06568826905429927,1.272689332034487,0.523717596506523,0.4730412388111049,-3.471407631284602,5.1
,,0.034853718245689363,0.031789682661120346,0.0003184997567002166,0.06696190066350992,1.26936282750047,0.5205007310176677,0.474742836540238,-3.448613486458405,5.2
,,0.034853718245689363,0.031789682661120346,0.0003184997567002166,0.06696190066350992,1.2661595268380834,0.5205007310176677,0.474742836540238,-3.448613486458405,5.3
,,0.034853718245689363,0.031789682661120346,0.0003184997567002166,0.06696190066350992,1.2630727098361472,0.5205007310176677,0.474742836540238,-3.448613486458405,5.4
,,0.034853718245689363,0.031789682661120346,0.0003184997567002166,0.06696190066350992,1.2600961362985659,0.5205007310176677,0.474742836540238,-3.448613486458405,5.5
,,0.034853718245689363,0.031789682661120346,0.0003184997567002166,0.06696190066350992,1.2572240039377418,0.5205007310176677,0.474742836540238,-3.448613486458405,5.6
,,0.034853718245689363,0.031789682661120346,0.0003184997567002166,0.06696190066350992,1.2544509106238428,0.5205007310176677,0.474742836540238,-3.448613486458405,5.7
,,0.034853718245689363,0.031789682661120346,0.0003184997567002166,0.06696190066350992,1.2517718204731267,0.5205007310176677,0.474742836540238,-3.448613486458405,5.8
,,0.03433773251488194,0.03380798546156293,0.00020724412093650843,0.06835296209738137,1.2478367782615054,0.5023590999020865,0.49460893023768654,-3.3870582481380205,5.9
,,0.034853718245689363,0.031789682661120346,0.0003184997567002166,0.06696190066350992,1.245353955531507,0.5205007310176677,0.474742836540238,-3.448613486458405,6.0
,,0.034396424815835006,0.03415746365432756,0.0002139458378197424,0.0687678343079823,1.241509470274507,0.5001818824450373,0.496706985148763,-3.3767741618134557,6.1
,,0.03414875304221454,0.03500486311370759,0.00014246667490231025,0.06929608283082445,1.2372877820230483,0.4927948543005437,0.5051492333147675,-3.352268281038908,6.2
,,0.03414875304221454,0.03500486311370759,0.00014246667490231025,0.06929608283082445,1.233198021529448,0.4927948543005437,0.5051492333147675,-3.352268281038908,6.3
,,0.03414875304221454,0.03500486311370759,0.00014246667490231025,0.06929608283082445,1.2292340998202662,0.4927948543005437,0.5051492333147675,-3.352268281038908,6.4
,,0.03414875304221454,0.03500486311370759,0.00014246667490231025,0.06929608283082445,1.2253902969507564,0.4927948543005437,0.5051492333147675,-3.352268281038908,6.5
,,0.03414875304221454,0.03500486311370759,0.00014246667490231025,0.06929608283082445,1.2216612344654112,0.4927948543005437,0.5051492333147675,-3.352268281038908,6.6
,,0.03414875304221454,0.03500486311370759,0.00014246667490231025,0.06929608283082445,1.2180418502884585,0.4927948543005437,0.5051492333147675,-3.352268281038908,6.7
,,0.03414875304221454,0.03500486311370759,0.00014246667490231025,0.06929608283082445,1.2145273757977941,0.4927948543005437,0.5051492333147675,-3.352268281038908,6.8
,,0.033583342261377304,0.036470711637391455,0.0002055504605932667,0.07025960435936203,1.2103317056064995,0.4779893449101433,0.5190850698625058,-3.3112457613990456,6.9
,,0.03414875304221454,0.03500486311370759,0.00014246667490231025,0.06929608283082445,1.2070248239843322,0.4927948543005437,0.5051492333147675,-3.352268281038908,7.0
,,0.033646142041251964,0.03686165606432013,0.0002134130979741696,0.07072121120354626,1.2029379243892366,0.4757574349852878,0.5212248975519771,-3.3005833992548657,7.1
,,0.03313305580724949,0.03765274958455272,0.00014159294699825323,0.07092739833880046,1.1985136210252247,0.46714043632309893,0.5308632554756344,-3.2793492972686025,7.2
,,0.03313305580724949,0.03765274958455272,0.00014159294699825323,0.07092739833880046,1.194208893427808,0.46714043632309893,0.5308632554756344,-3.2793492972686025,7.3
,,0.03313305580724949,0.03765274958455272,0.00014159294699825323,0.07092739833880046,1.190018958566322,0.46714043632309893,0.5308632554756344,-3.2793492972686025,7.4
,,0.03313305580724949,0.03765274958455272,0.00014159294699825323,0.07092739833880046,1.1859392851485595,0.46714043632309893,0.5308632554756344,-3.2793492972686025,7.5
,,0.03313305580724949,0.03765274958455272,0.00014159294699825323,0.07092739833880046,1.1819655772741156,0.46714043632309893,0.5308632554756344,-3.2793492972686025,7.6
,,0.03313305580724949,0.03765274958455272,0.00014159294699825323,0.07092739833880046,1.17809375934517,0.46714043632309893,0.5308632554756344,-3.2793492972686025,7.7
,,0.03313305580724949,0.03765274958455272,0.00014159294699825323,0.07092739833880046,1.1743199621232865,0.46714043632309893,0.5308632554756344,-3.2793492972686025,7.8
,,0.03313305580724949,0.03765274958455272,0.00014159294699825323,0.07092739833880046,1.17064050983195,0.46714043632309893,0.5308632554756344,-3.2793492972686025,7.9
,,0.03247563203678821,0.03870974093488199,0.00021162909689816903,0.07139700206856837,1.1665455955259867,0.4548598834107797,0.542175999178591,-3.251664006874753,8.0
,,0.03247563203678821,0.03870974093488199,0.00021162909689816903,0.07139700206856837,1.1625505571787056,0.4548598834107797,0.542175999178591,-3.251664006874753,8.1
,,0.03185934325161506,0.03934639426797767,0.00014210125052347962,0.0713478387701162,1.1582995195154384,0.4465355055009632,0.5514728258938906,-3.2353509406430763,8.2
,,0.03185934325161506,0.03934639426797767,0.00014210125052347962,0.0713478387701162,1.1541496970346299,0.4465355055009632,0.5514728258938906,-3.2353509406430763,8.3
,,0.03185934325161506,0.03934639426797767,0.00014210125052347962,0.0713478387701162,1.1500975174357226,0.4465355055009632,0.5514728258938906,-3.2353509406430763,8.4
,,0.03185934325161506,0.03934639426797767,0.00014210125052347962,0.0713478387701162,1.146139574571674,0.4465355055009632,0.5514728258938906,-3.2353509406430763,8.5
,,0.03185934325161506,0.03934639426797767,0.00014210125052347962,0.0713478387701162,1.1422726188999022,0.4465355055009632,0.5514728258938906,-3.2353509406430763,8.6
,,0.03185934325161506,0.03934639426797767,0.00014210125052347962,0.0713478387701162,1.138493548584307,0.4465355055009632,0.5514728258938906,-3.2353509406430763,8.7
,,0.03185934325161506,0.03934639426797767,0.00014210125052347962,0.0713478387701162,1.1347994011971523,0.4465355055009632,0.5514728258938906,-3.2353509406430763,8.8
,,0.03108319543056716,0.0395524691425473,0.00020976751780022525,0.07084543209091468,1.130922434960923,0.4387466419949087,0.5582924399669174,-3.230127155805766,8.9
,,0.03108319543056716,0.0395524691425473,0.00020976751780022525,0.07084543209091468,1.127141560164211,0.4387466419949087,0.5582924399669174,-3.230127155805766,9.0
,,0.030585984868489773,0.03991269025249416,0.00014159563260771404,0.07064027075359164,1.1231434616669855,0.4329822711917431,0.5650132683058103,-3.2210609542130006,9.1
,,0.030585984868489773,0.03991269025249416,0.00014159563260771404,0.07064027075359164,1.1191453631697603,0.4329822711917431,0.5650132683058103,-3.2210609542130006,9.2
,,0.030585984868489773,0.03991269025249416,0.00014159563260771404,0.07064027075359164,1.1151472646725349,0.4329822711917431,0.5650132683058103,-3.2210609542130006,9.3
,,0.030585984868489773,0.03991269025249416,0.00014159563260771404,0.07064027075359164,1.1082615390567614,0.4329822711917431,0.5650132683058103,-3.2210609542130006,9.4
,,0.030585984868489773,0.03991269025249416,0.00014159563260771404,0.07064027075359164,1.1005719088397137,0.4329822711917431,0.5650132683058103,-3.2210609542130006,9.5
,,0.030585984868489773,0.03991269025249416,0.00014159563260771404,0.07064027075359164,1.092882278622666,0.4329822711917431,0.5650132683058103,-3.2210609542130006,9.6
,,0.030585984868489773,0.03991269025249416,0.00014159563260771404,0.07064027075359164,1.085192648405618,0.4329822711917431,0.5650132683058103,-3.2210609542130006,9.7
,,0.02982266816865702,0.039507090120118944,0.00020787696094588844,0.06953763524972185,1.0773757565672766,0.4288708993562778,0.5681396840465174,-3.231275126470796,9.8
,,0.02982266816865702,0.039507090120118944,0.00020787696094588844,0.06953763524972185,1.069558864728935,0.4288708993562778,0.5681396840465174,-3.231275126470796,9.9
,,0.02982266816865702,0.039507090120118944,0.00020787696094588844,0.06953763524972185,1.0617419728905935,0.4288708993562778,0.5681396840465174,-3.231275126470796,10.0
,,0.027478911099124308,0.02889429173996707,0.00014308812730429008,0.05651629096639567,1.056104486107664,0.4862122164998964,0.5112559802827027,-3.5441112210211285,10.1
,,0.027478911099124308,0.02889429173996707,0.00014308812730429008,0.05651629096639567,1.0513421958761355,0.4862122164998964,0.5112559802827027,-3.5441112210211285,10.2
,,0.027478911099124308,0.02889429173996707,0.00014308812730429008,0.05651629096639567,1.049871603179261,0.4862122164998964,0.5112559802827027,-3.5441112210211285,10.3
,,0.027478911099124308,0.02889429173996707,0.00014308812730429008,0.05651629096639567,1.0484010104823864,0.4862122164998964,0.5112559802827027,-3.5441112210211285,10.4
,,0.027478911099124308,0.02889429173996707,0.00014308812730429008,0.05651629096639567,1.0469304177855117,0.4862122164998964,0.5112559802827027,-3.5441112210211285,10.5
,,0.027478911099124308,0.02889429173996707,0.00014308812730429008,0.05651629096639567,1.045459825088637,0.4862122164998964,0.5112559802827027,-3.5441112210211285,10.6
,,0.029492859685527974,0.039469810004434,0.0002151028516684943,0.06917777254163048,1.0417249053588917,0.4263343354656219,0.5705562430574282,-3.2322192029892483,10.7
,,0.029492859685527974,0.039469810004434,0.0002151028516684943,0.06917777254163048,1.0379899856291466,0.4263343354656219,0.5705562430574282,-3.2322192029892483,10.8
,,0.030305126322383597,0.04025787509963981,0.000154131470655412,0.07071713289267881,1.0343167250788456,0.42854008756795936,0.5692803632287476,-3.212449639606003,10.9
,,0.030305126322383597,0.04025787509963981,0.000154131470655412,0.07071713289267881,1.0306434645285447,0.42854008756795936,0.5692803632287476,-3.212449639606003,11.0
,,0.030305126322383597,0.04025787509963981,0.000154131470655412,0.07071713289267881,1.0269702039782436,0.42854008756795936,0.5692803632287476,-3.212449639606003,11.1
,,0.030305126322383597,0.04025787509963981,0.000154131470655412,0.07071713289267881,1.0200523762432012,0.42854008756795936,0.5692803632287476,-3.212449639606003,11.2
,,0.030305126322383597,0.04025787509963981,0.000154131470655412,0.07071713289267881,1.0131345485081586,0.42854008756795936,0.5692803632287476,-3.212449639606003,11.3
,,0.030305126322383597,0.04025787509963981,0.000154131470655412,0.07071713289267881,1.006216720773116,0.42854008756795936,0.5692803632287476,-3.212449639606003,11.4
,,0.030305126322383597,0.04025787509963981,0.000154131470655412,0.07071713289267881,0.9992988930380734,0.42854008756795936,0.5692803632287476,-3.212449639606003,11.5
,,0.030454870052650445,0.03999058528878952,0.00023301919920666882,0.07067847454064663,0.9924785751555989,0.43089314321768635,0.5658099661699865,-3.219111220351806,11.6
,,0.030454870052650445,0.03999058528878952,0.00023301919920666882,0.07067847454064663,0.9856582572731242,0.43089314321768635,0.5658099661699865,-3.219111220351806,11.7
,,0.03193680747905898,0.040946632703508665,0.00017034564746683353,0.07305378583003448,0.9790425033738536,0.4371684111397393,0.5604998048803974,-3.1954857015266342,11.8
,,0.03193680747905898,0.040946632703508665,0.00017034564746683353,0.07305378583003448,0.9724267494745833,0.4371684111397393,0.5604998048803974,-3.1954857015266342,11.9
,,0.03193680747905898,0.040946632703508665,0.00017034564746683353,0.07305378583003448,0.9658109955753128,0.4371684111397393,0.5604998048803974,-3.1954857015266342,12.0
,,0.03193680747905898,0.040946632703508665,0.00017034564746683353,0.07305378583003448,0.9602737513882356,0.4371684111397393,0.5604998048803974,-3.1954857015266342,12.1
,,0.03193680747905898,0.040946632703508665,0.00017034564746683353,0.07305378583003448,0.9534135378518487,0.4371684111397393,0.5604998048803974,-3.1954857015266342,12.2
,,0.03193680747905898,0.040946632703508665,0.00017034564746683353,0.07305378583003448,0.9465533243154619,0.4371684111397393,0.5604998048803974,-3.1954857015266342,12.3
,,0.03193680747905898,0.040946632703508665,0.00017034564746683353,0.07305378583003448,0.939693110779075,0.4371684111397393,0.5604998048803974,-3.1954857015266342,12.4
,,0.03193680747905898,0.040946632703508665,0.00017034564746683353,0.07305378583003448,0.9328328972426883,0.4371684111397393,0.5604998048803974,-3.1954857015266342,12.5
,,0.03519004218102042,0.04247309821283463,0.00022538972960684246,0.07788853012346189,0.9265122801599287,0.45180005483786034,0.5453061977868898,-3.158884386697648,12.6
,,0.03519004218102042,0.04247309821283463,0.00022538972960684246,0.07788853012346189,0.9201916630771692,0.45180005483786034,0.5453061977868898,-3.158884386697648,12.7
,,0.03519004218102042,0.04247309821283463,0.00022538972960684246,0.07788853012346189,0.9138710459944098,0.45180005483786034,0.5453061977868898,-3.158884386697648,12.8
,,0.03519004218102042,0.04247309821283463,0.00022538972960684246,0.07788853012346189,0.9095773999853565,0.45180005483786034,0.5453061977868898,-3.158884386697648,12.9
,,0.03519004218102042,0.04247309821283463,0.00022538972960684246,0.07788853012346189,0.9054454497413867,0.45180005483786034,0.5453061977868898,-3.158884386697648,13.0
,,0.03519004218102042,0.04247309821283463,0.00022538972960684246,0.07788853012346189,0.9013134994974169,0.45180005483786034,0.5453061977868898,-3.158884386697648,13.1
,,0.03519004218102042,0.04247309821283463,0.00022538972960684246,0.07788853012346189,0.8970719331308533,0.45180005483786034,0.5453061977868898,-3.158884386697648,13.2
,,0.03519004218102042,0.04247309821283463,0.00022538972960684246,0.07788853012346189,0.8928303667642895,0.45180005483786034,0.5453061977868898,-3.158884386697648,13.3
,,0.03393127129203285,0.02875790833459797,0.0003268518105530681,0.06301603143718389,0.8924928908467646,0.5384545887478883,0.4563586071468916,-3.548842477056528,13.4
,,0.0395354282425398,0.04419701137628765,0.00024211526689404004,0.08397455488572149,0.8889846772735452,0.4708024745870032,0.5263143274344718,-3.119098108105638,13.5
,,0.0395354282425398,0.04419701137628765,0.00024211526689404004,0.08397455488572149,0.885476463700326,0.4708024745870032,0.5263143274344718,-3.119098108105638,13.6
,,0.0395354282425398,0.04419701137628765,0.00024211526689404004,0.08397455488572149,0.8819682501271067,0.4708024745870032,0.5263143274344718,-3.119098108105638,13.7
,,0.0395354282425398,0.04419701137628765,0.00024211526689404004,0.08397455488572149,0.8784600365538874,0.4708024745870032,0.5263143274344718,-3.119098108105638,13.8
,,0.0395354282425398,0.04419701137628765,0.00024211526689404004,0.08397455488572149,0.8749518229806681,0.4708024745870032,0.5263143274344718,-3.119098108105638,13.9
,,0.0395354282425398,0.04419701137628765,0.00024211526689404004,0.08397455488572149,0.8725895824223416,0.4708024745870032,0.5263143274344718,-3.119098108105638,14.0
,,0.0395354282425398,0.04419701137628765,0.00024211526689404004,0.08397455488572149,0.8702273418640153,0.4708024745870032,0.5263143274344718,-3.119098108105638,14.1
,,0.04300477349931425,0.04466493126883681,0.00038025348056811855,0.08804995824871918,0.8687434113407635,0.4884133320976313,0.5072680573302433,-3.108566620644322,14.2
,,0.04300477349931425,0.04466493126883681,0.00038025348056811855,0.08804995824871918,0.8672594808175118,0.4884133320976313,0.5072680573302433,-3.108566620644322,14.3
,,0.04453439155409545,0.046027047117476586,0.000260924692902776,0.09082236336447481,0.8658282079561735,0.49034609873976354,0.5067809888712946,-3.0785260744713234,14.4
,,0.04453439155409545,0.046027047117476586,0.000260924692902776,0.09082236336447481,0.8643969350948355,0.49034609873976354,0.5067809888712946,-3.0785260744713234,14.5
,,0.04453439155409545,0.046027047117476586,0.000260924692902776,0.09082236336447481,0.8629656622334974,0.49034609873976354,0.5067809888712946,-3.0785260744713234,14.6
,,0.04453439155409545,0.046027047117476586,0.000260924692902776,0.09082236336447481,0.861534389372159,0.49034609873976354,0.5067809888712946,-3.0785260744713234,14.7
,,0.04453439155409545,0.046027047117476586,0.000260924692902776,0.09082236336447481,0.8601031165108209,0.49034609873976354,0.5067809888712946,-3.0785260744713234,14.8
,,0.04453439155409545,0.046027047117476586,0.000260924692902776,0.09082236336447481,0.8595686803601021,0.49034609873976354,0.5067809888712946,-3.0785260744713234,14.9
,,0.04453439155409545,0.046027047117476586,0.000260924692902776,0.09082236336447481,0.8581374074987639,0.49034609873976354,0.5067809888712946,-3.0785260744713234,15.0
,,0.04860896020928595,0.046880096091618625,0.0004043536970937794,0.09589340999799835,0.8584694358944855,0.5069061597694836,0.4888771406981688,-3.060162083979588,15.1
,,0.05012996565629295,0.04852937279399987,0.0002389009290099936,0.09889823937930281,0.85910764511203,0.5068843082638742,0.49070006805556926,-3.0255860397367247,15.2
,,0.04860896020928595,0.046880096091618625,0.0004043536970937794,0.09589340999799835,0.8597891486095836,0.5069061597694836,0.4888771406981688,-3.060162083979588,15.3
,,0.04480010207295638,0.034633707008170464,0.00024285375951090205,0.07967666284063775,0.8633224527432947,0.5622738261837296,0.43467818271256864,-3.362927880146953,15.4
,,0.04480010207295638,0.034633707008170464,0.00024285375951090205,0.07967666284063775,0.8668557568770058,0.5622738261837296,0.43467818271256864,-3.362927880146953,15.5
,,0.04480010207295638,0.034633707008170464,0.00024285375951090205,0.07967666284063775,0.8703890610107168,0.5622738261837296,0.43467818271256864,-3.362927880146953,15.6
,,0.04480010207295638,0.034633707008170464,0.00024285375951090205,0.07967666284063775,0.8739223651444279,0.5622738261837296,0.43467818271256864,-3.362927880146953,15.7
,,0.04480010207295638,0.034633707008170464,0.00024285375951090205,0.07967666284063775,0.8774556692781388,0.5622738261837296,0.43467818271256864,-3.362927880146953,15.8
,,0.04480010207295638,0.034633707008170464,0.00024285375951090205,0.07967666284063775,0.881596891723244,0.5622738261837296,0.43467818271256864,-3.362927880146953,15.9
,,0.04480010207295638,0.034633707008170464,0.00024285375951090205,0.07967666284063775,0.8851301958569551,0.5622738261837296,0.43467818271256864,-3.362927880146953,16.0
,,0.05278056526002799,0.04818093916750981,0.00041939929145240294,0.1013809037189902,0.8871601694822701,0.5206164408074948,0.47524669242502304,-3.032791789093951,16.1
,,0.05278056526002799,0.04818093916750981,0.00041939929145240294,0.1013809037189902,0.8895546350444862,0.5206164408074948,0.47524669242502304,-3.032791789093951,16.2
,,0.052965713953900526,0.04902958204397583,0.00029270716081945954,0.10228800315869581,0.8917803792347515,0.5178096386506471,0.4793287631972673,-3.015331447851029,16.3
,,0.052965713953900526,0.04902958204397583,0.00029270716081945954,0.10228800315869581,0.8940061234250167,0.5178096386506471,0.4793287631972673,-3.015331447851029,16.4
,,0.052965713953900526,0.04902958204397583,0.00029270716081945954,0.10228800315869581,0.8962318676152821,0.5178096386506471,0.4793287631972673,-3.015331447851029,16.5
,,0.052965713953900526,0.04902958204397583,0.00029270716081945954,0.10228800315869581,0.8984576118055473,0.5178096386506471,0.4793287631972673,-3.015331447851029,16.6
,,0.052965713953900526,0.04902958204397583,0.00029270716081945954,0.10228800315869581,0.9006833559958126,0.5178096386506471,0.4793287631972673,-3.015331447851029,16.7
,,0.052965713953900526,0.04902958204397583,0.00029270716081945954,0.10228800315869581,0.902909100186078,0.5178096386506471,0.4793287631972673,-3.015331447851029,16.8
,,0.03097875849325514,0.03355187065241024,0.0003705659784597301,0.06490119512412511,0.9033907185079723,0.47732184952846424,0.5169684562547958,-3.3946626599679917,16.9
,,0.03097875849325514,0.03355187065241024,0.0003705659784597301,0.06490119512412511,0.9043280182495045,0.47732184952846424,0.5169684562547958,-3.3946626599679917,17.0
,,0.03097875849325514,0.03355187065241024,0.0003705659784597301,0.06490119512412511,0.9052653179910368,0.47732184952846424,0.5169684562547958,-3.3946626599679917,17.1
,,0.03045987558158831,0.03460771554004796,0.00024556517463035184,0.06531315629626662,0.9060479016311999,0.4663666144600247,0.5298735737569336,-3.363678629290652,17.2
,,0.05076649126809839,0.046042857189767736,0.00027898938856935225,0.09708833784643547,0.909302098113505,0.5228896940062533,0.47423674368175583,-3.078182638197212,17.3
,,0.03045987558158831,0.03460771554004796,0.00024556517463035184,0.06531315629626662,0.9100846817536681,0.4663666144600247,0.5298735737569336,-3.363678629290652,17.4
,,0.03045987558158831,0.03460771554004796,0.00024556517463035184,0.06531315629626662,0.9108672653938309,0.4663666144600247,0.5298735737569336,-3.363678629290652,17.5
,,0.03045987558158831,0.03460771554004796,0.00024556517463035184,0.06531315629626662,0.9116498490339939,0.4663666144600247,0.5298735737569336,-3.363678629290652,17.6
,,0.03045987558158831,0.03460771554004796,0.00024556517463035184,0.06531315629626662,0.9124324326741569,0.4663666144600247,0.5298735737569336,-3.363678629290652,17.7
,,0.04923597964603561,0.04320476266405307,0.0003669073856507789,0.09280764969573946,0.9160977847080761,0.5305163939335908,0.4655301885749239,-3.1418045429557298,17.8
,,0.04923597964603561,0.04320476266405307,0.0003669073856507789,0.09280764969573946,0.920028047755229,0.5305163939335908,0.4655301885749239,-3.1418045429557298,17.9
,,0.04923597964603561,0.04320476266405307,0.0003669073856507789,0.09280764969573946,0.9239583108023819,0.5305163939335908,0.4655301885749239,-3.1418045429557298,18.0
,,0.04949558733453736,0.044967534629907976,0.0002733078018757084,0.09473642976632105,0.9276735745131964,0.522455695835533,0.47465937592144736,-3.101814502252744,18.1
,,0.04949558733453736,0.044967534629907976,0.0002733078018757084,0.09473642976632105,0.931388838224011,0.522455695835533,0.47465937592144736,-3.101814502252744,18.2
,,0.04949558733453736,0.044967534629907976,0.0002733078018757084,0.09473642976632105,0.9351041019348254,0.522455695835533,0.47465937592144736,-3.101814502252744,18.3
,,0.04949558733453736,0.044967534629907976,0.0002733078018757084,0.09473642976632105,0.9388193656456401,0.522455695835533,0.47465937592144736,-3.101814502252744,18.4
,,0.04949558733453736,0.044967534629907976,0.0002733078018757084,0.09473642976632105,0.9425346293564545,0.522455695835533,0.47465937592144736,-3.101814502252744,18.5
,,0.049345272476338936,0.04407364061309202,0.0002117275440319022,0.09363064063346285,0.946460044061899,0.5270205580405195,0.47071813580372374,-3.121893393758258,18.6
,,0.049345272476338936,0.04407364061309202,0.0002117275440319022,0.09363064063346285,0.9503854587673437,0.5270205580405195,0.47071813580372374,-3.121893393758258,18.7
,,0.049345272476338936,0.04407364061309202,0.0002117275440319022,0.09363064063346285,0.9544381350940818,0.5270205580405195,0.47071813580372374,-3.121893393758258,18.8
,,0.049345272476338936,0.04407364061309202,0.0002117275440319022,0.09363064063346285,0.9584908114208203,0.5270205580405195,0.47071813580372374,-3.121893393758258,18.9
,,0.049925899599706655,0.04639488230268335,0.000284892979270305,0.0966056748816603,0.9620601352438704,0.5168008987139184,0.4802500718463589,-3.0705661210336803,19.0
,,0.049925899599706655,0.04639488230268335,0.000284892979270305,0.0966056748816603,0.9634500540115081,0.5168008987139184,0.4802500718463589,-3.0705661210336803,19.1
,,0.049925899599706655,0.04639488230268335,0.000284892979270305,0.0966056748816603,0.9648399727791458,0.5168008987139184,0.4802500718463589,-3.0705661210336803,19.2
,,0.049925899599706655,0.04639488230268335,0.000284892979270305,0.0966056748816603,0.9662298915467837,0.5168008987139184,0.4802500718463589,-3.0705661210336803,19.3
,,0.05094879665155999,0.04703425612718497,0.00023094213634795467,0.09821399491509292,0.9676989162098071,0.5187529200457205,0.47889566214923446,-3.0568790889871025,19.4
,,0.05094879665155999,0.04703425612718497,0.00023094213634795467,0.09821399491509292,0.9691679408728303,0.5187529200457205,0.47889566214923446,-3.0568790889871025,19.5
,,0.05094879665155999,0.04703425612718497,0.00023094213634795467,0.09821399491509292,0.9706369655358537,0.5187529200457205,0.47889566214923446,-3.0568790889871025,19.6
,,0.05094879665155999,0.04703425612718497,0.00023094213634795467,0.09821399491509292,0.9743703172317476,0.5187529200457205,0.47889566214923446,-3.0568790889871025,19.7
,,0.05094879665155999,0.04703425612718497,0.00023094213634795467,0.09821399491509292,0.9781036689276417,0.5187529200457205,0.47889566214923446,-3.0568790889871025,19.8
,,0.05172921854269165,0.05007467919473013,0.00031229026489367975,0.10211618800231546,0.9812177392348499,0.5065721660263963,0.4903696482833329,-2.9942398039464306,19.9
,,0.05172921854269165,0.05007467919473013,0.00031229026489367975,0.10211618800231546,0.9843318095420583,0.5065721660263963,0.4903696482833329,-2.9942398039464306,20.0
,,0.05392520470969878,0.05240071954714042,0.0002586970411066311,0.10658462129794584,0.9874020064269821,0.5059379491433073,0.49163489919113046,-2.9488349559337643,20.1
,,0.05392520470969878,0.05240071954714042,0.0002586970411066311,0.10658462129794584,0.9904722033119058,0.5059379491433073,0.49163489919113046,-2.9488349559337643,20.2
,,0.05392520470969878,0.05240071954714042,0.0002586970411066311,0.10658462129794584,0.9935424001968293,0.5059379491433073,0.49163489919113046,-2.9488349559337643,20.3
,,0.05392520470969878,0.05240071954714042,0.0002586970411066311,0.10658462129794584,0.9966125970817528,0.5059379491433073,0.49163489919113046,-2.9488349559337643,20.4
,,0.05392520470969878,0.05240071954714042,0.0002586970411066311,0.10658462129794584,0.9996827939666765,0.5059379491433073,0.49163489919113046,-2.9488349559337643,20.5
,,0.05392520470969878,0.05240071954714042,0.0002586970411066311,0.10658462129794584,1.0026554809990322,0.5059379491433073,0.49163489919113046,-2.9488349559337643,20.6
,,0.05392520470969878,0.05240071954714042,0.0002586970411066311,0.10658462129794584,1.0056281680313879,0.5059379491433073,0.49163489919113046,-2.9488349559337643,20.7
,,0.05459809201605041,0.055923239823323825,0.0003503104177646642,0.1108716422571389,1.0078097503828731,0.4924441534781623,0.5043962431225103,-2.883775245980133,20.8
,,0.05504056857480801,0.05747593693208253,0.00027911295681251993,0.11279561846370306,1.0097838201735727,0.4879672572788785,0.5095582409575415,-2.856388906907126,20.9
,,0.05504056857480801,0.05747593693208253,0.00027911295681251993,0.11279561846370306,1.0117578899642723,0.4879672572788785,0.5095582409575415,-2.856388906907126,21.0
,,0.05504056857480801,0.05747593693208253,0.00027911295681251993,0.11279561846370306,1.0137319597549719,0.4879672572788785,0.5095582409575415,-2.856388906907126,21.1
,,0.05504056857480801,0.05747593693208253,0.00027911295681251993,0.11279561846370306,1.0157060295456715,0.4879672572788785,0.5095582409575415,-2.856388906907126,21.2
,,0.05504056857480801,0.05747593693208253,0.00027911295681251993,0.11279561846370306,1.017680099336371,0.4879672572788785,0.5095582409575415,-2.856388906907126,21.3
,,0.05504056857480801,0.05747593693208253,0.00027911295681251993,0.11279561846370306,1.0196541691270706,0.4879672572788785,0.5095582409575415,-2.856388906907126,21.4
,,0.05504056857480801,0.05747593693208253,0.00027911295681251993,0.11279561846370306,1.0216282389177704,0.4879672572788785,0.5095582409575415,-2.856388906907126,21.5
,,0.05504056857480801,0.05747593693208253,0.00027911295681251993,0.11279561846370306,1.0230627122548426,0.4879672572788785,0.5095582409575415,-2.856388906907126,21.6
,,0.05171419412770977,0.059039227915054955,0.0002935417085775755,0.1110469637513423,1.0235894227195879,0.46569660601895263,0.5316599924988161,-2.829553176094959,21.7
,,0.05171419412770977,0.059039227915054955,0.0002935417085775755,0.1110469637513423,1.0241161331843334,0.46569660601895263,0.5316599924988161,-2.829553176094959,21.8
,,0.05171419412770977,0.059039227915054955,0.0002935417085775755,0.1110469637513423,1.0246428436490786,0.46569660601895263,0.5316599924988161,-2.829553176094959,21.9
,,0.05171419412770977,0.059039227915054955,0.0002935417085775755,0.1110469637513423,1.0251695541138242,0.46569660601895263,0.5316599924988161,-2.829553176094959,22.0
,,0.05171419412770977,0.059039227915054955,0.0002935417085775755,0.1110469637513423,1.0256962645785697,0.46569660601895263,0.5316599924988161,-2.829553176094959,22.1
,,0.05171419412770977,0.059039227915054955,0.0002935417085775755,0.1110469637513423,1.026222975043315,0.46569660601895263,0.5316599924988161,-2.829553176094959,22.2
,,0.05171419412770977,0.059039227915054955,0.0002935417085775755,0.1110469637513423,1.0267496855080605,0.46569660601895263,0.5316599924988161,-2.829553176094959,22.3
,,0.05171419412770977,0.059039227915054955,0.0002935417085775755,0.1110469637513423,1.023372305523767,0.46569660601895263,0.5316599924988161,-2.829553176094959,22.4
,,0.05171419412770977,0.059039227915054955,0.0002935417085775755,0.1110469637513423,1.0231656631951678,0.46569660601895263,0.5316599924988161,-2.829553176094959,22.5
,,0.034303133269601854,0.04041542716616558,0.0002094636701042457,0.07492802410587168,1.0226571760988465,0.4578144650008689,0.5393900032524473,-3.2085437063565636,22.6
,,0.034303133269601854,0.04041542716616558,0.0002094636701042457,0.07492802410587168,1.022148689002525,0.4578144650008689,0.5393900032524473,-3.2085437063565636,22.7
,,0.04937409169813015,0.06249126583186425,0.00033582344609259316,0.112201180976087,1.0209883411564664,0.4400496614082258,0.5569572912533137,-2.7727284786954316,22.8
,,0.04937409169813015,0.06249126583186425,0.00033582344609259316,0.112201180976087,1.0198279933104077,0.4400496614082258,0.5569572912533137,-2.7727284786954316,22.9
,,0.04937409169813015,0.06249126583186425,0.00033582344609259316,0.112201180976087,1.0186676454643493,0.4400496614082258,0.5569572912533137,-2.7727284786954316,23.0
,,0.04937409169813015,0.06249126583186425,0.00033582344609259316,0.112201180976087,1.0175072976182906,0.4400496614082258,0.5569572912533137,-2.7727284786954316,23.1
,,0.04937409169813015,0.06249126583186425,0.00033582344609259316,0.112201180976087,1.0155880202384613,0.4400496614082258,0.5569572912533137,-2.7727284786954316,23.2
,,0.04937409169813015,0.06249126583186425,0.00033582344609259316,0.112201180976087,1.0136687428586317,0.4400496614082258,0.5569572912533137,-2.7727284786954316,23.3
,,0.04937409169813015,0.06249126583186425,0.00033582344609259316,0.112201180976087,1.0116968078168889,0.4400496614082258,0.5569572912533137,-2.7727284786954316,23.4
,,0.04937409169813015,0.06249126583186425,0.00033582344609259316,0.112201180976087,1.009724872775146,0.4400496614082258,0.5569572912533137,-2.7727284786954316,23.5
,,0.04710579173797001,0.06400073780352245,0.0004551003612545666,0.11156162990274703,1.0071520891832482,0.422240081818759,0.5736805553962826,-2.748860667508876,23.6
,,0.04669688967011032,0.06610840814376984,0.0003966465098769588,0.11320194432375712,1.0042498486658158,0.4125096079317984,0.5839865078173927,-2.716459336828838,23.7
,,0.04669688967011032,0.06610840814376984,0.0003966465098769588,0.11320194432375712,1.0013476081483834,0.4125096079317984,0.5839865078173927,-2.716459336828838,23.8
,,0.04669688967011032,0.06610840814376984,0.0003966465098769588,0.11320194432375712,0.9984453676309509,0.4125096079317984,0.5839865078173927,-2.716459336828838,23.9
,,0.04669688967011032,0.06610840814376984,0.0003966465098769588,0.11320194432375712,0.9955431271135188,0.4125096079317984,0.5839865078173927,-2.716459336828838,24.0
,,0.04669688967011032,0.06610840814376984,0.0003966465098769588,0.11320194432375712,0.9918707933627385,0.4125096079317984,0.5839865078173927,-2.716459336828838,24.1
,,0.04669688967011032,0.06610840814376984,0.0003966465098769588,0.11320194432375712,0.9882417538919678,0.4125096079317984,0.5839865078173927,-2.716459336828838,24.2
,,0.04669688967011032,0.06610840814376984,0.0003966465098769588,0.11320194432375712,0.9845694201411879,0.4125096079317984,0.5839865078173927,-2.716459336828838,24.3
,,0.04669688967011032,0.06610840814376984,0.0003966465098769588,0.11320194432375712,0.9780452857542503,0.4125096079317984,0.5839865078173927,-2.716459336828838,24.4
,,0.04669688967011032,0.06610840814376984,0.0003966465098769588,0.11320194432375712,0.9715211513673127,0.4125096079317984,0.5839865078173927,-2.716459336828838,24.5
,,0.042591191565205494,0.06747740544086905,0.00046032814351407256,0.11052892514958862,0.9641617226432562,0.385339778773412,0.6104954458712585,-2.695962471349001,24.6
,,0.042591191565205494,0.06747740544086905,0.00046032814351407256,0.11052892514958862,0.9568022939191992,0.385339778773412,0.6104954458712585,-2.695962471349001,24.7
,,0.042591191565205494,0.06747740544086905,0.00046032814351407256,0.11052892514958862,0.9494428651951426,0.385339778773412,0.6104954458712585,-2.695962471349001,24.8
,,0.042591191565205494,0.06747740544086905,0.00046032814351407256,0.11052892514958862,0.9420834364710858,0.385339778773412,0.6104954458712585,-2.695962471349001,24.9
,,0.042591191565205494,0.06747740544086905,0.00046032814351407256,0.11052892514958862,0.934724007747029,0.385339778773412,0.6104954458712585,-2.695962471349001,25.0
,,0.042591191565205494,0.06747740544086905,0.00046032814351407256,0.11052892514958862,0.9295654101679812,0.385339778773412,0.6104954458712585,-2.695962471349001,25.1
,,0.042591191565205494,0.06747740544086905,0.00046032814351407256,0.11052892514958862,0.9244068125889334,0.385339778773412,0.6104954458712585,-2.695962471349001,25.2
,,0.042591191565205494,0.06747740544086905,0.00046032814351407256,0.11052892514958862,0.9194169363818364,0.385339778773412,0.6104954458712585,-2.695962471349001,25.3
,,0.042591191565205494,0.06747740544086905,0.00046032814351407256,0.11052892514958862,0.9144270601747394,0.385339778773412,0.6104954458712585,-2.695962471349001,25.4
,,0.03801412450685229,0.06146769838937596,0.0005863710264934096,0.10006819392272166,0.9092955036519224,0.3798821885024622,0.6142580972016424,-2.789243471592006,25.5
,,0.03547993829775041,0.061610238655413145,0.00047431657231264965,0.09756449352547619,0.9036910208818156,0.3636562546033802,0.6314821758319832,-2.786927210315812,25.6
,,0.03547993829775041,0.061610238655413145,0.00047431657231264965,0.09756449352547619,0.8980865381117089,0.3636562546033802,0.6314821758319832,-2.786927210315812,25.7
,,0.03547993829775041,0.061610238655413145,0.00047431657231264965,0.09756449352547619,0.8924820553416022,0.3636562546033802,0.6314821758319832,-2.786927210315812,25.8
,,0.03547993829775041,0.061610238655413145,0.00047431657231264965,0.09756449352547619,0.8886216984398666,0.3636562546033802,0.6314821758319832,-2.786927210315812,25.9
,,0.03547993829775041,0.061610238655413145,0.00047431657231264965,0.09756449352547619,0.884761341538131,0.3636562546033802,0.6314821758319832,-2.786927210315812,26.0
,,0.03547993829775041,0.061610238655413145,0.00047431657231264965,0.09756449352547619,0.8809009846363955,0.3636562546033802,0.6314821758319832,-2.786927210315812,26.1
,,0.03547993829775041,0.061610238655413145,0.00047431657231264965,0.09756449352547619,0.877520210724045,0.3636562546033802,0.6314821758319832,-2.786927210315812,26.2
,,0.03547993829775041,0.061610238655413145,0.00047431657231264965,0.09756449352547619,0.8716678239695522,0.3636562546033802,0.6314821758319832,-2.786927210315812,26.3
,,0.018623765000802966,0.035983006713597325,0.00014425894450452933,0.05475103065890482,0.8676392035128606,0.3401536880068569,0.657211495026806,-3.324708487703373,26.4
,,0.01882486565472518,0.036870801941052286,0.0002002342040208303,0.055895901799798295,0.8635327146012209,0.3367843625128365,0.6596333676324252,-3.300335316469442,26.5
,,0.029817523665945228,0.05460864871134254,0.0004640332128543213,0.0848902055901421,0.8598202150757719,0.3512481028719266,0.6432856220775132,-2.9075630074688,26.6
,,0.029817523665945228,0.05460864871134254,0.0004640332128543213,0.0848902055901421,0.8561077155503231,0.3512481028719266,0.6432856220775132,-2.9075630074688,26.7
,,0.029817523665945228,0.05460864871134254,0.0004640332128543213,0.0848902055901421,0.8495124476311178,0.3512481028719266,0.6432856220775132,-2.9075630074688,26.8
,,0.029817523665945228,0.05460864871134254,0.0004640332128543213,0.0848902055901421,0.8429171797119126,0.3512481028719266,0.6432856220775132,-2.9075630074688,26.9
,,0.029817523665945228,0.05460864871134254,0.0004640332128543213,0.0848902055901421,0.8363219117927072,0.3512481028719266,0.6432856220775132,-2.9075630074688,27.0
,,0.029817523665945228,0.05460864871134254,0.0004640332128543213,0.0848902055901421,0.8301588669103538,0.3512481028719266,0.6432856220775132,-2.9075630074688,27.1
,,0.029817523665945228,0.05460864871134254,0.0004640332128543213,0.0848902055901421,0.823995822028,0.3512481028719266,0.6432856220775132,-2.9075630074688,27.2
,,0.02848540247088177,0.05139779674935451,0.0006136702333411773,0.08049686945357747,0.8179238045277563,0.353869692874321,0.6385067779436517,-2.96815997223829,27.3
,,0.02848540247088177,0.05139779674935451,0.0006136702333411773,0.08049686945357747,0.8118517870275122,0.353869692874321,0.6385067779436517,-2.96815997223829,27.4
,,0.019891224096794016,0.03654093323178152,0.00018234879556192836,0.056614506124137466,0.8056702151594376,0.35134500781794226,0.6454341074999218,-3.309322188353449,27.5
,,0.019891224096794016,0.03654093323178152,0.00018234879556192836,0.056614506124137466,0.7992784922967329,0.35134500781794226,0.6454341074999218,-3.309322188353449,27.6
,,0.019891224096794016,0.03654093323178152,0.00018234879556192836,0.056614506124137466,0.7928867694340281,0.35134500781794226,0.6454341074999218,-3.309322188353449,27.7
,,0.019891224096794016,0.03654093323178152,0.00018234879556192836,0.056614506124137466,0.7864950465713235,0.35134500781794226,0.6454341074999218,-3.309322188353449,27.8
,,0.019891224096794016,0.03654093323178152,0.00018234879556192836,0.056614506124137466,0.7801033237086189,0.35134500781794226,0.6454341074999218,-3.309322188353449,27.9
,,0.019891224096794016,0.03654093323178152,0.00018234879556192836,0.056614506124137466,0.7741949533496024,0.35134500781794226,0.6454341074999218,-3.309322188353449,28.0
,,0.019891224096794016,0.03654093323178152,0.00018234879556192836,0.056614506124137466,0.7682865829905862,0.35134500781794226,0.6454341074999218,-3.309322188353449,28.1
,,0.019891224096794016,0.03654093323178152,0.00018234879556192836,0.056614506124137466,0.7623782126315697,0.35134500781794226,0.6454341074999218,-3.309322188353449,28.2
,,0.02121488754730475,0.03786236474169217,0.00021286646986425,0.05929011875886117,0.7566471911077224,0.3578148938036001,0.638594854155752,-3.2737976749906017,28.3
,,0.02121488754730475,0.03786236474169217,0.00021286646986425,0.05929011875886117,0.7508370636884897,0.3578148938036001,0.638594854155752,-3.2737976749906017,28.4
,,0.023227815190773028,0.03935386307574113,0.0001988112853770699,0.06278048955189124,0.7453593100521575,0.36998461395516946,0.6268486174070558,-3.2351611367456568,28.5
,,0.023227815190773028,0.03935386307574113,0.0001988112853770699,0.06278048955189124,0.7398815564158253,0.36998461395516946,0.6268486174070558,-3.2351611367456568,28.6
,,0.023227815190773028,0.03935386307574113,0.0001988112853770699,0.06278048955189124,0.7344038027794931,0.36998461395516946,0.6268486174070558,-3.2351611367456568,28.7
,,0.023227815190773028,0.03935386307574113,0.0001988112853770699,0.06278048955189124,0.728926049143161,0.36998461395516946,0.6268486174070558,-3.2351611367456568,28.8
,,0.023227815190773028,0.03935386307574113,0.0001988112853770699,0.06278048955189124,0.7240059177160701,0.36998461395516946,0.6268486174070558,-3.2351611367456568,28.9
,,0.023227815190773028,0.03935386307574113,0.0001988112853770699,0.06278048955189124,0.719085786288979,0.36998461395516946,0.6268486174070558,-3.2351611367456568,29.0
,,0.023227815190773028,0.03935386307574113,0.0001988112853770699,0.06278048955189124,0.714209528284173,0.36998461395516946,0.6268486174070558,-3.2351611367456568,29.1
,,0.029681074372169266,0.050433800369199824,0.0006859454229629206,0.08080082016433202,0.7093142248800561,0.36733630069353446,0.6241743619263764,-2.9870936864388047,29.2
,,0.028334346499789925,0.04419265809162366,0.0002193085667507009,0.0727463131581643,0.705003805264357,0.38949529219694856,0.6074900042774736,-3.119196610220053,29.3
,,0.029681074372169266,0.050433800369199824,0.0006859454229629206,0.08080082016433202,0.7001085018602402,0.36733630069353446,0.6241743619263764,-2.9870936864388047,29.4
,,0.031070034917930884,0.050448891829968125,0.000578928890385237,0.08209785563828424,0.6955171538138865,0.37845123574022027,0.6144970710592174,-2.986794498133023,29.5
,,0.031070034917930884,0.050448891829968125,0.000578928890385237,0.08209785563828424,0.6909258057675327,0.37845123574022027,0.6144970710592174,-2.986794498133023,29.6
,,0.031070034917930884,0.050448891829968125,0.000578928890385237,0.08209785563828424,0.6863344577211791,0.37845123574022027,0.6144970710592174,-2.986794498133023,29.7
,,0.031070034917930884,0.050448891829968125,0.000578928890385237,0.08209785563828424,0.6823296503724916,0.37845123574022027,0.6144970710592174,-2.986794498133023,29.8
,,0.031070034917930884,0.050448891829968125,0.000578928890385237,0.08209785563828424,0.6785323555845898,0.37845123574022027,0.6144970710592174,-2.986794498133023,29.9
,,0.032519882609201696,0.0510965320238402,0.0004580601468809045,0.0840744747799228,0.6749636008884597,0.38679852231402256,0.6077532111570465,-2.9740386505365635,30.0
,,0.032519882609201696,0.0510965320238402,0.0004580601468809045,0.0840744747799228,0.6713948461923297,0.38679852231402256,0.6077532111570465,-2.9740386505365635,30.1
,,0.032519882609201696,0.0510965320238402,0.0004580601468809045,0.0840744747799228,0.6678260914961996,0.38679852231402256,0.6077532111570465,-2.9740386505365635,30.2
,,0.03488900067859328,0.051871179204060265,0.0005881483928191482,0.0873483282754727,0.6646592087621443,0.3994237939913736,0.5938428385311826,-2.9589919570414898,30.3
,,0.03845193156586717,0.05527128138029906,0.000259109225029161,0.09398232217119538,0.6617488371706639,0.40914004546327637,0.588102954932509,-2.89550182939451,30.4
,,0.03845193156586717,0.05527128138029906,0.000259109225029161,0.09398232217119538,0.6588384655791834,0.40914004546327637,0.588102954932509,-2.89550182939451,30.5
,,0.03845193156586717,0.05527128138029906,0.000259109225029161,0.09398232217119538,0.6559280939877029,0.40914004546327637,0.588102954932509,-2.89550182939451,30.6
,,0.03845193156586717,0.05527128138029906,0.000259109225029161,0.09398232217119538,0.6539254852685494,0.40914004546327637,0.588102954932509,-2.89550182939451,30.7
,,0.04267352793870534,0.059381082077919214,0.00021362963039385632,0.10226823964701841,0.6521778081434678,0.41727058259723815,0.5806405026905188,-2.8237795868769036,30.8
,,0.04267352793870534,0.059381082077919214,0.00021362963039385632,0.10226823964701841,0.6504301310183862,0.41727058259723815,0.5806405026905188,-2.8237795868769036,30.9
,,0.04267352793870534,0.059381082077919214,0.00021362963039385632,0.10226823964701841,0.6486824538933045,0.41727058259723815,0.5806405026905188,-2.8237795868769036,31.0
,,0.04267352793870534,0.059381082077919214,0.00021362963039385632,0.10226823964701841,0.6469347767682229,0.41727058259723815,0.5806405026905188,-2.8237795868769036,31.1
,,0.04267352793870534,0.059381082077919214,0.00021362963039385632,0.10226823964701841,0.6451870996431412,0.41727058259723815,0.5806405026905188,-2.8237795868769036,31.2
,,0.04564723625950859,0.06211800587544084,0.00027095344344478555,0.10803619557839421,0.6436195187486927,0.4225179905227746,0.5749740218348045,-2.7787193823849523,31.3
,,0.04564723625950859,0.06211800587544084,0.00027095344344478555,0.10803619557839421,0.6420519378542442,0.4225179905227746,0.5749740218348045,-2.7787193823849523,31.4
,,0.04125701644571076,0.05422738780584468,0.00042735412228890786,0.09591175837384434,0.6407728905303794,0.4301559803011783,0.5653883186509567,-2.9145691880917433,31.5
,,0.04125701644571076,0.05422738780584468,0.00042735412228890786,0.09591175837384434,0.6397956879742372,0.4301559803011783,0.5653883186509567,-2.9145691880917433,31.6
,,0.04125701644571076,0.05422738780584468,0.00042735412228890786,0.09591175837384434,0.6388184854180948,0.4301559803011783,0.5653883186509567,-2.9145691880917433,31.7
,,0.04125701644571076,0.05422738780584468,0.00042735412228890786,0.09591175837384434,0.6384931436116897,0.4301559803011783,0.5653883186509567,-2.9145691880917433,31.8
,,0.04125701644571076,0.05422738780584468,0.00042735412228890786,0.09591175837384434,0.6381678018052847,0.4301559803011783,0.5653883186509567,-2.9145691880917433,31.9
,,0.04125701644571076,0.05422738780584468,0.00042735412228890786,0.09591175837384434,0.6378424599988795,0.4301559803011783,0.5653883186509567,-2.9145691880917433,32.0
,,0.04125701644571076,0.05422738780584468,0.00042735412228890786,0.09591175837384434,0.6375171181924745,0.4301559803011783,0.5653883186509567,-2.9145691880917433,32.1
,,0.04419394652591046,0.05567922408238533,0.0005588623480962767,0.10043203295639207,0.6375574326414664,0.4400383545466975,0.5543970628032735,-2.888148198355058,32.2
,,0.04613685977148879,0.05697385242028173,0.0004023216857932816,0.1035130338775638,0.6377762569369687,0.4457106322094656,0.5504026911980084,-2.8651628458648797,32.3
,,0.04613685977148879,0.05697385242028173,0.0004023216857932816,0.1035130338775638,0.6379950812324711,0.4457106322094656,0.5504026911980084,-2.8651628458648797,32.4
,,0.04613685977148879,0.05697385242028173,0.0004023216857932816,0.1035130338775638,0.6382139055279734,0.4457106322094656,0.5504026911980084,-2.8651628458648797,32.5
,,0.04613685977148879,0.05697385242028173,0.0004023216857932816,0.1035130338775638,0.6390335783736308,0.4457106322094656,0.5504026911980084,-2.8651628458648797,32.6
,,0.04613685977148879,0.05697385242028173,0.0004023216857932816,0.1035130338775638,0.6401827081448227,0.4457106322094656,0.5504026911980084,-2.8651628458648797,32.7
,,0.04613685977148879,0.05697385242028173,0.0004023216857932816,0.1035130338775638,0.6413318379160144,0.4457106322094656,0.5504026911980084,-2.8651628458648797,32.8
,,0.04613685977148879,0.05697385242028173,0.0004023216857932816,0.1035130338775638,0.6424809676872063,0.4457106322094656,0.5504026911980084,-2.8651628458648797,32.9
,,0.04613685977148879,0.05697385242028173,0.0004023216857932816,0.1035130338775638,0.6436300974583979,0.4457106322094656,0.5504026911980084,-2.8651628458648797,33.0
,,0.046863613731517414,0.05647233127473067,0.0005102110101544428,0.10384615601640253,0.6450021251370034,0.4512792339093928,0.5438076231325389,-2.874004472729471,33.1
,,0.046863613731517414,0.05647233127473067,0.0005102110101544428,0.10384615601640253,0.6463741528156087,0.4512792339093928,0.5438076231325389,-2.874004472729471,33.2
,,0.047427043134780314,0.056280199687319524,0.0005921952661388903,0.10429943808823873,0.6478888930041043,0.45472002538169376,0.5396021370671787,-2.8774124986377743,33.3
,,0.047427043134780314,0.056280199687319524,0.0005921952661388903,0.10429943808823873,0.6494036331926,0.45472002538169376,0.5396021370671787,-2.8774124986377743,33.4
,,0.047427043134780314,0.056280199687319524,0.0005921952661388903,0.10429943808823873,0.6509183733810956,0.45472002538169376,0.5396021370671787,-2.8774124986377743,33.5
,,0.047427043134780314,0.056280199687319524,0.0005921952661388903,0.10429943808823873,0.6532684079067105,0.45472002538169376,0.5396021370671787,-2.8774124986377743,33.6
,,0.047427043134780314,0.056280199687319524,0.0005921952661388903,0.10429943808823873,0.6556184424323254,0.45472002538169376,0.5396021370671787,-2.8774124986377743,33.7
,,0.047427043134780314,0.056280199687319524,0.0005921952661388903,0.10429943808823873,0.6579684769579403,0.45472002538169376,0.5396021370671787,-2.8774124986377743,33.8
,,0.047427043134780314,0.056280199687319524,0.0005921952661388903,0.10429943808823873,0.6603185114835551,0.45472002538169376,0.5396021370671787,-2.8774124986377743,33.9
,,0.04812990429468483,0.057054226821002224,0.0004707337955772977,0.10565486491126436,0.6626783986944991,0.45553893173880233,0.5400056766805766,-2.8637531156551588,34.0
,,0.04812990429468483,0.057054226821002224,0.0004707337955772977,0.10565486491126436,0.6650382859054429,0.45553893173880233,0.5400056766805766,-2.8637531156551588,34.1
,,0.04812990429468483,0.057054226821002224,0.0004707337955772977,0.10565486491126436,0.6673981731163868,0.45553893173880233,0.5400056766805766,-2.8637531156551588,34.2
,,0.049428015673261196,0.05813556649694782,0.0005741072347803264,0.10813768940498934,0.6698318176175303,0.4570840744353897,0.5376068863393481,-2.844977642401469,34.3
,,0.049428015673261196,0.05813556649694782,0.0005741072347803264,0.10813768940498934,0.6722654621186739,0.4570840744353897,0.5376068863393481,-2.844977642401469,34.4
,,0.049428015673261196,0.05813556649694782,0.0005741072347803264,0.10813768940498934,0.6748407869355373,0.4570840744353897,0.5376068863393481,-2.844977642401469,34.5
,,0.049428015673261196,0.05813556649694782,0.0005741072347803264,0.10813768940498934,0.6778890379996906,0.4570840744353897,0.5376068863393481,-2.844977642401469,34.6
,,0.049428015673261196,0.05813556649694782,0.0005741072347803264,0.10813768940498934,0.6809372890638438,0.4570840744353897,0.5376068863393481,-2.844977642401469,34.7
,,0.04990045751283281,0.05954775981301523,0.0004632899295846401,0.10991150725543268,0.683849657971094,0.45400576116989194,0.5417791212218311,-2.8209766024775895,34.8
,,0.04990045751283281,0.05954775981301523,0.0004632899295846401,0.10991150725543268,0.6867620268783443,0.45400576116989194,0.5417791212218311,-2.8209766024775895,34.9
,,0.04990045751283281,0.05954775981301523,0.0004632899295846401,0.10991150725543268,0.6896743957855946,0.45400576116989194,0.5417791212218311,-2.8209766024775895,35.0
,,0.04990045751283281,0.05954775981301523,0.0004632899295846401,0.10991150725543268,0.692586764692845,0.45400576116989194,0.5417791212218311,-2.8209766024775895,35.1
,,0.04990045751283281,0.05954775981301523,0.0004632899295846401,0.10991150725543268,0.6954991336000954,0.45400576116989194,0.5417791212218311,-2.8209766024775895,35.2
,,0.05181379526360809,0.061708247349912905,0.0005861357348570058,0.11410817834837801,0.6984300250992751,0.4540760882661536,0.5407872445523977,-2.7853376884475156,35.3
,,0.05181379526360809,0.061708247349912905,0.0005861357348570058,0.11410817834837801,0.7020087631427957,0.4540760882661536,0.5407872445523977,-2.7853376884475156,35.4
,,0.05181379526360809,0.061708247349912905,0.0005861357348570058,0.11410817834837801,0.7056653696412647,0.4540760882661536,0.5407872445523977,-2.7853376884475156,35.5
,,0.05181379526360809,0.061708247349912905,0.0005861357348570058,0.11410817834837801,0.7089279867535427,0.4540760882661536,0.5407872445523977,-2.7853376884475156,35.6
,,0.05177662766489088,0.06351887275072457,0.0004834239963480514,0.11577892441196351,0.7119181611511168,0.44720252781637315,0.5486220663504551,-2.7564182085684115,35.7
,,0.05177662766489088,0.06351887275072457,0.0004834239963480514,0.11577892441196351,0.7149083355486908,0.44720252781637315,0.5486220663504551,-2.7564182085684115,35.8
,,0.05177662766489088,0.06351887275072457,0.0004834239963480514,0.11577892441196351,0.7178985099462649,0.44720252781637315,0.5486220663504551,-2.7564182085684115,35.9
,,0.05177662766489088,0.06351887275072457,0.0004834239963480514,0.11577892441196351,0.7208886843438389,0.44720252781637315,0.5486220663504551,-2.7564182085684115,36.0
,,0.05177662766489088,0.06351887275072457,0.0004834239963480514,0.11577892441196351,0.7238788587414131,0.44720252781637315,0.5486220663504551,-2.7564182085684115,36.1
,,0.05177662766489088,0.06351887275072457,0.0004834239963480514,0.11577892441196351,0.7268690331389872,0.44720252781637315,0.5486220663504551,-2.7564182085684115,36.2
,,0.04700798745977611,0.07213275977906787,0.00032044182490948813,0.11946118906375347,0.7279520621647061,0.3935000800526865,0.6038175272185882,-2.6292469720163547,36.3
,,0.04700798745977611,0.07213275977906787,0.00032044182490948813,0.11946118906375347,0.7290350911904251,0.3935000800526865,0.6038175272185882,-2.6292469720163547,36.4
,,0.04700798745977611,0.07213275977906787,0.00032044182490948813,0.11946118906375347,0.7302276745839749,0.3935000800526865,0.6038175272185882,-2.6292469720163547,36.5
,,0.053242781248291404,0.06825320337290636,0.00052902160192622,0.12202500622312398,0.7328468170797336,0.436326806252617,0.5593378397220048,-2.6845309101517616,36.6
,,0.053242781248291404,0.06825320337290636,0.00052902160192622,0.12202500622312398,0.7354659595754924,0.436326806252617,0.5593378397220048,-2.6845309101517616,36.7
,,0.053242781248291404,0.06825320337290636,0.00052902160192622,0.12202500622312398,0.7380851020712511,0.436326806252617,0.5593378397220048,-2.6845309101517616,36.8
,,0.053242781248291404,0.06825320337290636,0.00052902160192622,0.12202500622312398,0.74070424456701,0.436326806252617,0.5593378397220048,-2.6845309101517616,36.9
,,0.053242781248291404,0.06825320337290636,0.00052902160192622,0.12202500622312398,0.7433233870627687,0.436326806252617,0.5593378397220048,-2.6845309101517616,37.0
,,0.053242781248291404,0.06825320337290636,0.00052902160192622,0.12202500622312398,0.7459425295585277,0.436326806252617,0.5593378397220048,-2.6845309101517616,37.1
,,0.053242781248291404,0.06825320337290636,0.00052902160192622,0.12202500622312398,0.7485616720542864,0.436326806252617,0.5593378397220048,-2.6845309101517616,37.2
,,0.05547789910206496,0.07144561546150076,0.0007107892169358399,0.12763430378050156,0.7509637757496199,0.4346629194410994,0.5597681292982879,-2.638818741618628,37.3
,,0.05547789910206496,0.07144561546150076,0.0007107892169358399,0.12763430378050156,0.7533658794449536,0.4346629194410994,0.5597681292982879,-2.638818741618628,37.4
,,0.0441461789791275,0.07923708503529213,0.0003423113318888852,0.12372557534630851,0.75299822125562,0.35680722320799174,0.6404260785492986,-2.5353108443593197,37.5
,,0.0441461789791275,0.07923708503529213,0.0003423113318888852,0.12372557534630851,0.7526305630662864,0.35680722320799174,0.6404260785492986,-2.5353108443593197,37.6
,,0.0441461789791275,0.07923708503529213,0.0003423113318888852,0.12372557534630851,0.7522629048769528,0.35680722320799174,0.6404260785492986,-2.5353108443593197,37.7
,,0.0441461789791275,0.07923708503529213,0.0003423113318888852,0.12372557534630851,0.7518952466876192,0.35680722320799174,0.6404260785492986,-2.5353108443593197,37.8
,,0.0441461789791275,0.07923708503529213,0.0003423113318888852,0.12372557534630851,0.7515275884982857,0.35680722320799174,0.6404260785492986,-2.5353108443593197,37.9
,,0.0441461789791275,0.07923708503529213,0.0003423113318888852,0.12372557534630851,0.7511599303089521,0.35680722320799174,0.6404260785492986,-2.5353108443593197,38.0
,,0.0441461789791275,0.07923708503529213,0.0003423113318888852,0.12372557534630851,0.7507922721196184,0.35680722320799174,0.6404260785492986,-2.5353108443593197,38.1
,,0.0441461789791275,0.07923708503529213,0.0003423113318888852,0.12372557534630851,0.7504436593295954,0.35680722320799174,0.6404260785492986,-2.5353108443593197,38.2
,,0.055308245141605566,0.07532050313694384,0.0008076797410599628,0.1314364280196094,0.7514786620308825,0.42079844967602104,0.5730565283294716,-2.5860028952242082,38.3
,,0.05264451207580424,0.07545773456781123,0.0005761083339966778,0.12867835497761215,0.7526914769549191,0.40911707400178915,0.586405806795864,-2.5841825865264845,38.4
,,0.05264451207580424,0.07545773456781123,0.0005761083339966778,0.12867835497761215,0.7536003365211925,0.40911707400178915,0.586405806795864,-2.5841825865264845,38.5
,,0.05264451207580424,0.07545773456781123,0.0005761083339966778,0.12867835497761215,0.7545091960874662,0.40911707400178915,0.586405806795864,-2.5841825865264845,38.6
,,0.05264451207580424,0.07545773456781123,0.0005761083339966778,0.12867835497761215,0.7554180556537395,0.40911707400178915,0.586405806795864,-2.5841825865264845,38.7
,,0.05264451207580424,0.07545773456781123,0.0005761083339966778,0.12867835497761215,0.756326915220013,0.40911707400178915,0.586405806795864,-2.5841825865264845,38.8
,,0.05264451207580424,0.07545773456781123,0.0005761083339966778,0.12867835497761215,0.7572357747862867,0.40911707400178915,0.586405806795864,-2.5841825865264845,38.9
,,0.05264451207580424,0.07545773456781123,0.0005761083339966778,0.12867835497761215,0.7579160942607882,0.40911707400178915,0.586405806795864,-2.5841825865264845,39.0
,,0.05264451207580424,0.07545773456781123,0.0005761083339966778,0.12867835497761215,0.7585964137352896,0.40911707400178915,0.586405806795864,-2.5841825865264845,39.1
,,0.0509030911833415,0.07707596651897962,0.000634565112561142,0.12861362281488226,0.7588629407352683,0.39578304435610184,0.5992830684033957,-2.562963765308274,39.2
,,0.050420834147182764,0.07686003507231737,0.0006428422862387446,0.12792371150573886,0.7586784949829298,0.3941476803143005,0.6008271192856166,-2.56576923753124,39.3
,,0.050420834147182764,0.07686003507231737,0.0006428422862387446,0.12792371150573886,0.7582375380880165,0.3941476803143005,0.6008271192856166,-2.56576923753124,39.4
,,0.050420834147182764,0.07686003507231737,0.0006428422862387446,0.12792371150573886,0.7577965811931031,0.3941476803143005,0.6008271192856166,-2.56576923753124,39.5
,,0.050420834147182764,0.07686003507231737,0.0006428422862387446,0.12792371150573886,0.7573556242981897,0.3941476803143005,0.6008271192856166,-2.56576923753124,39.6
,,0.050420834147182764,0.07686003507231737,0.0006428422862387446,0.12792371150573886,0.7569146674032764,0.3941476803143005,0.6008271192856166,-2.56576923753124,39.7
,,0.050420834147182764,0.07686003507231737,0.0006428422862387446,0.12792371150573886,0.7562187789142912,0.3941476803143005,0.6008271192856166,-2.56576923753124,39.8
,,0.050420834147182764,0.07686003507231737,0.0006428422862387446,0.12792371150573886,0.755522890425306,0.3941476803143005,0.6008271192856166,-2.56576923753124,39.9
,,0.050420834147182764,0.07686003507231737,0.0006428422862387446,0.12792371150573886,0.7548270019363206,0.3941476803143005,0.6008271192856166,-2.56576923753124,40.0
,,0.050420834147182764,0.07686003507231737,0.0006428422862387446,0.12792371150573886,0.7541311134473354,0.3941476803143005,0.6008271192856166,-2.56576923753124,40.1
,,0.04737105363316023,0.07620699078836908,0.0006901723701003734,0.12426821679162968,0.7530530235204272,0.3812000755799933,0.6132460314945322,-2.5743020778681185,40.2
,,0.047195934736209824,0.07608764203454818,0.0006931761383632759,0.12397675290912127,0.7517800984418601,0.3806837461762358,0.613725075460903,-2.575869418437394,40.3
,,0.047195934736209824,0.07608764203454818,0.0006931761383632759,0.12397675290912127,0.750507173363293,0.3806837461762358,0.613725075460903,-2.575869418437394,40.4
,,0.047195934736209824,0.07608764203454818,0.0006931761383632759,0.12397675290912127,0.7489457147141421,0.3806837461762358,0.613725075460903,-2.575869418437394,40.5
,,0.047195934736209824,0.07608764203454818,0.0006931761383632759,0.12397675290912127,0.747384256064991,0.3806837461762358,0.613725075460903,-2.575869418437394,40.6
,,0.047195934736209824,0.07608764203454818,0.0006931761383632759,0.12397675290912127,0.7458227974158401,0.3806837461762358,0.613725075460903,-2.575869418437394,40.7
,,0.047195934736209824,0.07608764203454818,0.0006931761383632759,0.12397675290912127,0.7442613387666891,0.3806837461762358,0.613725075460903,-2.575869418437394,40.8
,,0.047195934736209824,0.07608764203454818,0.0006931761383632759,0.12397675290912127,0.7426998801175381,0.3806837461762358,0.613725075460903,-2.575869418437394,40.9
,,0.047195934736209824,0.07608764203454818,0.0006931761383632759,0.12397675290912127,0.7411384214683872,0.3806837461762358,0.613725075460903,-2.575869418437394,41.0
,,0.044135019826427035,0.07363107154726681,0.0007071166267396747,0.11847320800043351,0.7393450039911459,0.37253165142844397,0.6214997702011866,-2.6086881745732664,41.1
,,0.04372260504559394,0.07319419384594106,0.0007122891993375357,0.11762908809087254,0.7371630767471781,0.371698920353924,0.6222456964844955,-2.614639180205314,41.2
,,0.04372260504559394,0.07319419384594106,0.0007122891993375357,0.11762908809087254,0.7348026396566997,0.371698920353924,0.6222456964844955,-2.614639180205314,41.3
,,0.04372260504559394,0.07319419384594106,0.0007122891993375357,0.11762908809087254,0.7324422025662214,0.371698920353924,0.6222456964844955,-2.614639180205314,41.4
,,0.04372260504559394,0.07319419384594106,0.0007122891993375357,0.11762908809087254,0.7300817654757432,0.371698920353924,0.6222456964844955,-2.614639180205314,41.5
,,0.04372260504559394,0.07319419384594106,0.0007122891993375357,0.11762908809087254,0.7277213283852649,0.371698920353924,0.6222456964844955,-2.614639180205314,41.6
,,0.04372260504559394,0.07319419384594106,0.0007122891993375357,0.11762908809087254,0.7253608912947866,0.371698920353924,0.6222456964844955,-2.614639180205314,41.7
,,0.04372260504559394,0.07319419384594106,0.0007122891993375357,0.11762908809087254,0.7230004542043085,0.371698920353924,0.6222456964844955,-2.614639180205314,41.8
,,0.04372260504559394,0.07319419384594106,0.0007122891993375357,0.11762908809087254,0.7206400171138302,0.371698920353924,0.6222456964844955,-2.614639180205314,41.9
,,0.04372260504559394,0.07319419384594106,0.0007122891993375357,0.11762908809087254,0.7182795800233518,0.371698920353924,0.6222456964844955,-2.614639180205314,42.0
,,0.04370765926445161,0.0721585831196491,0.0010639801210647248,0.11693022250516542,0.7157892003245885,0.3737926630775103,0.6171080630284568,-2.628889038680395,42.1
,,0.04084078150943561,0.06880581877427858,0.0006955483972207852,0.11034214868093498,0.7131638106650697,0.3701285682548261,0.6235678713601751,-2.676466962411583,42.2
,,0.04084078150943561,0.06880581877427858,0.0006955483972207852,0.11034214868093498,0.7103957084956609,0.3701285682548261,0.6235678713601751,-2.676466962411583,42.3
,,0.04084078150943561,0.06880581877427858,0.0006955483972207852,0.11034214868093498,0.707627606326252,0.3701285682548261,0.6235678713601751,-2.676466962411583,42.4
,,0.04084078150943561,0.06880581877427858,0.0006955483972207852,0.11034214868093498,0.7048595041568431,0.3701285682548261,0.6235678713601751,-2.676466962411583,42.5
,,0.04084078150943561,0.06880581877427858,0.0006955483972207852,0.11034214868093498,0.7020914019874341,0.3701285682548261,0.6235678713601751,-2.676466962411583,42.6
,,0.04084078150943561,0.06880581877427858,0.0006955483972207852,0.11034214868093498,0.6993232998180252,0.3701285682548261,0.6235678713601751,-2.676466962411583,42.7
,,0.04084078150943561,0.06880581877427858,0.0006955483972207852,0.11034214868093498,0.6965551976486163,0.3701285682548261,0.6235678713601751,-2.676466962411583,42.8
,,0.04084078150943561,0.06880581877427858,0.0006955483972207852,0.11034214868093498,0.6937870954792074,0.3701285682548261,0.6235678713601751,-2.676466962411583,42.9
,,0.04094542632578947,0.0665842513822805,0.001029530110683746,0.10855920781875371,0.6912466494504032,0.3771713809311356,0.613345037423698,-2.709287195129747,43.0
,,0.02729466261789076,0.0633307904213522,0.0006495156402772366,0.0912749686795202,0.6866622485109326,0.299037764819469,0.693846202716496,-2.7593836475376508,43.1
,,0.02729466261789076,0.0633307904213522,0.0006495156402772366,0.0912749686795202,0.6820778475714621,0.299037764819469,0.693846202716496,-2.7593836475376508,43.2
,,0.02729466261789076,0.0633307904213522,0.0006495156402772366,0.0912749686795202,0.6774196893417919,0.299037764819469,0.693846202716496,-2.7593836475376508,43.3
,,0.02729466261789076,0.0633307904213522,0.0006495156402772366,0.0912749686795202,0.6727615311121217,0.299037764819469,0.693846202716496,-2.7593836475376508,43.4
,,0.02729466261789076,0.0633307904213522,0.0006495156402772366,0.0912749686795202,0.6681033728824515,0.299037764819469,0.693846202716496,-2.7593836475376508,43.5
,,0.02729466261789076,0.0633307904213522,0.0006495156402772366,0.0912749686795202,0.6634452146527813,0.299037764819469,0.693846202716496,-2.7593836475376508,43.6
,,0.02729466261789076,0.0633307904213522,0.0006495156402772366,0.0912749686795202,0.6587870564231111,0.299037764819469,0.693846202716496,-2.7593836475376508,43.7
,,0.02729466261789076,0.0633307904213522,0.0006495156402772366,0.0912749686795202,0.6542647803503437,0.299037764819469,0.693846202716496,-2.7593836475376508,43.8
,,0.02729466261789076,0.0633307904213522,0.0006495156402772366,0.0912749686795202,0.6497425042775764,0.299037764819469,0.693846202716496,-2.7593836475376508,43.9
,,0.03633861905886057,0.07613690467427475,0.0010305606785361325,0.11350608441167145,0.6457346093318811,0.32014688240909833,0.67077377454178,-2.575222181936956,44.0
,,0.0386562756837345,0.05779752098298191,0.000585372940473226,0.09703916960718964,0.6438549634893272,0.3983574451452278,0.5956102181927543,-2.8508093937913763,44.1
,,0.0386562756837345,0.05779752098298191,0.000585372940473226,0.09703916960718964,0.6419753176467735,0.3983574451452278,0.5956102181927543,-2.8508093937913763,44.2
,,0.0386562756837345,0.05779752098298191,0.000585372940473226,0.09703916960718964,0.6400771492122904,0.3983574451452278,0.5956102181927543,-2.8508093937913763,44.3
,,0.0386562756837345,0.05779752098298191,0.000585372940473226,0.09703916960718964,0.6381789807778071,0.3983574451452278,0.5956102181927543,-2.8508093937913763,44.4
,,0.0386562756837345,0.05779752098298191,0.000585372940473226,0.09703916960718964,0.636280812343324,0.3983574451452278,0.5956102181927543,-2.8508093937913763,44.5
,,0.0386562756837345,0.05779752098298191,0.000585372940473226,0.09703916960718964,0.6343826439088408,0.3983574451452278,0.5956102181927543,-2.8508093937913763,44.6
,,0.0386562756837345,0.05779752098298191,0.000585372940473226,0.09703916960718964,0.6327569181890615,0.3983574451452278,0.5956102181927543,-2.8508093937913763,44.7
,,0.0386562756837345,0.05779752098298191,0.000585372940473226,0.09703916960718964,0.6311311924692824,0.3983574451452278,0.5956102181927543,-2.8508093937913763,44.8
,,0.0386562756837345,0.05779752098298191,0.000585372940473226,0.09703916960718964,0.6295054667495031,0.3983574451452278,0.5956102181927543,-2.8508093937913763,44.9
,,0.04014513175644138,0.054710732695707455,0.0008603028994601061,0.09571616735160894,0.6286013888255341,0.4194185043888154,0.5715934330584936,-2.9056953786417115,45.0
,,0.03984386590810912,0.052911578606171294,0.0005195500430340452,0.09327499455731446,0.6279112738743302,0.4271655666902919,0.5672643440751834,-2.939133086824699,45.1
,,0.03984386590810912,0.052911578606171294,0.0005195500430340452,0.09327499455731446,0.6272211589231264,0.4271655666902919,0.5672643440751834,-2.939133086824699,45.2
,,0.03984386590810912,0.052911578606171294,0.0005195500430340452,0.09327499455731446,0.628347161961668,0.4271655666902919,0.5672643440751834,-2.939133086824699,45.3
,,0.03984386590810912,0.052911578606171294,0.0005195500430340452,0.09327499455731446,0.6294731650002094,0.4271655666902919,0.5672643440751834,-2.939133086824699,45.4
,,0.03984386590810912,0.052911578606171294,0.0005195500430340452,0.09327499455731446,0.630599168038751,0.4271655666902919,0.5672643440751834,-2.939133086824699,45.5
,,0.03984386590810912,0.052911578606171294,0.0005195500430340452,0.09327499455731446,0.6302986119750835,0.4271655666902919,0.5672643440751834,-2.939133086824699,45.6
,,0.03984386590810912,0.052911578606171294,0.0005195500430340452,0.09327499455731446,0.6299980559114159,0.4271655666902919,0.5672643440751834,-2.939133086824699,45.7
,,0.03984386590810912,0.052911578606171294,0.0005195500430340452,0.09327499455731446,0.6296974998477484,0.4271655666902919,0.5672643440751834,-2.939133086824699,45.8
,,0.03971052117769891,0.05144311322705142,0.0006553130118089627,0.09180894741655929,0.6296069815874327,0.43253432584868573,0.560327883878699,-2.9672786793629093,45.9
,,0.0544167222456148,0.07449220464011026,0.0006913743326120642,0.12960030121833713,0.6290561464898194,0.4198811401984256,0.5747841937081113,-2.597060794774538,46.0
,,0.0544167222456148,0.07449220464011026,0.0006913743326120642,0.12960030121833713,0.6285053113922061,0.4198811401984256,0.5747841937081113,-2.597060794774538,46.1
,,0.0544167222456148,0.07449220464011026,0.0006913743326120642,0.12960030121833713,0.6279544762945929,0.4198811401984256,0.5747841937081113,-2.597060794774538,46.2
,,0.0544167222456148,0.07449220464011026,0.0006913743326120642,0.12960030121833713,0.6274433311622356,0.4198811401984256,0.5747841937081113,-2.597060794774538,46.3
,,0.0544167222456148,0.07449220464011026,0.0006913743326120642,0.12960030121833713,0.6269321860298783,0.4198811401984256,0.5747841937081113,-2.597060794774538,46.4
,,0.0544167222456148,0.07449220464011026,0.0006913743326120642,0.12960030121833713,0.6288584289992876,0.4198811401984256,0.5747841937081113,-2.597060794774538,46.5
,,0.0544167222456148,0.07449220464011026,0.0006913743326120642,0.12960030121833713,0.6307846719686969,0.4198811401984256,0.5747841937081113,-2.597060794774538,46.6
,,0.0544167222456148,0.07449220464011026,0.0006913743326120642,0.12960030121833713,0.6327109149381062,0.4198811401984256,0.5747841937081113,-2.597060794774538,46.7
,,0.0544167222456148,0.07449220464011026,0.0006913743326120642,0.12960030121833713,0.6346371579075154,0.4198811401984256,0.5747841937081113,-2.597060794774538,46.8
,,0.04197041246907066,0.048331397905715064,0.0005959762659447861,0.09089778664073052,0.6380954663881662,0.461731952120648,0.5317114936664274,-3.029673869361461,46.9
,,0.04186335360209407,0.04816948857073284,0.0005971703550568099,0.09063001252788372,0.6415615117346662,0.46191490472556385,0.5314959937351079,-3.0330294755702787,47.0
,,0.05982329097048743,0.0694900184496165,0.0006376765875610122,0.12995098600766494,0.6449365122437952,0.4603527284276154,0.534740216942392,-2.666572156155627,47.1
,,0.05982329097048743,0.0694900184496165,0.0006376765875610122,0.12995098600766494,0.648311512752924,0.4603527284276154,0.534740216942392,-2.666572156155627,47.2
,,0.05982329097048743,0.0694900184496165,0.0006376765875610122,0.12995098600766494,0.6497180139823253,0.4603527284276154,0.534740216942392,-2.666572156155627,47.3
,,0.05982329097048743,0.0694900184496165,0.0006376765875610122,0.12995098600766494,0.6515315867773946,0.4603527284276154,0.534740216942392,-2.666572156155627,47.4
,,0.05982329097048743,0.0694900184496165,0.0006376765875610122,0.12995098600766494,0.653345159572464,0.4603527284276154,0.534740216942392,-2.666572156155627,47.5
,,0.05982329097048743,0.0694900184496165,0.0006376765875610122,0.12995098600766494,0.6551587323675334,0.4603527284276154,0.534740216942392,-2.666572156155627,47.6
,,0.05982329097048743,0.0694900184496165,0.0006376765875610122,0.12995098600766494,0.6569723051626029,0.4603527284276154,0.534740216942392,-2.666572156155627,47.7
,,0.044177353186358445,0.04632521623796449,0.0005461829945810066,0.09104875241890395,0.6598163746657156,0.4852054752283036,0.5087957276430098,-3.0720688389756394,47.8
,,0.05982329097048743,0.0694900184496165,0.0006376765875610122,0.12995098600766494,0.6616299474607851,0.4603527284276154,0.534740216942392,-2.666572156155627,47.9
,,0.04385847342958069,0.04599620734094258,0.0005492776237615422,0.09040395839428482,0.6644727788624215,0.4851388612686383,0.5087853248674825,-3.0791963350021008,48.0
,,0.04587524306472536,0.044457010041253686,0.0003837986963862105,0.09071605180236526,0.6681864717306049,0.505701495526608,0.49006773506973267,-3.1132326232416103,48.1
,,0.04587524306472536,0.044457010041253686,0.0003837986963862105,0.09071605180236526,0.6723139570733113,0.505701495526608,0.49006773506973267,-3.1132326232416103,48.2
,,0.04587524306472536,0.044457010041253686,0.0003837986963862105,0.09071605180236526,0.6764905432062602,0.505701495526608,0.49006773506973267,-3.1132326232416103,48.3
,,0.04587524306472536,0.044457010041253686,0.0003837986963862105,0.09071605180236526,0.6806671293392089,0.505701495526608,0.49006773506973267,-3.1132326232416103,48.4
,,0.04587524306472536,0.044457010041253686,0.0003837986963862105,0.09071605180236526,0.6848437154721577,0.505701495526608,0.49006773506973267,-3.1132326232416103,48.5
,,0.04587524306472536,0.044457010041253686,0.0003837986963862105,0.09071605180236526,0.6890203016051064,0.505701495526608,0.49006773506973267,-3.1132326232416103,48.6
,,0.04587524306472536,0.044457010041253686,0.0003837986963862105,0.09071605180236526,0.6931968877380553,0.505701495526608,0.49006773506973267,-3.1132326232416103,48.7
,,0.0456290949242629,0.04476523393998717,0.0005206222393024065,0.09091495110355248,0.6972334334599061,0.5018876914127268,0.4923858330958062,-3.10632346895218,48.8
,,0.04587524306472536,0.044457010041253686,0.0003837986963862105,0.09071605180236526,0.7014100195928548,0.505701495526608,0.49006773506973267,-3.1132326232416103,48.9
,,0.0468632312910931,0.04313337357777153,0.00037761857914389406,0.09037422344800852,0.7061929550603232,0.5185464339624793,0.47727517794480157,-3.1434582525598125,49.0
,,0.0468632312910931,0.04313337357777153,0.00037761857914389406,0.09037422344800852,0.7109758905277915,0.5185464339624793,0.47727517794480157,-3.1434582525598125,49.1
,,0.0468632312910931,0.04313337357777153,0.00037761857914389406,0.09037422344800852,0.7161410274331829,0.5185464339624793,0.47727517794480157,-3.1434582525598125,49.2
,,0.0468632312910931,0.04313337357777153,0.00037761857914389406,0.09037422344800852,0.7213209032596,0.5185464339624793,0.47727517794480157,-3.1434582525598125,49.3
,,0.0468632312910931,0.04313337357777153,0.00037761857914389406,0.09037422344800852,0.7265007790860172,0.5185464339624793,0.47727517794480157,-3.1434582525598125,49.4
,,0.0468632312910931,0.04313337357777153,0.00037761857914389406,0.09037422344800852,0.7316806549124343,0.5185464339624793,0.47727517794480157,-3.1434582525598125,49.5
,,0.0468632312910931,0.04313337357777153,0.00037761857914389406,0.09037422344800852,0.7368605307388514,0.5185464339624793,0.47727517794480157,-3.1434582525598125,49.6
,,0.0468632312910931,0.04313337357777153,0.00037761857914389406,0.09037422344800852,0.7420404065652685,0.5185464339624793,0.47727517794480157,-3.1434582525598125,49.7
,,0.04645343178923841,0.04381072640785634,0.000509536445877579,0.09077369464297232,0.7469297079823137,0.5117499290069364,0.4826368099279317,-3.127876596425123,49.8
,,0.04588473137217188,0.04361104258809437,0.0005221337720891715,0.09001790773235543,0.7517280611096546,0.5097289253666955,0.48447074239672766,-3.1324448903255373,49.9
,,0.046783602181724775,0.04229939279490574,0.00039132025330328933,0.0894743152299338,0.7571250317816917,0.5228718662053893,0.4727545853377416,-3.1629825477632956,50.0
,,0.046783602181724775,0.04229939279490574,0.00039132025330328933,0.0894743152299338,0.762753961281819,0.5228718662053893,0.4727545853377416,-3.1629825477632956,50.1
,,0.046783602181724775,0.04229939279490574,0.00039132025330328933,0.0894743152299338,0.7684057442932756,0.5228718662053893,0.4727545853377416,-3.1629825477632956,50.2
,,0.046783602181724775,0.04229939279490574,0.00039132025330328933,0.0894743152299338,0.7740575273047325,0.5228718662053893,0.4727545853377416,-3.1629825477632956,50.3
,,0.046783602181724775,0.04229939279490574,0.00039132025330328933,0.0894743152299338,0.7797093103161894,0.5228718662053893,0.4727545853377416,-3.1629825477632956,50.4
,,0.046783602181724775,0.04229939279490574,0.00039132025330328933,0.0894743152299338,0.7853610933276463,0.5228718662053893,0.4727545853377416,-3.1629825477632956,50.5
,,0.046783602181724775,0.04229939279490574,0.00039132025330328933,0.0894743152299338,0.7910128763391032,0.5228718662053893,0.4727545853377416,-3.1629825477632956,50.6
,,0.046783602181724775,0.04229939279490574,0.00039132025330328933,0.0894743152299338,0.7966646593505601,0.5228718662053893,0.4727545853377416,-3.1629825477632956,50.7
,,0.045826579693793175,0.04318721872737907,0.0005388595222737555,0.089552657943446,0.8018175890309778,0.5117277448396164,0.4822550186578775,-3.1422106903002542,50.8
,,0.04570863169880934,0.04164814777479088,0.00042065722432370664,0.08777743669792393,0.8073747470002085,0.5207332706252338,0.47447441326087303,-3.1784983825516546,50.9
,,0.04570863169880934,0.04164814777479088,0.00042065722432370664,0.08777743669792393,0.8129319049694392,0.5207332706252338,0.47447441326087303,-3.1784983825516546,51.0
,,0.04570863169880934,0.04164814777479088,0.00042065722432370664,0.08777743669792393,0.8183961076395414,0.5207332706252338,0.47447441326087303,-3.1784983825516546,51.1
,,0.04570863169880934,0.04164814777479088,0.00042065722432370664,0.08777743669792393,0.8239953202703988,0.5207332706252338,0.47447441326087303,-3.1784983825516546,51.2
,,0.04570863169880934,0.04164814777479088,0.00042065722432370664,0.08777743669792393,0.8295945329012563,0.5207332706252338,0.47447441326087303,-3.1784983825516546,51.3
,,0.04570863169880934,0.04164814777479088,0.00042065722432370664,0.08777743669792393,0.8351937455321138,0.5207332706252338,0.47447441326087303,-3.1784983825516546,51.4
,,0.04570863169880934,0.04164814777479088,0.00042065722432370664,0.08777743669792393,0.8407929581629713,0.5207332706252338,0.47447441326087303,-3.1784983825516546,51.5
,,0.04570863169880934,0.04164814777479088,0.00042065722432370664,0.08777743669792393,0.8463921707938289,0.5207332706252338,0.47447441326087303,-3.1784983825516546,51.6
,,0.04570863169880934,0.04164814777479088,0.00042065722432370664,0.08777743669792393,0.8519913834246864,0.5207332706252338,0.47447441326087303,-3.1784983825516546,51.7
,,0.04456584501395067,0.042737896429534024,0.0005817466493141789,0.08788548809279886,0.8569825537736899,0.5070899187234791,0.486290710298005,-3.1526692481420073,51.8
,,0.043809606823824,0.04117975186483308,0.0004713939664595378,0.08546075265511663,0.8622080760812163,0.5126283757483509,0.4818557125399668,-3.1898086030239337,51.9
,,0.043809606823824,0.04117975186483308,0.0004713939664595378,0.08546075265511663,0.8671960895628092,0.5126283757483509,0.4818557125399668,-3.1898086030239337,52.0
,,0.043809606823824,0.04117975186483308,0.0004713939664595378,0.08546075265511663,0.8742280579550683,0.5126283757483509,0.4818557125399668,-3.1898086030239337,52.1
,,0.043809606823824,0.04117975186483308,0.0004713939664595378,0.08546075265511663,0.8812600263473276,0.5126283757483509,0.4818557125399668,-3.1898086030239337,52.2
,,0.043809606823824,0.04117975186483308,0.0004713939664595378,0.08546075265511663,0.8882919947395868,0.5126283757483509,0.4818557125399668,-3.1898086030239337,52.3
,,0.043809606823824,0.04117975186483308,0.0004713939664595378,0.08546075265511663,0.8953239631318458,0.5126283757483509,0.4818557125399668,-3.1898086030239337,52.4
,,0.043809606823824,0.04117975186483308,0.0004713939664595378,0.08546075265511663,0.9023559315241052,0.5126283757483509,0.4818557125399668,-3.1898086030239337,52.5
,,0.043809606823824,0.04117975186483308,0.0004713939664595378,0.08546075265511663,0.9093878999163644,0.5126283757483509,0.4818557125399668,-3.1898086030239337,52.6
,,0.04241662116567727,0.04218424792595876,0.0006493243118932833,0.08525019340352931,0.9157714873532596,0.4975545447140446,0.49482876509477053,-3.1657083995201782,52.7
,,0.04139464114435729,0.04074078192410318,0.0005372750116744174,0.08267269808013489,0.9222721939511722,0.5007050949786754,0.4927960846833984,-3.200525675336164,52.8
,,0.04139464114435729,0.04074078192410318,0.0005372750116744174,0.08267269808013489,0.9287729005490849,0.5007050949786754,0.4927960846833984,-3.200525675336164,52.9
,,0.04139464114435729,0.04074078192410318,0.0005372750116744174,0.08267269808013489,0.9347592260199258,0.5007050949786754,0.4927960846833984,-3.200525675336164,53.0
,,0.04139464114435729,0.04074078192410318,0.0005372750116744174,0.08267269808013489,0.9386173023876249,0.5007050949786754,0.4927960846833984,-3.200525675336164,53.1
,,0.04139464114435729,0.04074078192410318,0.0005372750116744174,0.08267269808013489,0.9424753787553238,0.5007050949786754,0.4927960846833984,-3.200525675336164,53.2
,,0.04139464114435729,0.04074078192410318,0.0005372750116744174,0.08267269808013489,0.9463334551230229,0.5007050949786754,0.4927960846833984,-3.200525675336164,53.3
,,0.04139464114435729,0.04074078192410318,0.0005372750116744174,0.08267269808013489,0.9501915314907221,0.5007050949786754,0.4927960846833984,-3.200525675336164,53.4
,,0.04139464114435729,0.04074078192410318,0.0005372750116744174,0.08267269808013489,0.9540496078584212,0.5007050949786754,0.4927960846833984,-3.200525675336164,53.5
,,0.04139464114435729,0.04074078192410318,0.0005372750116744174,0.08267269808013489,0.9579076842261204,0.5007050949786754,0.4927960846833984,-3.200525675336164,53.6
,,0.054895747825347736,0.05151346529457079,0.0008434179230534542,0.10725263104297197,0.9623169713301402,0.5118359082804518,0.4803002480557455,-2.9659120434571857,53.7
,,0.054895747825347736,0.05151346529457079,0.0008434179230534542,0.10725263104297197,0.9667262584341603,0.5118359082804518,0.4803002480557455,-2.9659120434571857,53.8
,,0.054895747825347736,0.05151346529457079,0.0008434179230534542,0.10725263104297197,0.9711355455381802,0.5118359082804518,0.4803002480557455,-2.9659120434571857,53.9
,,0.054895747825347736,0.05151346529457079,0.0008434179230534542,0.10725263104297197,0.9748231848463901,0.5118359082804518,0.4803002480557455,-2.9659120434571857,54.0
,,0.054895747825347736,0.05151346529457079,0.0008434179230534542,0.10725263104297197,0.9782968611818348,0.5118359082804518,0.4803002480557455,-2.9659120434571857,54.1
,,0.054895747825347736,0.05151346529457079,0.0008434179230534542,0.10725263104297197,0.9817705375172794,0.5118359082804518,0.4803002480557455,-2.9659120434571857,54.2
,,0.054895747825347736,0.05151346529457079,0.0008434179230534542,0.10725263104297197,0.9852442138527241,0.5118359082804518,0.4803002480557455,-2.9659120434571857,54.3
,,0.054895747825347736,0.05151346529457079,0.0008434179230534542,0.10725263104297197,0.9887178901881687,0.5118359082804518,0.4803002480557455,-2.9659120434571857,54.4
,,0.0363395786215365,0.037962217310187986,0.000903065531200144,0.07520486146292463,0.9909871027567483,0.48320783942207796,0.5047840867162962,-3.271163895192148,54.5
,,0.034920368773388596,0.038952974196137226,0.0006857967308750407,0.07455913970040087,0.9925809658675783,0.46835798955980773,0.5224439867823178,-3.245400150244605,54.6
,,0.034920368773388596,0.038952974196137226,0.0006857967308750407,0.07455913970040087,0.9941748289784083,0.46835798955980773,0.5224439867823178,-3.245400150244605,54.7
,,0.034920368773388596,0.038952974196137226,0.0006857967308750407,0.07455913970040087,0.995768692089238,0.46835798955980773,0.5224439867823178,-3.245400150244605,54.8
,,0.034920368773388596,0.038952974196137226,0.0006857967308750407,0.07455913970040087,0.9971525173967161,0.46835798955980773,0.5224439867823178,-3.245400150244605,54.9
,,0.034920368773388596,0.038952974196137226,0.0006857967308750407,0.07455913970040087,0.9989966595414919,0.46835798955980773,0.5224439867823178,-3.245400150244605,55.0
,,0.034920368773388596,0.038952974196137226,0.0006857967308750407,0.07455913970040087,1.0008408016862675,0.46835798955980773,0.5224439867823178,-3.245400150244605,55.1
,,0.034920368773388596,0.038952974196137226,0.0006857967308750407,0.07455913970040087,1.0026849438310432,0.46835798955980773,0.5224439867823178,-3.245400150244605,55.2
,,0.034920368773388596,0.038952974196137226,0.0006857967308750407,0.07455913970040087,1.004529085975819,0.46835798955980773,0.5224439867823178,-3.245400150244605,55.3
,,0.031079808962701672,0.037052159427260575,0.0007303037482637893,0.06886227213822603,1.0057325316706534,0.4513328996800413,0.5380618192917949,-3.2954286448019077,55.4
,,0.04597724303769711,0.04646071143846125,0.0009087380904830952,0.09334669256664145,1.00861132944137,0.49254281832078134,0.4977220955663997,-3.069148238832853,55.5
,,0.04597724303769711,0.04646071143846125,0.0009087380904830952,0.09334669256664145,1.011490127212087,0.49254281832078134,0.4977220955663997,-3.069148238832853,55.6
,,0.04597724303769711,0.04646071143846125,0.0009087380904830952,0.09334669256664145,1.014368924982804,0.49254281832078134,0.4977220955663997,-3.069148238832853,55.7
,,0.04597724303769711,0.04646071143846125,0.0009087380904830952,0.09334669256664145,1.0172477227535208,0.49254281832078134,0.4977220955663997,-3.069148238832853,55.8
,,0.04597724303769711,0.04646071143846125,0.0009087380904830952,0.09334669256664145,1.0185944550129964,0.49254281832078134,0.4977220955663997,-3.069148238832853,55.9
,,0.04597724303769711,0.04646071143846125,0.0009087380904830952,0.09334669256664145,1.0199334504066224,0.49254281832078134,0.4977220955663997,-3.069148238832853,56.0
,,0.04597724303769711,0.04646071143846125,0.0009087380904830952,0.09334669256664145,1.0213634906376197,0.49254281832078134,0.4977220955663997,-3.069148238832853,56.1
,,0.04597724303769711,0.04646071143846125,0.0009087380904830952,0.09334669256664145,1.022793530868617,0.49254281832078134,0.4977220955663997,-3.069148238832853,56.2
,,0.04597724303769711,0.04646071143846125,0.0009087380904830952,0.09334669256664145,1.0242235710996144,0.49254281832078134,0.4977220955663997,-3.069148238832853,56.3
,,0.04337860260926845,0.04366835621297246,0.001332803051397785,0.08837976187363869,1.0256955073315883,0.4908205418259576,0.4940990480989014,-3.131131553297475,56.4
,,0.04134465463784305,0.043153087076895705,0.0009001630907502637,0.08539790480548902,1.0267755319054077,0.484141323279697,0.5053178666992543,-3.143001321094143,56.5
,,0.04134465463784305,0.043153087076895705,0.0009001630907502637,0.08539790480548902,1.0278555564792273,0.484141323279697,0.5053178666992543,-3.143001321094143,56.6
,,0.04134465463784305,0.043153087076895705,0.0009001630907502637,0.08539790480548902,1.0289355810530472,0.484141323279697,0.5053178666992543,-3.143001321094143,56.7
,,0.04134465463784305,0.043153087076895705,0.0009001630907502637,0.08539790480548902,1.0289851089188233,0.484141323279697,0.5053178666992543,-3.143001321094143,56.8
,,0.04134465463784305,0.043153087076895705,0.0009001630907502637,0.08539790480548902,1.0300651334926427,0.484141323279697,0.5053178666992543,-3.143001321094143,56.9
,,0.04134465463784305,0.043153087076895705,0.0009001630907502637,0.08539790480548902,1.0301158994598953,0.484141323279697,0.5053178666992543,-3.143001321094143,57.0
,,0.04134465463784305,0.043153087076895705,0.0009001630907502637,0.08539790480548902,1.0292958039606008,0.484141323279697,0.5053178666992543,-3.143001321094143,57.1
,,0.04134465463784305,0.043153087076895705,0.0009001630907502637,0.08539790480548902,1.0284757084613065,0.484141323279697,0.5053178666992543,-3.143001321094143,57.2
,,0.039427588231156024,0.04158883722688134,0.0010695693943438864,0.08208599485238124,1.0275438388034472,0.4803205260782956,0.5066496093721264,-3.1799234836157124,57.3
,,0.025586098723116495,0.03374531509125184,0.0011599411844663368,0.06049135499883467,1.0245028460712189,0.42297116213729047,0.5578535162900867,-3.388913683409948,57.4
,,0.02509503949293024,0.03427175784878965,0.000894545640266757,0.06026134298198665,1.0211732404538811,0.41643677772716853,0.5687187864205778,-3.373433650311623,57.5
,,0.02509503949293024,0.03427175784878965,0.000894545640266757,0.06026134298198665,1.0178436348365432,0.41643677772716853,0.5687187864205778,-3.373433650311623,57.6
,,0.02509503949293024,0.03427175784878965,0.000894545640266757,0.06026134298198665,1.0145140292192054,0.41643677772716853,0.5687187864205778,-3.373433650311623,57.7
,,0.02509503949293024,0.03427175784878965,0.000894545640266757,0.06026134298198665,1.0113244640129655,0.41643677772716853,0.5687187864205778,-3.373433650311623,57.8
,,0.02509503949293024,0.03427175784878965,0.000894545640266757,0.06026134298198665,1.0079948583956275,0.41643677772716853,0.5687187864205778,-3.373433650311623,57.9
,,0.02509503949293024,0.03427175784878965,0.000894545640266757,0.06026134298198665,1.0040589034437704,0.41643677772716853,0.5687187864205778,-3.373433650311623,58.0
,,0.02509503949293024,0.03427175784878965,0.000894545640266757,0.06026134298198665,1.0001229484919127,0.41643677772716853,0.5687187864205778,-3.373433650311623,58.1
,,0.022947606970124167,0.03192555658140365,0.0012425434897054284,0.05611570704123324,0.9960375285371591,0.40893375812341637,0.5689237160986866,-3.4443484431856333,58.2
,,0.022947606970124167,0.03192555658140365,0.0012425434897054284,0.05611570704123324,0.9919521085824053,0.40893375812341637,0.5689237160986866,-3.4443484431856333,58.3
,,0.02284114105033116,0.03236532152713503,0.0009559395781058332,0.05616240215557203,0.9877216217308477,0.406698078672994,0.5762809332386075,-3.430667752625388,58.4
,,0.02284114105033116,0.03236532152713503,0.0009559395781058332,0.05616240215557203,0.9834911348792903,0.406698078672994,0.5762809332386075,-3.430667752625388,58.5
,,0.02284114105033116,0.03236532152713503,0.0009559395781058332,0.05616240215557203,0.9792606480277329,0.406698078672994,0.5762809332386075,-3.430667752625388,58.6
,,0.02284114105033116,0.03236532152713503,0.0009559395781058332,0.05616240215557203,0.9750301611761756,0.406698078672994,0.5762809332386075,-3.430667752625388,58.7
,,0.02284114105033116,0.03236532152713503,0.0009559395781058332,0.05616240215557203,0.9710902487339902,0.406698078672994,0.5762809332386075,-3.430667752625388,58.8
,,0.02284114105033116,0.03236532152713503,0.0009559395781058332,0.05616240215557203,0.967241284581509,0.406698078672994,0.5762809332386075,-3.430667752625388,58.9
,,0.02284114105033116,0.03236532152713503,0.0009559395781058332,0.05616240215557203,0.9627937028843316,0.406698078672994,0.5762809332386075,-3.430667752625388,59.0
,,0.02734131507182571,0.02708898797903087,0.0009901540763280114,0.055420457127184596,0.9617192978612422,0.49334336974305415,0.4887904103148095,-3.6086279813152924,59.1
,,0.02734131507182571,0.02708898797903087,0.0009901540763280114,0.055420457127184596,0.9606448928381531,0.49334336974305415,0.4887904103148095,-3.6086279813152924,59.2
,,0.026950774260371582,0.026358913821379976,0.000602379989982136,0.053912068071733696,0.9597164784044927,0.49990243788295663,0.4889241827322899,-3.6359487757590196,59.3
,,0.026950774260371582,0.026358913821379976,0.000602379989982136,0.053912068071733696,0.9587880639708323,0.49990243788295663,0.4889241827322899,-3.6359487757590196,59.4
,,0.026950774260371582,0.026358913821379976,0.000602379989982136,0.053912068071733696,0.9578596495371718,0.49990243788295663,0.4889241827322899,-3.6359487757590196,59.5
,,0.026950774260371582,0.026358913821379976,0.000602379989982136,0.053912068071733696,0.9569312351035115,0.49990243788295663,0.4889241827322899,-3.6359487757590196,59.6
,,0.026950774260371582,0.026358913821379976,0.000602379989982136,0.053912068071733696,0.9560028206698509,0.49990243788295663,0.4889241827322899,-3.6359487757590196,59.7
,,0.026950774260371582,0.026358913821379976,0.000602379989982136,0.053912068071733696,0.9555732595672298,0.49990243788295663,0.4889241827322899,-3.6359487757590196,59.8
,,0.026950774260371582,0.026358913821379976,0.000602379989982136,0.053912068071733696,0.9547394701757955,0.49990243788295663,0.4889241827322899,-3.6359487757590196,59.9
,,0.026950774260371582,0.026358913821379976,0.000602379989982136,0.053912068071733696,0.9539056807843612,0.49990243788295663,0.4889241827322899,-3.6359487757590196,60.0
,,0.020462460114769803,0.02862283981196389,0.0010382618552124908,0.05012356178194618,0.9496546226958257,0.40824034420754396,0.5710456079813834,-3.553550285039597,60.1
,,0.020065273832029582,0.028133396218438335,0.0013565473629241944,0.04955521741339212,0.9453848904011369,0.4049073917816576,0.5677181472890761,-3.5707979307982862,60.2
,,0.02052205844319914,0.028593270753299496,0.0012170945096663787,0.050332423706165016,0.941165206143657,0.40773038395696165,0.5680884934177572,-3.5545838771871474,60.3
,,0.02052205844319914,0.028593270753299496,0.0012170945096663787,0.050332423706165016,0.9369455218861769,0.40773038395696165,0.5680884934177572,-3.5545838771871474,60.4
,,0.02052205844319914,0.028593270753299496,0.0012170945096663787,0.050332423706165016,0.9327258376286971,0.40773038395696165,0.5680884934177572,-3.5545838771871474,60.5
,,0.02052205844319914,0.028593270753299496,0.0012170945096663787,0.050332423706165016,0.928506153371217,0.40773038395696165,0.5680884934177572,-3.5545838771871474,60.6
,,0.02052205844319914,0.028593270753299496,0.0012170945096663787,0.050332423706165016,0.924286469113737,0.40773038395696165,0.5680884934177572,-3.5545838771871474,60.7
,,0.02052205844319914,0.028593270753299496,0.0012170945096663787,0.050332423706165016,0.9206748271381111,0.40773038395696165,0.5680884934177572,-3.5545838771871474,60.8
,,0.02052205844319914,0.028593270753299496,0.0012170945096663787,0.050332423706165016,0.9168288332039622,0.40773038395696165,0.5680884934177572,-3.5545838771871474,60.9
,,0.019738184473358997,0.02655183929648486,0.0014086507744126972,0.04769867454425655,0.9132679457293351,0.4138099153058267,0.5566578012948579,-3.628656256989948,61.0
,,0.020233938296571493,0.027022865182494686,0.0010690872749474522,0.048325890754013626,0.9097669257501445,0.4186976790467333,0.5591798673726536,-3.6110719127493285,61.1
,,0.019738184473358997,0.02655183929648486,0.0014086507744126972,0.04769867454425655,0.9062060382755173,0.4138099153058267,0.5566578012948579,-3.628656256989948,61.2
,,0.020235421974339935,0.026934437696243554,0.0012552878584747035,0.04842514752905819,0.9027329443858894,0.417870115154474,0.5562076538864681,-3.614349599390421,61.3
,,0.020235421974339935,0.026934437696243554,0.0012552878584747035,0.04842514752905819,0.8992598504962613,0.417870115154474,0.5562076538864681,-3.614349599390421,61.4
,,0.020235421974339935,0.026934437696243554,0.0012552878584747035,0.04842514752905819,0.8957867566066333,0.417870115154474,0.5562076538864681,-3.614349599390421,61.5
,,0.020235421974339935,0.026934437696243554,0.0012552878584747035,0.04842514752905819,0.8923136627170054,0.417870115154474,0.5562076538864681,-3.614349599390421,61.6
,,0.020235421974339935,0.026934437696243554,0.0012552878584747035,0.04842514752905819,0.8894889497827412,0.417870115154474,0.5562076538864681,-3.614349599390421,61.7
,,0.020235421974339935,0.026934437696243554,0.0012552878584747035,0.04842514752905819,0.8865471176874598,0.417870115154474,0.5562076538864681,-3.614349599390421,61.8
,,0.01969439250620585,0.024991609487113,0.0014281003675917056,0.046114102360910555,0.88401368354473,0.42707960250572186,0.5419515551125113,-3.689215130962586,61.9
,,0.01969439250620585,0.024991609487113,0.0014281003675917056,0.046114102360910555,0.881480249402,0.42707960250572186,0.5419515551125113,-3.689215130962586,62.0
,,0.02025451073786639,0.02554607738281889,0.0010695049606140826,0.046870093081299365,0.8790003895856319,0.4321414660460256,0.5450400394662644,-3.667271501210151,62.1
,,0.02198299756994454,0.015379361984668247,0.00042722681891780765,0.03778958637353059,0.8835929860224695,0.5817210422113102,0.40697354643290296,-4.174728799206697,62.2
,,0.02198299756994454,0.015379361984668247,0.00042722681891780765,0.03778958637353059,0.8881855824593071,0.5817210422113102,0.40697354643290296,-4.174728799206697,62.3
,,0.02198299756994454,0.015379361984668247,0.00042722681891780765,0.03778958637353059,0.8927781788961446,0.5817210422113102,0.40697354643290296,-4.174728799206697,62.4
,,0.02198299756994454,0.015379361984668247,0.00042722681891780765,0.03778958637353059,0.897370775332982,0.5817210422113102,0.40697354643290296,-4.174728799206697,62.5
,,0.02198299756994454,0.015379361984668247,0.00042722681891780765,0.03778958637353059,0.9019633717698197,0.5817210422113102,0.40697354643290296,-4.174728799206697,62.6
,,0.02198299756994454,0.015379361984668247,0.00042722681891780765,0.03778958637353059,0.9060047574703365,0.5817210422113102,0.40697354643290296,-4.174728799206697,62.7
,,0.019985623903462008,0.023794445937462355,0.0014216695224451045,0.045201739363369464,0.9034966450695372,0.44214280655885413,0.5264055382068964,-3.7383030895104867,62.8
,,0.019985623903462008,0.023794445937462355,0.0014216695224451045,0.045201739363369464,0.9009885326687381,0.44214280655885413,0.5264055382068964,-3.7383030895104867,62.9
,,0.019985623903462008,0.023794445937462355,0.0014216695224451045,0.045201739363369464,0.8984804202679391,0.44214280655885413,0.5264055382068964,-3.7383030895104867,63.0
,,0.019985623903462008,0.023794445937462355,0.0014216695224451045,0.045201739363369464,0.8959723078671401,0.44214280655885413,0.5264055382068964,-3.7383030895104867,63.1
,,0.009866222287035436,0.02427220999880918,0.0012356435060339118,0.035374075791878526,0.8886481302900289,0.27891109707241046,0.6861581385649034,-3.718423204517822,63.2
,,0.009866222287035436,0.02427220999880918,0.0012356435060339118,0.035374075791878526,0.8813239527129176,0.27891109707241046,0.6861581385649034,-3.718423204517822,63.3
,,0.009866222287035436,0.02427220999880918,0.0012356435060339118,0.035374075791878526,0.8739997751358065,0.27891109707241046,0.6861581385649034,-3.718423204517822,63.4
,,0.009866222287035436,0.02427220999880918,0.0012356435060339118,0.035374075791878526,0.8678800613255605,0.27891109707241046,0.6861581385649034,-3.718423204517822,63.5
,,0.009866222287035436,0.02427220999880918,0.0012356435060339118,0.035374075791878526,0.8624356969730641,0.27891109707241046,0.6861581385649034,-3.718423204517822,63.6
,,0.020697301274283937,0.023408731968632825,0.0014079437305498153,0.045513976973466576,0.8622989756953452,0.4547460505670578,0.5143196337749059,-3.754646165173066,63.7
,,0.020697301274283937,0.023408731968632825,0.0014079437305498153,0.045513976973466576,0.8621622544176265,0.4547460505670578,0.5143196337749059,-3.754646165173066,63.8
,,0.020697301274283937,0.023408731968632825,0.0014079437305498153,0.045513976973466576,0.8620255331399076,0.4547460505670578,0.5143196337749059,-3.754646165173066,63.9
,,0.020697301274283937,0.023408731968632825,0.0014079437305498153,0.045513976973466576,0.8618888118621887,0.4547460505670578,0.5143196337749059,-3.754646165173066,64.0
,,0.021449495492262587,0.024243074822784056,0.0012144195391856636,0.046906989854232306,0.8617587331225697,0.4572771682625303,0.5168328835024715,-3.7196242767009386,64.1
,,0.021449495492262587,0.024243074822784056,0.0012144195391856636,0.046906989854232306,0.8616286543829508,0.4572771682625303,0.5168328835024715,-3.7196242767009386,64.2
,,0.021449495492262587,0.024243074822784056,0.0012144195391856636,0.046906989854232306,0.8614985756433318,0.4572771682625303,0.5168328835024715,-3.7196242767009386,64.3
,,0.021449495492262587,0.024243074822784056,0.0012144195391856636,0.046906989854232306,0.862009193353654,0.4572771682625303,0.5168328835024715,-3.7196242767009386,64.4
,,0.021449495492262587,0.024243074822784056,0.0012144195391856636,0.046906989854232306,0.860844458988094,0.4572771682625303,0.5168328835024715,-3.7196242767009386,64.5
,,0.021449495492262587,0.024243074822784056,0.0012144195391856636,0.046906989854232306,0.8596797246225337,0.4572771682625303,0.5168328835024715,-3.7196242767009386,64.6
,,0.021677556264521704,0.023865096939637162,0.001386271038672116,0.04692892424283098,0.8587768713019257,0.46192314471886153,0.5085370552316224,-3.735338266532227,64.7
,,0.021677556264521704,0.023865096939637162,0.001386271038672116,0.04692892424283098,0.8578740179813178,0.46192314471886153,0.5085370552316224,-3.735338266532227,64.8
,,0.010757475509247987,0.025021848602404355,0.0010137335913633773,0.03679305770301572,0.8516554541314627,0.29237786095626017,0.6800698328574484,-3.6880058916845497,64.9
,,0.010757475509247987,0.025021848602404355,0.0010137335913633773,0.03679305770301572,0.8454368902816074,0.29237786095626017,0.6800698328574484,-3.6880058916845497,65.0
,,0.010757475509247987,0.025021848602404355,0.0010137335913633773,0.03679305770301572,0.8392183264317523,0.29237786095626017,0.6800698328574484,-3.6880058916845497,65.1
,,0.010757475509247987,0.025021848602404355,0.0010137335913633773,0.03679305770301572,0.8329997625818972,0.29237786095626017,0.6800698328574484,-3.6880058916845497,65.2
,,0.010757475509247987,0.025021848602404355,0.0010137335913633773,0.03679305770301572,0.826781198732042,0.29237786095626017,0.6800698328574484,-3.6880058916845497,65.3
,,0.010757475509247987,0.025021848602404355,0.0010137335913633773,0.03679305770301572,0.82052073888121,0.29237786095626017,0.6800698328574484,-3.6880058916845497,65.4
,,0.010757475509247987,0.025021848602404355,0.0010137335913633773,0.03679305770301572,0.8146521906885326,0.29237786095626017,0.6800698328574484,-3.6880058916845497,65.5
,,0.010757475509247987,0.025021848602404355,0.0010137335913633773,0.03679305770301572,0.8087836424958551,0.29237786095626017,0.6800698328574484,-3.6880058916845497,65.6
,,0.02340216993529738,0.025834325254295003,0.0009787949905462388,0.05021529018013863,0.8082032318095623,0.46603673604884416,0.5144712927400967,-3.6560512350876375,65.7
,,0.02340216993529738,0.025834325254295003,0.0009787949905462388,0.05021529018013863,0.8076228211232697,0.46603673604884416,0.5144712927400967,-3.6560512350876375,65.8
,,0.02340216993529738,0.025834325254295003,0.0009787949905462388,0.05021529018013863,0.807042410436977,0.46603673604884416,0.5144712927400967,-3.6560512350876375,65.9
,,0.02340216993529738,0.025834325254295003,0.0009787949905462388,0.05021529018013863,0.8064619997506843,0.46603673604884416,0.5144712927400967,-3.6560512350876375,66.0
,,0.02340216993529738,0.025834325254295003,0.0009787949905462388,0.05021529018013863,0.8058815890643918,0.46603673604884416,0.5144712927400967,-3.6560512350876375,66.1
,,0.02340216993529738,0.025834325254295003,0.0009787949905462388,0.05021529018013863,0.805301178378099,0.46603673604884416,0.5144712927400967,-3.6560512350876375,66.2
,,0.02340216993529738,0.025834325254295003,0.0009787949905462388,0.05021529018013863,0.804832541850371,0.46603673604884416,0.5144712927400967,-3.6560512350876375,66.3
,,0.02340216993529738,0.025834325254295003,0.0009787949905462388,0.05021529018013863,0.8064730283970123,0.46603673604884416,0.5144712927400967,-3.6560512350876375,66.4
,,0.02340216993529738,0.025834325254295003,0.0009787949905462388,0.05021529018013863,0.808402127828763,0.46603673604884416,0.5144712927400967,-3.6560512350876375,66.5
,,0.02340216993529738,0.025834325254295003,0.0009787949905462388,0.05021529018013863,0.8103312272605135,0.46603673604884416,0.5144712927400967,-3.6560512350876375,66.6
,,0.023568589775946728,0.026450717398372115,0.0009252602382802868,0.05094456741259913,0.812095684034891,0.46263205230628707,0.519205849450997,-3.632471998233845,66.7
,,0.023568589775946728,0.026450717398372115,0.0009252602382802868,0.05094456741259913,0.8138601408092684,0.46263205230628707,0.519205849450997,-3.632471998233845,66.8
,,0.023568589775946728,0.026450717398372115,0.0009252602382802868,0.05094456741259913,0.8156245975836458,0.46263205230628707,0.519205849450997,-3.632471998233845,66.9
,,0.023568589775946728,0.026450717398372115,0.0009252602382802868,0.05094456741259913,0.8173890543580231,0.46263205230628707,0.519205849450997,-3.632471998233845,67.0
,,0.023568589775946728,0.026450717398372115,0.0009252602382802868,0.05094456741259913,0.8191535111324005,0.46263205230628707,0.519205849450997,-3.632471998233845,67.1
,,0.023568589775946728,0.026450717398372115,0.0009252602382802868,0.05094456741259913,0.8210674329096742,0.46263205230628707,0.519205849450997,-3.632471998233845,67.2
,,0.023568589775946728,0.026450717398372115,0.0009252602382802868,0.05094456741259913,0.822981354686948,0.46263205230628707,0.519205849450997,-3.632471998233845,67.3
,,0.023568589775946728,0.026450717398372115,0.0009252602382802868,0.05094456741259913,0.8250403433610255,0.46263205230628707,0.519205849450997,-3.632471998233845,67.4
,,0.024440642569825376,0.027106281583424967,0.0011146389652550487,0.052661563118505395,0.8272173531847684,0.4641078069563962,0.5147261110048547,-3.6079897852099614,67.5
,,0.023568589775946728,0.026450717398372115,0.0009252602382802868,0.05094456741259913,0.8292763418588458,0.46263205230628707,0.519205849450997,-3.632471998233845,67.6
,,0.022196846195168738,0.014386653378979245,0.000303740864634859,0.036887240438782845,0.8385779954075392,0.6017486244872688,0.3900170684455233,-4.241454350872006,67.7
,,0.022196846195168738,0.014386653378979245,0.000303740864634859,0.036887240438782845,0.8478796489562325,0.6017486244872688,0.3900170684455233,-4.241454350872006,67.8
,,0.022196846195168738,0.014386653378979245,0.000303740864634859,0.036887240438782845,0.8571813025049256,0.6017486244872688,0.3900170684455233,-4.241454350872006,67.9
,,0.022196846195168738,0.014386653378979245,0.000303740864634859,0.036887240438782845,0.8664829560536191,0.6017486244872688,0.3900170684455233,-4.241454350872006,68.0
,,0.022196846195168738,0.014386653378979245,0.000303740864634859,0.036887240438782845,0.8724114329282244,0.6017486244872688,0.3900170684455233,-4.241454350872006,68.1
,,0.022196846195168738,0.014386653378979245,0.000303740864634859,0.036887240438782845,0.8783399098028297,0.6017486244872688,0.3900170684455233,-4.241454350872006,68.2
,,0.022196846195168738,0.014386653378979245,0.000303740864634859,0.036887240438782845,0.884122396088006,0.6017486244872688,0.3900170684455233,-4.241454350872006,68.3
,,0.022196846195168738,0.014386653378979245,0.000303740864634859,0.036887240438782845,0.8899048823731823,0.6017486244872688,0.3900170684455233,-4.241454350872006,68.4
,,0.022196846195168738,0.014386653378979245,0.000303740864634859,0.036887240438782845,0.8956873686583589,0.6017486244872688,0.3900170684455233,-4.241454350872006,68.5
,,0.023703450236737117,0.028388193372803315,0.000809831110139776,0.05290147471968021,0.8936042769905861,0.4480678537288309,0.5366238563901972,-3.5617819465628586,68.6
,,0.023703450236737117,0.028388193372803315,0.000809831110139776,0.05290147471968021,0.8915211853228138,0.4480678537288309,0.5366238563901972,-3.5617819465628586,68.7
,,0.023703450236737117,0.028388193372803315,0.000809831110139776,0.05290147471968021,0.889438093655041,0.4480678537288309,0.5366238563901972,-3.5617819465628586,68.8
,,0.023703450236737117,0.028388193372803315,0.000809831110139776,0.05290147471968021,0.8873550019872685,0.4480678537288309,0.5366238563901972,-3.5617819465628586,68.9
,,0.023703450236737117,0.028388193372803315,0.000809831110139776,0.05290147471968021,0.8852719103194958,0.4480678537288309,0.5366238563901972,-3.5617819465628586,69.0
,,0.023703450236737117,0.028388193372803315,0.000809831110139776,0.05290147471968021,0.8866060873488245,0.4480678537288309,0.5366238563901972,-3.5617819465628586,69.1
,,0.023703450236737117,0.028388193372803315,0.000809831110139776,0.05290147471968021,0.8879589385843065,0.4480678537288309,0.5366238563901972,-3.5617819465628586,69.2
,,0.023703450236737117,0.028388193372803315,0.000809831110139776,0.05290147471968021,0.8892617417825796,0.4480678537288309,0.5366238563901972,-3.5617819465628586,69.3
,,0.022375620913719522,0.02827960149208971,0.001072115018380625,0.051727337424189855,0.8900784632660906,0.4325685803278123,0.5467051447126098,-3.565614529563316,69.4
,,0.023504497224512155,0.029551534148247682,0.0007585227890506556,0.053814554161810496,0.890941238836152,0.4367684094127853,0.5491364670492603,-3.5216196194472937,69.5
,,0.023504497224512155,0.029551534148247682,0.0007585227890506556,0.053814554161810496,0.8918040144062137,0.4367684094127853,0.5491364670492603,-3.5216196194472937,69.6
,,0.023504497224512155,0.029551534148247682,0.0007585227890506556,0.053814554161810496,0.8926667899762752,0.4367684094127853,0.5491364670492603,-3.5216196194472937,69.7
,,0.023504497224512155,0.029551534148247682,0.0007585227890506556,0.053814554161810496,0.893529565546337,0.4367684094127853,0.5491364670492603,-3.5216196194472937,69.8
,,0.023504497224512155,0.029551534148247682,0.0007585227890506556,0.053814554161810496,0.8943923411163985,0.4367684094127853,0.5491364670492603,-3.5216196194472937,69.9
,,0.023504497224512155,0.029551534148247682,0.0007585227890506556,0.053814554161810496,0.8949700102269383,0.4367684094127853,0.5491364670492603,-3.5216196194472937,70.0
,,0.023504497224512155,0.029551534148247682,0.0007585227890506556,0.053814554161810496,0.8954878118420416,0.4367684094127853,0.5491364670492603,-3.5216196194472937,70.1
,,0.023504497224512155,0.029551534148247682,0.0007585227890506556,0.053814554161810496,0.8960654809525812,0.4367684094127853,0.5491364670492603,-3.5216196194472937,70.2
,,0.021759351106147472,0.02912493703472974,0.0009909444726247478,0.05187523261350196,0.8960190301980605,0.4194554898339676,0.5614420517730685,-3.5361605289963007,70.3
,,0.010215724550304898,0.03043740244716513,0.0007064422044505387,0.04135956920192057,0.8914006553396885,0.2469978471108089,0.7359216508897231,-3.4920830831657335,70.4
,,0.010215724550304898,0.03043740244716513,0.0007064422044505387,0.04135956920192057,0.8867822804813164,0.2469978471108089,0.7359216508897231,-3.4920830831657335,70.5
,,0.010215724550304898,0.03043740244716513,0.0007064422044505387,0.04135956920192057,0.8821639056229442,0.2469978471108089,0.7359216508897231,-3.4920830831657335,70.6
,,0.010215724550304898,0.03043740244716513,0.0007064422044505387,0.04135956920192057,0.8775455307645722,0.2469978471108089,0.7359216508897231,-3.4920830831657335,70.7
,,0.010215724550304898,0.03043740244716513,0.0007064422044505387,0.04135956920192057,0.8729271559062001,0.2469978471108089,0.7359216508897231,-3.4920830831657335,70.8
,,0.010215724550304898,0.03043740244716513,0.0007064422044505387,0.04135956920192057,0.8679003830952763,0.2469978471108089,0.7359216508897231,-3.4920830831657335,70.9
,,0.010215724550304898,0.03043740244716513,0.0007064422044505387,0.04135956920192057,0.8628736102843526,0.2469978471108089,0.7359216508897231,-3.4920830831657335,71.0
,,0.010215724550304898,0.03043740244716513,0.0007064422044505387,0.04135956920192057,0.8577932631470672,0.2469978471108089,0.7359216508897231,-3.4920830831657335,71.1
,,0.023941460657081134,0.03155691457205874,0.0008547156204061007,0.05635309084954598,0.8503409592714509,0.42484733838293137,0.5599855144824409,-3.4559625516601287,71.2
,,0.021548348000507398,0.03024702800689232,0.0009334631809544667,0.052728839188354186,0.8423746163898057,0.4086634246495344,0.5736334892343458,-3.4983573470379477,71.3
,,0.02311641181029639,0.03224950101740221,0.0006864700468541262,0.05605238287455273,0.834457017709793,0.4124072987589441,0.5753457634366369,-3.4342527081886667,71.4
,,0.02311641181029639,0.03224950101740221,0.0006864700468541262,0.05605238287455273,0.8265394190297801,0.4124072987589441,0.5753457634366369,-3.4342527081886667,71.5
,,0.02311641181029639,0.03224950101740221,0.0006864700468541262,0.05605238287455273,0.8186218203497673,0.4124072987589441,0.5753457634366369,-3.4342527081886667,71.6
,,0.02311641181029639,0.03224950101740221,0.0006864700468541262,0.05605238287455273,0.8107042216697542,0.4124072987589441,0.5753457634366369,-3.4342527081886667,71.7
,,0.02311641181029639,0.03224950101740221,0.0006864700468541262,0.05605238287455273,0.8093361210910572,0.4124072987589441,0.5753457634366369,-3.4342527081886667,71.8
,,0.02311641181029639,0.03224950101740221,0.0006864700468541262,0.05605238287455273,0.80796802051236,0.4124072987589441,0.5753457634366369,-3.4342527081886667,71.9
,,0.02311641181029639,0.03224950101740221,0.0006864700468541262,0.05605238287455273,0.8065999199336631,0.4124072987589441,0.5753457634366369,-3.4342527081886667,72.0
,,0.02311641181029639,0.03224950101740221,0.0006864700468541262,0.05605238287455273,0.8052318193549659,0.4124072987589441,0.5753457634366369,-3.4342527081886667,72.1
