HRV_ULF,HRV_VLF,HRV_LF,HRV_HF,HRV_VHF,HRV_TP,HRV_LFHF,HRV_LFn,HRV_HFn,HRV_LnHF,time
,,0.013158165191574445,0.018452802077809784,0.0003527484534260934,0.03196371572281032,0.7130713880791933,0.4116594361457282,0.5773046612550518,-3.992539045891278,0.0
,,0.013871073498796073,0.018424451745849956,0.0002721101689863801,0.03256763541363241,0.732966800108207,0.42591589234598876,0.5657288750578959,-3.994076597341316,0.1
,,0.013750923046218139,0.017745289352360118,0.00034327453693204626,0.0318394869355103,0.746946380413473,0.43188268309945205,0.5573359077142965,-4.031635186881928,0.2
,,0.013750923046218139,0.017745289352360118,0.00034327453693204626,0.0318394869355103,0.7539361705661062,0.43188268309945205,0.5573359077142965,-4.031635186881928,0.3
,,0.013750923046218139,0.017745289352360118,0.00034327453693204626,0.0318394869355103,0.758130044657686,0.43188268309945205,0.5573359077142965,-4.031635186881928,0.4
,,0.013750923046218139,0.017745289352360118,0.00034327453693204626,0.0318394869355103,0.7609259607187392,0.43188268309945205,0.5573359077142965,-4.031635186881928,0.5
,,0.013750923046218139,0.017745289352360118,0.00034327453693204626,0.0318394869355103,0.7629230436194916,0.43188268309945205,0.5573359077142965,-4.031635186881928,0.6
,,0.013750923046218139,0.017745289352360118,0.00034327453693204626,0.0318394869355103,0.7644208557950557,0.43188268309945205,0.5573359077142965,-4.031635186881928,0.7
,,0.014483635660165807,0.017708537738004185,0.00026403711311188895,0.032456210511281884,0.770361870121405,0.4462515935164781,0.5456132265302087,-4.033708397620283,0.8
,,0.014600752636696863,0.017251247169182807,0.00033346477103205055,0.032185464576911724,0.7779616082311263,0.45364430275058787,0.5359949715176089,-4.059870838455492,0.9
,,0.014600752636696863,0.017251247169182807,0.00033346477103205055,0.032185464576911724,0.7841795757754436,0.45364430275058787,0.5359949715176089,-4.059870838455492,1.0
,,0.014600752636696863,0.017251247169182807,0.00033346477103205055,0.032185464576911724,0.7893612153957082,0.45364430275058787,0.5359949715176089,-4.059870838455492,1.1
,,0.014600752636696863,0.017251247169182807,0.00033346477103205055,0.032185464576911724,0.7937456796897783,0.45364430275058787,0.5359949715176089,-4.059870838455492,1.2
,,0.014600752636696863,0.017251247169182807,0.00033346477103205055,0.032185464576911724,0.7975037919418382,0.45364430275058787,0.5359949715176089,-4.059870838455492,1.3
,,0.014600752636696863,0.017251247169182807,0.00033346477103205055,0.032185464576911724,0.8007608225602901,0.45364430275058787,0.5359949715176089,-4.059870838455492,1.4
,,0.014600752636696863,0.017251247169182807,0.00033346477103205055,0.032185464576911724,0.8036107243514357,0.45364430275058787,0.5359949715176089,-4.059870838455492,1.5
,,0.04778925101811051,0.05525748753780095,0.0004154119605463896,0.10346215051645784,0.8072128355316073,0.4619008089389039,0.5340840806224213,-2.8957514267202513,1.6
,,0.015625535854831826,0.016869727326257203,0.00032141734813755703,0.03281668052922659,0.8138258497009894,0.47614614284085494,0.5140595286970904,-4.08223454578801,1.7
,,0.0156473537849742,0.016892633909635142,0.0003218431070472486,0.03286183080165659,0.8197446289185739,0.4761558745590463,0.5140502977936205,-4.080877615404342,1.8
,,0.015625535854831826,0.016869727326257203,0.00032141734813755703,0.03281668052922659,0.8250697520016693,0.47614614284085494,0.5140595286970904,-4.08223454578801,1.9
,,0.0156473537849742,0.016892633909635142,0.0003218431070472486,0.03286183080165659,0.8298894140413564,0.4761558745590463,0.5140502977936205,-4.080877615404342,2.0
,,0.0156473537849742,0.016892633909635142,0.0003218431070472486,0.03286183080165659,0.8342709249865264,0.4761558745590463,0.5140502977936205,-4.080877615404342,2.1
,,0.015625535854831826,0.016869727326257203,0.00032141734813755703,0.03281668052922659,0.8382698887080027,0.47614614284085494,0.5140595286970904,-4.08223454578801,2.2
,,0.016573836896439216,0.017030801004740876,0.0002441809537368714,0.033848818854916966,0.843890658866698,0.4896429907193544,0.503143140023243,-4.072731750490519,2.3
,,0.03288638732377962,0.05161333319956081,0.000521861199370881,0.0850215817227113,0.8356217703645348,0.3868004647459396,0.607061550182542,-2.9639752445326204,2.4
,,0.03288638732377962,0.05161333319956081,0.000521861199370881,0.0850215817227113,0.8279889502086918,0.3868004647459396,0.607061550182542,-2.9639752445326204,2.5
,,0.03288638732377962,0.05161333319956081,0.000521861199370881,0.0850215817227113,0.8209215241384669,0.3868004647459396,0.607061550182542,-2.9639752445326204,2.6
,,0.03288638732377962,0.05161333319956081,0.000521861199370881,0.0850215817227113,0.814358914216115,0.3868004647459396,0.607061550182542,-2.9639752445326204,2.7
,,0.03288638732377962,0.05161333319956081,0.000521861199370881,0.0850215817227113,0.8082488980815117,0.3868004647459396,0.607061550182542,-2.9639752445326204,2.8
,,0.03288638732377962,0.05161333319956081,0.000521861199370881,0.0850215817227113,0.8025462163558819,0.3868004647459396,0.607061550182542,-2.9639752445326204,2.9
,,0.04751440747582452,0.04695957830500449,0.00034258280737628906,0.0948165685882053,0.8092968234841791,0.5011192472296986,0.495267641554854,-3.0584680833790103,3.0
,,0.018390045544719364,0.017039689607173863,0.00030812503215515324,0.03573786018404838,0.8177327878754784,0.514581607572794,0.4767965826554871,-4.072209973288312,3.1
,,0.01841406255673676,0.017065799739163414,0.00030924092796670523,0.03578910322386688,0.825650090897001,0.5145158972426241,0.4768434579769702,-4.070678833428366,3.2
,,0.018390045544719364,0.017039689607173863,0.00030812503215515324,0.03573786018404838,0.8331088436354939,0.514581607572794,0.4767965826554871,-4.072209973288312,3.3
,,0.01841406255673676,0.017065799739163414,0.00030924092796670523,0.03578910322386688,0.8401344134626432,0.5145158972426241,0.4768434579769702,-4.070678833428366,3.4
,,0.018390045544719364,0.017039689607173863,0.00030812503215515324,0.03573786018404838,0.8467764487555074,0.514581607572794,0.4767965826554871,-4.072209973288312,3.5
,,0.018390045544719364,0.017039689607173863,0.00030812503215515324,0.03573786018404838,0.8530594551136222,0.514581607572794,0.4767965826554871,-4.072209973288312,3.6
,,0.018390045544719364,0.017039689607173863,0.00030812503215515324,0.03573786018404838,0.8590117769265732,0.514581607572794,0.4767965826554871,-4.072209973288312,3.7
,,0.019148677205309873,0.01722241364318114,0.00021935254439931948,0.036590443392890325,0.8654947138906715,0.5233245467867312,0.47068064899501943,-4.061543624695522,3.8
,,0.020237421595610823,0.017831540919262586,0.0003103652750989154,0.03837932778997232,0.8722304149879809,0.5273000534651995,0.464613164066974,-4.026786427999903,3.9
,,0.020237421595610823,0.017831540919262586,0.0003103652750989154,0.03837932778997232,0.8786375453000558,0.5273000534651995,0.464613164066974,-4.026786427999903,4.0
,,0.020237421595610823,0.017831540919262586,0.0003103652750989154,0.03837932778997232,0.8847395741686986,0.5273000534651995,0.464613164066974,-4.026786427999903,4.1
,,0.020237421595610823,0.017831540919262586,0.0003103652750989154,0.03837932778997232,0.8905577877411254,0.5273000534651995,0.464613164066974,-4.026786427999903,4.2
,,0.020237421595610823,0.017831540919262586,0.0003103652750989154,0.03837932778997232,0.8961115370602601,0.5273000534651995,0.464613164066974,-4.026786427999903,4.3
,,0.020237421595610823,0.017831540919262586,0.0003103652750989154,0.03837932778997232,0.9014184530763222,0.5273000534651995,0.464613164066974,-4.026786427999903,4.4
,,0.020667420333759203,0.017922200193014017,0.0002149268875364705,0.03880454741430969,0.906891405872121,0.5326030506965227,0.46185824567573663,-4.021715100344017,4.5
,,0.021455420158754783,0.01837949836445031,0.00030868495134669986,0.040143603474551794,0.9124332086019167,0.5344667220110423,0.45784376024194273,-3.996519454894381,4.6
,,0.021455420158754783,0.01837949836445031,0.00030868495134669986,0.040143603474551794,0.9177441028846376,0.5344667220110423,0.45784376024194273,-3.996519454894381,4.7
,,0.021455420158754783,0.01837949836445031,0.00030868495134669986,0.040143603474551794,0.9228382259721453,0.5344667220110423,0.45784376024194273,-3.996519454894381,4.8
,,0.021455420158754783,0.01837949836445031,0.00030868495134669986,0.040143603474551794,0.9277285841361527,0.5344667220110423,0.45784376024194273,-3.996519454894381,4.9
,,0.021455420158754783,0.01837949836445031,0.00030868495134669986,0.040143603474551794,0.9324271635486303,0.5344667220110423,0.45784376024194273,-3.996519454894381,5.0
,,0.021455420158754783,0.01837949836445031,0.00030868495134669986,0.040143603474551794,0.9369450283683205,0.5344667220110423,0.45784376024194273,-3.996519454894381,5.1
,,0.022268329364592623,0.01896107799378829,0.00029695425792341216,0.04152636161630433,0.9414257480620598,0.536245615986003,0.4566034021710122,-3.9653669275590517,5.2
,,0.045240291560173354,0.03910439447479065,0.0004273505146889033,0.08477203654965292,0.9454162097444191,0.5336699860180318,0.4612888408300338,-3.2415204276465666,5.3
,,0.045240291560173354,0.03910439447479065,0.0004273505146889033,0.08477203654965292,0.9492615637292381,0.5336699860180318,0.4612888408300338,-3.2415204276465666,5.4
,,0.045240291560173354,0.03910439447479065,0.0004273505146889033,0.08477203654965292,0.9529695836431705,0.5336699860180318,0.4612888408300338,-3.2415204276465666,5.5
,,0.045240291560173354,0.03910439447479065,0.0004273505146889033,0.08477203654965292,0.9565474975952107,0.5336699860180318,0.4612888408300338,-3.2415204276465666,5.6
,,0.045240291560173354,0.03910439447479065,0.0004273505146889033,0.08477203654965292,0.9600020352040771,0.5336699860180318,0.4612888408300338,-3.2415204276465666,5.7
,,0.045240291560173354,0.03910439447479065,0.0004273505146889033,0.08477203654965292,0.9633394698431513,0.5336699860180318,0.4612888408300338,-3.2415204276465666,5.8
,,0.04529205854411491,0.038910957141738776,0.00044791319087878834,0.08465092887673248,0.9666836854119016,0.5350450272089582,0.45966367596982166,-3.24647939342575,5.9
,,0.02329221758486527,0.02023504388849054,0.00032285602043180723,0.043850117493787616,0.9697066270697615,0.5311779971436827,0.4614592855163342,-3.900339331717172,6.0
,,0.02329221758486527,0.02023504388849054,0.00032285602043180723,0.043850117493787616,0.9726320544805938,0.5311779971436827,0.4614592855163342,-3.900339331717172,6.1
,,0.02329221758486527,0.02023504388849054,0.00032285602043180723,0.043850117493787616,0.975464611179971,0.5311779971436827,0.4614592855163342,-3.900339331717172,6.2
,,0.02329221758486527,0.02023504388849054,0.00032285602043180723,0.043850117493787616,0.9782086504824926,0.5311779971436827,0.4614592855163342,-3.900339331717172,6.3
,,0.02329221758486527,0.02023504388849054,0.00032285602043180723,0.043850117493787616,0.9808682578064751,0.5311779971436827,0.4614592855163342,-3.900339331717172,6.4
,,0.02329221758486527,0.02023504388849054,0.00032285602043180723,0.043850117493787616,0.9834472709691248,0.5311779971436827,0.4614592855163342,-3.900339331717172,6.5
,,0.02329221758486527,0.02023504388849054,0.00032285602043180723,0.043850117493787616,0.9859492986642329,0.5311779971436827,0.4614592855163342,-3.900339331717172,6.6
,,0.023665223352061813,0.020754287480303415,0.00031321630515251096,0.04473272713751774,0.9882185308222657,0.5290360071119736,0.4639620431926809,-3.875002428092759,6.7
,,0.04596339859390624,0.040823639033239406,0.0005006980730120456,0.0872877357001577,0.9902139369433648,0.5265733865728309,0.46769043446690817,-3.198493977282892,6.8
,,0.04596339859390624,0.040823639033239406,0.0005006980730120456,0.0872877357001577,0.9921523314610038,0.5265733865728309,0.46769043446690817,-3.198493977282892,6.9
,,0.04596339859390624,0.040823639033239406,0.0005006980730120456,0.0872877357001577,0.9940361233161741,0.5265733865728309,0.46769043446690817,-3.198493977282892,7.0
,,0.04596339859390624,0.040823639033239406,0.0005006980730120456,0.0872877357001577,0.9958675876198119,0.5265733865728309,0.46769043446690817,-3.198493977282892,7.1
,,0.04596339859390624,0.040823639033239406,0.0005006980730120456,0.0872877357001577,0.9976488748192405,0.5265733865728309,0.46769043446690817,-3.198493977282892,7.2
,,0.04596339859390624,0.040823639033239406,0.0005006980730120456,0.0872877357001577,0.9993820191213871,0.5265733865728309,0.46769043446690817,-3.198493977282892,7.3
,,0.04596339859390624,0.040823639033239406,0.0005006980730120456,0.0872877357001577,1.0010689462421432,0.5265733865728309,0.46769043446690817,-3.198493977282892,7.4
,,0.022689171559495364,0.02175188127987225,0.0003507878685144848,0.0447918407078821,1.0016218558818037,0.5065469782201362,0.4856215090987438,-3.8280550295616647,7.5
,,0.022689171559495364,0.02175188127987225,0.0003507878685144848,0.0447918407078821,1.0021604042321222,0.5065469782201362,0.4856215090987438,-3.8280550295616647,7.6
,,0.022689171559495364,0.02175188127987225,0.0003507878685144848,0.0447918407078821,1.0026851436503812,0.5065469782201362,0.4856215090987438,-3.8280550295616647,7.7
,,0.022689171559495364,0.02175188127987225,0.0003507878685144848,0.0447918407078821,1.0031965985264057,0.5065469782201362,0.4856215090987438,-3.8280550295616647,7.8
,,0.022689171559495364,0.02175188127987225,0.0003507878685144848,0.0447918407078821,1.0036952670305297,0.5065469782201362,0.4856215090987438,-3.8280550295616647,7.9
,,0.022689171559495364,0.02175188127987225,0.0003507878685144848,0.0447918407078821,1.0041816227320828,0.5065469782201362,0.4856215090987438,-3.8280550295616647,8.0
,,0.022689171559495364,0.02175188127987225,0.0003507878685144848,0.0447918407078821,1.0046561160994516,0.5065469782201362,0.4856215090987438,-3.8280550295616647,8.1
,,0.04201437208922311,0.03890927643896134,0.000548702074051628,0.08147235060223608,1.0055615060216756,0.5156887186715094,0.4775764557097907,-3.2465225879190167,8.2
,,0.021217061840837954,0.021848373851473563,0.0003616043792273118,0.043427040071538824,1.005151307751537,0.4885679937174252,0.5031052960432487,-3.8236287834836085,8.3
,,0.021217061840837954,0.021848373851473563,0.0003616043792273118,0.043427040071538824,1.0047507612054016,0.4885679937174252,0.5031052960432487,-3.8236287834836085,8.4
,,0.021217061840837954,0.021848373851473563,0.0003616043792273118,0.043427040071538824,1.0043595296952226,0.4885679937174252,0.5031052960432487,-3.8236287834836085,8.5
,,0.021217061840837954,0.021848373851473563,0.0003616043792273118,0.043427040071538824,1.003977292012864,0.4885679937174252,0.5031052960432487,-3.8236287834836085,8.6
,,0.021217061840837954,0.021848373851473563,0.0003616043792273118,0.043427040071538824,1.003603741550559,0.4885679937174252,0.5031052960432487,-3.8236287834836085,8.7
,,0.021217061840837954,0.021848373851473563,0.0003616043792273118,0.043427040071538824,1.0032385854806654,0.4885679937174252,0.5031052960432487,-3.8236287834836085,8.8
,,0.0206927494982735,0.02181871142608973,0.00035712939453119935,0.04286859031889442,1.002629208578591,0.48270188836027866,0.5089673176510562,-3.8249873550373383,8.9
,,0.019531533063985786,0.021801641757917472,0.0003752627018921996,0.04170843752379545,1.0046603533262692,0.46828733521467153,0.5227153797233287,-3.825770002026535,9.0
,,0.019531533063985786,0.021801641757917472,0.0003752627018921996,0.04170843752379545,1.0062493778066361,0.46828733521467153,0.5227153797233287,-3.825770002026535,9.1
,,0.019531533063985786,0.021801641757917472,0.0003752627018921996,0.04170843752379545,1.0075934764104835,0.46828733521467153,0.5227153797233287,-3.825770002026535,9.2
,,0.019531533063985786,0.021801641757917472,0.0003752627018921996,0.04170843752379545,1.0089375750143303,0.46828733521467153,0.5227153797233287,-3.825770002026535,9.3
,,0.019531533063985786,0.021801641757917472,0.0003752627018921996,0.04170843752379545,1.0102816736181774,0.46828733521467153,0.5227153797233287,-3.825770002026535,9.4
,,0.019531533063985786,0.021801641757917472,0.0003752627018921996,0.04170843752379545,1.0116257722220245,0.46828733521467153,0.5227153797233287,-3.825770002026535,9.5
,,0.019531533063985786,0.021801641757917472,0.0003752627018921996,0.04170843752379545,1.0129698708258714,0.46828733521467153,0.5227153797233287,-3.825770002026535,9.6
,,0.03167961768602354,0.032870034161598664,0.0005461769231472028,0.06509582877076941,1.0150685219525855,0.4866612544035837,0.5049483935038032,-3.4151938520124006,9.7
,,0.017626129321713657,0.021480198030129797,0.0003882522210557417,0.039494579572899195,1.0150983636404325,0.4462923649859167,0.5438771158579266,-3.8406237901041846,9.8
,,0.017626129321713657,0.021480198030129797,0.0003882522210557417,0.039494579572899195,1.0148118801450976,0.4462923649859167,0.5438771158579266,-3.8406237901041846,9.9
,,0.017626129321713657,0.021480198030129797,0.0003882522210557417,0.039494579572899195,1.0145253966497625,0.4462923649859167,0.5438771158579266,-3.8406237901041846,10.0
,,0.017626129321713657,0.021480198030129797,0.0003882522210557417,0.039494579572899195,1.0142389131544272,0.4462923649859167,0.5438771158579266,-3.8406237901041846,10.1
,,0.017626129321713657,0.021480198030129797,0.0003882522210557417,0.039494579572899195,1.0139524296590923,0.4462923649859167,0.5438771158579266,-3.8406237901041846,10.2
,,0.017626129321713657,0.021480198030129797,0.0003882522210557417,0.039494579572899195,1.013665946163757,0.4462923649859167,0.5438771158579266,-3.8406237901041846,10.3
,,0.027437614206346727,0.030320689239950127,0.0005494619727120963,0.05830776541900896,1.0143165537592433,0.47056535281665535,0.5200111687021581,-3.4959249862780095,10.4
,,0.02426359727428512,0.028259237677458953,0.0005384770873031602,0.05306131203904724,1.0144526469301178,0.45727473260423346,0.5325770621100226,-3.56633487740952,10.5
,,0.02426359727428512,0.028259237677458953,0.0005384770873031602,0.05306131203904724,1.014383324954373,0.45727473260423346,0.5325770621100226,-3.56633487740952,10.6
,,0.02426359727428512,0.028259237677458953,0.0005384770873031602,0.05306131203904724,1.0136317754656712,0.45727473260423346,0.5325770621100226,-3.56633487740952,10.7
,,0.02426359727428512,0.028259237677458953,0.0005384770873031602,0.05306131203904724,1.012879830818585,0.45727473260423346,0.5325770621100226,-3.56633487740952,10.8
,,0.02426359727428512,0.028259237677458953,0.0005384770873031602,0.05306131203904724,1.012128281329883,0.45727473260423346,0.5325770621100226,-3.56633487740952,10.9
,,0.02426359727428512,0.028259237677458953,0.0005384770873031602,0.05306131203904724,1.011376336682797,0.45727473260423346,0.5325770621100226,-3.56633487740952,11.0
,,0.02426359727428512,0.028259237677458953,0.0005384770873031602,0.05306131203904724,1.0106243920357105,0.45727473260423346,0.5325770621100226,-3.56633487740952,11.1
,,0.014892636183260175,0.02035671858392304,0.0003939847129980289,0.035643339480181245,1.008461461479269,0.4178238178704025,0.5711226523890103,-3.8943442700374318,11.2
,,0.01386281476978771,0.020012336703364195,0.00040567752801703446,0.03428082900116894,1.0053452956565598,0.40438971791828615,0.5837763346587037,-3.9114063604245524,11.3
,,0.01386281476978771,0.020012336703364195,0.00040567752801703446,0.03428082900116894,1.0059624623472294,0.40438971791828615,0.5837763346587037,-3.9114063604245524,11.4
,,0.01386281476978771,0.020012336703364195,0.00040567752801703446,0.03428082900116894,1.0065796290378992,0.40438971791828615,0.5837763346587037,-3.9114063604245524,11.5
,,0.01386281476978771,0.020012336703364195,0.00040567752801703446,0.03428082900116894,1.0071967957285688,0.40438971791828615,0.5837763346587037,-3.9114063604245524,11.6
,,0.01386281476978771,0.020012336703364195,0.00040567752801703446,0.03428082900116894,1.0078139624192382,0.40438971791828615,0.5837763346587037,-3.9114063604245524,11.7
,,0.01386281476978771,0.020012336703364195,0.00040567752801703446,0.03428082900116894,1.0084311291099075,0.40438971791828615,0.5837763346587037,-3.9114063604245524,11.8
,,0.013142055843557562,0.01947508325356891,0.0003991475720362813,0.03301628666916275,1.0088494113355293,0.3980476658458462,0.5898629197376899,-3.938619412340038,11.9
,,0.01223528004223301,0.01908466905467802,0.0004107019550843912,0.03173065105199543,1.004730412834955,0.3855981404914658,0.6014584769598622,-3.9588699335337734,12.0
,,0.01223528004223301,0.01908466905467802,0.0004107019550843912,0.03173065105199543,0.9998621627046843,0.3855981404914658,0.6014584769598622,-3.9588699335337734,12.1
,,0.01223528004223301,0.01908466905467802,0.0004107019550843912,0.03173065105199543,0.9949966225346365,0.3855981404914658,0.6014584769598622,-3.9588699335337734,12.2
,,0.01223528004223301,0.01908466905467802,0.0004107019550843912,0.03173065105199543,0.990128372404366,0.3855981404914658,0.6014584769598622,-3.9588699335337734,12.3
,,0.01223528004223301,0.01908466905467802,0.0004107019550843912,0.03173065105199543,0.9852628322343179,0.3855981404914658,0.6014584769598622,-3.9588699335337734,12.4
,,0.01223528004223301,0.01908466905467802,0.0004107019550843912,0.03173065105199543,0.9803945821040475,0.3855981404914658,0.6014584769598622,-3.9588699335337734,12.5
,,0.011633558015634137,0.01855038221617442,0.00040068119885823745,0.030584621430666797,0.9753710863130484,0.3803727975514296,0.6065264616149276,-3.9872648854954442,12.6
,,0.010888384787353867,0.01821865734913732,0.00041539460447737926,0.029522436740968567,0.9700200035104923,0.36881727896952193,0.6171122495405372,-4.005309080911894,12.7
,,0.010888384787353867,0.01821865734913732,0.00041539460447737926,0.029522436740968567,0.9643067136577066,0.36881727896952193,0.6171122495405372,-4.005309080911894,12.8
,,0.010888384787353867,0.01821865734913732,0.00041539460447737926,0.029522436740968567,0.9583370189242915,0.36881727896952193,0.6171122495405372,-4.005309080911894,12.9
,,0.010888384787353867,0.01821865734913732,0.00041539460447737926,0.029522436740968567,0.9523673241908764,0.36881727896952193,0.6171122495405372,-4.005309080911894,13.0
,,0.010888384787353867,0.01821865734913732,0.00041539460447737926,0.029522436740968567,0.9463976294574612,0.36881727896952193,0.6171122495405372,-4.005309080911894,13.1
,,0.010888384787353867,0.01821865734913732,0.00041539460447737926,0.029522436740968567,0.9404279347240463,0.36881727896952193,0.6171122495405372,-4.005309080911894,13.2
,,0.010399954338350056,0.017658247492688656,0.0003983994354416502,0.02845660126648036,0.9343616522199142,0.365467198312273,0.620532555076726,-4.036552324705133,13.3
,,0.009871632169665339,0.017444564508468256,0.00041709585294954257,0.02773329253108314,0.9280390198824946,0.3559487990328351,0.6290116649120042,-4.048727168342687,13.4
,,0.009876019194329117,0.017452002802929,0.0004172667789438464,0.027745288776201964,0.921513706033862,0.3559530150862982,0.6290077909694762,-4.048300863112891,13.5
,,0.009876019194329117,0.017452002802929,0.0004172667789438464,0.027745288776201964,0.9148308160464579,0.3559530150862982,0.6290077909694762,-4.048300863112891,13.6
,,0.009871632169665339,0.017444564508468256,0.00041709585294954257,0.02773329253108314,0.9081478128602664,0.3559487990328351,0.6290116649120042,-4.048727168342687,13.7
,,0.009871632169665339,0.017444564508468256,0.00041709585294954257,0.02773329253108314,0.9014648096740753,0.3559487990328351,0.6290116649120042,-4.048727168342687,13.8
,,0.009871632169665339,0.017444564508468256,0.00041709585294954257,0.02773329253108314,0.8947818064878837,0.3559487990328351,0.6290116649120042,-4.048727168342687,13.9
,,0.009871632169665339,0.017444564508468256,0.00041709585294954257,0.02773329253108314,0.8880988033016926,0.3559487990328351,0.6290116649120042,-4.048727168342687,14.0
,,0.010792760683702824,0.014692373682606473,0.0004123129626123673,0.02589744732892166,0.8832902074367733,0.4167499810550719,0.5673290303866503,-4.2204267169208265,14.1
,,0.010792760683702824,0.014692373682606473,0.0004123129626123673,0.02589744732892166,0.8784030889278095,0.4167499810550719,0.5673290303866503,-4.2204267169208265,14.2
,,0.010792760683702824,0.014692373682606473,0.0004123129626123673,0.02589744732892166,0.8737105536769243,0.4167499810550719,0.5673290303866503,-4.2204267169208265,14.3
,,0.010792760683702824,0.014692373682606473,0.0004123129626123673,0.02589744732892166,0.8690180184260391,0.4167499810550719,0.5673290303866503,-4.2204267169208265,14.4
,,0.010792760683702824,0.014692373682606473,0.0004123129626123673,0.02589744732892166,0.8643254831751537,0.4167499810550719,0.5673290303866503,-4.2204267169208265,14.5
,,0.010792760683702824,0.014692373682606473,0.0004123129626123673,0.02589744732892166,0.8596329479242685,0.4167499810550719,0.5673290303866503,-4.2204267169208265,14.6
,,0.010792760683702824,0.014692373682606473,0.0004123129626123673,0.02589744732892166,0.8549404126733833,0.4167499810550719,0.5673290303866503,-4.2204267169208265,14.7
,,0.009057623933218534,0.016369520673378043,0.0003841378736214237,0.025811282480218002,0.8482338772370636,0.3509172370710513,0.6342002062828064,-4.112334168823261,14.8
,,0.010037123060561612,0.013459987236410488,0.0003888927895123068,0.02388600308648441,0.8435861925919991,0.4202094014733252,0.5635093986915982,-4.308033903026741,14.9
,,0.010037123060561612,0.013459987236410488,0.0003888927895123068,0.02388600308648441,0.839081944362788,0.4202094014733252,0.5635093986915982,-4.308033903026741,15.0
,,0.010037123060561612,0.013459987236410488,0.0003888927895123068,0.02388600308648441,0.8345776961335769,0.4202094014733252,0.5635093986915982,-4.308033903026741,15.1
,,0.010037123060561612,0.013459987236410488,0.0003888927895123068,0.02388600308648441,0.8300734479043658,0.4202094014733252,0.5635093986915982,-4.308033903026741,15.2
,,0.010037123060561612,0.013459987236410488,0.0003888927895123068,0.02388600308648441,0.8255691996751549,0.4202094014733252,0.5635093986915982,-4.308033903026741,15.3
,,0.010037123060561612,0.013459987236410488,0.0003888927895123068,0.02388600308648441,0.8210649514459436,0.4202094014733252,0.5635093986915982,-4.308033903026741,15.4
,,0.00874643131565153,0.01577102231079332,0.0003692643564294271,0.024886717982874278,0.8144372359862414,0.3514497701814422,0.6337124212861698,-4.14958105380564,15.5
,,0.008270400755388846,0.01501738173854221,0.00036981268213718134,0.023657595176068236,0.8077665555073383,0.34958755079870046,0.6347805694863538,-4.198546966180756,15.6
,,0.008270400755388846,0.01501738173854221,0.00036981268213718134,0.023657595176068236,0.8012161643743342,0.34958755079870046,0.6347805694863538,-4.198546966180756,15.7
,,0.008270400755388846,0.01501738173854221,0.00036981268213718134,0.023657595176068236,0.794825279155023,0.34958755079870046,0.6347805694863538,-4.198546966180756,15.8
,,0.008270400755388846,0.01501738173854221,0.00036981268213718134,0.023657595176068236,0.788434393935712,0.34958755079870046,0.6347805694863538,-4.198546966180756,15.9
,,0.008320510499196148,0.014827251034653509,0.0003486975408098195,0.023496459074659474,0.7821595254890842,0.3541176341830023,0.6310419364696719,-4.211288505176139,16.0
,,0.008320510499196148,0.014827251034653509,0.0003486975408098195,0.023496459074659474,0.7758846570424565,0.3541176341830023,0.6310419364696719,-4.211288505176139,16.1
,,0.008270400755388846,0.01501738173854221,0.00036981268213718134,0.023657595176068236,0.7694937718231455,0.34958755079870046,0.6347805694863538,-4.198546966180756,16.2
,,0.007886450700480914,0.013889461820463503,0.0003352639252796833,0.022111176446224103,0.7632926548770862,0.35667259585491995,0.6281647588604625,-4.276624868793485,16.3
,,0.007886450700480914,0.013889461820463503,0.0003352639252796833,0.022111176446224103,0.7570915379310268,0.35667259585491995,0.6281647588604625,-4.276624868793485,16.4
,,0.007886450700480914,0.013889461820463503,0.0003352639252796833,0.022111176446224103,0.7518105484774315,0.35667259585491995,0.6281647588604625,-4.276624868793485,16.5
,,0.007886450700480914,0.013889461820463503,0.0003352639252796833,0.022111176446224103,0.7465295590238363,0.35667259585491995,0.6281647588604625,-4.276624868793485,16.6
,,0.007886450700480914,0.013889461820463503,0.0003352639252796833,0.022111176446224103,0.7412485695702412,0.35667259585491995,0.6281647588604625,-4.276624868793485,16.7
,,0.007886450700480914,0.013889461820463503,0.0003352639252796833,0.022111176446224103,0.7359675801166459,0.35667259585491995,0.6281647588604625,-4.276624868793485,16.8
,,0.007886450700480914,0.013889461820463503,0.0003352639252796833,0.022111176446224103,0.7306865906630508,0.35667259585491995,0.6281647588604625,-4.276624868793485,16.9
,,0.00793711041101463,0.01352746763500662,0.00030558481922155053,0.021770162865242797,0.7256160375585777,0.364586634475144,0.6213765013491896,-4.303033020983484,17.0
,,0.009392325176102324,0.011103306290665993,0.00031366000597714424,0.02080929147274546,0.7234250750942061,0.4513524734085121,0.5335744518360137,-4.500512350992566,17.1
,,0.009392325176102324,0.011103306290665993,0.00031366000597714424,0.02080929147274546,0.7208261859544152,0.4513524734085121,0.5335744518360137,-4.500512350992566,17.2
,,0.009392325176102324,0.011103306290665993,0.00031366000597714424,0.02080929147274546,0.7194350593514468,0.4513524734085121,0.5335744518360137,-4.500512350992566,17.3
,,0.009392325176102324,0.011103306290665993,0.00031366000597714424,0.02080929147274546,0.7180439327484784,0.4513524734085121,0.5335744518360137,-4.500512350992566,17.4
,,0.009392325176102324,0.011103306290665993,0.00031366000597714424,0.02080929147274546,0.7166528061455101,0.4513524734085121,0.5335744518360137,-4.500512350992566,17.5
,,0.009392325176102324,0.011103306290665993,0.00031366000597714424,0.02080929147274546,0.7152616795425419,0.4513524734085121,0.5335744518360137,-4.500512350992566,17.6
,,0.009392325176102324,0.011103306290665993,0.00031366000597714424,0.02080929147274546,0.7138705529395736,0.4513524734085121,0.5335744518360137,-4.500512350992566,17.7
,,0.009368308554231299,0.010577940440293213,0.0002856210641591491,0.02023187005868366,0.7129210079569751,0.46304708991595933,0.5228355268006027,-4.548984536880461,17.8
,,0.009368308554231299,0.010577940440293213,0.0002856210641591491,0.02023187005868366,0.7122237983858883,0.46304708991595933,0.5228355268006027,-4.548984536880461,17.9
,,0.009368308554231299,0.010577940440293213,0.0002856210641591491,0.02023187005868366,0.7121101471361764,0.46304708991595933,0.5228355268006027,-4.548984536880461,18.0
,,0.009368308554231299,0.010577940440293213,0.0002856210641591491,0.02023187005868366,0.7119964958864644,0.46304708991595933,0.5228355268006027,-4.548984536880461,18.1
,,0.009368308554231299,0.010577940440293213,0.0002856210641591491,0.02023187005868366,0.7118828446367524,0.46304708991595933,0.5228355268006027,-4.548984536880461,18.2
,,0.009368308554231299,0.010577940440293213,0.0002856210641591491,0.02023187005868366,0.7117691933870406,0.46304708991595933,0.5228355268006027,-4.548984536880461,18.3
,,0.009368308554231299,0.010577940440293213,0.0002856210641591491,0.02023187005868366,0.7116555421373285,0.46304708991595933,0.5228355268006027,-4.548984536880461,18.4
,,0.007996883193698243,0.012572561895395493,0.00028388774333467834,0.020853332832428417,0.7087686971603033,0.3834822595485802,0.6029041974453246,-4.3762384668524845,18.5
,,0.007996883193698243,0.012572561895395493,0.00028388774333467834,0.020853332832428417,0.7058818521832783,0.3834822595485802,0.6029041974453246,-4.3762384668524845,18.6
,,0.007996883193698243,0.012572561895395493,0.00028388774333467834,0.020853332832428417,0.7022404546833865,0.3834822595485802,0.6029041974453246,-4.3762384668524845,18.7
,,0.007996883193698243,0.012572561895395493,0.00028388774333467834,0.020853332832428417,0.70019026169227,0.3834822595485802,0.6029041974453246,-4.3762384668524845,18.8
,,0.007996883193698243,0.012572561895395493,0.00028388774333467834,0.020853332832428417,0.6981400687011537,0.3834822595485802,0.6029041974453246,-4.3762384668524845,18.9
,,0.007996883193698243,0.012572561895395493,0.00028388774333467834,0.020853332832428417,0.6960898757100373,0.3834822595485802,0.6029041974453246,-4.3762384668524845,19.0
,,0.007996883193698243,0.012572561895395493,0.00028388774333467834,0.020853332832428417,0.6940396827189209,0.3834822595485802,0.6029041974453246,-4.3762384668524845,19.1
,,0.00829171108772975,0.01277481845413527,0.00028771396565740694,0.021354243507522425,0.6921340283484707,0.38829336589745467,0.5982332480958693,-4.36027935401994,19.2
,,0.00829171108772975,0.01277481845413527,0.00028771396565740694,0.021354243507522425,0.6902283739780205,0.38829336589745467,0.5982332480958693,-4.36027935401994,19.3
,,0.00829171108772975,0.01277481845413527,0.00028771396565740694,0.021354243507522425,0.6873856285167488,0.38829336589745467,0.5982332480958693,-4.36027935401994,19.4
,,0.00829171108772975,0.01277481845413527,0.00028771396565740694,0.021354243507522425,0.6850573974800889,0.38829336589745467,0.5982332480958693,-4.36027935401994,19.5
,,0.00829171108772975,0.01277481845413527,0.00028771396565740694,0.021354243507522425,0.6827291664434288,0.38829336589745467,0.5982332480958693,-4.36027935401994,19.6
,,0.00829171108772975,0.01277481845413527,0.00028771396565740694,0.021354243507522425,0.680400935406769,0.38829336589745467,0.5982332480958693,-4.36027935401994,19.7
,,0.009840153446022433,0.01063243020205173,0.00017512015630069783,0.020647703804374862,0.681144015947927,0.4765737410441489,0.5149449208874701,-4.543846495442868,19.8
,,0.0085806724331674,0.01317123447708206,0.0002991676787510619,0.022051074589000522,0.678842493661263,0.38912717829395926,0.5973057877030679,-4.329720033596771,19.9
,,0.0085806724331674,0.01317123447708206,0.0002991676787510619,0.022051074589000522,0.6765409713745991,0.38912717829395926,0.5973057877030679,-4.329720033596771,20.0
,,0.0085806724331674,0.01317123447708206,0.0002991676787510619,0.022051074589000522,0.6742394490879353,0.38912717829395926,0.5973057877030679,-4.329720033596771,20.1
,,0.0085806724331674,0.01317123447708206,0.0002991676787510619,0.022051074589000522,0.673349307869011,0.38912717829395926,0.5973057877030679,-4.329720033596771,20.2
,,0.0085806724331674,0.01317123447708206,0.0002991676787510619,0.022051074589000522,0.6728910543392854,0.38912717829395926,0.5973057877030679,-4.329720033596771,20.3
,,0.0085806724331674,0.01317123447708206,0.0002991676787510619,0.022051074589000522,0.6724328008095598,0.38912717829395926,0.5973057877030679,-4.329720033596771,20.4
,,0.00864973033164458,0.01348254665598987,0.00022944378209683946,0.022361720769731287,0.6718643201292129,0.38680969236288876,0.602929747438747,-4.306359270273816,20.5
,,0.00864973033164458,0.01348254665598987,0.00022944378209683946,0.022361720769731287,0.671295839448866,0.38680969236288876,0.602929747438747,-4.306359270273816,20.6
,,0.008889672237725691,0.013854850208606414,0.00032330699667976155,0.02306782944301187,0.6707282333055726,0.38537098861803465,0.6006135186162294,-4.2791199120856955,20.7
,,0.008889672237725691,0.013854850208606414,0.00032330699667976155,0.02306782944301187,0.6701606271622793,0.38537098861803465,0.6006135186162294,-4.2791199120856955,20.8
,,0.008889672237725691,0.013854850208606414,0.00032330699667976155,0.02306782944301187,0.669791905484034,0.38537098861803465,0.6006135186162294,-4.2791199120856955,20.9
,,0.008889672237725691,0.013854850208606414,0.00032330699667976155,0.02306782944301187,0.669797724631757,0.38537098861803465,0.6006135186162294,-4.2791199120856955,21.0
,,0.008889672237725691,0.013854850208606414,0.00032330699667976155,0.02306782944301187,0.66980354377948,0.38537098861803465,0.6006135186162294,-4.2791199120856955,21.1
,,0.008874059613250785,0.01417582733581183,0.00025109628900782843,0.023300983238070443,0.669635702027121,0.38084485631283804,0.6083789336687979,-4.256217065229436,21.2
,,0.008874059613250785,0.01417582733581183,0.00025109628900782843,0.023300983238070443,0.669467860274762,0.38084485631283804,0.6083789336687979,-4.256217065229436,21.3
,,0.009075755151819461,0.014619362501762923,0.00035508734799403097,0.024050205001576414,0.6692422889830499,0.3773670599158957,0.6078685192415063,-4.22540843014179,21.4
,,0.009075755151819461,0.014619362501762923,0.00035508734799403097,0.024050205001576414,0.669016717691338,0.3773670599158957,0.6078685192415063,-4.22540843014179,21.5
,,0.009075755151819461,0.014619362501762923,0.00035508734799403097,0.024050205001576414,0.6689463920603542,0.3773670599158957,0.6078685192415063,-4.22540843014179,21.6
,,0.009075755151819461,0.014619362501762923,0.00035508734799403097,0.024050205001576414,0.669203653440928,0.3773670599158957,0.6078685192415063,-4.22540843014179,21.7
,,0.009075755151819461,0.014619362501762923,0.00035508734799403097,0.024050205001576414,0.6694609148215017,0.3773670599158957,0.6078685192415063,-4.22540843014179,21.8
,,0.010715052418067928,0.012434511636682107,0.0001974988116561277,0.023347062866406164,0.6723950099989027,0.4589464841629266,0.5325942585512112,-4.387279475784506,21.9
,,0.010715052418067928,0.012434511636682107,0.0001974988116561277,0.023347062866406164,0.6753291051763037,0.4589464841629266,0.5325942585512112,-4.387279475784506,22.0
,,0.009126325203774259,0.015459021373420664,0.0003943695663003781,0.0249797161434953,0.6752480575685296,0.36534943597230374,0.6188629720456684,-4.1695625383813635,22.1
,,0.009126325203774259,0.015459021373420664,0.0003943695663003781,0.0249797161434953,0.6751670099607555,0.36534943597230374,0.6188629720456684,-4.1695625383813635,22.2
,,0.009126325203774259,0.015459021373420664,0.0003943695663003781,0.0249797161434953,0.6751825501236984,0.36534943597230374,0.6188629720456684,-4.1695625383813635,22.3
,,0.009126325203774259,0.015459021373420664,0.0003943695663003781,0.0249797161434953,0.6754544401199287,0.36534943597230374,0.6188629720456684,-4.1695625383813635,22.4
,,0.009126325203774259,0.015459021373420664,0.0003943695663003781,0.0249797161434953,0.6757262169173719,0.36534943597230374,0.6188629720456684,-4.1695625383813635,22.5
,,0.008943685366678302,0.015865428427934036,0.0003117795335097101,0.02512089332812205,0.6757020569933239,0.35602576906236566,0.6315630666753873,-4.14361284971443,22.6
,,0.008943685366678302,0.015865428427934036,0.0003117795335097101,0.02512089332812205,0.6756780102680628,0.35602576906236566,0.6315630666753873,-4.14361284971443,22.7
,,0.010426435912770187,0.012929405714654204,0.0003138011374261118,0.023669642764850504,0.6783505299422847,0.44049823718731734,0.5462442269662985,-4.348251048998326,22.8
,,0.010426435912770187,0.012929405714654204,0.0003138011374261118,0.023669642764850504,0.6810230496165066,0.44049823718731734,0.5462442269662985,-4.348251048998326,22.9
,,0.010426435912770187,0.012929405714654204,0.0003138011374261118,0.023669642764850504,0.6836955692907285,0.44049823718731734,0.5462442269662985,-4.348251048998326,23.0
,,0.010426435912770187,0.012929405714654204,0.0003138011374261118,0.023669642764850504,0.6844936816436783,0.44049823718731734,0.5462442269662985,-4.348251048998326,23.1
,,0.010426435912770187,0.012929405714654204,0.0003138011374261118,0.023669642764850504,0.6852917939966281,0.44049823718731734,0.5462442269662985,-4.348251048998326,23.2
,,0.00863056212327078,0.016553274605003904,0.00034401608283999327,0.02552785281111468,0.6829228878716388,0.3380841384165723,0.6484397543140293,-4.101171335401495,23.3
,,0.00863056212327078,0.016553274605003904,0.00034401608283999327,0.02552785281111468,0.6805539817466495,0.3380841384165723,0.6484397543140293,-4.101171335401495,23.4
,,0.00970113238496959,0.012928752404740451,0.00033009634602547064,0.022959981135735514,0.6807292130909647,0.4225235346500566,0.5630994349824532,-4.348301579272823,23.5
,,0.00970113238496959,0.012928752404740451,0.00033009634602547064,0.022959981135735514,0.6809044444352799,0.4225235346500566,0.5630994349824532,-4.348301579272823,23.6
,,0.00970113238496959,0.012928752404740451,0.00033009634602547064,0.022959981135735514,0.6810796757795952,0.4225235346500566,0.5630994349824532,-4.348301579272823,23.7
,,0.00970113238496959,0.012928752404740451,0.00033009634602547064,0.022959981135735514,0.6832689073093445,0.4225235346500566,0.5630994349824532,-4.348301579272823,23.8
,,0.00970113238496959,0.012928752404740451,0.00033009634602547064,0.022959981135735514,0.6833206022138535,0.4225235346500566,0.5630994349824532,-4.348301579272823,23.9
,,0.007991745335733054,0.01677440769136537,0.0003695885542501847,0.025135741581348608,0.680328647812548,0.3179434873591771,0.6673528066429688,-4.0879009057572855,24.0
,,0.007991745335733054,0.01677440769136537,0.0003695885542501847,0.025135741581348608,0.6773366934112427,0.3179434873591771,0.6673528066429688,-4.0879009057572855,24.1
,,0.0077736293200001754,0.016761484281720543,0.0005061372158698205,0.025041250817590538,0.6742042323723823,0.31043294828305834,0.6693549137707702,-4.088671626887645,24.2
,,0.0077736293200001754,0.016761484281720543,0.0005061372158698205,0.025041250817590538,0.6710717713335218,0.31043294828305834,0.6693549137707702,-4.088671626887645,24.3
,,0.0077736293200001754,0.016761484281720543,0.0005061372158698205,0.025041250817590538,0.6679393102946615,0.31043294828305834,0.6693549137707702,-4.088671626887645,24.4
,,0.0077736293200001754,0.016761484281720543,0.0005061372158698205,0.025041250817590538,0.6669303164862923,0.31043294828305834,0.6693549137707702,-4.088671626887645,24.5
,,0.0077736293200001754,0.016761484281720543,0.0005061372158698205,0.025041250817590538,0.6659642876971237,0.31043294828305834,0.6693549137707702,-4.088671626887645,24.6
,,0.0077736293200001754,0.016761484281720543,0.0005061372158698205,0.025041250817590538,0.664998258907955,0.31043294828305834,0.6693549137707702,-4.088671626887645,24.7
,,0.007149198157816615,0.01649522045994953,0.00038385340100700736,0.024028272018773153,0.6636947966741894,0.2975327627484401,0.6864921641914953,-4.104684609131765,24.8
,,0.006854098603727403,0.016232509576023398,0.0005138917960278946,0.023600499975778694,0.6622672775252644,0.29042175423240174,0.6878036309689582,-4.1207392836527506,24.9
,,0.006854098603727403,0.016232509576023398,0.0005138917960278946,0.023600499975778694,0.6607237416036558,0.29042175423240174,0.6878036309689582,-4.1207392836527506,25.0
,,0.006854098603727403,0.016232509576023398,0.0005138917960278946,0.023600499975778694,0.6591802056820472,0.29042175423240174,0.6878036309689582,-4.1207392836527506,25.1
,,0.006854098603727403,0.016232509576023398,0.0005138917960278946,0.023600499975778694,0.657752686533122,0.29042175423240174,0.6878036309689582,-4.1207392836527506,25.2
,,0.006854098603727403,0.016232509576023398,0.0005138917960278946,0.023600499975778694,0.6561353991109451,0.29042175423240174,0.6878036309689582,-4.1207392836527506,25.3
,,0.006854098603727403,0.016232509576023398,0.0005138917960278946,0.023600499975778694,0.6545181116887681,0.29042175423240174,0.6878036309689582,-4.1207392836527506,25.4
,,0.006208420039207105,0.015816629694615406,0.0003869105580484368,0.02241196029187095,0.6525705984876939,0.2770136997547226,0.7057227252161544,-4.146693380134529,25.5
,,0.0059450686917154535,0.015480883131784657,0.0005098794325511048,0.021935831256051214,0.650528658803369,0.2710208982882948,0.7057349662787046,-4.168149362590947,25.6
,,0.0059450686917154535,0.015480883131784657,0.0005098794325511048,0.021935831256051214,0.6484867191190441,0.2710208982882948,0.7057349662787046,-4.168149362590947,25.7
,,0.0059450686917154535,0.015480883131784657,0.0005098794325511048,0.021935831256051214,0.6464447794347191,0.2710208982882948,0.7057349662787046,-4.168149362590947,25.8
,,0.0059450686917154535,0.015480883131784657,0.0005098794325511048,0.021935831256051214,0.6444028397503943,0.2710208982882948,0.7057349662787046,-4.168149362590947,25.9
,,0.0059450686917154535,0.015480883131784657,0.0005098794325511048,0.021935831256051214,0.6421504637169473,0.2710208982882948,0.7057349662787046,-4.168149362590947,26.0
,,0.0059450686917154535,0.015480883131784657,0.0005098794325511048,0.021935831256051214,0.6370184970433989,0.2710208982882948,0.7057349662787046,-4.168149362590947,26.1
,,0.005290640328166113,0.014839137943166296,0.0003782550402855738,0.020508033311617983,0.6315810459928924,0.2579789221021461,0.7235768402404433,-4.210487133013331,26.2
,,0.005128295912736348,0.014565333560915151,0.0004940426990510047,0.020187672172702502,0.6260942203587134,0.25403106751806487,0.7214964378414168,-4.229110987294002,26.3
,,0.005128295912736348,0.014565333560915151,0.0004940426990510047,0.020187672172702502,0.6206073947245345,0.25403106751806487,0.7214964378414168,-4.229110987294002,26.4
,,0.005128295912736348,0.014565333560915151,0.0004940426990510047,0.020187672172702502,0.6151205690903555,0.25403106751806487,0.7214964378414168,-4.229110987294002,26.5
,,0.005128295912736348,0.014565333560915151,0.0004940426990510047,0.020187672172702502,0.6096337434561766,0.25403106751806487,0.7214964378414168,-4.229110987294002,26.6
,,0.005128295912736348,0.014565333560915151,0.0004940426990510047,0.020187672172702502,0.6041469178219975,0.25403106751806487,0.7214964378414168,-4.229110987294002,26.7
,,0.005128295912736348,0.014565333560915151,0.0004940426990510047,0.020187672172702502,0.5982185105674487,0.25403106751806487,0.7214964378414168,-4.229110987294002,26.8
,,0.0045221930893384376,0.01375984153517908,0.0003616450091540113,0.018643679633671528,0.5920296854069145,0.24255904296762876,0.7380432299602508,-4.286000962881983,26.9
,,0.004438335452010307,0.01347819985153478,0.0004655087850479291,0.018382044088593015,0.5858480358957733,0.2414495053226707,0.7332263912857593,-4.306681724586536,27.0
,,0.004438335452010307,0.01347819985153478,0.0004655087850479291,0.018382044088593015,0.5796663863846322,0.2414495053226707,0.7332263912857593,-4.306681724586536,27.1
,,0.004438335452010307,0.01347819985153478,0.0004655087850479291,0.018382044088593015,0.5734847368734911,0.2414495053226707,0.7332263912857593,-4.306681724586536,27.2
,,0.004438335452010307,0.01347819985153478,0.0004655087850479291,0.018382044088593015,0.56730308736235,0.2414495053226707,0.7332263912857593,-4.306681724586536,27.3
,,0.004438335452010307,0.01347819985153478,0.0004655087850479291,0.018382044088593015,0.5611214378512089,0.2414495053226707,0.7332263912857593,-4.306681724586536,27.4
,,0.004438335452010307,0.01347819985153478,0.0004655087850479291,0.018382044088593015,0.557712982067381,0.2414495053226707,0.7332263912857593,-4.306681724586536,27.5
,,0.003956230802746567,0.012689148454724186,0.0003376239755767598,0.016983003233047515,0.5541098961863619,0.2329523670494315,0.7471675227637098,-4.367008103154028,27.6
,,0.0039659881435105074,0.01246980298586391,0.0004325489029298869,0.016868340032304308,0.5505764407478768,0.23511431094673824,0.739243041222976,-4.3844453184636025,27.7
,,0.0039659881435105074,0.01246980298586391,0.0004325489029298869,0.016868340032304308,0.5470429853093919,0.23511431094673824,0.739243041222976,-4.3844453184636025,27.8
,,0.0039659881435105074,0.01246980298586391,0.0004325489029298869,0.016868340032304308,0.5435095298709068,0.23511431094673824,0.739243041222976,-4.3844453184636025,27.9
,,0.0039659881435105074,0.01246980298586391,0.0004325489029298869,0.016868340032304308,0.5399760744324218,0.23511431094673824,0.739243041222976,-4.3844453184636025,28.0
,,0.0039659881435105074,0.01246980298586391,0.0004325489029298869,0.016868340032304308,0.5364426189939367,0.23511431094673824,0.739243041222976,-4.3844453184636025,28.1
,,0.0039659881435105074,0.01246980298586391,0.0004325489029298869,0.016868340032304308,0.5327646249347857,0.23511431094673824,0.739243041222976,-4.3844453184636025,28.2
,,0.0036095705820565938,0.011752406619793019,0.000310747910989607,0.01567272511283922,0.5289653776696545,0.2303090595967644,0.7498636347654279,-4.4436972406586674,28.3
,,0.003698338656577035,0.011582663110002752,0.000396239492108655,0.01567724125868844,0.5253012961895814,0.23590493987756864,0.738820237494499,-4.4582458583204145,28.4
,,0.003698338656577035,0.011582663110002752,0.000396239492108655,0.01567724125868844,0.5216372147095083,0.23590493987756864,0.738820237494499,-4.4582458583204145,28.5
,,0.003698338656577035,0.011582663110002752,0.000396239492108655,0.01567724125868844,0.5179731332294352,0.23590493987756864,0.738820237494499,-4.4582458583204145,28.6
,,0.003698338656577035,0.011582663110002752,0.000396239492108655,0.01567724125868844,0.514309051749362,0.23590493987756864,0.738820237494499,-4.4582458583204145,28.7
,,0.003698338656577035,0.011582663110002752,0.000396239492108655,0.01567724125868844,0.5075736586914711,0.23590493987756864,0.738820237494499,-4.4582458583204145,28.8
,,0.003698338656577035,0.011582663110002752,0.000396239492108655,0.01567724125868844,0.503882868461402,0.23590493987756864,0.738820237494499,-4.4582458583204145,28.9
,,0.0034510210200286995,0.010954245973866355,0.0002825705403270071,0.014687837534222061,0.5001447456435264,0.23495773370232081,0.7458038631175903,-4.51402813770873,29.0
,,0.0034510210200286995,0.010954245973866355,0.0002825705403270071,0.014687837534222061,0.49640662282565085,0.23495773370232081,0.7458038631175903,-4.51402813770873,29.1
,,0.0036247905271577464,0.010838598083463062,0.0003560356444985319,0.01481942425511934,0.49288398827993185,0.24459725727236467,0.7313778117742253,-4.524641619428049,29.2
,,0.0036247905271577464,0.010838598083463062,0.0003560356444985319,0.01481942425511934,0.48936135373421297,0.24459725727236467,0.7313778117742253,-4.524641619428049,29.3
,,0.0036247905271577464,0.010838598083463062,0.0003560356444985319,0.01481942425511934,0.485838719188494,0.24459725727236467,0.7313778117742253,-4.524641619428049,29.4
,,0.0036247905271577464,0.010838598083463062,0.0003560356444985319,0.01481942425511934,0.48242631179339646,0.24459725727236467,0.7313778117742253,-4.524641619428049,29.5
,,0.0036247905271577464,0.010838598083463062,0.0003560356444985319,0.01481942425511934,0.4790139043982989,0.24459725727236467,0.7313778117742253,-4.524641619428049,29.6
,,0.003665352931013516,0.00802465672754551,0.00021915003621372783,0.011909159694772754,0.4769598204074333,0.30777594934950253,0.6738222454996338,-4.825236386264687,29.7
,,0.003665352931013516,0.00802465672754551,0.00021915003621372783,0.011909159694772754,0.4749057364165677,0.30777594934950253,0.6738222454996338,-4.825236386264687,29.8
,,0.003685345028914531,0.01018398721619259,0.0003169118929280822,0.014186244138035202,0.47179737578826436,0.2597829977445286,0.7178776226533399,-4.5869386730113435,29.9
,,0.003685345028914531,0.01018398721619259,0.0003169118929280822,0.014186244138035202,0.4686890151599612,0.2597829977445286,0.7178776226533399,-4.5869386730113435,30.0
,,0.003685345028914531,0.01018398721619259,0.0003169118929280822,0.014186244138035202,0.465580654531658,0.2597829977445286,0.7178776226533399,-4.5869386730113435,30.1
,,0.003685345028914531,0.01018398721619259,0.0003169118929280822,0.014186244138035202,0.46264595480343673,0.2597829977445286,0.7178776226533399,-4.5869386730113435,30.2
,,0.003685345028914531,0.01018398721619259,0.0003169118929280822,0.014186244138035202,0.4597112550752155,0.2597829977445286,0.7178776226533399,-4.5869386730113435,30.3
,,0.0036174429018647845,0.009739304463023893,0.00022275975409407397,0.013579507118982752,0.456940404812305,0.26638985275157534,0.7172060353655508,-4.631585574244692,30.4
,,0.0036174429018647845,0.009739304463023893,0.00022275975409407397,0.013579507118982752,0.45416955454939456,0.26638985275157534,0.7172060353655508,-4.631585574244692,30.5
,,0.0036174429018647845,0.009739304463023893,0.00022275975409407397,0.013579507118982752,0.4513987042864841,0.26638985275157534,0.7172060353655508,-4.631585574244692,30.6
,,0.003891905048768393,0.009672804287253976,0.0002786418063254511,0.01384335114234782,0.44897150034285693,0.2811389387402572,0.6987328565020765,-4.6384370128765235,30.7
,,0.003891905048768393,0.009672804287253976,0.0002786418063254511,0.01384335114234782,0.44654429639922977,0.2811389387402572,0.6987328565020765,-4.6384370128765235,30.8
,,0.003891905048768393,0.009672804287253976,0.0002786418063254511,0.01384335114234782,0.4414402586587753,0.2811389387402572,0.6987328565020765,-4.6384370128765235,30.9
,,0.003891905048768393,0.009672804287253976,0.0002786418063254511,0.01384335114234782,0.4363362209183208,0.2811389387402572,0.6987328565020765,-4.6384370128765235,31.0
,,0.003928281173300817,0.009389153570036977,0.0001945471245172413,0.013511981867855035,0.43442543280315243,0.2907257581988166,0.6948761226784759,-4.668200131461072,31.1
,,0.003928281173300817,0.009389153570036977,0.0001945471245172413,0.013511981867855035,0.43251464468798395,0.2907257581988166,0.6948761226784759,-4.668200131461072,31.2
,,0.003928281173300817,0.009389153570036977,0.0001945471245172413,0.013511981867855035,0.4306038565728155,0.2907257581988166,0.6948761226784759,-4.668200131461072,31.3
,,0.003928281173300817,0.009389153570036977,0.0001945471245172413,0.013511981867855035,0.42869306845764715,0.2907257581988166,0.6948761226784759,-4.668200131461072,31.4
,,0.0034042721938024652,0.006512216956405715,0.00020167739394122482,0.010118166544149404,0.4279419096604235,0.33645148841426287,0.6436163041980422,-5.034075334435507,31.5
,,0.0034042721938024652,0.006512216956405715,0.00020167739394122482,0.010118166544149404,0.42748668758469116,0.33645148841426287,0.6436163041980422,-5.034075334435507,31.6
,,0.0034042721938024652,0.006512216956405715,0.00020167739394122482,0.010118166544149404,0.4270314655089588,0.33645148841426287,0.6436163041980422,-5.034075334435507,31.7
,,0.004321996475478907,0.009215626831742669,0.0001726216587667058,0.013710244965988282,0.42328227665582896,0.31523845753308627,0.672170836816144,-4.686854667195765,31.8
,,0.004321996475478907,0.009215626831742669,0.0001726216587667058,0.013710244965988282,0.41953308780269905,0.31523845753308627,0.672170836816144,-4.686854667195765,31.9
,,0.004321996475478907,0.009215626831742669,0.0001726216587667058,0.013710244965988282,0.4157838989495692,0.31523845753308627,0.672170836816144,-4.686854667195765,32.0
,,0.004321996475478907,0.009215626831742669,0.0001726216587667058,0.013710244965988282,0.4120347100964393,0.31523845753308627,0.672170836816144,-4.686854667195765,32.1
,,0.003541180005136874,0.006403709317816876,0.00018587033225495237,0.010130759655208701,0.40921889071769674,0.34954733165702795,0.6321055415152828,-5.050877875599771,32.2
,,0.003541180005136874,0.006403709317816876,0.00018587033225495237,0.010130759655208701,0.4095700898168933,0.34954733165702795,0.6321055415152828,-5.050877875599771,32.3
,,0.003541180005136874,0.006403709317816876,0.00018587033225495237,0.010130759655208701,0.4099212889160898,0.34954733165702795,0.6321055415152828,-5.050877875599771,32.4
,,0.004804685887277511,0.009236233723239902,0.00015806098144170705,0.01419898059195912,0.40736402624034146,0.3383824533148812,0.6504856925060084,-4.684621082132299,32.5
,,0.004804685887277511,0.009236233723239902,0.00015806098144170705,0.01419898059195912,0.40480676356459305,0.3383824533148812,0.6504856925060084,-4.684621082132299,32.6
,,0.004804685887277511,0.009236233723239902,0.00015806098144170705,0.01419898059195912,0.4022495008888447,0.3383824533148812,0.6504856925060084,-4.684621082132299,32.7
,,0.004804685887277511,0.009236233723239902,0.00015806098144170705,0.01419898059195912,0.3996922382130963,0.3383824533148812,0.6504856925060084,-4.684621082132299,32.8
,,0.004804685887277511,0.009236233723239902,0.00015806098144170705,0.01419898059195912,0.3971349755373479,0.3383824533148812,0.6504856925060084,-4.684621082132299,32.9
,,0.00515646058056354,0.009293518433408485,0.00020873989581770877,0.014658718909789734,0.3980063081169568,0.35176747792877244,0.633992539907554,-4.6784380644446015,33.0
,,0.00515646058056354,0.009293518433408485,0.00020873989581770877,0.014658718909789734,0.3988776406965658,0.35176747792877244,0.633992539907554,-4.6784380644446015,33.1
,,0.00515646058056354,0.009293518433408485,0.00020873989581770877,0.014658718909789734,0.3998894799137298,0.35176747792877244,0.633992539907554,-4.6784380644446015,33.2
,,0.005395680942023172,0.009468334951718421,0.0001502814499325307,0.015014297343674123,0.4010682196732543,0.35936952749217393,0.6306212495323767,-4.6598022107150925,33.3
,,0.005395680942023172,0.009468334951718421,0.0001502814499325307,0.015014297343674123,0.4022469594327787,0.35936952749217393,0.6306212495323767,-4.6598022107150925,33.4
,,0.005395680942023172,0.009468334951718421,0.0001502814499325307,0.015014297343674123,0.40342569919230326,0.35936952749217393,0.6306212495323767,-4.6598022107150925,33.5
,,0.005395680942023172,0.009468334951718421,0.0001502814499325307,0.015014297343674123,0.40460443895182774,0.35936952749217393,0.6306212495323767,-4.6598022107150925,33.6
,,0.005739355109682532,0.009514241058786701,0.00020012070295122037,0.015453716871420452,0.4061539840733346,0.3713899482846543,0.6156603707669833,-4.654965544023039,33.7
,,0.005739355109682532,0.009514241058786701,0.00020012070295122037,0.015453716871420452,0.4080409626394384,0.3713899482846543,0.6156603707669833,-4.654965544023039,33.8
,,0.005739355109682532,0.009514241058786701,0.00020012070295122037,0.015453716871420452,0.41005199812070176,0.3713899482846543,0.6156603707669833,-4.654965544023039,33.9
,,0.006059298445666184,0.009906581004803284,0.0001498797493680966,0.016115759199837567,0.41215642699924826,0.3759859135725518,0.6147138885584201,-4.614555994728724,34.0
,,0.006059298445666184,0.009906581004803284,0.0001498797493680966,0.016115759199837567,0.4142608558777949,0.3759859135725518,0.6147138885584201,-4.614555994728724,34.1
,,0.006059298445666184,0.009906581004803284,0.0001498797493680966,0.016115759199837567,0.4163652847563414,0.3759859135725518,0.6147138885584201,-4.614555994728724,34.2
,,0.006059298445666184,0.009906581004803284,0.0001498797493680966,0.016115759199837567,0.418469713634888,0.3759859135725518,0.6147138885584201,-4.614555994728724,34.3
,,0.006059298445666184,0.009906581004803284,0.0001498797493680966,0.016115759199837567,0.42057414251343456,0.3759859135725518,0.6147138885584201,-4.614555994728724,34.4
,,0.006443491150850396,0.010048356010854024,0.00020274868610764454,0.016694595847812067,0.4233377364490103,0.3859626917350537,0.6018927383720358,-4.600346238867434,34.5
,,0.006443491150850396,0.010048356010854024,0.00020274868610764454,0.016694595847812067,0.4261957568678367,0.3859626917350537,0.6018927383720358,-4.600346238867434,34.6
,,0.006848021945444525,0.010677774465953664,0.0001591230598661995,0.01768491947126439,0.4290547317968058,0.38722381272765405,0.6037785178102512,-4.539590850502584,34.7
,,0.006848021945444525,0.010677774465953664,0.0001591230598661995,0.01768491947126439,0.43191370672577484,0.38722381272765405,0.6037785178102512,-4.539590850502584,34.8
,,0.006848021945444525,0.010677774465953664,0.0001591230598661995,0.01768491947126439,0.434772681654744,0.38722381272765405,0.6037785178102512,-4.539590850502584,34.9
,,0.006848021945444525,0.010677774465953664,0.0001591230598661995,0.01768491947126439,0.43763165658371295,0.38722381272765405,0.6037785178102512,-4.539590850502584,35.0
,,0.006848021945444525,0.010677774465953664,0.0001591230598661995,0.01768491947126439,0.44049063151268203,0.38722381272765405,0.6037785178102512,-4.539590850502584,35.1
,,0.007334014906998957,0.01096629462987324,0.00021649466399045826,0.018516804200862654,0.44396002022395337,0.3960734707481155,0.5922347350501415,-4.5129288347820316,35.2
,,0.007334014906998957,0.01096629462987324,0.00021649466399045826,0.018516804200862654,0.4474787835188972,0.3960734707481155,0.5922347350501415,-4.5129288347820316,35.3
,,0.004598839524891845,0.008252453666909373,0.00021556685200079637,0.013066860043802014,0.44975856356485977,0.3519467959001525,0.6315559850833291,-4.797244708683541,35.4
,,0.004598839524891845,0.008252453666909373,0.00021556685200079637,0.013066860043802014,0.45203834361082235,0.3519467959001525,0.6315559850833291,-4.797244708683541,35.5
,,0.004598839524891845,0.008252453666909373,0.00021556685200079637,0.013066860043802014,0.4543181236567849,0.3519467959001525,0.6315559850833291,-4.797244708683541,35.6
,,0.004598839524891845,0.008252453666909373,0.00021556685200079637,0.013066860043802014,0.4565979037027475,0.3519467959001525,0.6315559850833291,-4.797244708683541,35.7
,,0.004598839524891845,0.008252453666909373,0.00021556685200079637,0.013066860043802014,0.4588776837487101,0.3519467959001525,0.6315559850833291,-4.797244708683541,35.8
,,0.004598839524891845,0.008252453666909373,0.00021556685200079637,0.013066860043802014,0.461417881700658,0.3519467959001525,0.6315559850833291,-4.797244708683541,35.9
,,0.004606273448131225,0.008348966326905518,0.00021268652481878784,0.013167926299855531,0.46388922022019285,0.34981008727105056,0.6340380510025422,-4.785617540967349,36.0
,,0.008819446289190002,0.013233233951543135,0.00028408332663607135,0.022336763567369206,0.4676354930716988,0.3948399356330181,0.5924418688334501,-4.325023889944259,36.1
,,0.008819446289190002,0.013233233951543135,0.00028408332663607135,0.022336763567369206,0.47138176592320474,0.3948399356330181,0.5924418688334501,-4.325023889944259,36.2
,,0.008819446289190002,0.013233233951543135,0.00028408332663607135,0.022336763567369206,0.4751280387747107,0.3948399356330181,0.5924418688334501,-4.325023889944259,36.3
,,0.008819446289190002,0.013233233951543135,0.00028408332663607135,0.022336763567369206,0.4788743116262166,0.3948399356330181,0.5924418688334501,-4.325023889944259,36.4
,,0.008819446289190002,0.013233233951543135,0.00028408332663607135,0.022336763567369206,0.48262058447772255,0.3948399356330181,0.5924418688334501,-4.325023889944259,36.5
,,0.008819446289190002,0.013233233951543135,0.00028408332663607135,0.022336763567369206,0.4865614874264195,0.3948399356330181,0.5924418688334501,-4.325023889944259,36.6
,,0.0048517544258769385,0.009462305691989978,0.0002447589254864928,0.01455881904335341,0.4887247996147039,0.333251921837158,0.6499363488077584,-4.660439194961509,36.7
,,0.0048517544258769385,0.009462305691989978,0.0002447589254864928,0.01455881904335341,0.49088811180298836,0.333251921837158,0.6499363488077584,-4.660439194961509,36.8
,,0.010064853449307418,0.01519702975245008,0.0003303598253483138,0.02559224302710581,0.49471303904846564,0.39327750360323294,0.5938139043285214,-4.186655281248149,36.9
,,0.010064853449307418,0.01519702975245008,0.0003303598253483138,0.02559224302710581,0.49853796629394287,0.39327750360323294,0.5938139043285214,-4.186655281248149,37.0
,,0.010064853449307418,0.01519702975245008,0.0003303598253483138,0.02559224302710581,0.5023628935394202,0.39327750360323294,0.5938139043285214,-4.186655281248149,37.1
,,0.010064853449307418,0.01519702975245008,0.0003303598253483138,0.02559224302710581,0.5061878207848974,0.39327750360323294,0.5938139043285214,-4.186655281248149,37.2
,,0.010064853449307418,0.01519702975245008,0.0003303598253483138,0.02559224302710581,0.5101340012363548,0.39327750360323294,0.5938139043285214,-4.186655281248149,37.3
,,0.010663034064172263,0.015649432911176885,0.0003184392662740478,0.026630906241623196,0.51415699245242,0.4004007211555687,0.587641771150745,-4.157320598360052,37.4
,,0.010663034064172263,0.015649432911176885,0.0003184392662740478,0.026630906241623196,0.5181799836684853,0.4004007211555687,0.587641771150745,-4.157320598360052,37.5
,,0.005356428606617796,0.012617882233347205,0.000346449069045684,0.018320759909010685,0.51934899916796,0.2923693467530977,0.6887204622522978,-4.372640246303639,37.6
,,0.005356428606617796,0.012617882233347205,0.000346449069045684,0.018320759909010685,0.5205180146674347,0.2923693467530977,0.6887204622522978,-4.372640246303639,37.7
,,0.005356428606617796,0.012617882233347205,0.000346449069045684,0.018320759909010685,0.5216870301669094,0.2923693467530977,0.6887204622522978,-4.372640246303639,37.8
,,0.005356428606617796,0.012617882233347205,0.000346449069045684,0.018320759909010685,0.5228560456663842,0.2923693467530977,0.6887204622522978,-4.372640246303639,37.9
,,0.005356428606617796,0.012617882233347205,0.000346449069045684,0.018320759909010685,0.5240723937536653,0.2923693467530977,0.6887204622522978,-4.372640246303639,38.0
,,0.005356428606617796,0.012617882233347205,0.000346449069045684,0.018320759909010685,0.5252887418409464,0.2923693467530977,0.6887204622522978,-4.372640246303639,38.1
,,0.012113715696564298,0.018205863552155022,0.0003845830995349636,0.030704162348254287,0.5289658628082162,0.39453008224642333,0.5929444791771085,-4.006011563590697,38.2
,,0.012931228656137755,0.02046482974695095,0.0004768295905853097,0.033872887993674015,0.5322707759193069,0.38175748871937776,0.6041654833438734,-3.889047488302723,38.3
,,0.012931228656137755,0.02046482974695095,0.0004768295905853097,0.033872887993674015,0.5355756890303979,0.38175748871937776,0.6041654833438734,-3.889047488302723,38.4
,,0.012931228656137755,0.02046482974695095,0.0004768295905853097,0.033872887993674015,0.5388806021414887,0.38175748871937776,0.6041654833438734,-3.889047488302723,38.5
,,0.012931228656137755,0.02046482974695095,0.0004768295905853097,0.033872887993674015,0.5421855152525796,0.38175748871937776,0.6041654833438734,-3.889047488302723,38.6
,,0.012931228656137755,0.02046482974695095,0.0004768295905853097,0.033872887993674015,0.5441312304223848,0.38175748871937776,0.6041654833438734,-3.889047488302723,38.7
,,0.012931228656137755,0.02046482974695095,0.0004768295905853097,0.033872887993674015,0.5460769455921899,0.38175748871937776,0.6041654833438734,-3.889047488302723,38.8
,,0.013471120390256696,0.020824855100748423,0.00045715696211327746,0.034753132453118396,0.5492436188105286,0.3876231993886909,0.59922239035117,-3.8716080489006917,38.9
,,0.013471120390256696,0.020824855100748423,0.00045715696211327746,0.034753132453118396,0.5524102920288673,0.3876231993886909,0.59922239035117,-3.8716080489006917,39.0
,,0.014351649250847804,0.023440175434473184,0.0005689157158587367,0.038360740401179726,0.5551924109647982,0.37412336416756026,0.6110459597321097,-3.7533038298954806,39.1
,,0.014351649250847804,0.023440175434473184,0.0005689157158587367,0.038360740401179726,0.5579745299007292,0.37412336416756026,0.6110459597321097,-3.7533038298954806,39.2
,,0.014351649250847804,0.023440175434473184,0.0005689157158587367,0.038360740401179726,0.5607566488366602,0.37412336416756026,0.6110459597321097,-3.7533038298954806,39.3
,,0.014351649250847804,0.023440175434473184,0.0005689157158587367,0.038360740401179726,0.5634326478466334,0.37412336416756026,0.6110459597321097,-3.7533038298954806,39.4
,,0.014351649250847804,0.023440175434473184,0.0005689157158587367,0.038360740401179726,0.5661086468566066,0.37412336416756026,0.6110459597321097,-3.7533038298954806,39.5
,,0.014807172524587452,0.02365797779816166,0.0005413371970500152,0.03900648751979913,0.568935954958674,0.37960794385989116,0.6065139237710961,-3.7440548933085354,39.6
,,0.014807172524587452,0.02365797779816166,0.0005413371970500152,0.03900648751979913,0.571419616741458,0.37960794385989116,0.6065139237710961,-3.7440548933085354,39.7
,,0.015578625735847491,0.026341507251863062,0.0006672838342738312,0.04258741682198438,0.5735202212581694,0.3658034907579914,0.6185279412923939,-3.6366093613784667,39.8
,,0.015578625735847491,0.026341507251863062,0.0006672838342738312,0.04258741682198438,0.5756208257748808,0.3658034907579914,0.6185279412923939,-3.6366093613784667,39.9
,,0.015578625735847491,0.026341507251863062,0.0006672838342738312,0.04258741682198438,0.5777214302915922,0.3658034907579914,0.6185279412923939,-3.6366093613784667,40.0
,,0.015578625735847491,0.026341507251863062,0.0006672838342738312,0.04258741682198438,0.5796439279681925,0.3658034907579914,0.6185279412923939,-3.6366093613784667,40.1
,,0.015578625735847491,0.026341507251863062,0.0006672838342738312,0.04258741682198438,0.581566425644793,0.3658034907579914,0.6185279412923939,-3.6366093613784667,40.2
,,0.015578625735847491,0.026341507251863062,0.0006672838342738312,0.04258741682198438,0.5834889233213933,0.3658034907579914,0.6185279412923939,-3.6366093613784667,40.3
,,0.015535736040991038,0.025707793159181338,0.0006127320116084235,0.0418562612117808,0.5855548686516198,0.37116874730842836,0.6141922956067959,-3.6609610972818247,40.4
,,0.01582380749362448,0.027680266855534947,0.000729333746623475,0.044233408095782904,0.5860983373103166,0.3577343047897112,0.6257773942174243,-3.587035507544496,40.5
,,0.01582380749362448,0.027680266855534947,0.000729333746623475,0.044233408095782904,0.5866418059690133,0.3577343047897112,0.6257773942174243,-3.587035507544496,40.6
,,0.01582380749362448,0.027680266855534947,0.000729333746623475,0.044233408095782904,0.58718527462771,0.3577343047897112,0.6257773942174243,-3.587035507544496,40.7
,,0.01582380749362448,0.027680266855534947,0.000729333746623475,0.044233408095782904,0.5883261436643212,0.3577343047897112,0.6257773942174243,-3.587035507544496,40.8
,,0.01582380749362448,0.027680266855534947,0.000729333746623475,0.044233408095782904,0.5894670127009327,0.3577343047897112,0.6257773942174243,-3.587035507544496,40.9
,,0.01582380749362448,0.027680266855534947,0.000729333746623475,0.044233408095782904,0.5906078817375442,0.3577343047897112,0.6257773942174243,-3.587035507544496,41.0
,,0.015627829657321138,0.02674190787285262,0.0006630060233068261,0.043032743553480586,0.5918902050121149,0.3631613596260498,0.6214316277468596,-3.621523360831398,41.1
,,0.015796030259300254,0.02847324876448381,0.0007789999016873962,0.04504827892547146,0.591909966440381,0.35064669807770993,0.6320607455745506,-3.558790272348438,41.2
,,0.015796030259300254,0.02847324876448381,0.0007789999016873962,0.04504827892547146,0.591929727868647,0.35064669807770993,0.6320607455745506,-3.558790272348438,41.3
,,0.015796030259300254,0.02847324876448381,0.0007789999016873962,0.04504827892547146,0.5919494892969129,0.35064669807770993,0.6320607455745506,-3.558790272348438,41.4
,,0.015796030259300254,0.02847324876448381,0.0007789999016873962,0.04504827892547146,0.5923335750308192,0.35064669807770993,0.6320607455745506,-3.558790272348438,41.5
,,0.015796030259300254,0.02847324876448381,0.0007789999016873962,0.04504827892547146,0.5927176607647257,0.35064669807770993,0.6320607455745506,-3.558790272348438,41.6
,,0.015796030259300254,0.02847324876448381,0.0007789999016873962,0.04504827892547146,0.593101746498632,0.35064669807770993,0.6320607455745506,-3.558790272348438,41.7
,,0.015509105603310548,0.02732406562684537,0.0007015791836940753,0.04353475041384999,0.5936284028038936,0.3562465721263567,0.6276380447136453,-3.5999874403131433,41.8
,,0.0064352727840919655,0.03326147013928381,0.0009151543179281513,0.04061189724130392,0.5899981317994979,0.15845782199869834,0.819008034558296,-3.4033556047725675,41.9
,,0.0064352727840919655,0.03326147013928381,0.0009151543179281513,0.04061189724130392,0.5859829148455592,0.15845782199869834,0.819008034558296,-3.4033556047725675,42.0
,,0.0064352727840919655,0.03326147013928381,0.0009151543179281513,0.04061189724130392,0.5819676978916205,0.15845782199869834,0.819008034558296,-3.4033556047725675,42.1
,,0.0064352727840919655,0.03326147013928381,0.0009151543179281513,0.04061189724130392,0.5779524809376817,0.15845782199869834,0.819008034558296,-3.4033556047725675,42.2
,,0.0064352727840919655,0.03326147013928381,0.0009151543179281513,0.04061189724130392,0.5737703634413824,0.15845782199869834,0.819008034558296,-3.4033556047725675,42.3
,,0.0064352727840919655,0.03326147013928381,0.0009151543179281513,0.04061189724130392,0.5695882459450832,0.15845782199869834,0.819008034558296,-3.4033556047725675,42.4
,,0.0064352727840919655,0.03326147013928381,0.0009151543179281513,0.04061189724130392,0.565406128448784,0.15845782199869834,0.819008034558296,-3.4033556047725675,42.5
,,0.01582392191779169,0.029491966445101152,0.00085210010023687,0.04616798846312971,0.5650359548653148,0.34274661826405667,0.6387968682814452,-3.523637376618124,42.6
,,0.01582392191779169,0.029491966445101152,0.00085210010023687,0.04616798846312971,0.5642949759198633,0.34274661826405667,0.6387968682814452,-3.523637376618124,42.7
,,0.01582392191779169,0.029491966445101152,0.00085210010023687,0.04616798846312971,0.5635539969744118,0.34274661826405667,0.6387968682814452,-3.523637376618124,42.8
,,0.01582392191779169,0.029491966445101152,0.00085210010023687,0.04616798846312971,0.5628130180289603,0.34274661826405667,0.6387968682814452,-3.523637376618124,42.9
,,0.01582392191779169,0.029491966445101152,0.00085210010023687,0.04616798846312971,0.5619786456862256,0.34274661826405667,0.6387968682814452,-3.523637376618124,43.0
,,0.01582392191779169,0.029491966445101152,0.00085210010023687,0.04616798846312971,0.561144273343491,0.34274661826405667,0.6387968682814452,-3.523637376618124,43.1
,,0.016065017104096416,0.030814144812083128,0.0006520298256314282,0.047531191741810974,0.5601410319643665,0.3379889397968696,0.648293124638349,-3.4797814472787474,43.2
,,0.01612735760059065,0.030142004421153973,0.000886388375891494,0.047155750397636115,0.5592899452739959,0.3420019290245268,0.6392010341683582,-3.5018355843071376,43.3
,,0.01612735760059065,0.030142004421153973,0.000886388375891494,0.047155750397636115,0.5584388585836253,0.3420019290245268,0.6392010341683582,-3.5018355843071376,43.4
,,0.01612735760059065,0.030142004421153973,0.000886388375891494,0.047155750397636115,0.5572588326151228,0.3420019290245268,0.6392010341683582,-3.5018355843071376,43.5
,,0.01612735760059065,0.030142004421153973,0.000886388375891494,0.047155750397636115,0.5560788066466202,0.3420019290245268,0.6392010341683582,-3.5018355843071376,43.6
,,0.01612735760059065,0.030142004421153973,0.000886388375891494,0.047155750397636115,0.554897826167975,0.3420019290245268,0.6392010341683582,-3.5018355843071376,43.7
,,0.01612735760059065,0.030142004421153973,0.000886388375891494,0.047155750397636115,0.5537168456893299,0.3420019290245268,0.6392010341683582,-3.5018355843071376,43.8
,,0.016438042594699182,0.03131848597156412,0.0006754959985371751,0.04843202456480048,0.5524227666886237,0.3394044073607869,0.6466482921782672,-3.4635467496549244,43.9
,,0.01663215130993046,0.030921647418774012,0.0009240890630308541,0.04847788779173533,0.5512732811811927,0.3430873758647126,0.6378505505771157,-3.476298776644277,44.0
,,0.01663215130993046,0.030921647418774012,0.0009240890630308541,0.04847788779173533,0.5501237956737615,0.3430873758647126,0.6378505505771157,-3.476298776644277,44.1
,,0.01663215130993046,0.030921647418774012,0.0009240890630308541,0.04847788779173533,0.5486693807609861,0.3430873758647126,0.6378505505771157,-3.476298776644277,44.2
,,0.01663215130993046,0.030921647418774012,0.0009240890630308541,0.04847788779173533,0.5472149658482108,0.3430873758647126,0.6378505505771157,-3.476298776644277,44.3
,,0.01663215130993046,0.030921647418774012,0.0009240890630308541,0.04847788779173533,0.5469995341844167,0.3430873758647126,0.6378505505771157,-3.476298776644277,44.4
,,0.01663215130993046,0.030921647418774012,0.0009240890630308541,0.04847788779173533,0.5467841025206226,0.3430873758647126,0.6378505505771157,-3.476298776644277,44.5
,,0.01718710873858085,0.03230044573322656,0.0007112007677348476,0.05019875523954226,0.5465044573280432,0.34238117372763704,0.6434511289989726,-3.4326742490584463,44.6
,,0.01718710873858085,0.03230044573322656,0.0007112007677348476,0.05019875523954226,0.5462248121354639,0.34238117372763704,0.6434511289989726,-3.4326742490584463,44.7
,,0.017281237755990192,0.03172107230144278,0.0009576030498306336,0.04995991310726361,0.5460861227936444,0.3459020779096931,0.634930493840889,-3.4507740775711486,44.8
,,0.017281237755990192,0.03172107230144278,0.0009576030498306336,0.04995991310726361,0.5459474334518251,0.3459020779096931,0.634930493840889,-3.4507740775711486,44.9
,,0.017281237755990192,0.03172107230144278,0.0009576030498306336,0.04995991310726361,0.5458704278930255,0.3459020779096931,0.634930493840889,-3.4507740775711486,45.0
,,0.017281237755990192,0.03172107230144278,0.0009576030498306336,0.04995991310726361,0.544518488002255,0.3459020779096931,0.634930493840889,-3.4507740775711486,45.1
,,0.017281237755990192,0.03172107230144278,0.0009576030498306336,0.04995991310726361,0.5431665481114843,0.3459020779096931,0.634930493840889,-3.4507740775711486,45.2
,,0.018019174324699745,0.0332059957981199,0.0007434027292255982,0.051968572852045244,0.5417908404536509,0.346732137055224,0.638963011215596,-3.4050248230363356,45.3
,,0.018019174324699745,0.0332059957981199,0.0007434027292255982,0.051968572852045244,0.5404151327958175,0.346732137055224,0.638963011215596,-3.4050248230363356,45.4
,,0.018019174324699745,0.0332059957981199,0.0007434027292255982,0.051968572852045244,0.5390394251379842,0.346732137055224,0.638963011215596,-3.4050248230363356,45.5
,,0.015751359961206995,0.06768924229582475,0.0012944490288802376,0.08473505128591198,0.5342198604607646,0.18588954301873198,0.7988340275788414,-2.6928280142630103,45.6
,,0.015751359961206995,0.06768924229582475,0.0012944490288802376,0.08473505128591198,0.5311082561014238,0.18588954301873198,0.7988340275788414,-2.6928280142630103,45.7
,,0.015751359961206995,0.06768924229582475,0.0012944490288802376,0.08473505128591198,0.5279966517420828,0.18588954301873198,0.7988340275788414,-2.6928280142630103,45.8
,,0.015751359961206995,0.06768924229582475,0.0012944490288802376,0.08473505128591198,0.5232234323255489,0.18588954301873198,0.7988340275788414,-2.6928280142630103,45.9
,,0.01965286521155687,0.035366094745161177,0.0008025755451107031,0.05582153550182875,0.5220390666339897,0.35206600884192857,0.6335564657479291,-3.342001693362916,46.0
,,0.01965286521155687,0.035366094745161177,0.0008025755451107031,0.05582153550182875,0.5208547009424304,0.35206600884192857,0.6335564657479291,-3.342001693362916,46.1
,,0.01965286521155687,0.035366094745161177,0.0008025755451107031,0.05582153550182875,0.5196703352508711,0.35206600884192857,0.6335564657479291,-3.342001693362916,46.2
,,0.01965286521155687,0.035366094745161177,0.0008025755451107031,0.05582153550182875,0.5184859695593119,0.35206600884192857,0.6335564657479291,-3.342001693362916,46.3
,,0.020533778541695337,0.07710798879002115,0.0013341909308258765,0.09897595826254235,0.5138740835323289,0.20746228581316384,0.7790577645682953,-2.5625483878270336,46.4
,,0.020533778541695337,0.07710798879002115,0.0013341909308258765,0.09897595826254235,0.5092621975053457,0.20746228581316384,0.7790577645682953,-2.5625483878270336,46.5
,,0.022175235870936227,0.03889497456551216,0.001260289367379134,0.062330499803827516,0.5108802000250184,0.35576861954786565,0.624011915321169,-3.246890225250541,46.6
,,0.022175235870936227,0.03889497456551216,0.001260289367379134,0.062330499803827516,0.5124982025446911,0.35576861954786565,0.624011915321169,-3.246890225250541,46.7
,,0.022175235870936227,0.03889497456551216,0.001260289367379134,0.062330499803827516,0.5141162050643638,0.35576861954786565,0.624011915321169,-3.246890225250541,46.8
,,0.02396767819786641,0.08013228455920465,0.0013276673592826369,0.1054276301163537,0.5127227660779718,0.22733773083407854,0.7600691058953691,-2.5240764529383437,46.9
,,0.022175235870936227,0.03889497456551216,0.001260289367379134,0.062330499803827516,0.5143407685976444,0.35576861954786565,0.624011915321169,-3.246890225250541,47.0
,,0.02406701925874781,0.041394649369621034,0.0012658999963213874,0.06672756862469023,0.5160840264259897,0.36067580094387913,0.6203530298315766,-3.1846036487830567,47.1
,,0.02406701925874781,0.041394649369621034,0.0012658999963213874,0.06672756862469023,0.5151510231021897,0.36067580094387913,0.6203530298315766,-3.1846036487830567,47.2
,,0.024741613212240363,0.042342155862980166,0.0013682571246060016,0.06845202619982653,0.5146226906287603,0.36144457053782675,0.6185668739647544,-3.1619720966930833,47.3
,,0.024741613212240363,0.042342155862980166,0.0013682571246060016,0.06845202619982653,0.5140943581553307,0.36144457053782675,0.6185668739647544,-3.1619720966930833,47.4
,,0.024741613212240363,0.042342155862980166,0.0013682571246060016,0.06845202619982653,0.5135660256819011,0.36144457053782675,0.6185668739647544,-3.1619720966930833,47.5
,,0.024741613212240363,0.042342155862980166,0.0013682571246060016,0.06845202619982653,0.5130376932084716,0.36144457053782675,0.6185668739647544,-3.1619720966930833,47.6
,,0.024741613212240363,0.042342155862980166,0.0013682571246060016,0.06845202619982653,0.512509360735042,0.36144457053782675,0.6185668739647544,-3.1619720966930833,47.7
,,0.024741613212240363,0.042342155862980166,0.0013682571246060016,0.06845202619982653,0.5119810282616126,0.36144457053782675,0.6185668739647544,-3.1619720966930833,47.8
,,0.02668882717196663,0.04485637850658925,0.0013743444349339964,0.07291955011348987,0.5114044389704859,0.3660037278127596,0.615148865246372,-3.1042894819363966,47.9
,,0.027029499606853663,0.07315937952817977,0.001207482131291714,0.10139636126632515,0.5083220328937693,0.2665726784401923,0.7215187864189838,-2.615114936520863,48.0
,,0.027029499606853663,0.07315937952817977,0.001207482131291714,0.10139636126632515,0.5056241810994604,0.2665726784401923,0.7215187864189838,-2.615114936520863,48.1
,,0.027029499606853663,0.07315937952817977,0.001207482131291714,0.10139636126632515,0.5029263293051514,0.2665726784401923,0.7215187864189838,-2.615114936520863,48.2
,,0.027029499606853663,0.07315937952817977,0.001207482131291714,0.10139636126632515,0.5002284775108424,0.2665726784401923,0.7215187864189838,-2.615114936520863,48.3
,,0.027029499606853663,0.07315937952817977,0.001207482131291714,0.10139636126632515,0.4975306257165335,0.2665726784401923,0.7215187864189838,-2.615114936520863,48.4
,,0.027029499606853663,0.07315937952817977,0.001207482131291714,0.10139636126632515,0.4948327739222246,0.2665726784401923,0.7215187864189838,-2.615114936520863,48.5
,,0.02628066505500954,0.06721961558086283,0.001022954937551811,0.09452323557342418,0.4922225765991388,0.2780339129905803,0.7111438280024563,-2.6997901755223745,48.6
,,0.029664465496514126,0.04873721354259065,0.0015551088857284436,0.07995678792483323,0.492031204803179,0.37100621806370543,0.6095444152710103,-3.0213124022471827,48.7
,,0.029664465496514126,0.04873721354259065,0.0015551088857284436,0.07995678792483323,0.4922228902732919,0.37100621806370543,0.6095444152710103,-3.0213124022471827,48.8
,,0.029664465496514126,0.04873721354259065,0.0015551088857284436,0.07995678792483323,0.4924145757434048,0.37100621806370543,0.6095444152710103,-3.0213124022471827,48.9
,,0.029664465496514126,0.04873721354259065,0.0015551088857284436,0.07995678792483323,0.4926062612135178,0.37100621806370543,0.6095444152710103,-3.0213124022471827,49.0
,,0.029664465496514126,0.04873721354259065,0.0015551088857284436,0.07995678792483323,0.49279794668363075,0.37100621806370543,0.6095444152710103,-3.0213124022471827,49.1
,,0.029664465496514126,0.04873721354259065,0.0015551088857284436,0.07995678792483323,0.49298963215374364,0.37100621806370543,0.6095444152710103,-3.0213124022471827,49.2
,,0.025372045331466562,0.05859550828295369,0.0007743392696684429,0.08474189288408869,0.4912295592553523,0.29940380687708795,0.6914585724808102,-2.837097235798508,49.3
,,0.0298597277257064,0.0483406502896442,0.0015237932489133644,0.07972417126426395,0.4913781577438905,0.3745379506891269,0.6063487336783733,-3.0294824513842875,49.4
,,0.0298597277257064,0.0483406502896442,0.0015237932489133644,0.07972417126426395,0.4918896035860136,0.3745379506891269,0.6063487336783733,-3.0294824513842875,49.5
,,0.0298597277257064,0.0483406502896442,0.0015237932489133644,0.07972417126426395,0.4924010494281366,0.3745379506891269,0.6063487336783733,-3.0294824513842875,49.6
,,0.0298597277257064,0.0483406502896442,0.0015237932489133644,0.07972417126426395,0.4929124952702598,0.3745379506891269,0.6063487336783733,-3.0294824513842875,49.7
,,0.0298597277257064,0.0483406502896442,0.0015237932489133644,0.07972417126426395,0.49342394111238297,0.3745379506891269,0.6063487336783733,-3.0294824513842875,49.8
,,0.0298597277257064,0.0483406502896442,0.0015237932489133644,0.07972417126426395,0.4939353869545061,0.3745379506891269,0.6063487336783733,-3.0294824513842875,49.9
,,0.029300717562110303,0.04773252050815846,0.0011938947408573711,0.07822713281112614,0.4944041476958307,0.37455952313700164,0.6101785760626718,-3.042142341729055,50.0
,,0.029300717562110303,0.04773252050815846,0.0011938947408573711,0.07822713281112614,0.4947314541991959,0.37455952313700164,0.6101785760626718,-3.042142341729055,50.1
,,0.013932982727240115,0.0460864651893885,0.0014262577772063182,0.06144570569383493,0.4919265126107448,0.22675274976356993,0.7500355748052303,-3.0772359688469693,50.2
,,0.013932982727240115,0.0460864651893885,0.0014262577772063182,0.06144570569383493,0.48912157102229387,0.22675274976356993,0.7500355748052303,-3.0772359688469693,50.3
,,0.013932982727240115,0.0460864651893885,0.0014262577772063182,0.06144570569383493,0.48631662943384285,0.22675274976356993,0.7500355748052303,-3.0772359688469693,50.4
,,0.013932982727240115,0.0460864651893885,0.0014262577772063182,0.06144570569383493,0.48351168784539195,0.22675274976356993,0.7500355748052303,-3.0772359688469693,50.5
,,0.020930474583484696,0.0413549540097606,0.0006150506511930246,0.06290047924443833,0.48297113569595573,0.332755407190882,0.6574664375616377,-3.1855630579230207,50.6
,,0.020930474583484696,0.0413549540097606,0.0006150506511930246,0.06290047924443833,0.48243058354651946,0.332755407190882,0.6574664375616377,-3.1855630579230207,50.7
,,0.020930474583484696,0.0413549540097606,0.0006150506511930246,0.06290047924443833,0.48174746082572806,0.332755407190882,0.6574664375616377,-3.1855630579230207,50.8
,,0.027313451845006463,0.04364366185684773,0.0013203800846646383,0.07227749378651883,0.48655138643633705,0.3778970522370403,0.6038347426068076,-3.131697210977347,50.9
,,0.027313451845006463,0.04364366185684773,0.0013203800846646383,0.07227749378651883,0.49135531204694594,0.3778970522370403,0.6038347426068076,-3.131697210977347,51.0
,,0.027313451845006463,0.04364366185684773,0.0013203800846646383,0.07227749378651883,0.49615923765755476,0.3778970522370403,0.6038347426068076,-3.131697210977347,51.1
,,0.027313451845006463,0.04364366185684773,0.0013203800846646383,0.07227749378651883,0.5009631632681637,0.3778970522370403,0.6038347426068076,-3.131697210977347,51.2
,,0.02639714634112225,0.042965858864977315,0.0010195904407722582,0.07038259564687181,0.5056398258174885,0.3750521858211048,0.6104614140766909,-3.1473494585417936,51.3
,,0.02639714634112225,0.042965858864977315,0.0010195904407722582,0.07038259564687181,0.5103164883668131,0.3750521858211048,0.6104614140766909,-3.1473494585417936,51.4
,,0.02639714634112225,0.042965858864977315,0.0010195904407722582,0.07038259564687181,0.5149931509161377,0.3750521858211048,0.6104614140766909,-3.1473494585417936,51.5
,,0.02578032631898989,0.04116921011337313,0.0012110638139544406,0.06816060024631745,0.5159893043256696,0.37822915622552394,0.6040030452284257,-3.190064629360254,51.6
,,0.02578032631898989,0.04116921011337313,0.0012110638139544406,0.06816060024631745,0.5169854577352015,0.37822915622552394,0.6040030452284257,-3.190064629360254,51.7
,,0.02578032631898989,0.04116921011337313,0.0012110638139544406,0.06816060024631745,0.5179816111447335,0.37822915622552394,0.6040030452284257,-3.190064629360254,51.8
,,0.02578032631898989,0.04116921011337313,0.0012110638139544406,0.06816060024631745,0.5189777645542655,0.37822915622552394,0.6040030452284257,-3.190064629360254,51.9
,,0.0183552283478462,0.032877259576568174,0.0005408024104805202,0.05177329033489489,0.5192193792309755,0.354530844555477,0.6350235684056784,-3.4149740584790766,52.0
,,0.0183552283478462,0.032877259576568174,0.0005408024104805202,0.05177329033489489,0.5194609939076854,0.354530844555477,0.6350235684056784,-3.4149740584790766,52.1
,,0.0183552283478462,0.032877259576568174,0.0005408024104805202,0.05177329033489489,0.5198714776207852,0.354530844555477,0.6350235684056784,-3.4149740584790766,52.2
,,0.0183552283478462,0.032877259576568174,0.0005408024104805202,0.05177329033489489,0.5201298066451312,0.354530844555477,0.6350235684056784,-3.4149740584790766,52.3
,,0.02437508089543918,0.03894475003755579,0.0011147863361561988,0.06443461726915117,0.5211391710050748,0.37829169984236155,0.6044072532452373,-3.2456113029757763,52.4
,,0.02437508089543918,0.03894475003755579,0.0011147863361561988,0.06443461726915117,0.5221485353650184,0.37829169984236155,0.6044072532452373,-3.2456113029757763,52.5
,,0.02437508089543918,0.03894475003755579,0.0011147863361561988,0.06443461726915117,0.5231578997249621,0.37829169984236155,0.6044072532452373,-3.2456113029757763,52.6
,,0.02351634378360903,0.03858433018403852,0.0008403866315028823,0.06294106059915043,0.5239849349207534,0.37362484139529184,0.6130231968884129,-3.2549090387142807,52.7
,,0.02351634378360903,0.03858433018403852,0.0008403866315028823,0.06294106059915043,0.5248119701165446,0.37362484139529184,0.6130231968884129,-3.2549090387142807,52.8
,,0.02351634378360903,0.03858433018403852,0.0008403866315028823,0.06294106059915043,0.5257521038343967,0.37362484139529184,0.6130231968884129,-3.2549090387142807,52.9
,,0.02351634378360903,0.03858433018403852,0.0008403866315028823,0.06294106059915043,0.526547644058974,0.37362484139529184,0.6130231968884129,-3.2549090387142807,53.0
,,0.023189262878908993,0.03709060067477516,0.0010394612583674862,0.06131932481205164,0.5275179263830391,0.37817218226041843,0.6048762080871022,-3.2943916925517827,53.1
,,0.023189262878908993,0.03709060067477516,0.0010394612583674862,0.06131932481205164,0.5284882087071041,0.37817218226041843,0.6048762080871022,-3.2943916925517827,53.2
,,0.023189262878908993,0.03709060067477516,0.0010394612583674862,0.06131932481205164,0.5294584910311692,0.37817218226041843,0.6048762080871022,-3.2943916925517827,53.3
,,0.022448134612294803,0.03691568904160594,0.0007754594507362606,0.06013928310463701,0.5302386185891802,0.3732690756096484,0.6138365330590311,-3.299118641018609,53.4
,,0.022448134612294803,0.03691568904160594,0.0007754594507362606,0.06013928310463701,0.5310187461471914,0.3732690756096484,0.6138365330590311,-3.299118641018609,53.5
,,0.022448134612294803,0.03691568904160594,0.0007754594507362606,0.06013928310463701,0.5318630872339877,0.3732690756096484,0.6138365330590311,-3.299118641018609,53.6
,,0.022448134612294803,0.03691568904160594,0.0007754594507362606,0.06013928310463701,0.5327074283207842,0.3732690756096484,0.6138365330590311,-3.299118641018609,53.7
,,0.0222841853659617,0.0355989682293324,0.0009845082652252153,0.05886766186051931,0.5336095515656392,0.3785471456087676,0.6047287611605908,-3.3354386238662714,53.8
,,0.0222841853659617,0.0355989682293324,0.0009845082652252153,0.05886766186051931,0.5345116748104941,0.3785471456087676,0.6047287611605908,-3.3354386238662714,53.9
,,0.0222841853659617,0.0355989682293324,0.0009845082652252153,0.05886766186051931,0.5354137980553492,0.3785471456087676,0.6047287611605908,-3.3354386238662714,54.0
,,0.01651738496512541,0.027561279087884503,0.0005257146024668517,0.04460437865547676,0.5360194584551726,0.3703085989092086,0.6179052352856927,-3.5913434228873493,54.1
,,0.01651738496512541,0.027561279087884503,0.0005257146024668517,0.04460437865547676,0.5366251188549961,0.3703085989092086,0.6179052352856927,-3.5913434228873493,54.2
,,0.01651738496512541,0.027561279087884503,0.0005257146024668517,0.04460437865547676,0.5372545470218826,0.3703085989092086,0.6179052352856927,-3.5913434228873493,54.3
,,0.01651738496512541,0.027561279087884503,0.0005257146024668517,0.04460437865547676,0.5378839751887688,0.3703085989092086,0.6179052352856927,-3.5913434228873493,54.4
,,0.021677890775648176,0.03446912342150007,0.0009542062298604494,0.05710122042700869,0.538842411869524,0.3796397102117734,0.6036495045768984,-3.3676913289623824,54.5
,,0.021677890775648176,0.03446912342150007,0.0009542062298604494,0.05710122042700869,0.5432447055696653,0.3796397102117734,0.6036495045768984,-3.3676913289623824,54.6
,,0.021677890775648176,0.03446912342150007,0.0009542062298604494,0.05710122042700869,0.5476469992698065,0.3796397102117734,0.6036495045768984,-3.3676913289623824,54.7
,,0.02096072068946554,0.03424614818710058,0.0006989437221849755,0.05590581259875109,0.5518621058892201,0.37492918383827933,0.6125686506498543,-3.374181182288687,54.8
,,0.02096072068946554,0.03424614818710058,0.0006989437221849755,0.05590581259875109,0.5560772125086338,0.37492918383827933,0.6125686506498543,-3.374181182288687,54.9
,,0.02096072068946554,0.03424614818710058,0.0006989437221849755,0.05590581259875109,0.5567034654030729,0.37492918383827933,0.6125686506498543,-3.374181182288687,55.0
,,0.02096072068946554,0.03424614818710058,0.0006989437221849755,0.05590581259875109,0.557329718297512,0.37492918383827933,0.6125686506498543,-3.374181182288687,55.1
,,0.021353923987256048,0.03362465004612271,0.0009454058761042672,0.05592397990948303,0.5582116030541167,0.38183841746991015,0.6012563859107777,-3.392495848664547,55.2
,,0.021353923987256048,0.03362465004612271,0.0009454058761042672,0.05592397990948303,0.5590934878107212,0.38183841746991015,0.6012563859107777,-3.392495848664547,55.3
,,0.021353923987256048,0.03362465004612271,0.0009454058761042672,0.05592397990948303,0.5631909163530837,0.38183841746991015,0.6012563859107777,-3.392495848664547,55.4
,,0.020476455255362985,0.03302423032175067,0.000681556598448243,0.0541822421755619,0.5671214096730423,0.3779181966854555,0.6095028370133742,-3.410513734772643,55.5
,,0.020476455255362985,0.03302423032175067,0.000681556598448243,0.0541822421755619,0.5676759901629355,0.3779181966854555,0.6095028370133742,-3.410513734772643,55.6
,,0.020476455255362985,0.03302423032175067,0.000681556598448243,0.0541822421755619,0.5682305706528287,0.3779181966854555,0.6095028370133742,-3.410513734772643,55.7
,,0.020476455255362985,0.03302423032175067,0.000681556598448243,0.0541822421755619,0.568785151142722,0.3779181966854555,0.6095028370133742,-3.410513734772643,55.8
,,0.020861224830336172,0.032305102754230916,0.0009283133156009004,0.05409464090016799,0.5726368727096198,0.38564309667635466,0.5971959923691922,-3.4325300812239044,55.9
,,0.020861224830336172,0.032305102754230916,0.0009283133156009004,0.05409464090016799,0.5734771527704529,0.38564309667635466,0.5971959923691922,-3.4325300812239044,56.0
,,0.020861224830336172,0.032305102754230916,0.0009283133156009004,0.05409464090016799,0.5741921775226134,0.38564309667635466,0.5971959923691922,-3.4325300812239044,56.1
,,0.020861224830336172,0.032305102754230916,0.0009283133156009004,0.05409464090016799,0.574907202274774,0.38564309667635466,0.5971959923691922,-3.4325300812239044,56.2
,,0.020101658736136563,0.03182780297513703,0.000672438723102766,0.052601900434376354,0.5754321985310002,0.3821470055290957,0.6050694501968402,-3.4474150637858383,56.3
,,0.020101658736136563,0.03182780297513703,0.000672438723102766,0.052601900434376354,0.5759571947872267,0.3821470055290957,0.6050694501968402,-3.4474150637858383,56.4
,,0.020101658736136563,0.03182780297513703,0.000672438723102766,0.052601900434376354,0.576482191043453,0.3821470055290957,0.6050694501968402,-3.4474150637858383,56.5
,,0.01831146319192547,0.028186990106957608,0.0008582527498698816,0.04735670604875296,0.5772079309961309,0.3866709642573982,0.5952058844198235,-3.5688947512147347,56.6
,,0.01831146319192547,0.028186990106957608,0.0008582527498698816,0.04735670604875296,0.5779336709488088,0.3866709642573982,0.5952058844198235,-3.5688947512147347,56.7
,,0.01831146319192547,0.028186990106957608,0.0008582527498698816,0.04735670604875296,0.5786594109014864,0.3866709642573982,0.5952058844198235,-3.5688947512147347,56.8
,,0.01831146319192547,0.028186990106957608,0.0008582527498698816,0.04735670604875296,0.5792667262607657,0.3866709642573982,0.5952058844198235,-3.5688947512147347,56.9
,,0.018202821346314936,0.028344026285719748,0.000635961883877809,0.04718280951591249,0.5822972781196437,0.38579350261403994,0.600727819655603,-3.563338984037243,57.0
,,0.018202821346314936,0.028344026285719748,0.000635961883877809,0.04718280951591249,0.5853278299785217,0.38579350261403994,0.600727819655603,-3.563338984037243,57.1
,,0.018202821346314936,0.028344026285719748,0.000635961883877809,0.04718280951591249,0.5883583818373999,0.38579350261403994,0.600727819655603,-3.563338984037243,57.2
,,0.020211759331060397,0.02991683109896683,0.0009261896844589778,0.0510547801144862,0.5917599128164561,0.39588377984856987,0.5859751238156499,-3.509334043952668,57.3
,,0.020211759331060397,0.02991683109896683,0.0009261896844589778,0.0510547801144862,0.5951614437955125,0.39588377984856987,0.5859751238156499,-3.509334043952668,57.4
,,0.020211759331060397,0.02991683109896683,0.0009261896844589778,0.0510547801144862,0.5985629747745688,0.39588377984856987,0.5859751238156499,-3.509334043952668,57.5
,,0.020211759331060397,0.02991683109896683,0.0009261896844589778,0.0510547801144862,0.6017255421903077,0.39588377984856987,0.5859751238156499,-3.509334043952668,57.6
,,0.019739065600014333,0.029648608617545,0.0006847785367433377,0.05007245275430268,0.6023600478916656,0.3942100798790643,0.5921141663066889,-3.5183400815351193,57.7
,,0.019739065600014333,0.029648608617545,0.0006847785367433377,0.05007245275430268,0.6029945535930236,0.3942100798790643,0.5921141663066889,-3.5183400815351193,57.8
,,0.019739065600014333,0.029648608617545,0.0006847785367433377,0.05007245275430268,0.6036290592943816,0.3942100798790643,0.5921141663066889,-3.5183400815351193,57.9
,,0.019739065600014333,0.029648608617545,0.0006847785367433377,0.05007245275430268,0.6042635649957394,0.3942100798790643,0.5921141663066889,-3.5183400815351193,58.0
,,0.01984094414221278,0.029364555906568023,0.0009686840059213493,0.05017418405470215,0.6050081775393041,0.3954412914932765,0.5852522858080456,-3.5279669133446223,58.1
,,0.01984094414221278,0.029364555906568023,0.0009686840059213493,0.05017418405470215,0.6057527900828688,0.3954412914932765,0.5852522858080456,-3.5279669133446223,58.2
,,0.01984094414221278,0.029364555906568023,0.0009686840059213493,0.05017418405470215,0.6084491609949377,0.3954412914932765,0.5852522858080456,-3.5279669133446223,58.3
,,0.019700077948897245,0.028516970429209185,0.0006914170713130869,0.04890846544941952,0.6092616664822132,0.40279484886457545,0.5830681900805302,-3.5572559152632537,58.4
,,0.019700077948897245,0.028516970429209185,0.0006914170713130869,0.04890846544941952,0.6100741719694887,0.40279484886457545,0.5830681900805302,-3.5572559152632537,58.5
,,0.019700077948897245,0.028516970429209185,0.0006914170713130869,0.04890846544941952,0.6108866774567642,0.40279484886457545,0.5830681900805302,-3.5572559152632537,58.6
,,0.019700077948897245,0.028516970429209185,0.0006914170713130869,0.04890846544941952,0.6116991829440396,0.40279484886457545,0.5830681900805302,-3.5572559152632537,58.7
,,0.021047439739490373,0.030388969520002477,0.001033577755615009,0.052469987015107855,0.6125314866970022,0.4011329321166044,0.5791686114054589,-3.493675581150801,58.8
,,0.021047439739490373,0.030388969520002477,0.001033577755615009,0.052469987015107855,0.6133637904499647,0.4011329321166044,0.5791686114054589,-3.493675581150801,58.9
,,0.021047439739490373,0.030388969520002477,0.001033577755615009,0.052469987015107855,0.614238779303726,0.4011329321166044,0.5791686114054589,-3.493675581150801,59.0
,,0.019800206182833128,0.027503938464910303,0.0007002920807471792,0.04800443672849061,0.6154171359009458,0.41246617046715006,0.5729457595861495,-3.5934260676583443,59.1
,,0.019800206182833128,0.027503938464910303,0.0007002920807471792,0.04800443672849061,0.6200569329618995,0.41246617046715006,0.5729457595861495,-3.5934260676583443,59.2
,,0.019800206182833128,0.027503938464910303,0.0007002920807471792,0.04800443672849061,0.6246967300228531,0.41246617046715006,0.5729457595861495,-3.5934260676583443,59.3
,,0.01980310160504004,0.027510659760064393,0.0006999867559416922,0.04801374812104612,0.6293357422293653,0.41244648418438384,0.5729746340716421,-3.5931817217790907,59.4
,,0.02017181986045855,0.02664814511256254,0.0009290542750124027,0.047749019248033486,0.6343873682767421,0.42245516616112094,0.5580878001731947,-3.6250357325726172,59.5
,,0.02017181986045855,0.02664814511256254,0.0009290542750124027,0.047749019248033486,0.6371746048851041,0.42245516616112094,0.5580878001731947,-3.6250357325726172,59.6
,,0.02017181986045855,0.02664814511256254,0.0009290542750124027,0.047749019248033486,0.6399618414934661,0.42245516616112094,0.5580878001731947,-3.6250357325726172,59.7
,,0.02017181986045855,0.02664814511256254,0.0009290542750124027,0.047749019248033486,0.6427490781018282,0.42245516616112094,0.5580878001731947,-3.6250357325726172,59.8
,,0.019922379569178666,0.026393429690539483,0.0007007417477482203,0.04701655100746637,0.6441823541644661,0.4237311998069559,0.5613646497878614,-3.634640175162831,59.9
,,0.019922379569178666,0.026393429690539483,0.0007007417477482203,0.04701655100746637,0.645615630227104,0.4237311998069559,0.5613646497878614,-3.634640175162831,60.0
,,0.019922379569178666,0.026393429690539483,0.0007007417477482203,0.04701655100746637,0.6470489062897419,0.4237311998069559,0.5613646497878614,-3.634640175162831,60.1
,,0.019922379569178666,0.026393429690539483,0.0007007417477482203,0.04701655100746637,0.6484821823523799,0.4237311998069559,0.5613646497878614,-3.634640175162831,60.2
,,0.023842401219111423,0.03261144061441457,0.0011743983239139648,0.05762824015743996,0.6497791879253435,0.4137277340757612,0.5658933974960946,-3.4230921130817236,60.3
,,0.023842401219111423,0.03261144061441457,0.0011743983239139648,0.05762824015743996,0.6510761934983073,0.4137277340757612,0.5658933974960946,-3.4230921130817236,60.4
,,0.023842401219111423,0.03261144061441457,0.0011743983239139648,0.05762824015743996,0.6523731990712709,0.4137277340757612,0.5658933974960946,-3.4230921130817236,60.5
,,0.019919282466497105,0.02506289662359953,0.000690154633905222,0.04567233372400186,0.6542461735727381,0.4361345445334462,0.5487544554884088,-3.6863667486600393,60.6
,,0.019919282466497105,0.02506289662359953,0.000690154633905222,0.04567233372400186,0.656119148074205,0.4361345445334462,0.5487544554884088,-3.6863667486600393,60.7
,,0.019919282466497105,0.02506289662359953,0.000690154633905222,0.04567233372400186,0.6579921225756721,0.4361345445334462,0.5487544554884088,-3.6863667486600393,60.8
,,0.019919282466497105,0.02506289662359953,0.000690154633905222,0.04567233372400186,0.659865097077139,0.4361345445334462,0.5487544554884088,-3.6863667486600393,60.9
,,0.0253216703715986,0.03366125241861038,0.0012366020720221578,0.06021952486223113,0.662020144077171,0.4204893749913993,0.5589757225022919,-3.391407882990986,61.0
,,0.025299416045349424,0.033633947693112856,0.0012356431613397725,0.06016900689980205,0.6641746247340703,0.4204725547071088,0.5589912386143024,-3.3922193740616886,61.1
,,0.0253216703715986,0.03366125241861038,0.0012366020720221578,0.06021952486223113,0.6663296717341023,0.4204893749913993,0.5589757225022919,-3.391407882990986,61.2
,,0.02562867269258532,0.03376011704493308,0.0009269879833768394,0.06031577772089524,0.6685612822607164,0.4249082687979129,0.5597228174882264,-3.388475142289624,61.3
,,0.02562867269258532,0.03376011704493308,0.0009269879833768394,0.06031577772089524,0.6700418574517328,0.4249082687979129,0.5597228174882264,-3.388475142289624,61.4
,,0.02562867269258532,0.03376011704493308,0.0009269879833768394,0.06031577772089524,0.6715224326427495,0.4249082687979129,0.5597228174882264,-3.388475142289624,61.5
,,0.02562867269258532,0.03376011704493308,0.0009269879833768394,0.06031577772089524,0.6730030078337659,0.4249082687979129,0.5597228174882264,-3.388475142289624,61.6
,,0.02562867269258532,0.03376011704493308,0.0009269879833768394,0.06031577772089524,0.6746659121889347,0.4249082687979129,0.5597228174882264,-3.388475142289624,61.7
,,0.021082027672820275,0.023566122397020432,0.0008861844063867321,0.04553433447622744,0.6778338156314825,0.46299189205953534,0.5175462136011635,-3.747945089907462,61.8
,,0.021082027672820275,0.023566122397020432,0.0008861844063867321,0.04553433447622744,0.6810017190740302,0.46299189205953534,0.5175462136011635,-3.747945089907462,61.9
,,0.021082027672820275,0.023566122397020432,0.0008861844063867321,0.04553433447622744,0.684169622516578,0.46299189205953534,0.5175462136011635,-3.747945089907462,62.0
,,0.02079981085359679,0.023207874669192396,0.0006619841887369674,0.04466966971152615,0.6871811053090936,0.4656361013618553,0.5195443534520706,-3.7632636325054167,62.1
,,0.02079981085359679,0.023207874669192396,0.0006619841887369674,0.04466966971152615,0.6901925881016091,0.4656361013618553,0.5195443534520706,-3.7632636325054167,62.2
,,0.02079981085359679,0.023207874669192396,0.0006619841887369674,0.04466966971152615,0.6932040708941246,0.4656361013618553,0.5195443534520706,-3.7632636325054167,62.3
,,0.02079981085359679,0.023207874669192396,0.0006619841887369674,0.04466966971152615,0.6964057084526942,0.4656361013618553,0.5195443534520706,-3.7632636325054167,62.4
,,0.021630775199099454,0.02274560910748818,0.0008672329614677907,0.045243617268055425,0.7002156514223791,0.4780956189011884,0.5027363080349431,-3.7833831584775393,62.5
,,0.021630775199099454,0.02274560910748818,0.0008672329614677907,0.045243617268055425,0.7040255943920637,0.4780956189011884,0.5027363080349431,-3.7833831584775393,62.6
,,0.021630775199099454,0.02274560910748818,0.0008672329614677907,0.045243617268055425,0.7078355373617484,0.4780956189011884,0.5027363080349431,-3.7833831584775393,62.7
,,0.028093675786374218,0.03505679080408686,0.0009813516420515245,0.0641318182325126,0.7097844011084086,0.43806142661540354,0.5466364711037349,-3.3507859380742744,62.8
,,0.028093675786374218,0.03505679080408686,0.0009813516420515245,0.0641318182325126,0.7117332648550686,0.43806142661540354,0.5466364711037349,-3.3507859380742744,62.9
,,0.028093675786374218,0.03505679080408686,0.0009813516420515245,0.0641318182325126,0.7136821286017286,0.43806142661540354,0.5466364711037349,-3.3507859380742744,63.0
,,0.028093675786374218,0.03505679080408686,0.0009813516420515245,0.0641318182325126,0.7159274551934203,0.43806142661540354,0.5466364711037349,-3.3507859380742744,63.1
,,0.022158380664724538,0.021923312103863262,0.000841135237391084,0.04492282800597888,0.7204988503180348,0.49325435749003665,0.4880216379286148,-3.820204728687923,63.2
,,0.022158380664724538,0.021923312103863262,0.000841135237391084,0.04492282800597888,0.7250702454426496,0.49325435749003665,0.4880216379286148,-3.820204728687923,63.3
,,0.022158380664724538,0.021923312103863262,0.000841135237391084,0.04492282800597888,0.7296416405672641,0.49325435749003665,0.4880216379286148,-3.820204728687923,63.4
,,0.021680617476453168,0.021391969350408407,0.000610707492654965,0.04368329431951654,0.73391481587998,0.4963137010197246,0.48970595472812223,-3.844739691383093,63.5
,,0.021680617476453168,0.021391969350408407,0.000610707492654965,0.04368329431951654,0.7381879911926958,0.4963137010197246,0.48970595472812223,-3.844739691383093,63.6
,,0.021680617476453168,0.021391969350408407,0.000610707492654965,0.04368329431951654,0.7424611665054117,0.4963137010197246,0.48970595472812223,-3.844739691383093,63.7
,,0.021680617476453168,0.021391969350408407,0.000610707492654965,0.04368329431951654,0.7469215288988551,0.4963137010197246,0.48970595472812223,-3.844739691383093,63.8
,,0.02278320203023925,0.021194249351710936,0.0008106529772840508,0.044788104359234235,0.7520649761889406,0.5086886876814625,0.4732115738080169,-3.8540253910957705,63.9
,,0.02278320203023925,0.021194249351710936,0.0008106529772840508,0.044788104359234235,0.7572084234790262,0.5086886876814625,0.4732115738080169,-3.8540253910957705,64.0
,,0.02278320203023925,0.021194249351710936,0.0008106529772840508,0.044788104359234235,0.7623518707691114,0.5086886876814625,0.4732115738080169,-3.8540253910957705,64.1
,,0.022281632919060972,0.020676289391618037,0.0005798224002535403,0.043537744710932545,0.7672693620521329,0.5117773799952009,0.4749049251149226,-3.878767675247066,64.2
,,0.022281632919060972,0.020676289391618037,0.0005798224002535403,0.043537744710932545,0.7721868533351545,0.5117773799952009,0.4749049251149226,-3.878767675247066,64.3
,,0.022281632919060972,0.020676289391618037,0.0005798224002535403,0.043537744710932545,0.7771043446181761,0.5117773799952009,0.4749049251149226,-3.878767675247066,64.4
,,0.022281632919060972,0.020676289391618037,0.0005798224002535403,0.043537744710932545,0.7821887711236014,0.5117773799952009,0.4749049251149226,-3.878767675247066,64.5
,,0.02357293710937146,0.020658290377425195,0.0007812719764009042,0.04501249946319756,0.7879781611385497,0.5236975815716434,0.4589456400730538,-3.879638569081286,64.6
