HRV_ULF,HRV_VLF,HRV_LF,HRV_HF,HRV_VHF,HRV_TP,HRV_LFHF,HRV_LFn,HRV_HFn,HRV_LnHF,time
,,0.014776637429393896,0.0059136928579794044,0.0003340056094007899,0.021024335896774087,2.4987157406147045,0.7028349195876946,0.2812784616367732,-5.130484793635135,0.0
,,0.014776637429393896,0.0059136928579794044,0.0003340056094007899,0.021024335896774087,2.4987157406147045,0.7028349195876946,0.2812784616367732,-5.130484793635135,0.1
,,0.014776637429393896,0.0059136928579794044,0.0003340056094007899,0.021024335896774087,2.4987157406147045,0.7028349195876946,0.2812784616367732,-5.130484793635135,0.2
,,0.014776637429393896,0.0059136928579794044,0.0003340056094007899,0.021024335896774087,2.4987157406147045,0.7028349195876946,0.2812784616367732,-5.130484793635135,0.3
,,0.013880325940953401,0.00479844536989589,0.00013908158741918265,0.018817852898268473,2.57750688311992,0.7376147542438596,0.2549943075778544,-5.339463294800848,0.4
,,0.014151668795877544,0.00596992971854701,0.00035042388414553363,0.020472022398570086,2.5430043511615725,0.6912687237420178,0.2916140673509615,-5.121020124084609,0.5
,,0.014151668795877544,0.00596992971854701,0.00035042388414553363,0.020472022398570086,2.5183596854770385,0.6912687237420178,0.2916140673509615,-5.121020124084609,0.6
,,0.014151668795877544,0.00596992971854701,0.00035042388414553363,0.020472022398570086,2.4998761862136383,0.6912687237420178,0.2916140673509615,-5.121020124084609,0.7
,,0.014151668795877544,0.00596992971854701,0.00035042388414553363,0.020472022398570086,2.4855001312309932,0.6912687237420178,0.2916140673509615,-5.121020124084609,0.8
,,0.014151668795877544,0.00596992971854701,0.00035042388414553363,0.020472022398570086,2.4739992872448773,0.6912687237420178,0.2916140673509615,-5.121020124084609,0.9
,,0.014151668795877544,0.00596992971854701,0.00035042388414553363,0.020472022398570086,2.464589505801692,0.6912687237420178,0.2916140673509615,-5.121020124084609,1.0
,,0.014151668795877544,0.00596992971854701,0.00035042388414553363,0.020472022398570086,2.4567480212657036,0.6912687237420178,0.2916140673509615,-5.121020124084609,1.1
,,0.012649258247361081,0.0055941468633653344,0.0004133934238809266,0.01865679853460734,2.4417027493384884,0.6779972578841649,0.29984495212233214,-5.186034430817044,1.2
,,0.013139964712976942,0.005844447296632624,0.0003603900095558978,0.019344802019165462,2.4278869699915058,0.6792504105215857,0.30211977826613884,-5.142263248557822,1.3
,,0.013139964712976942,0.005844447296632624,0.0003603900095558978,0.019344802019165462,2.415913294557454,0.6792504105215857,0.30211977826613884,-5.142263248557822,1.4
,,0.013139964712976942,0.005844447296632624,0.0003603900095558978,0.019344802019165462,2.4054363285526588,0.6792504105215857,0.30211977826613884,-5.142263248557822,1.5
,,0.013139964712976942,0.005844447296632624,0.0003603900095558978,0.019344802019165462,2.396191946783722,0.6792504105215857,0.30211977826613884,-5.142263248557822,1.6
,,0.013139964712976942,0.005844447296632624,0.0003603900095558978,0.019344802019165462,2.387974718544667,0.6792504105215857,0.30211977826613884,-5.142263248557822,1.7
,,0.013139964712976942,0.005844447296632624,0.0003603900095558978,0.019344802019165462,2.380622461699197,0.6792504105215857,0.30211977826613884,-5.142263248557822,1.8
,,0.013139964712976942,0.005844447296632624,0.0003603900095558978,0.019344802019165462,2.3740054305382734,0.6792504105215857,0.30211977826613884,-5.142263248557822,1.9
,,0.011721121215499975,0.005526946261613903,0.0004360937364766448,0.017684161213590524,2.3619443551692036,0.662803345543589,0.31253652321187664,-5.198119829063406,2.0
,,0.012146874714139881,0.005656813522910446,0.00036847866213801043,0.01817216689918834,2.3521877858276823,0.6684329272081704,0.31128998287832743,-5.174894527118756,2.1
,,0.012146874714139881,0.005656813522910446,0.00036847866213801043,0.01817216689918834,2.3432796138202066,0.6684329272081704,0.31128998287832743,-5.174894527118756,2.2
,,0.012146874714139881,0.005656813522910446,0.00036847866213801043,0.01817216689918834,2.3351137894800202,0.6684329272081704,0.31128998287832743,-5.174894527118756,2.3
,,0.012146874714139881,0.005656813522910446,0.00036847866213801043,0.01817216689918834,2.3276012310870495,0.6684329272081704,0.31128998287832743,-5.174894527118756,2.4
,,0.012146874714139881,0.005656813522910446,0.00036847866213801043,0.01817216689918834,2.3206665618012297,0.6684329272081704,0.31128998287832743,-5.174894527118756,2.5
,,0.012146874714139881,0.005656813522910446,0.00036847866213801043,0.01817216689918834,2.314245571721767,0.6684329272081704,0.31128998287832743,-5.174894527118756,2.6
,,0.008026629924368697,0.003679539933833693,0.00011752413827305691,0.011823693996475447,2.309501878194589,0.6788597477879057,0.311200538083152,-5.604967552596671,2.7
,,0.008026629924368697,0.003679539933833693,0.00011752413827305691,0.011823693996475447,2.3050853359451478,0.6788597477879057,0.311200538083152,-5.604967552596671,2.8
,,0.008026629924368697,0.003679539933833693,0.00011752413827305691,0.011823693996475447,2.3009632298456695,0.6788597477879057,0.311200538083152,-5.604967552596671,2.9
,,0.0077486817113199425,0.0035031277910147584,0.0001483073516379271,0.011400116853972629,2.2980912662024333,0.6797019548637117,0.3072887616756327,-5.654099054982637,3.0
,,0.0077486817113199425,0.0035031277910147584,0.0001483073516379271,0.011400116853972629,2.2953988002869,0.6797019548637117,0.3072887616756327,-5.654099054982637,3.1
,,0.0077486817113199425,0.0035031277910147584,0.0001483073516379271,0.011400116853972629,2.292869514123823,0.6797019548637117,0.3072887616756327,-5.654099054982637,3.2
,,0.0077486817113199425,0.0035031277910147584,0.0001483073516379271,0.011400116853972629,2.2904890094997503,0.6797019548637117,0.3072887616756327,-5.654099054982637,3.3
,,0.0077486817113199425,0.0035031277910147584,0.0001483073516379271,0.011400116853972629,2.2882445337113393,0.6797019548637117,0.3072887616756327,-5.654099054982637,3.4
,,0.010473410190167353,0.00540761256158171,0.0002891627905031938,0.016170185542252257,2.278481909095179,0.6476988258916767,0.33441870827343106,-5.219947584527223,3.5
,,0.010473410190167353,0.00540761256158171,0.0002891627905031938,0.016170185542252257,2.26924699391773,0.6476988258916767,0.33441870827343106,-5.219947584527223,3.6
,,0.010473410190167353,0.00540761256158171,0.0002891627905031938,0.016170185542252257,2.2604981269075157,0.6476988258916767,0.33441870827343106,-5.219947584527223,3.7
,,0.010596638796341987,0.004821139173789735,0.0003694790252242396,0.01578725699535596,2.25889441360742,0.6712146891292854,0.30538168696486917,-5.3347450357343575,3.8
,,0.010596638796341987,0.004821139173789735,0.0003694790252242396,0.01578725699535596,2.257370885972329,0.6712146891292854,0.30538168696486917,-5.3347450357343575,3.9
,,0.010596638796341987,0.004821139173789735,0.0003694790252242396,0.01578725699535596,2.255921676758462,0.6712146891292854,0.30538168696486917,-5.3347450357343575,4.0
,,0.010596638796341987,0.004821139173789735,0.0003694790252242396,0.01578725699535596,2.2545414775071597,0.6712146891292854,0.30538168696486917,-5.3347450357343575,4.1
,,0.010596638796341987,0.004821139173789735,0.0003694790252242396,0.01578725699535596,2.253225473569872,0.6712146891292854,0.30538168696486917,-5.3347450357343575,4.2
,,0.009826637896871321,0.004795511691783127,0.0002804367939418079,0.014902586382596257,2.2485869923249386,0.6593914401561329,0.3217905649843095,-5.340074862725395,4.3
,,0.009826637896871321,0.004795511691783127,0.0002804367939418079,0.014902586382596257,2.2441546658020024,0.6593914401561329,0.3217905649843095,-5.340074862725395,4.4
,,0.010657710900246038,0.004508408596277708,0.00037385801373692894,0.015539977510260676,2.246759193792566,0.6858253747927889,0.2901168031485833,-5.401811048873452,4.5
,,0.010423280924562024,0.004337154044598983,0.00036533586188044163,0.01512577083104145,2.250088861289227,0.6891074207716497,0.28673937302409586,-5.440536896060355,4.6
,,0.010423280924562024,0.004337154044598983,0.00036533586188044163,0.01512577083104145,2.253279792640193,0.6891074207716497,0.28673937302409586,-5.440536896060355,4.7
,,0.010423280924562024,0.004337154044598983,0.00036533586188044163,0.01512577083104145,2.2563404818952018,0.6891074207716497,0.28673937302409586,-5.440536896060355,4.8
,,0.010423280924562024,0.004337154044598983,0.00036533586188044163,0.01512577083104145,2.25927874358001,0.6891074207716497,0.28673937302409586,-5.440536896060355,4.9
,,0.004431633277050873,0.0043066145601359344,0.00027754226544473,0.009015790102631538,2.235156208707135,0.49154130992439177,0.4776746697861694,-5.447603168408628,5.0
,,0.004431633277050873,0.0043066145601359344,0.00027754226544473,0.009015790102631538,2.211961463637063,0.49154130992439177,0.4776746697861694,-5.447603168408628,5.1
,,0.004431633277050873,0.0043066145601359344,0.00027754226544473,0.009015790102631538,2.189641991965862,0.49154130992439177,0.4776746697861694,-5.447603168408628,5.2
,,0.004431633277050873,0.0043066145601359344,0.00027754226544473,0.009015790102631538,2.1681491673935933,0.49154130992439177,0.4776746697861694,-5.447603168408628,5.3
,,0.011157580337540576,0.0040305166263145615,0.00037416574118413726,0.015562262705039274,2.179060554846726,0.71696388558764,0.25899296925564846,-5.513860716124562,5.4
,,0.011157580337540576,0.0040305166263145615,0.00037416574118413726,0.015562262705039274,2.1895822498908184,0.71696388558764,0.25899296925564846,-5.513860716124562,5.5
,,0.011157580337540576,0.0040305166263145615,0.00037416574118413726,0.015562262705039274,2.1997347626526618,0.71696388558764,0.25899296925564846,-5.513860716124562,5.6
,,0.011157580337540576,0.0040305166263145615,0.00037416574118413726,0.015562262705039274,2.2095371887675452,0.71696388558764,0.25899296925564846,-5.513860716124562,5.7
,,0.01045699703460328,0.0038587329538509055,0.0002752405710918036,0.01459097055954599,2.2180188657915343,0.7166759052749853,0.2644603344310341,-5.557416399689012,5.8
,,0.01045699703460328,0.0038587329538509055,0.0002752405710918036,0.01459097055954599,2.2262178202480576,0.7166759052749853,0.2644603344310341,-5.557416399689012,5.9
,,0.01045699703460328,0.0038587329538509055,0.0002752405710918036,0.01459097055954599,2.234147956525678,0.7166759052749853,0.2644603344310341,-5.557416399689012,6.0
,,0.01045699703460328,0.0038587329538509055,0.0002752405710918036,0.01459097055954599,2.2418222819556335,0.7166759052749853,0.2644603344310341,-5.557416399689012,6.1
,,0.002996459225287859,0.002099112137971179,0.00013076656225155425,0.005226337925510592,2.2288963548683327,0.5733382088941593,0.40164110470642866,-6.166240815096557,6.2
,,0.002996459225287859,0.002099112137971179,0.00013076656225155425,0.005226337925510592,2.21637436300251,0.5733382088941593,0.40164110470642866,-6.166240815096557,6.3
,,0.002996459225287859,0.002099112137971179,0.00013076656225155425,0.005226337925510592,2.204237663194097,0.5733382088941593,0.40164110470642866,-6.166240815096557,6.4
,,0.0025106935545332544,0.001955322029201919,0.00012959762140432368,0.004595613205139497,2.1902951337637364,0.5463239490489374,0.4254757617580147,-6.237200378290397,6.5
,,0.0025106935545332544,0.001955322029201919,0.00012959762140432368,0.004595613205139497,2.1767687992417444,0.5463239490489374,0.4254757617580147,-6.237200378290397,6.6
,,0.0025106935545332544,0.001955322029201919,0.00012959762140432368,0.004595613205139497,2.1636402980880467,0.5463239490489374,0.4254757617580147,-6.237200378290397,6.7
,,0.0025106935545332544,0.001955322029201919,0.00012959762140432368,0.004595613205139497,2.150892333199673,0.5463239490489374,0.4254757617580147,-6.237200378290397,6.8
,,0.0025106935545332544,0.001955322029201919,0.00012959762140432368,0.004595613205139497,2.138508595879539,0.5463239490489374,0.4254757617580147,-6.237200378290397,6.9
,,0.012825472638888787,0.0033643650572742247,0.0003668244599172904,0.0165566621560803,2.162081045128221,0.7746411998978149,0.20320309888298885,-5.694516023949953,7.0
,,0.012825472638888787,0.0033643650572742247,0.0003668244599172904,0.0165566621560803,2.184998704119995,0.7746411998978149,0.20320309888298885,-5.694516023949953,7.1
,,0.01221654357312793,0.0032001576463196284,0.0003459727185591853,0.015762673938006743,2.207361486260354,0.7750298979205278,0.20302124239234895,-5.744555205915026,7.2
,,0.01221654357312793,0.0032001576463196284,0.0003459727185591853,0.015762673938006743,2.229119868883406,0.7750298979205278,0.20302124239234895,-5.744555205915026,7.3
,,0.01221654357312793,0.0032001576463196284,0.0003459727185591853,0.015762673938006743,2.2502980279698432,0.7750298979205278,0.20302124239234895,-5.744555205915026,7.4
,,0.01221654357312793,0.0032001576463196284,0.0003459727185591853,0.015762673938006743,2.2709188670803218,0.7750298979205278,0.20302124239234895,-5.744555205915026,7.5
,,0.01221654357312793,0.0032001576463196284,0.0003459727185591853,0.015762673938006743,2.2910040999801384,0.7750298979205278,0.20302124239234895,-5.744555205915026,7.6
,,0.013870903308564147,0.0031598520639109923,0.0003637077156608239,0.017394463088135963,2.3179108662589094,0.7974321045887821,0.18165849948344742,-5.757230067697224,7.7
,,0.013494405267682863,0.0030543828206566494,0.00035150545279930554,0.016900293541138818,2.344494861362545,0.7984716499056471,0.1807295721356347,-5.791177729466227,7.8
,,0.013494405267682863,0.0030543828206566494,0.00035150545279930554,0.016900293541138818,2.3704142565885897,0.7984716499056471,0.1807295721356347,-5.791177729466227,7.9
,,0.013494405267682863,0.0030543828206566494,0.00035150545279930554,0.016900293541138818,2.395693666747325,0.7984716499056471,0.1807295721356347,-5.791177729466227,8.0
,,0.013494405267682863,0.0030543828206566494,0.00035150545279930554,0.016900293541138818,2.420356505926579,0.7984716499056471,0.1807295721356347,-5.791177729466227,8.1
,,0.013494405267682863,0.0030543828206566494,0.00035150545279930554,0.016900293541138818,2.444425059824405,0.7984716499056471,0.1807295721356347,-5.791177729466227,8.2
,,0.013494405267682863,0.0030543828206566494,0.00035150545279930554,0.016900293541138818,2.46792055291514,0.7984716499056471,0.1807295721356347,-5.791177729466227,8.3
,,0.01537015918244231,0.0030804691360648,0.0003674688306528502,0.01881809714915996,2.497586798526067,0.8167754189284985,0.16369716404627616,-5.78267337669154,8.4
,,0.0017060151051609843,0.0016101009362472457,0.00013734483554909743,0.0034534608769573277,2.4808656762559957,0.4940015728986828,0.46622822542753845,-6.431458408629639,8.5
,,0.0017060151051609843,0.0016101009362472457,0.00013734483554909743,0.0034534608769573277,2.464528947601328,0.4940015728986828,0.46622822542753845,-6.431458408629639,8.6
,,0.0017060151051609843,0.0016101009362472457,0.00013734483554909743,0.0034534608769573277,2.448563508234267,0.4940015728986828,0.46622822542753845,-6.431458408629639,8.7
,,0.0017060151051609843,0.0016101009362472457,0.00013734483554909743,0.0034534608769573277,2.4329568427855666,0.4940015728986828,0.46622822542753845,-6.431458408629639,8.8
,,0.0017060151051609843,0.0016101009362472457,0.00013734483554909743,0.0034534608769573277,2.417696992124615,0.4940015728986828,0.46622822542753845,-6.431458408629639,8.9
,,0.0017060151051609843,0.0016101009362472457,0.00013734483554909743,0.0034534608769573277,2.4017064870433398,0.4940015728986828,0.46622822542753845,-6.431458408629639,9.0
,,0.0017060151051609843,0.0016101009362472457,0.00013734483554909743,0.0034534608769573277,2.385715981962065,0.4940015728986828,0.46622822542753845,-6.431458408629639,9.1
,,0.001642038683361636,0.001642905075719558,0.0001493567841045529,0.0034343005431857468,2.3690577253566234,0.47812899969390504,0.4783812759134809,-6.411289216568924,9.2
,,0.001642038683361636,0.001642905075719558,0.0001493567841045529,0.0034343005431857468,2.3523994687511824,0.47812899969390504,0.4783812759134809,-6.411289216568924,9.3
,,0.001642038683361636,0.001642905075719558,0.0001493567841045529,0.0034343005431857468,2.3313639264510075,0.47812899969390504,0.4783812759134809,-6.411289216568924,9.4
,,0.001642038683361636,0.001642905075719558,0.0001493567841045529,0.0034343005431857468,2.316130381503843,0.47812899969390504,0.4783812759134809,-6.411289216568924,9.5
,,0.001642038683361636,0.001642905075719558,0.0001493567841045529,0.0034343005431857468,2.3008968365566784,0.47812899969390504,0.4783812759134809,-6.411289216568924,9.6
,,0.001642038683361636,0.001642905075719558,0.0001493567841045529,0.0034343005431857468,2.2856632916095134,0.47812899969390504,0.4783812759134809,-6.411289216568924,9.7
,,0.001642038683361636,0.001642905075719558,0.0001493567841045529,0.0034343005431857468,2.2704297466623484,0.47812899969390504,0.4783812759134809,-6.411289216568924,9.8
,,0.018705333572137158,0.0030510893282484656,0.0003747311085248248,0.02213115400891045,2.3122099126424747,0.8452037143931136,0.1378639960220798,-5.79225659532535,9.9
,,0.001688418392471456,0.0017873666136824292,0.0001706973106210423,0.0036464823167749274,2.2963671185242354,0.46302662286451196,0.4901618761347064,-6.327011907896574,10.0
,,0.001688418392471456,0.0017873666136824292,0.0001706973106210423,0.0036464823167749274,2.280524324405997,0.46302662286451196,0.4901618761347064,-6.327011907896574,10.1
,,0.001688418392471456,0.0017873666136824292,0.0001706973106210423,0.0036464823167749274,2.2658963325672907,0.46302662286451196,0.4901618761347064,-6.327011907896574,10.2
,,0.001688418392471456,0.0017873666136824292,0.0001706973106210423,0.0036464823167749274,2.2514114257033753,0.46302662286451196,0.4901618761347064,-6.327011907896574,10.3
,,0.001688418392471456,0.0017873666136824292,0.0001706973106210423,0.0036464823167749274,2.23692651883946,0.46302662286451196,0.4901618761347064,-6.327011907896574,10.4
,,0.001688418392471456,0.0017873666136824292,0.0001706973106210423,0.0036464823167749274,2.222441611975545,0.46302662286451196,0.4901618761347064,-6.327011907896574,10.5
,,0.02061086681475243,0.003118592903159937,0.0003816012127919483,0.024111060930704316,2.270894343530583,0.8548303566561622,0.12934283199411412,-5.770373371465428,10.6
,,0.02147010369748099,0.0032465467071036936,0.0003107498678812616,0.025027400272465947,2.319393574582297,0.8578639196937071,0.1297196940856619,-5.730163399209107,10.7
,,0.02147010369748099,0.0032465467071036936,0.0003107498678812616,0.025027400272465947,2.3678928056340114,0.8578639196937071,0.1297196940856619,-5.730163399209107,10.8
,,0.02147010369748099,0.0032465467071036936,0.0003107498678812616,0.025027400272465947,2.416392036685725,0.8578639196937071,0.1297196940856619,-5.730163399209107,10.9
,,0.02147010369748099,0.0032465467071036936,0.0003107498678812616,0.025027400272465947,2.46630858985625,0.8578639196937071,0.1297196940856619,-5.730163399209107,11.0
,,0.02147010369748099,0.0032465467071036936,0.0003107498678812616,0.025027400272465947,2.5159298432282418,0.8578639196937071,0.1297196940856619,-5.730163399209107,11.1
,,0.02147010369748099,0.0032465467071036936,0.0003107498678812616,0.025027400272465947,2.5655510966002337,0.8578639196937071,0.1297196940856619,-5.730163399209107,11.2
,,0.02147010369748099,0.0032465467071036936,0.0003107498678812616,0.025027400272465947,2.6151723499722253,0.8578639196937071,0.1297196940856619,-5.730163399209107,11.3
,,0.02176927942261961,0.0030855807788817964,0.0003703840449687838,0.02522524424647019,2.669704177660632,0.8629957835062715,0.12232114578290226,-5.7810153803864575,11.4
,,0.02176927942261961,0.0030855807788817964,0.0003703840449687838,0.02522524424647019,2.7242360053490384,0.8629957835062715,0.12232114578290226,-5.7810153803864575,11.5
,,0.022224904703189316,0.003161792288377134,0.00029628083666827075,0.025682977828234723,2.7784794612862576,0.8653554448330459,0.12310847712141854,-5.756616232302842,11.6
,,0.022224904703189316,0.003161792288377134,0.00029628083666827075,0.025682977828234723,2.8323437802978657,0.8653554448330459,0.12310847712141854,-5.756616232302842,11.7
,,0.022224904703189316,0.003161792288377134,0.00029628083666827075,0.025682977828234723,2.8862080993094734,0.8653554448330459,0.12310847712141854,-5.756616232302842,11.8
,,0.022224904703189316,0.003161792288377134,0.00029628083666827075,0.025682977828234723,2.940072418321081,0.8653554448330459,0.12310847712141854,-5.756616232302842,11.9
,,0.022224904703189316,0.003161792288377134,0.00029628083666827075,0.025682977828234723,2.993597735066637,0.8653554448330459,0.12310847712141854,-5.756616232302842,12.0
,,0.021853992918036177,0.002942385822725344,0.00034312855524056777,0.02513950729600209,3.0515463048282894,0.8693087203626937,0.11704230270229952,-5.828534522394809,12.1
,,0.021853992918036177,0.002942385822725344,0.00034312855524056777,0.02513950729600209,3.10949487458994,0.8693087203626937,0.11704230270229952,-5.828534522394809,12.2
,,0.022025958063986734,0.002981779233993788,0.00026969489339082,0.02527743219137134,3.1669939674479237,0.8713684957092072,0.1179621098938856,-5.815235098246092,12.3
,,0.022025958063986734,0.002981779233993788,0.00026969489339082,0.02527743219137134,3.224493060305907,0.8713684957092072,0.1179621098938856,-5.815235098246092,12.4
,,0.022025958063986734,0.002981779233993788,0.00026969489339082,0.02527743219137134,3.2850492899347326,0.8713684957092072,0.1179621098938856,-5.815235098246092,12.5
,,0.022025958063986734,0.002981779233993788,0.00026969489339082,0.02527743219137134,3.345605519563559,0.8713684957092072,0.1179621098938856,-5.815235098246092,12.6
,,0.022025958063986734,0.002981779233993788,0.00026969489339082,0.02527743219137134,3.4061617491923837,0.8713684957092072,0.1179621098938856,-5.815235098246092,12.7
,,0.021316347528053354,0.002759690099041229,0.00030895795545999075,0.024384995582554574,3.467564285942381,0.8741583510190758,0.11317164646179213,-5.8926368885133575,12.8
,,0.021316347528053354,0.002759690099041229,0.00030895795545999075,0.024384995582554574,3.5289668226923783,0.8741583510190758,0.11317164646179213,-5.8926368885133575,12.9
,,0.021316347528053354,0.002759690099041229,0.00030895795545999075,0.024384995582554574,3.590369359442376,0.8741583510190758,0.11317164646179213,-5.8926368885133575,13.0
,,0.021251700487539285,0.0027740978795457345,0.00023888149744378167,0.0242646798645288,3.6510672212495856,0.8758285955631328,0.11432658065277158,-5.887429673088432,13.1
,,0.021251700487539285,0.0027740978795457345,0.00023888149744378167,0.0242646798645288,3.711765083056795,0.8758285955631328,0.11432658065277158,-5.887429673088432,13.2
,,0.021251700487539285,0.0027740978795457345,0.00023888149744378167,0.0242646798645288,3.774116511635238,0.8758285955631328,0.11432658065277158,-5.887429673088432,13.3
,,0.021251700487539285,0.0027740978795457345,0.00023888149744378167,0.0242646798645288,3.8364679402136805,0.8758285955631328,0.11432658065277158,-5.887429673088432,13.4
,,0.020296493577250604,0.002556987170544442,0.000271967462993742,0.02312544821078879,3.8983979021540573,0.8776691976842038,0.11057027510288525,-5.9689256000715005,13.5
,,0.020296493577250604,0.002556987170544442,0.000271967462993742,0.02312544821078879,3.959891301730349,0.8776691976842038,0.11057027510288525,-5.9689256000715005,13.6
,,0.020296493577250604,0.002556987170544442,0.000271967462993742,0.02312544821078879,4.021384701306641,0.8776691976842038,0.11057027510288525,-5.9689256000715005,13.7
,,0.020296493577250604,0.002556987170544442,0.000271967462993742,0.02312544821078879,4.082878100882932,0.8776691976842038,0.11057027510288525,-5.9689256000715005,13.8
,,0.010222927883858125,0.0025436467602107846,0.00020489218171498245,0.012971466825783894,4.100830889509447,0.7881088562426579,0.19609553756516404,-5.974156495263512,13.9
,,0.010222927883858125,0.0025436467602107846,0.00020489218171498245,0.012971466825783894,4.13405283481454,0.7881088562426579,0.19609553756516404,-5.974156495263512,14.0
,,0.010222927883858125,0.0025436467602107846,0.00020489218171498245,0.012971466825783894,4.167274780119634,0.7881088562426579,0.19609553756516404,-5.974156495263512,14.1
,,0.018936402490658248,0.0023490486999302516,0.0002346452494640669,0.021520096440052566,4.245411196051428,0.8799404102768971,0.10915604892728416,-6.053744841323484,14.2
,,0.018936402490658248,0.0023490486999302516,0.0002346452494640669,0.021520096440052566,4.323547611983223,0.8799404102768971,0.10915604892728416,-6.053744841323484,14.3
,,0.018936402490658248,0.0023490486999302516,0.0002346452494640669,0.021520096440052566,4.3823590722233225,0.8799404102768971,0.10915604892728416,-6.053744841323484,14.4
,,0.018936402490658248,0.0023490486999302516,0.0002346452494640669,0.021520096440052566,4.441170532463422,0.8799404102768971,0.10915604892728416,-6.053744841323484,14.5
,,0.018505255133630417,0.002326693882624269,0.00017328351088087554,0.021005232527135563,4.498783638459193,0.8809831126470247,0.11076734711784479,-6.063306953541399,14.6
,,0.018505255133630417,0.002326693882624269,0.00017328351088087554,0.021005232527135563,4.556396744454963,0.8809831126470247,0.11076734711784479,-6.063306953541399,14.7
,,0.018505255133630417,0.002326693882624269,0.00017328351088087554,0.021005232527135563,4.614657843163322,0.8809831126470247,0.11076734711784479,-6.063306953541399,14.8
,,0.017457287126640717,0.002157557408973192,0.00020043243278312862,0.01981527696839704,4.674449743563759,0.8810014189800612,0.10888353528513552,-6.1387785263348915,14.9
,,0.017457287126640717,0.002157557408973192,0.00020043243278312862,0.01981527696839704,4.7342416439641966,0.8810014189800612,0.10888353528513552,-6.1387785263348915,15.0
,,0.017457287126640717,0.002157557408973192,0.00020043243278312862,0.01981527696839704,4.794033544364633,0.8810014189800612,0.10888353528513552,-6.1387785263348915,15.1
,,0.017457287126640717,0.002157557408973192,0.00020043243278312862,0.01981527696839704,4.86807508096204,0.8810014189800612,0.10888353528513552,-6.1387785263348915,15.2
,,0.017457287126640717,0.002157557408973192,0.00020043243278312862,0.01981527696839704,4.942116617559447,0.8810014189800612,0.10888353528513552,-6.1387785263348915,15.3
,,0.01698146520277373,0.002131845045350678,0.0001446989925613984,0.019258009240685808,5.014762506813079,0.8817871562184895,0.11069913918447988,-6.150767455737019,15.4
,,0.01698146520277373,0.002131845045350678,0.0001446989925613984,0.019258009240685808,5.089002375562992,0.8817871562184895,0.11069913918447988,-6.150767455737019,15.5
,,0.01698146520277373,0.002131845045350678,0.0001446989925613984,0.019258009240685808,5.163242244312905,0.8817871562184895,0.11069913918447988,-6.150767455737019,15.6
,,0.016012142953957673,0.0019928904902086018,0.00017180377674671707,0.018176837220912994,5.238248932155719,0.8809091900506885,0.10963901288149963,-6.21816918647207,15.7
,,0.016009012444737517,0.0019925321789787446,0.00017177379610331192,0.018173318419819572,5.313254216925572,0.8809074971843506,0.10964052535423119,-6.218348997378247,15.8
,,0.016009012444737517,0.0019925321789787446,0.00017177379610331192,0.018173318419819572,5.3882595016954244,0.8809074971843506,0.10964052535423119,-6.218348997378247,15.9
,,0.016009012444737517,0.0019925321789787446,0.00017177379610331192,0.018173318419819572,5.4351745445569914,0.8809074971843506,0.10964052535423119,-6.218348997378247,16.0
,,0.015503562235339207,0.0019652271315496656,0.00012101018905770665,0.01758979955594658,5.4804722022327415,0.8813950486489722,0.1117253852324475,-6.232147451765863,16.1
,,0.015503562235339207,0.0019652271315496656,0.00012101018905770665,0.01758979955594658,5.5257106453770435,0.8813950486489722,0.1117253852324475,-6.232147451765863,16.2
,,0.015503562235339207,0.0019652271315496656,0.00012101018905770665,0.01758979955594658,5.5709490885213455,0.8813950486489722,0.1117253852324475,-6.232147451765863,16.3
,,0.014619891094610345,0.0018516152815511219,0.0001482676062213987,0.016619773982382867,5.616263178040003,0.879668466617391,0.11141037679055403,-6.29169689568118,16.4
,,0.014619891094610345,0.0018516152815511219,0.0001482676062213987,0.016619773982382867,5.661577267558662,0.879668466617391,0.11141037679055403,-6.29169689568118,16.5
,,0.014619891094610345,0.0018516152815511219,0.0001482676062213987,0.016619773982382867,5.706891357077319,0.879668466617391,0.11141037679055403,-6.29169689568118,16.6
,,0.014619891094610345,0.0018516152815511219,0.0001482676062213987,0.016619773982382867,5.745847112491997,0.879668466617391,0.11141037679055403,-6.29169689568118,16.7
,,0.007005894677543281,0.001825264749673455,0.00010192885285630968,0.008933088280073045,5.739405369214311,0.7842634549096826,0.20432628587641474,-6.306030234154851,16.8
,,0.007005894677543281,0.001825264749673455,0.00010192885285630968,0.008933088280073045,5.732963625936624,0.7842634549096826,0.20432628587641474,-6.306030234154851,16.9
,,0.007005894677543281,0.001825264749673455,0.00010192885285630968,0.008933088280073045,5.726521882658938,0.7842634549096826,0.20432628587641474,-6.306030234154851,17.0
,,0.013423220681741453,0.0017441210513145702,0.00013121802499430323,0.015298559758050325,5.762946551226676,0.8774172794061845,0.11400557169421051,-6.351504545746685,17.1
,,0.013423220681741453,0.0017441210513145702,0.00013121802499430323,0.015298559758050325,5.799371219794413,0.8774172794061845,0.11400557169421051,-6.351504545746685,17.2
,,0.013423220681741453,0.0017441210513145702,0.00013121802499430323,0.015298559758050325,5.83579588836215,0.8774172794061845,0.11400557169421051,-6.351504545746685,17.3
,,0.013423220681741453,0.0017441210513145702,0.00013121802499430323,0.015298559758050325,5.8658705019254676,0.8774172794061845,0.11400557169421051,-6.351504545746685,17.4
,,0.006417682147784735,0.0017212827843188225,8.87230056399611e-05,0.00822768793774352,5.8955244973333345,0.7800103985889398,0.20920613389122925,-6.364685461294477,17.5
,,0.006417682147784735,0.0017212827843188225,8.87230056399611e-05,0.00822768793774352,5.925178492741201,0.7800103985889398,0.20920613389122925,-6.364685461294477,17.6
,,0.006417682147784735,0.0017212827843188225,8.87230056399611e-05,0.00822768793774352,5.954832488149067,0.7800103985889398,0.20920613389122925,-6.364685461294477,17.7
,,0.012398463463014967,0.0016630085564954668,0.00012097507251667051,0.014182447092027104,6.025897726937291,0.8742118607997464,0.11725822389496905,-6.3991269335678265,17.8
,,0.012398463463014967,0.0016630085564954668,0.00012097507251667051,0.014182447092027104,6.096962965725514,0.8742118607997464,0.11725822389496905,-6.3991269335678265,17.9
,,0.012398463463014967,0.0016630085564954668,0.00012097507251667051,0.014182447092027104,6.168028204513738,0.8742118607997464,0.11725822389496905,-6.3991269335678265,18.0
,,0.012398463463014967,0.0016630085564954668,0.00012097507251667051,0.014182447092027104,6.239093443301962,0.8742118607997464,0.11725822389496905,-6.3991269335678265,18.1
,,0.012044593186669748,0.001651855877727109,8.243039118727391e-05,0.01377887945558413,6.309005437183669,0.8741344479785305,0.11988317940162149,-6.405855848774361,18.2
,,0.012044593186669748,0.001651855877727109,8.243039118727391e-05,0.01377887945558413,6.378917431065375,0.8741344479785305,0.11988317940162149,-6.405855848774361,18.3
,,0.012044593186669748,0.001651855877727109,8.243039118727391e-05,0.01377887945558413,6.448829424947083,0.8741344479785305,0.11988317940162149,-6.405855848774361,18.4
,,0.011634888658563663,0.0016122271358101697,0.00011823696905818516,0.013365352763432018,6.517909240166267,0.8705261181281385,0.1206273537516547,-6.430138741715566,18.5
,,0.011634888658563663,0.0016122271358101697,0.00011823696905818516,0.013365352763432018,6.586989055385451,0.8705261181281385,0.1206273537516547,-6.430138741715566,18.6
,,0.011634888658563663,0.0016122271358101697,0.00011823696905818516,0.013365352763432018,6.656068870604636,0.8705261181281385,0.1206273537516547,-6.430138741715566,18.7
,,0.011634888658563663,0.0016122271358101697,0.00011823696905818516,0.013365352763432018,6.72514868582382,0.8705261181281385,0.1206273537516547,-6.430138741715566,18.8
,,0.011330747453263642,0.0016067888230101718,8.181321990371173e-05,0.013019349496177526,6.7353830153311085,0.8703005827280652,0.12341544587015843,-6.433517611558748,18.9
,,0.011330747453263642,0.0016067888230101718,8.181321990371173e-05,0.013019349496177526,6.803240304936761,0.8703005827280652,0.12341544587015843,-6.433517611558748,19.0
,,0.011330747453263642,0.0016067888230101718,8.181321990371173e-05,0.013019349496177526,6.871097594542414,0.8703005827280652,0.12341544587015843,-6.433517611558748,19.1
,,0.011327356158937948,0.0016063430973675143,8.179008735073094e-05,0.013015489343656194,6.938953167841874,0.8702981393825927,0.12341780281587746,-6.433795051549736,19.2
,,0.009127058328433682,0.004048832996336535,0.0004216630082213232,0.01359755433299154,6.953504323248547,0.6712279359155667,0.29776185460887716,-5.509326588439312,19.3
,,0.009127058328433682,0.004048832996336535,0.0004216630082213232,0.01359755433299154,6.968055478655218,0.6712279359155667,0.29776185460887716,-5.509326588439312,19.4
,,0.009127058328433682,0.004048832996336535,0.0004216630082213232,0.01359755433299154,6.982606634061892,0.6712279359155667,0.29776185460887716,-5.509326588439312,19.5
,,0.010914675579741458,0.0015977905793179018,8.693641597636903e-05,0.012599402575035728,6.985074162391192,0.8662851682640601,0.1268147890189445,-6.4391334919670715,19.6
,,0.010914675579741458,0.0015977905793179018,8.693641597636903e-05,0.012599402575035728,6.987495191223818,0.8662851682640601,0.1268147890189445,-6.4391334919670715,19.7
,,0.010914675579741458,0.0015977905793179018,8.693641597636903e-05,0.012599402575035728,6.989916220056441,0.8662851682640601,0.1268147890189445,-6.4391334919670715,19.8
,,0.010914675579741458,0.0015977905793179018,8.693641597636903e-05,0.012599402575035728,6.992337248889065,0.8662851682640601,0.1268147890189445,-6.4391334919670715,19.9
,,0.010899696262193068,0.0016078114470667502,0.00013209644786854434,0.012639604157128363,6.994181697400731,0.8623447480391196,0.12720425632633378,-6.432881374387617,20.0
,,0.010899696262193068,0.0016078114470667502,0.00013209644786854434,0.012639604157128363,6.996026145912395,0.8623447480391196,0.12720425632633378,-6.432881374387617,20.1
,,0.010899696262193068,0.0016078114470667502,0.00013209644786854434,0.012639604157128363,6.99787059442406,0.8623447480391196,0.12720425632633378,-6.432881374387617,20.2
,,0.010793469681609498,0.0016229507282492165,0.0001391988149172559,0.01255561922477597,6.998285144029719,0.8596525179985368,0.12926090694488826,-6.423509349352151,20.3
,,0.010793469681609498,0.0016229507282492165,0.0001391988149172559,0.01255561922477597,6.993789119318965,0.8596525179985368,0.12926090694488826,-6.423509349352151,20.4
,,0.010793469681609498,0.0016229507282492165,0.0001391988149172559,0.01255561922477597,6.989293094608211,0.8596525179985368,0.12926090694488826,-6.423509349352151,20.5
,,0.010793469681609498,0.0016229507282492165,0.0001391988149172559,0.01255561922477597,6.985085441648644,0.8596525179985368,0.12926090694488826,-6.423509349352151,20.6
,,0.010971967657331645,0.001652908879600443,0.0001486307594891866,0.012773507296421275,6.980738375399103,0.8589628050242424,0.12940133365434683,-6.405218585921303,20.7
,,0.010971967657331645,0.001652908879600443,0.0001486307594891866,0.012773507296421275,6.976391309149562,0.8589628050242424,0.12940133365434683,-6.405218585921303,20.8
,,0.010971967657331645,0.001652908879600443,0.0001486307594891866,0.012773507296421275,6.972044242900022,0.8589628050242424,0.12940133365434683,-6.405218585921303,20.9
,,0.011015510154261728,0.0016840065192965396,0.00015803211521936037,0.012857548788777628,6.966622472082643,0.8567348516597755,0.13097414965801105,-6.386579491853261,21.0
,,0.011015510154261728,0.0016840065192965396,0.00015803211521936037,0.012857548788777628,6.956777448249173,0.8567348516597755,0.13097414965801105,-6.386579491853261,21.1
,,0.011015510154261728,0.0016840065192965396,0.00015803211521936037,0.012857548788777628,6.946932424415701,0.8567348516597755,0.13097414965801105,-6.386579491853261,21.2
,,0.011015510154261728,0.0016840065192965396,0.00015803211521936037,0.012857548788777628,6.937536877485897,0.8567348516597755,0.13097414965801105,-6.386579491853261,21.3
,,0.019564042581603144,0.004599482889728552,0.0005972223011258306,0.024760747772457528,6.9027222128509935,0.7901232531985601,0.1857570268877243,-5.3818113970825605,21.4
,,0.019564042581603144,0.004599482889728552,0.0005972223011258306,0.024760747772457528,6.86790754821609,0.7901232531985601,0.1857570268877243,-5.3818113970825605,21.5
,,0.011623701389285552,0.0017876104261860873,0.00018423067131200543,0.013595542486783643,6.858079965969352,0.8549641472993861,0.13148503841783735,-6.3268755084169035,21.6
,,0.011623701389285552,0.0017876104261860873,0.00018423067131200543,0.013595542486783643,6.848252383722613,0.8549641472993861,0.13148503841783735,-6.3268755084169035,21.7
,,0.011623701389285552,0.0017876104261860873,0.00018423067131200543,0.013595542486783643,6.834676680347211,0.8549641472993861,0.13148503841783735,-6.3268755084169035,21.8
,,0.011623701389285552,0.0017876104261860873,0.00018423067131200543,0.013595542486783643,6.8211009769718105,0.8549641472993861,0.13148503841783735,-6.3268755084169035,21.9
,,0.011623701389285552,0.0017876104261860873,0.00018423067131200543,0.013595542486783643,6.807525273596408,0.8549641472993861,0.13148503841783735,-6.3268755084169035,22.0
,,0.012308927716430306,0.0018713785253819443,0.0002036104922803442,0.014383916734092596,6.795488658532679,0.8557424200917283,0.13010215228418448,-6.281079940350242,22.1
,,0.012308927716430306,0.0018713785253819443,0.0002036104922803442,0.014383916734092596,6.783452043468949,0.8557424200917283,0.13010215228418448,-6.281079940350242,22.2
,,0.012686044924139904,0.0019394002315186653,0.00021858455977852024,0.01484402971543709,6.7710127081464195,0.8546227114425011,0.1306518693843479,-6.245376512717397,22.3
,,0.012686044924139904,0.0019394002315186653,0.00021858455977852024,0.01484402971543709,6.758573372823889,0.8546227114425011,0.1306518693843479,-6.245376512717397,22.4
,,0.012686044924139904,0.0019394002315186653,0.00021858455977852024,0.01484402971543709,6.743057385755256,0.8546227114425011,0.1306518693843479,-6.245376512717397,22.5
,,0.012686044924139904,0.0019394002315186653,0.00021858455977852024,0.01484402971543709,6.727541398686624,0.8546227114425011,0.1306518693843479,-6.245376512717397,22.6
,,0.012686044924139904,0.0019394002315186653,0.00021858455977852024,0.01484402971543709,6.712025411617991,0.8546227114425011,0.1306518693843479,-6.245376512717397,22.7
,,0.013639176256958926,0.002046684081501487,0.00024112322045035544,0.015926983558910767,6.697874038309432,0.8563565226591907,0.1285041874960947,-6.191534316650448,22.8
,,0.01424660465431454,0.002142467657977945,0.00026007138862337313,0.01664914370091586,6.72710314493073,0.8556959390969064,0.1286833543193029,-6.1457970030658124,22.9
,,0.01424660465431454,0.002142467657977945,0.00026007138862337313,0.01664914370091586,6.7563322515520285,0.8556959390969064,0.1286833543193029,-6.1457970030658124,23.0
,,0.01424660465431454,0.002142467657977945,0.00026007138862337313,0.01664914370091586,6.78556135817333,0.8556959390969064,0.1286833543193029,-6.1457970030658124,23.1
,,0.01424660465431454,0.002142467657977945,0.00026007138862337313,0.01664914370091586,6.769875994167927,0.8556959390969064,0.1286833543193029,-6.1457970030658124,23.2
,,0.01424660465431454,0.002142467657977945,0.00026007138862337313,0.01664914370091586,6.754190630162527,0.8556959390969064,0.1286833543193029,-6.1457970030658124,23.3
,,0.01424660465431454,0.002142467657977945,0.00026007138862337313,0.01664914370091586,6.738505266157126,0.8556959390969064,0.1286833543193029,-6.1457970030658124,23.4
,,0.01552454217884327,0.002275520478784615,0.00028593711619938036,0.018085999773827265,6.724739786607325,0.8583734586411558,0.12581668181139655,-6.08554647086246,23.5
,,0.016336636761216387,0.002391547041198472,0.00030770439085272617,0.019035888193267587,6.712267966272359,0.8582019706857785,0.1256335936058024,-6.0358148248728485,23.6
,,0.016336636761216387,0.002391547041198472,0.00030770439085272617,0.019035888193267587,6.699796145937392,0.8582019706857785,0.1256335936058024,-6.0358148248728485,23.7
,,0.016336636761216387,0.002391547041198472,0.00030770439085272617,0.019035888193267587,6.687324325602426,0.8582019706857785,0.1256335936058024,-6.0358148248728485,23.8
,,0.016336636761216387,0.002391547041198472,0.00030770439085272617,0.019035888193267587,6.6733217035753825,0.8582019706857785,0.1256335936058024,-6.0358148248728485,23.9
,,0.016336636761216387,0.002391547041198472,0.00030770439085272617,0.019035888193267587,6.659319081548338,0.8582019706857785,0.1256335936058024,-6.0358148248728485,24.0
,,0.016336636761216387,0.002391547041198472,0.00030770439085272617,0.019035888193267587,6.645316459521293,0.8582019706857785,0.1256335936058024,-6.0358148248728485,24.1
,,0.017958502014270857,0.002551536078347463,0.00033641625148644324,0.020846454344104762,6.633617380380069,0.8614655383518205,0.12239664531100564,-5.971059717506342,24.2
,,0.03124178189699157,0.004288807809367529,0.0006360784366578337,0.03616666814301693,6.624653645189609,0.8638280356224559,0.11858454288373847,-5.451746484577877,24.3
,,0.03124178189699157,0.004288807809367529,0.0006360784366578337,0.03616666814301693,6.617085557342922,0.8638280356224559,0.11858454288373847,-5.451746484577877,24.4
,,0.03124178189699157,0.004288807809367529,0.0006360784366578337,0.03616666814301693,6.609517469496236,0.8638280356224559,0.11858454288373847,-5.451746484577877,24.5
,,0.03124178189699157,0.004288807809367529,0.0006360784366578337,0.03616666814301693,6.6019493816495505,0.8638280356224559,0.11858454288373847,-5.451746484577877,24.6
,,0.03124178189699157,0.004288807809367529,0.0006360784366578337,0.03616666814301693,6.593614474709965,0.8638280356224559,0.11858454288373847,-5.451746484577877,24.7
,,0.03124178189699157,0.004288807809367529,0.0006360784366578337,0.03616666814301693,6.585280970843339,0.8638280356224559,0.11858454288373847,-5.451746484577877,24.8
,,0.01609209108929897,0.0037502680847400706,0.0005536143148298555,0.020395973488868895,6.543685539575185,0.7889837226000137,0.1838729632977205,-5.585927952291034,24.9
,,0.01609209108929897,0.0037502680847400706,0.0005536143148298555,0.020395973488868895,6.502090108307031,0.7889837226000137,0.1838729632977205,-5.585927952291034,25.0
,,0.01609209108929897,0.0037502680847400706,0.0005536143148298555,0.020395973488868895,6.462112062224694,0.7889837226000137,0.1838729632977205,-5.585927952291034,25.1
,,0.01609209108929897,0.0037502680847400706,0.0005536143148298555,0.020395973488868895,6.4221340161423575,0.7889837226000137,0.1838729632977205,-5.585927952291034,25.2
,,0.01609209108929897,0.0037502680847400706,0.0005536143148298555,0.020395973488868895,6.382155970060021,0.7889837226000137,0.1838729632977205,-5.585927952291034,25.3
,,0.01609209108929897,0.0037502680847400706,0.0005536143148298555,0.020395973488868895,6.3421022776033285,0.7889837226000137,0.1838729632977205,-5.585927952291034,25.4
,,0.01609209108929897,0.0037502680847400706,0.0005536143148298555,0.020395973488868895,6.302048585146637,0.7889837226000137,0.1838729632977205,-5.585927952291034,25.5
,,0.024224038652422255,0.0031936573664576957,0.0004392607900414114,0.027856956808921363,6.2985963222240215,0.8695866823710031,0.11464487626426255,-5.746588509064543,25.6
,,0.024224038652422255,0.0031936573664576957,0.0004392607900414114,0.027856956808921363,6.295144059301409,0.8695866823710031,0.11464487626426255,-5.746588509064543,25.7
,,0.024224038652422255,0.0031936573664576957,0.0004392607900414114,0.027856956808921363,6.3367746882964715,0.8695866823710031,0.11464487626426255,-5.746588509064543,25.8
,,0.024224038652422255,0.0031936573664576957,0.0004392607900414114,0.027856956808921363,6.378405317291537,0.8695866823710031,0.11464487626426255,-5.746588509064543,25.9
,,0.024224038652422255,0.0031936573664576957,0.0004392607900414114,0.027856956808921363,6.420035946286599,0.8695866823710031,0.11464487626426255,-5.746588509064543,26.0
,,0.024224038652422255,0.0031936573664576957,0.0004392607900414114,0.027856956808921363,6.41880016343624,0.8695866823710031,0.11464487626426255,-5.746588509064543,26.1
,,0.02506214952494133,0.0031990432049249784,0.00043607463329223354,0.02869726736315854,6.420333469090995,0.8733287810224062,0.11147553404446793,-5.744903512346353,26.2
,,0.014345674095339746,0.0030569929890659486,0.000432866088372381,0.017835533172778074,6.386960953716895,0.8043311044513762,0.17139902460172932,-5.790323529479423,26.3
,,0.014345674095339746,0.0030569929890659486,0.000432866088372381,0.017835533172778074,6.353588438342794,0.8043311044513762,0.17139902460172932,-5.790323529479423,26.4
,,0.014345674095339746,0.0030569929890659486,0.000432866088372381,0.017835533172778074,6.364302998307967,0.8043311044513762,0.17139902460172932,-5.790323529479423,26.5
,,0.014345674095339746,0.0030569929890659486,0.000432866088372381,0.017835533172778074,6.375017558273141,0.8043311044513762,0.17139902460172932,-5.790323529479423,26.6
,,0.014345674095339746,0.0030569929890659486,0.000432866088372381,0.017835533172778074,6.385732118238314,0.8043311044513762,0.17139902460172932,-5.790323529479423,26.7
,,0.014345674095339746,0.0030569929890659486,0.000432866088372381,0.017835533172778074,6.3550354348231295,0.8043311044513762,0.17139902460172932,-5.790323529479423,26.8
,,0.02527572207465145,0.003144904833372519,0.000419072612764457,0.028839699520788423,6.3614976236680025,0.8764211311020087,0.10904776698888932,-5.761971648946543,26.9
,,0.02527572207465145,0.003144904833372519,0.000419072612764457,0.028839699520788423,6.367959812512876,0.8764211311020087,0.10904776698888932,-5.761971648946543,27.0
,,0.02527572207465145,0.003144904833372519,0.000419072612764457,0.028839699520788423,6.374422001357747,0.8764211311020087,0.10904776698888932,-5.761971648946543,27.1
,,0.02527572207465145,0.003144904833372519,0.000419072612764457,0.028839699520788423,6.382705186633302,0.8764211311020087,0.10904776698888932,-5.761971648946543,27.2
,,0.02527572207465145,0.003144904833372519,0.000419072612764457,0.028839699520788423,6.390988371908858,0.8764211311020087,0.10904776698888932,-5.761971648946543,27.3
,,0.02527572207465145,0.003144904833372519,0.000419072612764457,0.028839699520788423,6.399271557184412,0.8764211311020087,0.10904776698888932,-5.761971648946543,27.4
,,0.02527572207465145,0.003144904833372519,0.000419072612764457,0.028839699520788423,6.408386921122491,0.8764211311020087,0.10904776698888932,-5.761971648946543,27.5
,,0.024867580518193794,0.00303822032294604,0.0003912276950635877,0.02829702853620342,6.419145374114435,0.8788053659548752,0.10736888217994053,-5.79648335507279,27.6
,,0.024867580518193794,0.00303822032294604,0.0003912276950635877,0.02829702853620342,6.429903827106378,0.8788053659548752,0.10736888217994053,-5.79648335507279,27.7
,,0.024867580518193794,0.00303822032294604,0.0003912276950635877,0.02829702853620342,6.440662280098324,0.8788053659548752,0.10736888217994053,-5.79648335507279,27.8
,,0.024867580518193794,0.00303822032294604,0.0003912276950635877,0.02829702853620342,6.453252507874873,0.8788053659548752,0.10736888217994053,-5.79648335507279,27.9
,,0.024867580518193794,0.00303822032294604,0.0003912276950635877,0.02829702853620342,6.4658427356514245,0.8788053659548752,0.10736888217994053,-5.79648335507279,28.0
,,0.024867580518193794,0.00303822032294604,0.0003912276950635877,0.02829702853620342,6.478432963427973,0.8788053659548752,0.10736888217994053,-5.79648335507279,28.1
,,0.025026183395794106,0.0025712602146190405,0.00031832830413325747,0.027915771914546403,6.508226297637533,0.8964890339555116,0.09210779563932471,-5.963359144377272,28.2
,,0.02439272432771074,0.002946834247270753,0.0003634541494568702,0.027703012724438363,6.575152507659099,0.8805079999906497,0.1063723385099985,-5.827023821372072,28.3
,,0.02439272432771074,0.002946834247270753,0.0003634541494568702,0.027703012724438363,6.642078717680663,0.8805079999906497,0.1063723385099985,-5.827023821372072,28.4
,,0.02439272432771074,0.002946834247270753,0.0003634541494568702,0.027703012724438363,6.709004927702226,0.8805079999906497,0.1063723385099985,-5.827023821372072,28.5
,,0.02439272432771074,0.002946834247270753,0.0003634541494568702,0.027703012724438363,6.725077126382209,0.8805079999906497,0.1063723385099985,-5.827023821372072,28.6
,,0.02439272432771074,0.002946834247270753,0.0003634541494568702,0.027703012724438363,6.7411493250621914,0.8805079999906497,0.1063723385099985,-5.827023821372072,28.7
,,0.02439272432771074,0.002946834247270753,0.0003634541494568702,0.027703012724438363,6.757221523742176,0.8805079999906497,0.1063723385099985,-5.827023821372072,28.8
,,0.02424349347882855,0.002881187694850031,0.0003493593484235329,0.027474040522102117,6.774813794849438,0.8824145636432807,0.10486945640675584,-5.849552675800186,28.9
,,0.02359340415800951,0.002841951193583722,0.00033277872316012666,0.02676813407475336,6.791731794681492,0.8813989085724833,0.10616919302806906,-5.863264422718687,29.0
,,0.02359340415800951,0.002841951193583722,0.00033277872316012666,0.02676813407475336,6.808649794513546,0.8813989085724833,0.10616919302806906,-5.863264422718687,29.1
,,0.02359340415800951,0.002841951193583722,0.00033277872316012666,0.02676813407475336,6.825567794345601,0.8813989085724833,0.10616919302806906,-5.863264422718687,29.2
,,0.02359340415800951,0.002841951193583722,0.00033277872316012666,0.02676813407475336,6.843915693083659,0.8813989085724833,0.10616919302806906,-5.863264422718687,29.3
,,0.02359340415800951,0.002841951193583722,0.00033277872316012666,0.02676813407475336,6.862263591821718,0.8813989085724833,0.10616919302806906,-5.863264422718687,29.4
,,0.02321740969788394,0.0027643378632480143,0.00031837830831458254,0.026300125869446536,6.881690062873506,0.8827870183258758,0.1051074005109386,-5.890954143481927,29.5
,,0.011302562325395013,0.0027184172758070034,0.00029963453485514136,0.014320614136057157,6.853992852203309,0.7892512302902469,0.18982546767756536,-5.90770545192885,29.6
,,0.011302562325395013,0.0027184172758070034,0.00029963453485514136,0.014320614136057157,6.826435054823085,0.7892512302902469,0.18982546767756536,-5.90770545192885,29.7
,,0.011302562325395013,0.0027184172758070034,0.00029963453485514136,0.014320614136057157,6.798877257442859,0.7892512302902469,0.18982546767756536,-5.90770545192885,29.8
,,0.011302562325395013,0.0027184172758070034,0.00029963453485514136,0.014320614136057157,6.771319460062635,0.7892512302902469,0.18982546767756536,-5.90770545192885,29.9
,,0.011302562325395013,0.0027184172758070034,0.00029963453485514136,0.014320614136057157,6.744836367250248,0.7892512302902469,0.18982546767756536,-5.90770545192885,30.0
,,0.011302562325395013,0.0027184172758070034,0.00029963453485514136,0.014320614136057157,6.718353274437861,0.7892512302902469,0.18982546767756536,-5.90770545192885,30.1
,,0.022350257485866998,0.002249631661791803,0.00022756869517176904,0.02482745784283057,6.756062415671456,0.9002233586440702,0.09061063263234699,-6.0969887820373865,30.2
,,0.021179537936057872,0.0026113335189770067,0.0002711121264477012,0.02406198358148258,6.773499860874699,0.8802074801662255,0.1085252805586076,-5.947894261315083,30.3
,,0.021179537936057872,0.0026113335189770067,0.0002711121264477012,0.02406198358148258,6.8163564237830405,0.8802074801662255,0.1085252805586076,-5.947894261315083,30.4
,,0.021179537936057872,0.0026113335189770067,0.0002711121264477012,0.02406198358148258,6.859212986691383,0.8802074801662255,0.1085252805586076,-5.947894261315083,30.5
,,0.021179537936057872,0.0026113335189770067,0.0002711121264477012,0.02406198358148258,6.87708246721156,0.8802074801662255,0.1085252805586076,-5.947894261315083,30.6
,,0.021179537936057872,0.0026113335189770067,0.0002711121264477012,0.02406198358148258,6.8949519477317365,0.8802074801662255,0.1085252805586076,-5.947894261315083,30.7
,,0.021179537936057872,0.0026113335189770067,0.0002711121264477012,0.02406198358148258,6.912821428251914,0.8802074801662255,0.1085252805586076,-5.947894261315083,30.8
,,0.02072679506617953,0.002541668942309355,0.0002625051289486155,0.0235309691374375,6.931181750507584,0.8808304896037383,0.1080137807951815,-5.974934349822344,30.9
,,0.019787056258903316,0.002495061011386664,0.00024430141003853523,0.02252641868032852,6.947049768634866,0.8783933451517801,0.11076154833104952,-5.9934420966160475,31.0
,,0.019787056258903316,0.002495061011386664,0.00024430141003853523,0.02252641868032852,6.962083373393261,0.8783933451517801,0.11076154833104952,-5.9934420966160475,31.1
,,0.019787056258903316,0.002495061011386664,0.00024430141003853523,0.02252641868032852,6.97711697815166,0.8783933451517801,0.11076154833104952,-5.9934420966160475,31.2
,,0.019787056258903316,0.002495061011386664,0.00024430141003853523,0.02252641868032852,6.992553303168857,0.8783933451517801,0.11076154833104952,-5.9934420966160475,31.3
,,0.019787056258903316,0.002495061011386664,0.00024430141003853523,0.02252641868032852,7.0079896281860545,0.8783933451517801,0.11076154833104952,-5.9934420966160475,31.4
,,0.019029591586068623,0.0023901417294367126,0.0002357562181009041,0.02165548953360624,7.023772732441473,0.8787421571115908,0.11037117058598711,-6.036402613777408,31.5
,,0.019029591586068623,0.0023901417294367126,0.0002357562181009041,0.02165548953360624,7.039555836696889,0.8787421571115908,0.11037117058598711,-6.036402613777408,31.6
,,0.017986608101426084,0.002333935210060292,0.00021700606337423365,0.02053754937486061,7.0525040339460725,0.875791350424844,0.11364234200781478,-6.060199504688888,31.7
,,0.017986608101426084,0.002333935210060292,0.00021700606337423365,0.02053754937486061,7.064087617435184,0.875791350424844,0.11364234200781478,-6.060199504688888,31.8
,,0.017986608101426084,0.002333935210060292,0.00021700606337423365,0.02053754937486061,7.075831331944214,0.875791350424844,0.11364234200781478,-6.060199504688888,31.9
,,0.017986608101426084,0.002333935210060292,0.00021700606337423365,0.02053754937486061,7.087575046453245,0.875791350424844,0.11364234200781478,-6.060199504688888,32.0
,,0.017986608101426084,0.002333935210060292,0.00021700606337423365,0.02053754937486061,7.099318760962275,0.875791350424844,0.11364234200781478,-6.060199504688888,32.1
,,0.01735644683777145,0.002245126708905274,0.00021353967207113776,0.019815113218747862,7.11133094159013,0.8759196400326308,0.11330375376210673,-6.098993318888297,32.2
,,0.0164026525226723,0.0021967517461200653,0.00019792984456353194,0.0187973341133559,7.120410403212325,0.8726052547535383,0.11686506889076505,-6.120775488723466,32.3
,,0.0164026525226723,0.0021967517461200653,0.00019792984456353194,0.0187973341133559,7.129489864834521,0.8726052547535383,0.11686506889076505,-6.120775488723466,32.4
,,0.0164026525226723,0.0021967517461200653,0.00019792984456353194,0.0187973341133559,7.136649442001116,0.8726052547535383,0.11686506889076505,-6.120775488723466,32.5
,,0.0164026525226723,0.0021967517461200653,0.00019792984456353194,0.0187973341133559,7.143713714197205,0.8726052547535383,0.11686506889076505,-6.120775488723466,32.6
,,0.0164026525226723,0.0021967517461200653,0.00019792984456353194,0.0187973341133559,7.150777986393295,0.8726052547535383,0.11686506889076505,-6.120775488723466,32.7
,,0.0164026525226723,0.0021967517461200653,0.00019792984456353194,0.0187973341133559,7.157842258589384,0.8726052547535383,0.11686506889076505,-6.120775488723466,32.8
,,0.015855876281748053,0.0021180153179248067,0.00019833807518539648,0.018172229674858254,7.165122304099582,0.8725333415571489,0.11655230842999609,-6.15727579956996,32.9
,,0.015097114554349958,0.002088060149606304,0.00018666938342472452,0.017371844087380985,7.169558074970256,0.8690565306947807,0.12019795590515826,-6.171519802093954,33.0
,,0.015097114554349958,0.002088060149606304,0.00018666938342472452,0.017371844087380985,7.173993845840929,0.8690565306947807,0.12019795590515826,-6.171519802093954,33.1
,,0.015097114554349958,0.002088060149606304,0.00018666938342472452,0.017371844087380985,7.176126073825784,0.8690565306947807,0.12019795590515826,-6.171519802093954,33.2
,,0.015097114554349958,0.002088060149606304,0.00018666938342472452,0.017371844087380985,7.175522957859874,0.8690565306947807,0.12019795590515826,-6.171519802093954,33.3
,,0.015097114554349958,0.002088060149606304,0.00018666938342472452,0.017371844087380985,7.174919841893965,0.8690565306947807,0.12019795590515826,-6.171519802093954,33.4
,,0.014809183820054465,0.0016792078430856595,0.00013587595640394393,0.016624267619544067,7.19197159510992,0.8908172172736364,0.10100943280722481,-6.389433118741234,33.5
,,0.014809183820054465,0.0016792078430856595,0.00013587595640394393,0.016624267619544067,7.209023348325877,0.8908172172736364,0.10100943280722481,-6.389433118741234,33.6
,,0.014189543508232191,0.0020210988261981848,0.00018355200881108724,0.016394194343241464,7.206092419540374,0.8655224655234038,0.12328137533829996,-6.204113942103463,33.7
,,0.014189543508232191,0.0020210988261981848,0.00018355200881108724,0.016394194343241464,7.203161490754871,0.8655224655234038,0.12328137533829996,-6.204113942103463,33.8
,,0.014189543508232191,0.0020210988261981848,0.00018355200881108724,0.016394194343241464,7.233492489370897,0.8655224655234038,0.12328137533829996,-6.204113942103463,33.9
,,0.014189543508232191,0.0020210988261981848,0.00018355200881108724,0.016394194343241464,7.263823487986925,0.8655224655234038,0.12328137533829996,-6.204113942103463,34.0
,,0.014189543508232191,0.0020210988261981848,0.00018355200881108724,0.016394194343241464,7.2941544866029515,0.8655224655234038,0.12328137533829996,-6.204113942103463,34.1
,,0.013984999540915987,0.0019812312716373692,0.0001927230838942796,0.016158953896447635,7.324908087003937,0.8654644125193297,0.12260888200645964,-6.2240367731846895,34.2
,,0.013984999540915987,0.0019812312716373692,0.0001927230838942796,0.016158953896447635,7.355661687404922,0.8654644125193297,0.12260888200645964,-6.2240367731846895,34.3
,,0.013605143830163209,0.0019870770737239144,0.00018784479895720354,0.015780065702844327,7.38406051856815,0.8621728252824009,0.12592324462665244,-6.2210905271743355,34.4
,,0.013605143830163209,0.0019870770737239144,0.00018784479895720354,0.015780065702844327,7.412459349731378,0.8621728252824009,0.12592324462665244,-6.2210905271743355,34.5
,,0.013605143830163209,0.0019870770737239144,0.00018784479895720354,0.015780065702844327,7.40425675136053,0.8621728252824009,0.12592324462665244,-6.2210905271743355,34.6
,,0.013605143830163209,0.0019870770737239144,0.00018784479895720354,0.015780065702844327,7.396054152989681,0.8621728252824009,0.12592324462665244,-6.2210905271743355,34.7
,,0.013605143830163209,0.0019870770737239144,0.00018784479895720354,0.015780065702844327,7.387851554618832,0.8621728252824009,0.12592324462665244,-6.2210905271743355,34.8
,,0.013622042349422714,0.001973076582721455,0.0002016913546312658,0.015796810286775435,7.380283933312159,0.8623286664920345,0.12490348031673516,-6.228161237326757,34.9
,,0.013458146283203553,0.0019978247510939345,0.00020059050136642226,0.01565656153566391,7.370854529098333,0.8595850533686717,0.12760303381704288,-6.21569631476791,35.0
,,0.013458146283203553,0.0019978247510939345,0.00020059050136642226,0.01565656153566391,7.361425124884506,0.8595850533686717,0.12760303381704288,-6.21569631476791,35.1
,,0.013458146283203553,0.0019978247510939345,0.00020059050136642226,0.01565656153566391,7.349226632165564,0.8595850533686717,0.12760303381704288,-6.21569631476791,35.2
,,0.013458146283203553,0.0019978247510939345,0.00020059050136642226,0.01565656153566391,7.371933960475477,0.8595850533686717,0.12760303381704288,-6.21569631476791,35.3
,,0.013458146283203553,0.0019978247510939345,0.00020059050136642226,0.01565656153566391,7.394641288785392,0.8595850533686717,0.12760303381704288,-6.21569631476791,35.4
,,0.013458146283203553,0.0019978247510939345,0.00020059050136642226,0.01565656153566391,7.417348617095304,0.8595850533686717,0.12760303381704288,-6.21569631476791,35.5
,,0.013621693081876222,0.001999331335110121,0.00021658481315208047,0.01583760923013842,7.440908440679744,0.8600851860869639,0.12623946620083687,-6.214942486768683,35.6
,,0.013725321654505292,0.002046638898424297,0.00021942283119754017,0.01599138338412713,7.463281040008834,0.8582948282091025,0.12798385538400436,-6.1915563931283675,35.7
,,0.013725321654505292,0.002046638898424297,0.00021942283119754017,0.01599138338412713,7.485653639337924,0.8582948282091025,0.12798385538400436,-6.1915563931283675,35.8
,,0.013725321654505292,0.002046638898424297,0.00021942283119754017,0.01599138338412713,7.4708673664069565,0.8582948282091025,0.12798385538400436,-6.1915563931283675,35.9
,,0.013725321654505292,0.002046638898424297,0.00021942283119754017,0.01599138338412713,7.456081093475991,0.8582948282091025,0.12798385538400436,-6.1915563931283675,36.0
,,0.013751302471106177,0.0020272565407922693,0.00022903207275023612,0.016007591084648682,7.442149638749449,0.8590488349176854,0.12664344872829825,-6.201071857708867,36.1
,,0.013725321654505292,0.002046638898424297,0.00021942283119754017,0.01599138338412713,7.427363365818483,0.8582948282091025,0.12798385538400436,-6.1915563931283675,36.2
,,0.014018849437396794,0.0020552771351946045,0.00023764518867274212,0.01631177176126414,7.413850764854587,0.8594314365461886,0.12599962562468586,-6.187344581151117,36.3
,,0.015392117061837315,0.001892968699601503,0.00020312513180897773,0.017488210893247796,7.414897059270652,0.880142466018649,0.10824255901056058,-6.269608941703326,36.4
,,0.015392117061837315,0.001892968699601503,0.00020312513180897773,0.017488210893247796,7.415943353686717,0.880142466018649,0.10824255901056058,-6.269608941703326,36.5
,,0.015392117061837315,0.001892968699601503,0.00020312513180897773,0.017488210893247796,7.415346559048917,0.880142466018649,0.10824255901056058,-6.269608941703326,36.6
,,0.015392117061837315,0.001892968699601503,0.00020312513180897773,0.017488210893247796,7.414749764411115,0.880142466018649,0.10824255901056058,-6.269608941703326,36.7
,,0.015392117061837315,0.001892968699601503,0.00020312513180897773,0.017488210893247796,7.414152969773314,0.880142466018649,0.10824255901056058,-6.269608941703326,36.8
,,0.015392117061837315,0.001892968699601503,0.00020312513180897773,0.017488210893247796,7.413556175135514,0.880142466018649,0.10824255901056058,-6.269608941703326,36.9
,,0.015002473888080726,0.0021667261443902405,0.00026590350355399457,0.01743510353602496,7.399546306903947,0.8604751819845601,0.12427377559951294,-6.1345379398684,37.0
,,0.015774395345494616,0.0022718262103591947,0.00027782250700189294,0.0183240440628557,7.385752640607816,0.8608577501442803,0.12398061271662011,-6.0871712729682566,37.1
,,0.015774395345494616,0.0022718262103591947,0.00027782250700189294,0.0183240440628557,7.354757584184867,0.8608577501442803,0.12398061271662011,-6.0871712729682566,37.2
,,0.015774395345494616,0.0022718262103591947,0.00027782250700189294,0.0183240440628557,7.339934069842702,0.8608577501442803,0.12398061271662011,-6.0871712729682566,37.3
,,0.015774395345494616,0.0022718262103591947,0.00027782250700189294,0.0183240440628557,7.325110555500536,0.8608577501442803,0.12398061271662011,-6.0871712729682566,37.4
,,0.015774395345494616,0.0022718262103591947,0.00027782250700189294,0.0183240440628557,7.310287041158371,0.8608577501442803,0.12398061271662011,-6.0871712729682566,37.5
,,0.015774395345494616,0.0022718262103591947,0.00027782250700189294,0.0183240440628557,7.2954635268162065,0.8608577501442803,0.12398061271662011,-6.0871712729682566,37.6
,,0.015774395345494616,0.0022718262103591947,0.00027782250700189294,0.0183240440628557,7.280640012474041,0.8608577501442803,0.12398061271662011,-6.0871712729682566,37.7
,,0.01098134260014053,0.002403846964672692,0.0002956489402061491,0.013680838505019373,7.239424833268539,0.8026805225506886,0.17570903740956687,-6.03068492295748,37.8
,,0.01098134260014053,0.002403846964672692,0.0002956489402061491,0.013680838505019373,7.196689581635759,0.8026805225506886,0.17570903740956687,-6.03068492295748,37.9
,,0.01098134260014053,0.002403846964672692,0.0002956489402061491,0.013680838505019373,7.155205181599147,0.8026805225506886,0.17570903740956687,-6.03068492295748,38.0
,,0.01098134260014053,0.002403846964672692,0.0002956489402061491,0.013680838505019373,7.113720781562535,0.8026805225506886,0.17570903740956687,-6.03068492295748,38.1
,,0.01098134260014053,0.002403846964672692,0.0002956489402061491,0.013680838505019373,7.072236381525921,0.8026805225506886,0.17570903740956687,-6.03068492295748,38.2
,,0.01098134260014053,0.002403846964672692,0.0002956489402061491,0.013680838505019373,7.03075198148931,0.8026805225506886,0.17570903740956687,-6.03068492295748,38.3
,,0.022290863039237767,0.0026083911212826795,0.0002470585890472765,0.025146312749567724,7.03346304216331,0.8864465840870032,0.10372857234615913,-5.949021676345101,38.4
,,0.019400530231095905,0.0025763980165210707,0.0003423600625746846,0.02231928831019166,7.023809639624502,0.8692270990664626,0.11543369935073645,-5.961362973156347,38.5
,,0.019400530231095905,0.0025763980165210707,0.0003423600625746846,0.02231928831019166,7.0612799188076805,0.8692270990664626,0.11543369935073645,-5.961362973156347,38.6
,,0.019400530231095905,0.0025763980165210707,0.0003423600625746846,0.02231928831019166,7.098750197990859,0.8692270990664626,0.11543369935073645,-5.961362973156347,38.7
,,0.019400530231095905,0.0025763980165210707,0.0003423600625746846,0.02231928831019166,7.13622047717404,0.8692270990664626,0.11543369935073645,-5.961362973156347,38.8
,,0.019400530231095905,0.0025763980165210707,0.0003423600625746846,0.02231928831019166,7.1736907563572165,0.8692270990664626,0.11543369935073645,-5.961362973156347,38.9
,,0.019400530231095905,0.0025763980165210707,0.0003423600625746846,0.02231928831019166,7.211161035540395,0.8692270990664626,0.11543369935073645,-5.961362973156347,39.0
,,0.02064144569622164,0.002695914609054364,0.000275154853576092,0.023612515158852095,7.250036501742683,0.8741739521333189,0.11417312348632597,-5.916017759633102,39.1
,,0.021069145804613606,0.002666478392831152,0.00036033633393641525,0.024095960531381175,7.227441094426318,0.874384973247876,0.11066080513198409,-5.926996631151216,39.2
,,0.021069145804613606,0.002666478392831152,0.00036033633393641525,0.024095960531381175,7.225117383140307,0.874384973247876,0.11066080513198409,-5.926996631151216,39.3
,,0.021069145804613606,0.002666478392831152,0.00036033633393641525,0.024095960531381175,7.222793671854297,0.874384973247876,0.11066080513198409,-5.926996631151216,39.4
,,0.021069145804613606,0.002666478392831152,0.00036033633393641525,0.024095960531381175,7.220469960568285,0.874384973247876,0.11066080513198409,-5.926996631151216,39.5
,,0.021069145804613606,0.002666478392831152,0.00036033633393641525,0.024095960531381175,7.218146249282275,0.874384973247876,0.11066080513198409,-5.926996631151216,39.6
,,0.021069145804613606,0.002666478392831152,0.00036033633393641525,0.024095960531381175,7.215822537996264,0.874384973247876,0.11066080513198409,-5.926996631151216,39.7
,,0.026237169970180284,0.0028581511220840223,0.00028400195070108115,0.02937932304296539,7.227701965293305,0.8930488266121752,0.09728444450214725,-5.857580324006046,39.8
,,0.021636865937169573,0.0026113150197205714,0.0003533145888184406,0.024601495545708583,7.229157686616079,0.879493927390274,0.10614456405176075,-5.947901345558374,39.9
,,0.021636865937169573,0.0026113150197205714,0.0003533145888184406,0.024601495545708583,7.233105712067242,0.879493927390274,0.10614456405176075,-5.947901345558374,40.0
,,0.021636865937169573,0.0026113150197205714,0.0003533145888184406,0.024601495545708583,7.237053737518405,0.879493927390274,0.10614456405176075,-5.947901345558374,40.1
,,0.021636865937169573,0.0026113150197205714,0.0003533145888184406,0.024601495545708583,7.241001762969566,0.879493927390274,0.10614456405176075,-5.947901345558374,40.2
,,0.021636865937169573,0.0026113150197205714,0.0003533145888184406,0.024601495545708583,7.244949788420729,0.879493927390274,0.10614456405176075,-5.947901345558374,40.3
,,0.021636865937169573,0.0026113150197205714,0.0003533145888184406,0.024601495545708583,7.248897813871892,0.879493927390274,0.10614456405176075,-5.947901345558374,40.4
,,0.021660708258112532,0.0025704343095389647,0.0002631187179968988,0.024494261285648394,7.254066336124763,0.884317677741272,0.10494026660216228,-5.963680402314047,40.5
,,0.02178513681365997,0.002515385745249773,0.00033586151236083026,0.024636384071270574,7.261833600453653,0.8842668124769352,0.10210044371661912,-5.9853291093587,40.6
,,0.02178513681365997,0.002515385745249773,0.00033586151236083026,0.024636384071270574,7.272435771788774,0.8842668124769352,0.10210044371661912,-5.9853291093587,40.7
,,0.02178513681365997,0.002515385745249773,0.00033586151236083026,0.024636384071270574,7.283037943123896,0.8842668124769352,0.10210044371661912,-5.9853291093587,40.8
,,0.02178513681365997,0.002515385745249773,0.00033586151236083026,0.024636384071270574,7.293640114459017,0.8842668124769352,0.10210044371661912,-5.9853291093587,40.9
,,0.02178513681365997,0.002515385745249773,0.00033586151236083026,0.024636384071270574,7.304242285794138,0.8842668124769352,0.10210044371661912,-5.9853291093587,41.0
,,0.021692238030037315,0.002434820224921371,0.00031975378771674783,0.024446812042675434,7.317604685364361,0.8873237947005272,0.09959663536787705,-6.017882354774203,41.1
,,0.021692238030037315,0.002434820224921371,0.00031975378771674783,0.024446812042675434,7.330698618815758,0.8873237947005272,0.09959663536787705,-6.017882354774203,41.2
,,0.025758303685682625,0.0026252842293844445,0.00025301053672904415,0.028636598451796114,7.3567524971733365,0.8994889434595903,0.09167584040414493,-5.942566110939434,41.3
,,0.021603379500692934,0.0024049339968754534,0.00031230523254244605,0.02432061873011083,7.373598775213428,0.8882742557016552,0.09888457294460017,-6.03023281992764,41.4
,,0.021603379500692934,0.0024049339968754534,0.00031230523254244605,0.02432061873011083,7.390445053253521,0.8882742557016552,0.09888457294460017,-6.03023281992764,41.5
,,0.021603379500692934,0.0024049339968754534,0.00031230523254244605,0.02432061873011083,7.407291331293613,0.8882742557016552,0.09888457294460017,-6.03023281992764,41.6
,,0.021603379500692934,0.0024049339968754534,0.00031230523254244605,0.02432061873011083,7.424137609333705,0.8882742557016552,0.09888457294460017,-6.03023281992764,41.7
,,0.02116485742983361,0.0023374357851268647,0.00022438734607840784,0.023726680561038882,7.441781581839983,0.8920277480613115,0.09851507795680119,-6.058700768782264,41.8
,,0.02116485742983361,0.0023374357851268647,0.00022438734607840784,0.023726680561038882,7.459209781032151,0.8920277480613115,0.09851507795680119,-6.058700768782264,41.9
,,0.02116485742983361,0.0023374357851268647,0.00022438734607840784,0.023726680561038882,7.479482254863844,0.8920277480613115,0.09851507795680119,-6.058700768782264,42.0
,,0.02559803165829036,0.0025066470841753215,0.00030353196585768827,0.02840821070832337,7.512613920729255,0.901078632551481,0.08823671120690804,-5.988809241883114,42.1
,,0.02559803165829036,0.0025066470841753215,0.00030353196585768827,0.02840821070832337,7.5457455865946645,0.901078632551481,0.08823671120690804,-5.988809241883114,42.2
,,0.02559803165829036,0.0025066470841753215,0.00030353196585768827,0.02840821070832337,7.5788772524600745,0.901078632551481,0.08823671120690804,-5.988809241883114,42.3
,,0.02559803165829036,0.0025066470841753215,0.00030353196585768827,0.02840821070832337,7.612008918325485,0.901078632551481,0.08823671120690804,-5.988809241883114,42.4
,,0.024868284596637487,0.0024352520354282967,0.00021302355246466308,0.02751656018453045,7.627482719631434,0.9037570259460774,0.088501324987466,-6.0177050224945265,42.5
,,0.024868284596637487,0.0024352520354282967,0.00021302355246466308,0.02751656018453045,7.642956520937381,0.9037570259460774,0.088501324987466,-6.0177050224945265,42.6
,,0.024868284596637487,0.0024352520354282967,0.00021302355246466308,0.02751656018453045,7.678413004244789,0.9037570259460774,0.088501324987466,-6.0177050224945265,42.7
,,0.02059287065216569,0.002194775311760465,0.00026040790690445387,0.023048053870830608,7.70465712503264,0.8934754651119514,0.09522605787285802,-6.121675601357178,42.8
,,0.02059287065216569,0.002194775311760465,0.00026040790690445387,0.023048053870830608,7.7309012458204895,0.8934754651119514,0.09522605787285802,-6.121675601357178,42.9
,,0.02059287065216569,0.002194775311760465,0.00026040790690445387,0.023048053870830608,7.75714536660834,0.8934754651119514,0.09522605787285802,-6.121675601357178,43.0
,,0.02059287065216569,0.002194775311760465,0.00026040790690445387,0.023048053870830608,7.783389487396191,0.8934754651119514,0.09522605787285802,-6.121675601357178,43.1
,,0.02436049753304003,0.0023629008615550277,0.0001939303144438945,0.02691732870903895,7.819509830055268,0.9050117044065994,0.08778363139584337,-6.047865236141176,43.2
,,0.02436049753304003,0.0023629008615550277,0.0001939303144438945,0.02691732870903895,7.8556301727143465,0.9050117044065994,0.08778363139584337,-6.047865236141176,43.3
,,0.02436049753304003,0.0023629008615550277,0.0001939303144438945,0.02691732870903895,7.894105284611182,0.9050117044065994,0.08778363139584337,-6.047865236141176,43.4
,,0.02436049753304003,0.0023629008615550277,0.0001939303144438945,0.02691732870903895,7.932580396508016,0.9050117044065994,0.08778363139584337,-6.047865236141176,43.5
,,0.01984504096882909,0.0021033940371784016,0.0002361592112953425,0.022184594217302834,7.96133549222287,0.8945415351952206,0.09481327522041684,-6.164203030731465,43.6
,,0.01984504096882909,0.0021033940371784016,0.0002361592112953425,0.022184594217302834,7.990090587937725,0.8945415351952206,0.09481327522041684,-6.164203030731465,43.7
,,0.01984504096882909,0.0021033940371784016,0.0002361592112953425,0.022184594217302834,8.018845683652579,0.8945415351952206,0.09481327522041684,-6.164203030731465,43.8
,,0.018947411374504074,0.002028575489628648,0.00016269246354600958,0.021138679327678732,8.045915619628602,0.896338464706949,0.09596510066607877,-6.200421461502624,43.9
,,0.018947411374504074,0.002028575489628648,0.00016269246354600958,0.021138679327678732,8.074847338511777,0.896338464706949,0.09596510066607877,-6.200421461502624,44.0
,,0.018947411374504074,0.002028575489628648,0.00016269246354600958,0.021138679327678732,8.103779057394954,0.896338464706949,0.09596510066607877,-6.200421461502624,44.1
,,0.018947411374504074,0.002028575489628648,0.00016269246354600958,0.021138679327678732,8.13271077627813,0.896338464706949,0.09596510066607877,-6.200421461502624,44.2
,,0.019011462008030833,0.0020274531563985124,0.0002138811168998549,0.021252796281329197,8.16205096335485,0.8945393235022254,0.09539700703665292,-6.200974876360717,44.3
,,0.019011462008030833,0.0020274531563985124,0.0002138811168998549,0.021252796281329197,8.19139115043157,0.8945393235022254,0.09539700703665292,-6.200974876360717,44.4
,,0.019011462008030833,0.0020274531563985124,0.0002138811168998549,0.021252796281329197,8.220731337508292,0.8945393235022254,0.09539700703665292,-6.200974876360717,44.5
,,0.018028804015315612,0.001956779801286645,0.0001454537069247726,0.02013103752352703,8.247402253237928,0.8955725205044921,0.09720213372012086,-6.2364551154034045,44.6
,,0.018028804015315612,0.001956779801286645,0.0001454537069247726,0.02013103752352703,8.275260393222913,0.8955725205044921,0.09720213372012086,-6.2364551154034045,44.7
,,0.018028804015315612,0.001956779801286645,0.0001454537069247726,0.02013103752352703,8.303118533207899,0.8955725205044921,0.09720213372012086,-6.2364551154034045,44.8
,,0.018028804015315612,0.001956779801286645,0.0001454537069247726,0.02013103752352703,8.330976673192884,0.8955725205044921,0.09720213372012086,-6.2364551154034045,44.9
,,0.018097028779404858,0.001964707194683044,0.00019380444646343749,0.02025554042055134,8.358807586452356,0.8934359885576566,0.09699603930042003,-6.232412055103474,45.0
,,0.018097028779404858,0.001964707194683044,0.00019380444646343749,0.02025554042055134,8.385783681507403,0.8934359885576566,0.09699603930042003,-6.232412055103474,45.1
,,0.018097028779404858,0.001964707194683044,0.00019380444646343749,0.02025554042055134,8.413614594766873,0.8934359885576566,0.09699603930042003,-6.232412055103474,45.2
,,0.02168684914132493,0.0021433089581755684,0.00013894448756519522,0.02396910258706569,8.450253388997735,0.9047835254803273,0.0894196580948404,-6.145404402011778,45.3
,,0.02168684914132493,0.0021433089581755684,0.00013894448756519522,0.02396910258706569,8.472333287848633,0.9047835254803273,0.0894196580948404,-6.145404402011778,45.4
,,0.02168684914132493,0.0021433089581755684,0.00013894448756519522,0.02396910258706569,8.49441318669953,0.9047835254803273,0.0894196580948404,-6.145404402011778,45.5
,,0.02168684914132493,0.0021433089581755684,0.00013894448756519522,0.02396910258706569,8.516493085550428,0.9047835254803273,0.0894196580948404,-6.145404402011778,45.6
,,0.01720503939842849,0.00192009993945241,0.0001763751947904177,0.01930151453267132,8.525707378245873,0.8913828689093717,0.09947923704133642,-6.255378042498965,45.7
,,0.01720503939842849,0.00192009993945241,0.0001763751947904177,0.01930151453267132,8.534921670941316,0.8913828689093717,0.09947923704133642,-6.255378042498965,45.8
,,0.01720503939842849,0.00192009993945241,0.0001763751947904177,0.01930151453267132,8.544135963636759,0.8913828689093717,0.09947923704133642,-6.255378042498965,45.9
,,0.01602689748019594,0.0018485019351793593,0.00011701949734932093,0.01799241891272462,8.563537963773957,0.8907583553905238,0.10273782219866276,-6.293379732696407,46.0
,,0.01602689748019594,0.0018485019351793593,0.00011701949734932093,0.01799241891272462,8.582723761975721,0.8907583553905238,0.10273782219866276,-6.293379732696407,46.1
,,0.01602689748019594,0.0018485019351793593,0.00011701949734932093,0.01799241891272462,8.601909560177486,0.8907583553905238,0.10273782219866276,-6.293379732696407,46.2
,,0.01602689748019594,0.0018485019351793593,0.00011701949734932093,0.01799241891272462,8.621095358379248,0.8907583553905238,0.10273782219866276,-6.293379732696407,46.3
,,0.01602689748019594,0.0018485019351793593,0.00011701949734932093,0.01799241891272462,8.640281156581013,0.8907583553905238,0.10273782219866276,-6.293379732696407,46.4
,,0.016253333894144243,0.001886668101412552,0.00016187259509026916,0.018301874590647065,8.658851688990847,0.8880693512374026,0.10308605777337744,-6.272942914969428,46.5
,,0.016253333894144243,0.001886668101412552,0.00016187259509026916,0.018301874590647065,8.67742222140068,0.8880693512374026,0.10308605777337744,-6.272942914969428,46.6
,,0.014716700497523376,0.001782373095409975,0.00015796039536933274,0.016657033988302684,8.692014604567746,0.8835126654516106,0.10700422996444849,-6.329809602931199,46.7
,,0.014716700497523376,0.001782373095409975,0.00015796039536933274,0.016657033988302684,8.732998652598146,0.8835126654516106,0.10700422996444849,-6.329809602931199,46.8
,,0.014716700497523376,0.001782373095409975,0.00015796039536933274,0.016657033988302684,8.773982700628546,0.8835126654516106,0.10700422996444849,-6.329809602931199,46.9
,,0.014716700497523376,0.001782373095409975,0.00015796039536933274,0.016657033988302684,8.814966748658946,0.8835126654516106,0.10700422996444849,-6.329809602931199,47.0
,,0.014716700497523376,0.001782373095409975,0.00015796039536933274,0.016657033988302684,8.855950796689347,0.8835126654516106,0.10700422996444849,-6.329809602931199,47.1
,,0.01912595862218892,0.0019567719854358726,0.00015419440560608184,0.021236925013230875,8.913795272473378,0.9005992444891717,0.09214008074223451,-6.23645910965272,47.2
,,0.01912595862218892,0.0019567719854358726,0.00015419440560608184,0.021236925013230875,8.971639748257406,0.9005992444891717,0.09214008074223451,-6.23645910965272,47.3
,,0.013463438682986611,0.001736739275511725,0.0001456136843093274,0.015345791642807664,8.96282094090198,0.8773375135258478,0.11317365150892739,-6.355745903443184,47.4
,,0.013463438682986611,0.001736739275511725,0.0001456136843093274,0.015345791642807664,8.96528802444563,0.8773375135258478,0.11317365150892739,-6.355745903443184,47.5
,,0.013463438682986611,0.001736739275511725,0.0001456136843093274,0.015345791642807664,8.96775510798928,0.8773375135258478,0.11317365150892739,-6.355745903443184,47.6
,,0.013463438682986611,0.001736739275511725,0.0001456136843093274,0.015345791642807664,8.970222191532931,0.8773375135258478,0.11317365150892739,-6.355745903443184,47.7
,,0.013463438682986611,0.001736739275511725,0.0001456136843093274,0.015345791642807664,8.972689275076581,0.8773375135258478,0.11317365150892739,-6.355745903443184,47.8
,,0.013463438682986611,0.001736739275511725,0.0001456136843093274,0.015345791642807664,8.975156358620232,0.8773375135258478,0.11317365150892739,-6.355745903443184,47.9
,,0.017779495019398385,0.0018790505475746312,0.0001427759121792755,0.01980132147915229,8.996621452953677,0.8978943672076344,0.09489520937039374,-6.276988657595649,48.0
,,0.012363993754909286,0.001723629654875464,0.0001367199067780025,0.014224343316562752,8.991251074643268,0.8692136768459965,0.12117463819004413,-6.363322947174809,48.1
,,0.012363993754909286,0.001723629654875464,0.0001367199067780025,0.014224343316562752,8.983159335805528,0.8692136768459965,0.12117463819004413,-6.363322947174809,48.2
,,0.012363993754909286,0.001723629654875464,0.0001367199067780025,0.014224343316562752,8.975067596967788,0.8692136768459965,0.12117463819004413,-6.363322947174809,48.3
,,0.012363993754909286,0.001723629654875464,0.0001367199067780025,0.014224343316562752,8.966975858130047,0.8692136768459965,0.12117463819004413,-6.363322947174809,48.4
,,0.012363993754909286,0.001723629654875464,0.0001367199067780025,0.014224343316562752,8.958884119292307,0.8692136768459965,0.12117463819004413,-6.363322947174809,48.5
,,0.012363993754909286,0.001723629654875464,0.0001367199067780025,0.014224343316562752,8.950792380454565,0.8692136768459965,0.12117463819004413,-6.363322947174809,48.6
,,0.012363993754909286,0.001723629654875464,0.0001367199067780025,0.014224343316562752,8.942700641616824,0.8692136768459965,0.12117463819004413,-6.363322947174809,48.7
,,0.014320519591951363,0.0016753665319468797,0.00012795504606005905,0.0161238411699583,8.935677569068295,0.8881580661209403,0.10390616691687571,-6.391723312600901,48.8
,,0.014320519591951363,0.0016753665319468797,0.00012795504606005905,0.0161238411699583,8.938587360758541,0.8881580661209403,0.10390616691687571,-6.391723312600901,48.9
,,0.014320519591951363,0.0016753665319468797,0.00012795504606005905,0.0161238411699583,8.941497152448786,0.8881580661209403,0.10390616691687571,-6.391723312600901,49.0
,,0.014320519591951363,0.0016753665319468797,0.00012795504606005905,0.0161238411699583,8.94440694413903,0.8881580661209403,0.10390616691687571,-6.391723312600901,49.1
,,0.014320519591951363,0.0016753665319468797,0.00012795504606005905,0.0161238411699583,8.947316735829276,0.8881580661209403,0.10390616691687571,-6.391723312600901,49.2
,,0.014320519591951363,0.0016753665319468797,0.00012795504606005905,0.0161238411699583,8.950226527519522,0.8881580661209403,0.10390616691687571,-6.391723312600901,49.3
,,0.014320519591951363,0.0016753665319468797,0.00012795504606005905,0.0161238411699583,8.953136319209767,0.8881580661209403,0.10390616691687571,-6.391723312600901,49.4
,,0.012720404852423439,0.0015857937247888909,0.00012365458239479228,0.014429853159607122,8.948631963730312,0.8815339083304832,0.10989673333807277,-6.446670224260245,49.5
,,0.012720404852423439,0.0015857937247888909,0.00012365458239479228,0.014429853159607122,8.941528866174838,0.8815339083304832,0.10989673333807277,-6.446670224260245,49.6
,,0.012720404852423439,0.0015857937247888909,0.00012365458239479228,0.014429853159607122,8.934425768619365,0.8815339083304832,0.10989673333807277,-6.446670224260245,49.7
,,0.012720404852423439,0.0015857937247888909,0.00012365458239479228,0.014429853159607122,8.927322671063893,0.8815339083304832,0.10989673333807277,-6.446670224260245,49.8
,,0.012720404852423439,0.0015857937247888909,0.00012365458239479228,0.014429853159607122,8.920219573508417,0.8815339083304832,0.10989673333807277,-6.446670224260245,49.9
,,0.012720404852423439,0.0015857937247888909,0.00012365458239479228,0.014429853159607122,8.913116475952945,0.8815339083304832,0.10989673333807277,-6.446670224260245,50.0
,,0.012720404852423439,0.0015857937247888909,0.00012365458239479228,0.014429853159607122,8.90325315016237,0.8815339083304832,0.10989673333807277,-6.446670224260245,50.1
,,0.010430408244035988,0.001836225278955415,0.00012771407558603867,0.012394347598577441,8.86737735962351,0.8415455643049042,0.14815021640720866,-6.300043293354877,50.2
,,0.009249977227178303,0.001821785258762032,0.00013157835633228587,0.01120334084227262,8.814775135507743,0.8256445427667563,0.16261089298363962,-6.307938347264942,50.3
,,0.009249977227178303,0.001821785258762032,0.00013157835633228587,0.01120334084227262,8.771380511709463,0.8256445427667563,0.16261089298363962,-6.307938347264942,50.4
,,0.009249977227178303,0.001821785258762032,0.00013157835633228587,0.01120334084227262,8.727985887911181,0.8256445427667563,0.16261089298363962,-6.307938347264942,50.5
,,0.009249977227178303,0.001821785258762032,0.00013157835633228587,0.01120334084227262,8.684591264112903,0.8256445427667563,0.16261089298363962,-6.307938347264942,50.6
,,0.009249977227178303,0.001821785258762032,0.00013157835633228587,0.01120334084227262,8.641196640314623,0.8256445427667563,0.16261089298363962,-6.307938347264942,50.7
,,0.009249977227178303,0.001821785258762032,0.00013157835633228587,0.01120334084227262,8.597004322050157,0.8256445427667563,0.16261089298363962,-6.307938347264942,50.8
,,0.008165369244850647,0.001828832149256177,9.466886569970239e-05,0.010088870259806527,8.546005060909948,0.8093442610101751,0.18127224378552453,-6.304077685651201,50.9
,,0.00825101481105122,0.001901211786155755,0.00013500274540468403,0.01028722934261166,8.493617708371177,0.8020638537603073,0.1848128123556626,-6.265263813919128,51.0
,,0.00825101481105122,0.001901211786155755,0.00013500274540468403,0.01028722934261166,8.428371163798685,0.8020638537603073,0.1848128123556626,-6.265263813919128,51.1
,,0.00825101481105122,0.001901211786155755,0.00013500274540468403,0.01028722934261166,8.363124619226193,0.8020638537603073,0.1848128123556626,-6.265263813919128,51.2
,,0.00825101481105122,0.001901211786155755,0.00013500274540468403,0.01028722934261166,8.297878074653703,0.8020638537603073,0.1848128123556626,-6.265263813919128,51.3
,,0.00825101481105122,0.001901211786155755,0.00013500274540468403,0.01028722934261166,8.232631530081212,0.8020638537603073,0.1848128123556626,-6.265263813919128,51.4
,,0.009366676019525419,0.0013829333623714976,0.00012465367611276754,0.010874263058009684,8.194423291407297,0.8613619120264138,0.12717490417457455,-6.583548410850469,51.5
,,0.007235409581301155,0.0019326994070328982,0.00010014101367805073,0.009268250002012104,8.122555400841167,0.7806662077231811,0.2085290542026074,-6.248837596780526,51.6
,,0.00727522485675617,0.0020007047781586086,0.00014025526089827422,0.009416184895813053,8.049494735463211,0.7726297791785216,0.21247509477519186,-6.214255771417337,51.7
,,0.00727522485675617,0.0020007047781586086,0.00014025526089827422,0.009416184895813053,7.9856464326048116,0.7726297791785216,0.21247509477519186,-6.214255771417337,51.8
,,0.00727522485675617,0.0020007047781586086,0.00014025526089827422,0.009416184895813053,7.9217981297464135,0.7726297791785216,0.21247509477519186,-6.214255771417337,51.9
,,0.00727522485675617,0.0020007047781586086,0.00014025526089827422,0.009416184895813053,7.857949826888013,0.7726297791785216,0.21247509477519186,-6.214255771417337,52.0
,,0.00727522485675617,0.0020007047781586086,0.00014025526089827422,0.009416184895813053,7.794101524029614,0.7726297791785216,0.21247509477519186,-6.214255771417337,52.1
,,0.00727522485675617,0.0020007047781586086,0.00014025526089827422,0.009416184895813053,7.719954397515029,0.7726297791785216,0.21247509477519186,-6.214255771417337,52.2
,,0.00635189370005816,0.0020544050418376783,0.0001069455771133816,0.00851324431900922,7.639757381622975,0.7461190425223694,0.2413186988244186,-6.187768990306107,52.3
,,0.006357839833236725,0.0021157837487663085,0.00014739219092131247,0.008621015772924347,7.558594991560735,0.7374815219807994,0.2454216306402384,-6.158329968334232,52.4
,,0.006357839833236725,0.0021157837487663085,0.00014739219092131247,0.008621015772924347,7.4774326014984975,0.7374815219807994,0.2454216306402384,-6.158329968334232,52.5
,,0.006357839833236725,0.0021157837487663085,0.00014739219092131247,0.008621015772924347,7.405990227618239,0.7374815219807994,0.2454216306402384,-6.158329968334232,52.6
,,0.006357839833236725,0.0021157837487663085,0.00014739219092131247,0.008621015772924347,7.334547853737979,0.7374815219807994,0.2454216306402384,-6.158329968334232,52.7
,,0.006357839833236725,0.0021157837487663085,0.00014739219092131247,0.008621015772924347,7.263105479857721,0.7374815219807994,0.2454216306402384,-6.158329968334232,52.8
,,0.006357839833236725,0.0021157837487663085,0.00014739219092131247,0.008621015772924347,7.192713288652119,0.7374815219807994,0.2454216306402384,-6.158329968334232,52.9
,,0.005873676639135385,0.0013007882122021831,0.0001024922111618064,0.007276957062499375,7.139104627268552,0.8071610961406424,0.1787544163075505,-6.644784881171979,53.0
,,0.005873676639135385,0.0013007882122021831,0.0001024922111618064,0.007276957062499375,7.085495965884987,0.8071610961406424,0.1787544163075505,-6.644784881171979,53.1
,,0.0054997604791097955,0.002226341038020252,0.00015563780407839897,0.007881739321208447,7.009163288733825,0.6977851277459604,0.28246824048462743,-6.10739583120593,53.2
,,0.0054997604791097955,0.002226341038020252,0.00015563780407839897,0.007881739321208447,6.932422143389119,0.6977851277459604,0.28246824048462743,-6.10739583120593,53.3
,,0.0054997604791097955,0.002226341038020252,0.00015563780407839897,0.007881739321208447,6.855680998044412,0.6977851277459604,0.28246824048462743,-6.10739583120593,53.4
,,0.0054997604791097955,0.002226341038020252,0.00015563780407839897,0.007881739321208447,6.778939852699706,0.6977851277459604,0.28246824048462743,-6.10739583120593,53.5
,,0.0054997604791097955,0.002226341038020252,0.00015563780407839897,0.007881739321208447,6.704015483427559,0.6977851277459604,0.28246824048462743,-6.10739583120593,53.6
,,0.004734589615059721,0.002288602649033267,0.00012152595161831967,0.007144718215711308,6.624629504908806,0.6626698873369576,0.32032091118731687,-6.079813844590607,53.7
,,0.004734589615059721,0.002288602649033267,0.00012152595161831967,0.007144718215711308,6.5452435263900535,0.6626698873369576,0.32032091118731687,-6.079813844590607,53.8
,,0.004686186635208756,0.002316790044871962,0.00016447900868467915,0.007167455688765398,6.4653457469114795,0.653814524804681,0.3232374423330452,-6.067572652712374,53.9
,,0.004686186635208756,0.002316790044871962,0.00016447900868467915,0.007167455688765398,6.385475194158419,0.653814524804681,0.3232374423330452,-6.067572652712374,54.0
,,0.004686186635208756,0.002316790044871962,0.00016447900868467915,0.007167455688765398,6.305604641405358,0.653814524804681,0.3232374423330452,-6.067572652712374,54.1
,,0.004686186635208756,0.002316790044871962,0.00016447900868467915,0.007167455688765398,6.225734088652297,0.653814524804681,0.3232374423330452,-6.067572652712374,54.2
,,0.004686186635208756,0.002316790044871962,0.00016447900868467915,0.007167455688765398,6.135781982960777,0.653814524804681,0.3232374423330452,-6.067572652712374,54.3
,,0.004003046228103005,0.002361069631591279,0.00012989829774492695,0.006494014157439211,6.042193554461367,0.6164209271883584,0.36357629878070996,-6.048640528898881,54.4
,,0.004003046228103005,0.002361069631591279,0.00012989829774492695,0.006494014157439211,5.948605125961956,0.6164209271883584,0.36357629878070996,-6.048640528898881,54.5
,,0.00378623085318632,0.0011393153501199516,0.00014246110425456137,0.005068007307560833,5.873103512796874,0.7470847264836689,0.22480538818881252,-6.7773277670603935,54.6
,,0.00378623085318632,0.0011393153501199516,0.00014246110425456137,0.005068007307560833,5.810467505787248,0.7470847264836689,0.22480538818881252,-6.7773277670603935,54.7
,,0.00378623085318632,0.0011393153501199516,0.00014246110425456137,0.005068007307560833,5.747831498777622,0.7470847264836689,0.22480538818881252,-6.7773277670603935,54.8
,,0.00378623085318632,0.0011393153501199516,0.00014246110425456137,0.005068007307560833,5.685195491767995,0.7470847264836689,0.22480538818881252,-6.7773277670603935,54.9
,,0.003369733282886438,0.002399775354407567,0.00013921614241341592,0.005908724779707422,5.604461917468828,0.5702978914264636,0.40614099384848906,-6.032380148339389,55.0
,,0.003369733282886438,0.002399775354407567,0.00013921614241341592,0.005908724779707422,5.52372834316966,0.5702978914264636,0.40614099384848906,-6.032380148339389,55.1
,,0.003369733282886438,0.002399775354407567,0.00013921614241341592,0.005908724779707422,5.4429947688704905,0.5702978914264636,0.40614099384848906,-6.032380148339389,55.2
,,0.003369733282886438,0.002399775354407567,0.00013921614241341592,0.005908724779707422,5.362261194571323,0.5702978914264636,0.40614099384848906,-6.032380148339389,55.3
,,0.0030490951692577874,0.0010823470204769214,0.00014296554949389895,0.004274407739228608,5.297226811807555,0.7133374622347213,0.25321567021873537,-6.828623428649915,55.4
,,0.0030490951692577874,0.0010823470204769214,0.00014296554949389895,0.004274407739228608,5.232807694835717,0.7133374622347213,0.25321567021873537,-6.828623428649915,55.5
,,0.0030490951692577874,0.0010823470204769214,0.00014296554949389895,0.004274407739228608,5.1683885778638805,0.7133374622347213,0.25321567021873537,-6.828623428649915,55.6
,,0.002508943799672228,0.0010743238427135854,0.00013516335668250758,0.003718430999068321,5.102594898028431,0.6747318426241772,0.2889185903900771,-6.836063798817878,55.7
,,0.002508943799672228,0.0010743238427135854,0.00013516335668250758,0.003718430999068321,5.0368012181929815,0.6747318426241772,0.2889185903900771,-6.836063798817878,55.8
,,0.002508943799672228,0.0010743238427135854,0.00013516335668250758,0.003718430999068321,4.971007538357532,0.6747318426241772,0.2889185903900771,-6.836063798817878,55.9
,,0.002508943799672228,0.0010743238427135854,0.00013516335668250758,0.003718430999068321,4.905213858522083,0.6747318426241772,0.2889185903900771,-6.836063798817878,56.0
,,0.0028454424510987943,0.0023795176301360976,0.00020467014470368426,0.005429630225938576,4.826758359781289,0.5240582383502784,0.4382467186749848,-6.040857488253798,56.1
,,0.0028454424510987943,0.0023795176301360976,0.00020467014470368426,0.005429630225938576,4.731442433286867,0.5240582383502784,0.4382467186749848,-6.040857488253798,56.2
,,0.002119998422097332,0.001060196661580496,0.00013563305380008743,0.003315828137477915,4.645057852393483,0.6393571482597542,0.31973812200861007,-6.8493008582737644,56.3
,,0.002119998422097332,0.001060196661580496,0.00013563305380008743,0.003315828137477915,4.581141093928943,0.6393571482597542,0.31973812200861007,-6.8493008582737644,56.4
,,0.002119998422097332,0.001060196661580496,0.00013563305380008743,0.003315828137477915,4.5172243354644035,0.6393571482597542,0.31973812200861007,-6.8493008582737644,56.5
,,0.002119998422097332,0.001060196661580496,0.00013563305380008743,0.003315828137477915,4.4533075769998645,0.6393571482597542,0.31973812200861007,-6.8493008582737644,56.6
,,0.002119998422097332,0.001060196661580496,0.00013563305380008743,0.003315828137477915,4.3893908185353245,0.6393571482597542,0.31973812200861007,-6.8493008582737644,56.7
,,0.002119998422097332,0.001060196661580496,0.00013563305380008743,0.003315828137477915,4.325474060070785,0.6393571482597542,0.31973812200861007,-6.8493008582737644,56.8
,,0.0021060830185048174,0.0010206299355171975,0.00014095783189920714,0.003267670785921222,4.262267138938484,0.6445211762393225,0.3123417266863563,-6.887335258471986,56.9
,,0.0023226738113317955,0.0024151871972101125,0.00021773946920422725,0.004955600477746135,4.1678197877730865,0.4686967445745696,0.4873651958134784,-6.025978480508967,57.0
,,0.0023226738113317955,0.0024151871972101125,0.00021773946920422725,0.004955600477746135,4.098802722232435,0.4686967445745696,0.4873651958134784,-6.025978480508967,57.1
,,0.0023226738113317955,0.0024151871972101125,0.00021773946920422725,0.004955600477746135,4.029785656691783,0.4686967445745696,0.4873651958134784,-6.025978480508967,57.2
,,0.0023226738113317955,0.0024151871972101125,0.00021773946920422725,0.004955600477746135,3.960768591151132,0.4686967445745696,0.4873651958134784,-6.025978480508967,57.3
,,0.0023226738113317955,0.0024151871972101125,0.00021773946920422725,0.004955600477746135,3.8917515256104807,0.4686967445745696,0.4873651958134784,-6.025978480508967,57.4
,,0.0023226738113317955,0.0024151871972101125,0.00021773946920422725,0.004955600477746135,3.822734460069829,0.4686967445745696,0.4873651958134784,-6.025978480508967,57.5
,,0.0023323571143182816,0.002356465391333254,0.00024984236643851377,0.004938664872090048,3.754029329604474,0.47226470609479226,0.47714624344129575,-6.050592498178417,57.6
,,0.0023323571143182816,0.002356465391333254,0.00024984236643851377,0.004938664872090048,3.685324199139119,0.47226470609479226,0.47714624344129575,-6.050592498178417,57.7
,,0.002242558628561407,0.002410128211466062,0.00024329710682267054,0.0048959839468501395,3.6006884131999124,0.45804043740873995,0.4922663631314871,-6.028075333116182,57.8
,,0.002242558628561407,0.002410128211466062,0.00024329710682267054,0.0048959839468501395,3.5160526272607058,0.45804043740873995,0.4922663631314871,-6.028075333116182,57.9
,,0.002242558628561407,0.002410128211466062,0.00024329710682267054,0.0048959839468501395,3.431416841321499,0.45804043740873995,0.4922663631314871,-6.028075333116182,58.0
,,0.002242558628561407,0.002410128211466062,0.00024329710682267054,0.0048959839468501395,3.3467810553822934,0.45804043740873995,0.4922663631314871,-6.028075333116182,58.1
,,0.002242558628561407,0.002410128211466062,0.00024329710682267054,0.0048959839468501395,3.2621452694430864,0.45804043740873995,0.4922663631314871,-6.028075333116182,58.2
,,0.002242558628561407,0.002410128211466062,0.00024329710682267054,0.0048959839468501395,3.17750948350388,0.45804043740873995,0.4922663631314871,-6.028075333116182,58.3
,,0.0017376479372878376,0.001026467787816485,0.00014165836453456054,0.002905774089638883,3.101344468663254,0.5979982901918521,0.3532510636241684,-6.881631702595343,58.4
,,0.0023061905671024115,0.0024720512243104524,0.0002326666107541734,0.005010908402167037,3.022582586116363,0.46023402984278605,0.49333394784095025,-6.002707017792951,58.5
,,0.0023061905671024115,0.0024720512243104524,0.0002326666107541734,0.005010908402167037,2.943820703569472,0.46023402984278605,0.49333394784095025,-6.002707017792951,58.6
,,0.0023061905671024115,0.0024720512243104524,0.0002326666107541734,0.005010908402167037,2.8650588210225805,0.46023402984278605,0.49333394784095025,-6.002707017792951,58.7
,,0.0023061905671024115,0.0024720512243104524,0.0002326666107541734,0.005010908402167037,2.7862969384756893,0.46023402984278605,0.49333394784095025,-6.002707017792951,58.8
,,0.0023061905671024115,0.0024720512243104524,0.0002326666107541734,0.005010908402167037,2.707535055928798,0.46023402984278605,0.49333394784095025,-6.002707017792951,58.9
,,0.002402422819318291,0.002490952766874293,0.0003198011697530212,0.0052131767559456055,2.6291237705836026,0.4608366322086314,0.47781858998611015,-5.995090004393591,59.0
,,0.002374308722010087,0.0024480794456517283,0.0003217374700946084,0.0051441256377564235,2.550772557183655,0.4615572964593505,0.4758980666575325,-6.012451461569549,59.1
,,0.00257217600567835,0.002687656226837399,0.00027794222010604357,0.005537774452621792,2.4982912222504683,0.46447828955196696,0.485331472025727,-5.919085756301651,59.2
,,0.00257217600567835,0.002687656226837399,0.00027794222010604357,0.005537774452621792,2.4525090949936654,0.46447828955196696,0.485331472025727,-5.919085756301651,59.3
,,0.00257217600567835,0.002687656226837399,0.00027794222010604357,0.005537774452621792,2.406726967736863,0.46447828955196696,0.485331472025727,-5.919085756301651,59.4
,,0.00257217600567835,0.002687656226837399,0.00027794222010604357,0.005537774452621792,2.3609448404800606,0.46447828955196696,0.485331472025727,-5.919085756301651,59.5
,,0.00257217600567835,0.002687656226837399,0.00027794222010604357,0.005537774452621792,2.3151627132232577,0.46447828955196696,0.485331472025727,-5.919085756301651,59.6
,,0.00257217600567835,0.002687656226837399,0.00027794222010604357,0.005537774452621792,2.2693805859664553,0.46447828955196696,0.485331472025727,-5.919085756301651,59.7
,,0.00257217600567835,0.002687656226837399,0.00027794222010604357,0.005537774452621792,2.2235984587096524,0.46447828955196696,0.485331472025727,-5.919085756301651,59.8
,,0.0026411329458852564,0.0026638856595920645,0.00038353270227272946,0.00568855130775005,2.185005782238285,0.46428920176688776,0.468288939569342,-5.927969447798658,59.9
,,0.0029221214420645696,0.002952543156095086,0.0003354252395779888,0.006210089837737644,2.1477816150785065,0.470544149668712,0.4754429055362437,-5.825088393201923,60.0
,,0.0029221214420645696,0.002952543156095086,0.0003354252395779888,0.006210089837737644,2.1105574479187275,0.470544149668712,0.4754429055362437,-5.825088393201923,60.1
,,0.0029221214420645696,0.002952543156095086,0.0003354252395779888,0.006210089837737644,2.073333280758949,0.470544149668712,0.4754429055362437,-5.825088393201923,60.2
,,0.0029221214420645696,0.002952543156095086,0.0003354252395779888,0.006210089837737644,2.03610911359917,0.470544149668712,0.4754429055362437,-5.825088393201923,60.3
,,0.0029221214420645696,0.002952543156095086,0.0003354252395779888,0.006210089837737644,1.9988849464393916,0.470544149668712,0.4754429055362437,-5.825088393201923,60.4
,,0.0029221214420645696,0.002952543156095086,0.0003354252395779888,0.006210089837737644,1.9346254687586326,0.470544149668712,0.4754429055362437,-5.825088393201923,60.5
,,0.0029870636417561837,0.00292186154275085,0.00046138683475987786,0.006370312019266911,1.904388074331472,0.4689038202087834,0.4586685132398106,-5.835534351187377,60.6
,,0.0029870636417561837,0.00292186154275085,0.00046138683475987786,0.006370312019266911,1.8753434547161374,0.4689038202087834,0.4586685132398106,-5.835534351187377,60.7
,,0.0029870636417561837,0.00292186154275085,0.00046138683475987786,0.006370312019266911,1.8462988351008027,0.4689038202087834,0.4586685132398106,-5.835534351187377,60.8
,,0.002303971316785992,0.0017551731326484168,0.00015478155119124295,0.004213926000625652,1.820480431181873,0.5467517266425457,0.41651731245110185,-6.345187775848287,60.9
,,0.002303971316785992,0.0017551731326484168,0.00015478155119124295,0.004213926000625652,1.7946620272629432,0.5467517266425457,0.41651731245110185,-6.345187775848287,61.0
,,0.002303971316785992,0.0017551731326484168,0.00015478155119124295,0.004213926000625652,1.7688436233440137,0.5467517266425457,0.41651731245110185,-6.345187775848287,61.1
,,0.002303971316785992,0.0017551731326484168,0.00015478155119124295,0.004213926000625652,1.7430252194250841,0.5467517266425457,0.41651731245110185,-6.345187775848287,61.2
,,0.002303971316785992,0.0017551731326484168,0.00015478155119124295,0.004213926000625652,1.7232567048836225,0.5467517266425457,0.41651731245110185,-6.345187775848287,61.3
,,0.003340263124670854,0.003184866722969402,0.0005433648042231569,0.007068494651863413,1.7015215361613665,0.4725565044871734,0.45057213449681255,-5.749344836055084,61.4
,,0.003340263124670854,0.003184866722969402,0.0005433648042231569,0.007068494651863413,1.6797863674391105,0.4725565044871734,0.45057213449681255,-5.749344836055084,61.5
,,0.003340263124670854,0.003184866722969402,0.0005433648042231569,0.007068494651863413,1.6580511987168545,0.4725565044871734,0.45057213449681255,-5.749344836055084,61.6
,,0.003340263124670854,0.003184866722969402,0.0005433648042231569,0.007068494651863413,1.636316029994598,0.4725565044871734,0.45057213449681255,-5.749344836055084,61.7
,,0.003650407309964975,0.003497125293375944,0.0004723655908047125,0.007619898194145631,1.61452573617664,0.47906247786480716,0.45894645889925223,-5.655813992724907,61.8
,,0.003650407309964975,0.003497125293375944,0.0004723655908047125,0.007619898194145631,1.592735442358682,0.47906247786480716,0.45894645889925223,-5.655813992724907,61.9
,,0.003650407309964975,0.003497125293375944,0.0004723655908047125,0.007619898194145631,1.5541616187186866,0.47906247786480716,0.45894645889925223,-5.655813992724907,62.0
,,0.003742880424361784,0.0035099177435813115,0.0006337359680577595,0.007886534136000855,1.5158382598279168,0.4745912919182194,0.44505199407672114,-5.652162676656083,62.1
,,0.003742880424361784,0.0035099177435813115,0.0006337359680577595,0.007886534136000855,1.5002389167047419,0.4745912919182194,0.44505199407672114,-5.652162676656083,62.2
,,0.003742880424361784,0.0035099177435813115,0.0006337359680577595,0.007886534136000855,1.4846395735815674,0.4745912919182194,0.44505199407672114,-5.652162676656083,62.3
,,0.003742880424361784,0.0035099177435813115,0.0006337359680577595,0.007886534136000855,1.469040230458393,0.4745912919182194,0.44505199407672114,-5.652162676656083,62.4
,,0.003742880424361784,0.0035099177435813115,0.0006337359680577595,0.007886534136000855,1.4534408873352185,0.4745912919182194,0.44505199407672114,-5.652162676656083,62.5
,,0.0022399302060389097,0.003450541748836862,0.0008066123176527669,0.006497084272528538,1.4332057720673201,0.34475929695262714,0.531090809984827,-5.669224031618211,62.6
,,0.0022399302060389097,0.003450541748836862,0.0008066123176527669,0.006497084272528538,1.4174322660460268,0.34475929695262714,0.531090809984827,-5.669224031618211,62.7
,,0.004093879734361146,0.0038096467592758938,0.0007208394673084386,0.008624365960945478,1.4063860439300433,0.47468761795357983,0.44173064739222256,-5.5702188082425605,62.8
,,0.004093879734361146,0.0038096467592758938,0.0007208394673084386,0.008624365960945478,1.3958516227738815,0.47468761795357983,0.44173064739222256,-5.5702188082425605,62.9
,,0.004093879734361146,0.0038096467592758938,0.0007208394673084386,0.008624365960945478,1.38531720161772,0.47468761795357983,0.44173064739222256,-5.5702188082425605,63.0
,,0.004093879734361146,0.0038096467592758938,0.0007208394673084386,0.008624365960945478,1.3747827804615582,0.47468761795357983,0.44173064739222256,-5.5702188082425605,63.1
,,0.004093879734361146,0.0038096467592758938,0.0007208394673084386,0.008624365960945478,1.3642483593053967,0.47468761795357983,0.44173064739222256,-5.5702188082425605,63.2
,,0.004093879734361146,0.0038096467592758938,0.0007208394673084386,0.008624365960945478,1.353713938149235,0.47468761795357983,0.44173064739222256,-5.5702188082425605,63.3
,,0.004093879734361146,0.0038096467592758938,0.0007208394673084386,0.008624365960945478,1.3468158398009646,0.47468761795357983,0.44173064739222256,-5.5702188082425605,63.4
,,0.004365564179435404,0.004067716524058518,0.0007928094647724547,0.009226090168266376,1.3399023367362708,0.47317597159964814,0.44089277796673215,-5.504673487575287,63.5
,,0.004365564179435404,0.004067716524058518,0.0007928094647724547,0.009226090168266376,1.3149020183372468,0.47317597159964814,0.44089277796673215,-5.504673487575287,63.6
,,0.004365564179435404,0.004067716524058518,0.0007928094647724547,0.009226090168266376,1.289901699938223,0.47317597159964814,0.44089277796673215,-5.504673487575287,63.7
,,0.004365564179435404,0.004067716524058518,0.0007928094647724547,0.009226090168266376,1.264901381539199,0.47317597159964814,0.44089277796673215,-5.504673487575287,63.8
,,0.004365564179435404,0.004067716524058518,0.0007928094647724547,0.009226090168266376,1.239901063140175,0.47317597159964814,0.44089277796673215,-5.504673487575287,63.9
,,0.004365564179435404,0.004067716524058518,0.0007928094647724547,0.009226090168266376,1.2362236781827027,0.47317597159964814,0.44089277796673215,-5.504673487575287,64.0
,,0.004365564179435404,0.004067716524058518,0.0007928094647724547,0.009226090168266376,1.2325462932252305,0.47317597159964814,0.44089277796673215,-5.504673487575287,64.1
,,0.004365564179435404,0.004067716524058518,0.0007928094647724547,0.009226090168266376,1.2288689082677584,0.47317597159964814,0.44089277796673215,-5.504673487575287,64.2
,,0.004539843664320689,0.004269433955487364,0.0008382279172463767,0.00964750553705443,1.2250816774566344,0.47057176042904775,0.44254278363346816,-5.456274023646584,64.3
,,0.004539843664320689,0.004269433955487364,0.0008382279172463767,0.00964750553705443,1.2055952551101095,0.47057176042904775,0.44254278363346816,-5.456274023646584,64.4
,,0.004539843664320689,0.004269433955487364,0.0008382279172463767,0.00964750553705443,1.1861088327635847,0.47057176042904775,0.44254278363346816,-5.456274023646584,64.5
,,0.004539843664320689,0.004269433955487364,0.0008382279172463767,0.00964750553705443,1.16662241041706,0.47057176042904775,0.44254278363346816,-5.456274023646584,64.6
,,0.004539843664320689,0.004269433955487364,0.0008382279172463767,0.00964750553705443,1.152488700176916,0.47057176042904775,0.44254278363346816,-5.456274023646584,64.7
,,0.004539843664320689,0.004269433955487364,0.0008382279172463767,0.00964750553705443,1.138354989936772,0.47057176042904775,0.44254278363346816,-5.456274023646584,64.8
,,0.004599958675910015,0.004306613083172879,0.0008633327068876828,0.009769904465970577,1.1242743791688479,0.47082944279875705,0.4408040117662547,-5.4476035113609145,64.9
,,0.004599958675910015,0.004306613083172879,0.0008633327068876828,0.009769904465970577,1.1101937684009233,0.47082944279875705,0.4408040117662547,-5.4476035113609145,65.0
,,0.0046341648645494725,0.004421190135692962,0.0007086118268946077,0.009763966827137044,1.1085533788483233,0.47461907097735256,0.4528067550787991,-5.421346357667898,65.1
,,0.0046341648645494725,0.004421190135692962,0.0007086118268946077,0.009763966827137044,1.1069129892957232,0.47461907097735256,0.4528067550787991,-5.421346357667898,65.2
,,0.0046341648645494725,0.004421190135692962,0.0007086118268946077,0.009763966827137044,1.0963412541420847,0.47461907097735256,0.4528067550787991,-5.421346357667898,65.3
,,0.0046341648645494725,0.004421190135692962,0.0007086118268946077,0.009763966827137044,1.0857695189884458,0.47461907097735256,0.4528067550787991,-5.421346357667898,65.4
,,0.0046341648645494725,0.004421190135692962,0.0007086118268946077,0.009763966827137044,1.0751977838348072,0.47461907097735256,0.4528067550787991,-5.421346357667898,65.5
,,0.0046341648645494725,0.004421190135692962,0.0007086118268946077,0.009763966827137044,1.0646260486811685,0.47461907097735256,0.4528067550787991,-5.421346357667898,65.6
,,0.003692887649936621,0.004422438604304553,0.00037912183352053103,0.008494448087761706,1.0516861233149715,0.4347413288989444,0.520626950522676,-5.421064014603395,65.7
,,0.004581012396450838,0.004440693763687602,0.0006901533846449422,0.009711859544783381,1.0409302437304582,0.4716926120406548,0.45724443843227447,-5.416944661661452,65.8
,,0.004581012396450838,0.004440693763687602,0.0006901533846449422,0.009711859544783381,1.0294645268137048,0.4716926120406548,0.45724443843227447,-5.416944661661452,65.9
,,0.004581012396450838,0.004440693763687602,0.0006901533846449422,0.009711859544783381,1.0302412291402543,0.4716926120406548,0.45724443843227447,-5.416944661661452,66.0
,,0.004581012396450838,0.004440693763687602,0.0006901533846449422,0.009711859544783381,1.0310179314668038,0.4716926120406548,0.45724443843227447,-5.416944661661452,66.1
,,0.004581012396450838,0.004440693763687602,0.0006901533846449422,0.009711859544783381,1.0317946337933535,0.4716926120406548,0.45724443843227447,-5.416944661661452,66.2
,,0.004581012396450838,0.004440693763687602,0.0006901533846449422,0.009711859544783381,1.0325713361199031,0.4716926120406548,0.45724443843227447,-5.416944661661452,66.3
,,0.004537235294199281,0.004415515617507172,0.0008187156872751424,0.009771466598981595,1.0333032384237641,0.46433513825572126,0.45187849467421476,-5.422630664088017,66.4
,,0.004537235294199281,0.004415515617507172,0.0008187156872751424,0.009771466598981595,1.0340351407276254,0.46433513825572126,0.45187849467421476,-5.422630664088017,66.5
,,0.004418193102254384,0.004356693841458051,0.0006425542536249148,0.009417441197337348,1.0343056599879412,0.46915005994447484,0.4626197021214049,-5.436041802514507,66.6
,,0.004418193102254384,0.004356693841458051,0.0006425542536249148,0.009417441197337348,1.0345761792482573,0.46915005994447484,0.4626197021214049,-5.436041802514507,66.7
,,0.004418193102254384,0.004356693841458051,0.0006425542536249148,0.009417441197337348,1.0355055491101601,0.46915005994447484,0.4626197021214049,-5.436041802514507,66.8
,,0.004418193102254384,0.004356693841458051,0.0006425542536249148,0.009417441197337348,1.036434918972063,0.46915005994447484,0.4626197021214049,-5.436041802514507,66.9
,,0.004418193102254384,0.004356693841458051,0.0006425542536249148,0.009417441197337348,1.0373642888339663,0.46915005994447484,0.4626197021214049,-5.436041802514507,67.0
,,0.0034029367761217568,0.004638223840873591,0.0003409505653581832,0.008382111182353531,1.0351776181628605,0.4059760962471843,0.5533479263121954,-5.3734237789430574,67.1
,,0.0034029367761217568,0.004638223840873591,0.0003409505653581832,0.008382111182353531,1.0329909474917547,0.4059760962471843,0.5533479263121954,-5.3734237789430574,67.2
,,0.00420731325288084,0.004215648883432233,0.0005796915939143147,0.009002653730227388,1.0337415024004644,0.4673414505274516,0.46826735868755387,-5.468951753129558,67.3
,,0.00420731325288084,0.004215648883432233,0.0005796915939143147,0.009002653730227388,1.0260212862105933,0.4673414505274516,0.46826735868755387,-5.468951753129558,67.4
,,0.00420731325288084,0.004215648883432233,0.0005796915939143147,0.009002653730227388,1.0267448088567608,0.4673414505274516,0.46826735868755387,-5.468951753129558,67.5
,,0.00420731325288084,0.004215648883432233,0.0005796915939143147,0.009002653730227388,1.0274683315029283,0.4673414505274516,0.46826735868755387,-5.468951753129558,67.6
,,0.00420731325288084,0.004215648883432233,0.0005796915939143147,0.009002653730227388,1.028191854149096,0.4673414505274516,0.46826735868755387,-5.468951753129558,67.7
,,0.0032547157357216234,0.004588086101373507,0.0003152964285126858,0.008158098265607814,1.0257082822967096,0.39895520129275286,0.5623965233068535,-5.3842923132447424,67.8
,,0.0032547157357216234,0.004588086101373507,0.0003152964285126858,0.008158098265607814,1.0232247104443235,0.39895520129275286,0.5623965233068535,-5.3842923132447424,67.9
,,0.0032547157357216234,0.004588086101373507,0.0003152964285126858,0.008158098265607814,1.0203905413902414,0.39895520129275286,0.5623965233068535,-5.3842923132447424,68.0
,,0.003982937257929319,0.004044013722916811,0.000510338407286882,0.008537289388133014,1.0205575546057593,0.46653417459008406,0.47368825619734334,-5.510517584427887,68.1
,,0.003982937257929319,0.004044013722916811,0.000510338407286882,0.008537289388133014,1.0208671541028034,0.46653417459008406,0.47368825619734334,-5.510517584427887,68.2
,,0.003982937257929319,0.004044013722916811,0.000510338407286882,0.008537289388133014,1.0211767535998477,0.46653417459008406,0.47368825619734334,-5.510517584427887,68.3
,,0.003982937257929319,0.004044013722916811,0.000510338407286882,0.008537289388133014,1.021486353096892,0.46653417459008406,0.47368825619734334,-5.510517584427887,68.4
,,0.003932723056424315,0.004022053076304216,0.0005843196092008427,0.008539095741929372,1.0217169845630256,0.4605549785691632,0.47101627594533213,-5.51596279122342,68.5
,,0.003932723056424315,0.004022053076304216,0.0005843196092008427,0.008539095741929372,1.0219476160291594,0.4605549785691632,0.47101627594533213,-5.51596279122342,68.6
,,0.003932723056424315,0.004022053076304216,0.0005843196092008427,0.008539095741929372,1.0221782474952932,0.4605549785691632,0.47101627594533213,-5.51596279122342,68.7
,,0.0037756742841999684,0.0038695224359180332,0.0004432697208362166,0.008088466440954218,1.022386177780093,0.46679729856857044,0.4784000111968735,-5.554624181126615,68.8
,,0.0037756742841999684,0.0038695224359180332,0.0004432697208362166,0.008088466440954218,1.0222116001552022,0.46679729856857044,0.4784000111968735,-5.554624181126615,68.9
,,0.0037756742841999684,0.0038695224359180332,0.0004432697208362166,0.008088466440954218,1.0220566046172865,0.46679729856857044,0.4784000111968735,-5.554624181126615,69.0
,,0.0037756742841999684,0.0038695224359180332,0.0004432697208362166,0.008088466440954218,1.0219016090793709,0.46679729856857044,0.4784000111968735,-5.554624181126615,69.1
,,0.0029172331184943194,0.004082663147784918,0.00026655605793016743,0.0072664523242094055,1.018844334364822,0.40146594078310643,0.5618509508667443,-5.501005771202914,69.2
,,0.0029172331184943194,0.004082663147784918,0.00026655605793016743,0.0072664523242094055,1.0157870596502732,0.40146594078310643,0.5618509508667443,-5.501005771202914,69.3
,,0.0029172331184943194,0.004082663147784918,0.00026655605793016743,0.0072664523242094055,1.0127297849357246,0.40146594078310643,0.5618509508667443,-5.501005771202914,69.4
,,0.0029172331184943194,0.004082663147784918,0.00026655605793016743,0.0072664523242094055,1.0096725102211757,0.40146594078310643,0.5618509508667443,-5.501005771202914,69.5
,,0.00360299298142166,0.003710369901437325,0.0003828921312287552,0.0076962550140877405,1.0091030108845185,0.4681488561419158,0.48210069633160746,-5.596623703441433,69.6
,,0.00360299298142166,0.003710369901437325,0.0003828921312287552,0.0076962550140877405,1.0085335115478609,0.4681488561419158,0.48210069633160746,-5.596623703441433,69.7
,,0.00360299298142166,0.003710369901437325,0.0003828921312287552,0.0076962550140877405,1.0079640122112035,0.4681488561419158,0.48210069633160746,-5.596623703441433,69.8
,,0.00360299298142166,0.003710369901437325,0.0003828921312287552,0.0076962550140877405,1.0041682971781407,0.4681488561419158,0.48210069633160746,-5.596623703441433,69.9
,,0.003604531269113114,0.0037230840876509644,0.0004430224437469555,0.007770637800511034,1.0003403270642572,0.4638655618302095,0.47912207250299543,-5.593202898353879,70.0
,,0.003604531269113114,0.0037230840876509644,0.0004430224437469555,0.007770637800511034,0.9965123569503738,0.4638655618302095,0.47912207250299543,-5.593202898353879,70.1
,,0.003604531269113114,0.0037230840876509644,0.0004430224437469555,0.007770637800511034,0.9926843868364903,0.4638655618302095,0.47912207250299543,-5.593202898353879,70.2
,,0.0026935985637657834,0.0035370558021804574,0.0001951244839381612,0.006425778849884402,0.9865606339772106,0.4191863160392208,0.5504477954830469,-5.644460592185348,70.3
,,0.0026935985637657834,0.0035370558021804574,0.0001951244839381612,0.006425778849884402,0.9833689094689112,0.4191863160392208,0.5504477954830469,-5.644460592185348,70.4
,,0.0026935985637657834,0.0035370558021804574,0.0001951244839381612,0.006425778849884402,0.9801771849606117,0.4191863160392208,0.5504477954830469,-5.644460592185348,70.5
,,0.0026935985637657834,0.0035370558021804574,0.0001951244839381612,0.006425778849884402,0.9769854604523123,0.4191863160392208,0.5504477954830469,-5.644460592185348,70.6
,,0.002711472127516713,0.0034745736547043176,0.00025228662142541314,0.006438332403646443,0.9740030534734173,0.42114509744495815,0.5396698146147971,-5.66228349678605,70.7
,,0.002711472127516713,0.0034745736547043176,0.00025228662142541314,0.006438332403646443,0.9710757715902242,0.42114509744495815,0.5396698146147971,-5.66228349678605,70.8
,,0.002711472127516713,0.0034745736547043176,0.00025228662142541314,0.006438332403646443,0.9681484897070315,0.42114509744495815,0.5396698146147971,-5.66228349678605,70.9
,,0.002666375590018095,0.0033018531387251485,0.00020121275621036178,0.006169441484953605,0.9655230259459657,0.43219075770813414,0.5351948222181702,-5.713271410934499,71.0
