HRV_ULF,HRV_VLF,HRV_LF,HRV_HF,HRV_VHF,HRV_TP,HRV_LFHF,HRV_LFn,HRV_HFn,HRV_LnHF,time
,,0.004591564446932182,0.0020228200065357587,0.00015352669856605536,0.006767911152033995,2.269882852699091,0.6784315490832433,0.298883948251571,-6.20326269829136,0.0
,,0.00466314045302697,0.0019569479431143445,0.00012376278107838461,0.0067438511772196985,2.3263733367983006,0.6914655039806873,0.29018255173316854,-6.236369191272354,0.1
,,0.00466314045302697,0.0019569479431143445,0.00012376278107838461,0.0067438511772196985,2.3452034981647034,0.6914655039806873,0.29018255173316854,-6.236369191272354,0.2
,,0.00466314045302697,0.0019569479431143445,0.00012376278107838461,0.0067438511772196985,2.354618578847905,0.6914655039806873,0.29018255173316854,-6.236369191272354,0.3
,,0.004526004295806736,0.001926303487589334,0.00014202442425271177,0.006594332207648782,2.3536108783860454,0.6863476320706154,0.2921150204345195,-6.252152403985765,0.4
,,0.004526004295806736,0.001926303487589334,0.00014202442425271177,0.006594332207648782,2.3529390780781396,0.6863476320706154,0.2921150204345195,-6.252152403985765,0.5
,,0.004526004295806736,0.001926303487589334,0.00014202442425271177,0.006594332207648782,2.352459220715349,0.6863476320706154,0.2921150204345195,-6.252152403985765,0.6
,,0.004526004295806736,0.001926303487589334,0.00014202442425271177,0.006594332207648782,2.352099327693257,0.6863476320706154,0.2921150204345195,-6.252152403985765,0.7
,,0.004628414154253525,0.0018808120946576781,0.00011339028056110391,0.006622616529472307,2.3641837820315885,0.6988799870347195,0.2839983390684923,-6.27605163016696,0.8
,,0.004628414154253525,0.0018808120946576781,0.00011339028056110391,0.006622616529472307,2.3738513455022536,0.6988799870347195,0.2839983390684923,-6.27605163016696,0.9
,,0.00447174475410771,0.0018501162706546547,0.00013212282243650346,0.006453983847198868,2.37777462500562,0.6928658112536985,0.2866626744747176,-6.2925067928643035,1.0
,,0.004473399545316876,0.0018511793285434317,0.00013209596732294837,0.006456674841183257,2.381002851397378,0.6928333322260156,0.2867078448392459,-6.291932368104369,1.1
,,0.004473399545316876,0.0018511793285434317,0.00013209596732294837,0.006456674841183257,2.383734427575019,0.6928333322260156,0.2867078448392459,-6.291932368104369,1.2
,,0.004473399545316876,0.0018511793285434317,0.00013209596732294837,0.006456674841183257,2.3860757785844258,0.6928333322260156,0.2867078448392459,-6.291932368104369,1.3
,,0.004473399545316876,0.0018511793285434317,0.00013209596732294837,0.006456674841183257,2.388104949459245,0.6928333322260156,0.2867078448392459,-6.291932368104369,1.4
,,0.004596095087713287,0.0018193053740909546,0.00010423547806584965,0.006519635939870091,2.3967415877488203,0.7049619227365735,0.2790501480251681,-6.309300513332523,1.5
,,0.0043971884598408345,0.0017796578383782848,0.00012295863989721106,0.00629980493811633,2.401098291267691,0.6979880334446694,0.28249411781159217,-6.331334158786035,1.6
,,0.0043971884598408345,0.0017796578383782848,0.00012295863989721106,0.00629980493811633,2.4049709166177986,0.6979880334446694,0.28249411781159217,-6.331334158786035,1.7
,,0.0043971884598408345,0.0017796578383782848,0.00012295863989721106,0.00629980493811633,2.408435897194211,0.6979880334446694,0.28249411781159217,-6.331334158786035,1.8
,,0.0043971884598408345,0.0017796578383782848,0.00012295863989721106,0.00629980493811633,2.4115543797129813,0.6979880334446694,0.28249411781159217,-6.331334158786035,1.9
,,0.0043971884598408345,0.0017796578383782848,0.00012295863989721106,0.00629980493811633,2.4143758638966313,0.6979880334446694,0.28249411781159217,-6.331334158786035,2.0
,,0.002729573863525722,0.0017507425768576934,9.523060313983889e-05,0.0045755470435232546,2.3754994575043624,0.5965568351853073,0.38263022108709205,-6.347715251416106,2.1
,,0.004294867352480362,0.001712791279739072,0.00011455744064994814,0.006122216072869382,2.381239708604549,0.7015216877942414,0.2797665517441162,-6.3696309119330365,2.2
,,0.004294867352480362,0.001712791279739072,0.00011455744064994814,0.006122216072869382,2.3865016054463872,0.7015216877942414,0.2797665517441162,-6.3696309119330365,2.3
,,0.004294867352480362,0.001712791279739072,0.00011455744064994814,0.006122216072869382,2.391342550540878,0.7015216877942414,0.2797665517441162,-6.3696309119330365,2.4
,,0.004294867352480362,0.001712791279739072,0.00011455744064994814,0.006122216072869382,2.3958111152434856,0.7015216877942414,0.2797665517441162,-6.3696309119330365,2.5
,,0.004294867352480362,0.001712791279739072,0.00011455744064994814,0.006122216072869382,2.3999486751533063,0.7015216877942414,0.2797665517441162,-6.3696309119330365,2.6
,,0.004294867352480362,0.001712791279739072,0.00011455744064994814,0.006122216072869382,2.4037906950695693,0.7015216877942414,0.2797665517441162,-6.3696309119330365,2.7
,,0.004173416649453904,0.0016491638794463568,0.00010699462981535896,0.00592957515871562,2.4081643191203077,0.7038306350362359,0.27812513296544084,-6.407486859235096,2.8
,,0.004173416649453904,0.0016491638794463568,0.00010699462981535896,0.00592957515871562,2.4122463682343303,0.7038306350362359,0.27812513296544084,-6.407486859235096,2.9
,,0.004173416649453904,0.0016491638794463568,0.00010699462981535896,0.00592957515871562,2.4160650593409967,0.7038306350362359,0.27812513296544084,-6.407486859235096,3.0
,,0.004173416649453904,0.0016491638794463568,0.00010699462981535896,0.00592957515871562,2.4196450822534965,0.7038306350362359,0.27812513296544084,-6.407486859235096,3.1
,,0.004173416649453904,0.0016491638794463568,0.00010699462981535896,0.00592957515871562,2.42300813408039,0.7038306350362359,0.27812513296544084,-6.407486859235096,3.2
,,0.004173416649453904,0.0016491638794463568,0.00010699462981535896,0.00592957515871562,2.426173359329231,0.7038306350362359,0.27812513296544084,-6.407486859235096,3.3
,,0.004021636723079198,0.001582606613257993,9.995118855308174e-05,0.005704194524890274,2.4294583326884633,0.7050314826275247,0.2774461155474771,-6.448682036067979,3.4
,,0.004021636723079198,0.001582606613257993,9.995118855308174e-05,0.005704194524890274,2.432560807527738,0.7050314826275247,0.2774461155474771,-6.448682036067979,3.5
,,0.004021636723079198,0.001582606613257993,9.995118855308174e-05,0.005704194524890274,2.435495581024349,0.7050314826275247,0.2774461155474771,-6.448682036067979,3.6
,,0.004021636723079198,0.001582606613257993,9.995118855308174e-05,0.005704194524890274,2.438275892757981,0.7050314826275247,0.2774461155474771,-6.448682036067979,3.7
,,0.004021636723079198,0.001582606613257993,9.995118855308174e-05,0.005704194524890274,2.4409136244027083,0.7050314826275247,0.2774461155474771,-6.448682036067979,3.8
,,0.004021636723079198,0.001582606613257993,9.995118855308174e-05,0.005704194524890274,2.4434194694651996,0.7050314826275247,0.2774461155474771,-6.448682036067979,3.9
,,0.0038419912624121752,0.0015122154020259211,9.340080976377389e-05,0.005447607474201871,2.445790642618209,0.7052621321573955,0.2775925778770387,-6.494179549714139,4.0
,,0.0038419912624121752,0.0015122154020259211,9.340080976377389e-05,0.005447607474201871,2.448048902763932,0.7052621321573955,0.2775925778770387,-6.494179549714139,4.1
,,0.0038419912624121752,0.0015122154020259211,9.340080976377389e-05,0.005447607474201871,2.45020212755404,0.7052621321573955,0.2775925778770387,-6.494179549714139,4.2
,,0.0038419912624121752,0.0015122154020259211,9.340080976377389e-05,0.005447607474201871,2.452257478490053,0.7052621321573955,0.2775925778770387,-6.494179549714139,4.3
,,0.0038419912624121752,0.0015122154020259211,9.340080976377389e-05,0.005447607474201871,2.4542214804955758,0.7052621321573955,0.2775925778770387,-6.494179549714139,4.4
,,0.0038419912624121752,0.0015122154020259211,9.340080976377389e-05,0.005447607474201871,2.4561000911095543,0.7052621321573955,0.2775925778770387,-6.494179549714139,4.5
,,0.0036486146012878057,0.001441857608856318,8.748320397282064e-05,0.0051779554141169444,2.4576829782063268,0.7046438815097533,0.2784608003624949,-6.541822990587059,4.6
,,0.0036486146012878057,0.001441857608856318,8.748320397282064e-05,0.0051779554141169444,2.4591999116740677,0.7046438815097533,0.2784608003624949,-6.541822990587059,4.7
,,0.0036486146012878057,0.001441857608856318,8.748320397282064e-05,0.0051779554141169444,2.460654929490064,0.7046438815097533,0.2784608003624949,-6.541822990587059,4.8
,,0.0036486146012878057,0.001441857608856318,8.748320397282064e-05,0.0051779554141169444,2.46205174659342,0.7046438815097533,0.2784608003624949,-6.541822990587059,4.9
,,0.0036486146012878057,0.001441857608856318,8.748320397282064e-05,0.0051779554141169444,2.4633937865554687,0.7046438815097533,0.2784608003624949,-6.541822990587059,5.0
,,0.0036486146012878057,0.001441857608856318,8.748320397282064e-05,0.0051779554141169444,2.4646842095958994,0.7046438815097533,0.2784608003624949,-6.541822990587059,5.1
,,0.0034575570738598497,0.0013750830584398999,8.251846369643434e-05,0.004915158595996184,2.465622905178896,0.7034477130964452,0.2797637210648752,-6.589241143549871,5.2
,,0.0034575570738598497,0.0013750830584398999,8.251846369643434e-05,0.004915158595996184,2.466526834258819,0.7034477130964452,0.2797637210648752,-6.589241143549871,5.3
,,0.0034575570738598497,0.0013750830584398999,8.251846369643434e-05,0.004915158595996184,2.4673978931903813,0.7034477130964452,0.2797637210648752,-6.589241143549871,5.4
,,0.0034575570738598497,0.0013750830584398999,8.251846369643434e-05,0.004915158595996184,2.4682378428743874,0.7034477130964452,0.2797637210648752,-6.589241143549871,5.5
,,0.0034575570738598497,0.0013750830584398999,8.251846369643434e-05,0.004915158595996184,2.4690483206396565,0.7034477130964452,0.2797637210648752,-6.589241143549871,5.6
,,0.00395340725099821,0.0016339981180406875,0.00010449340191444926,0.005691898770953347,2.4681934990511554,0.694567386049286,0.28707434615303357,-6.416725434294874,5.7
,,0.003266764542558284,0.00131108983697098,7.803638664280306e-05,0.004655890766172067,2.4685909059195903,0.7016411480899324,0.2815980663672053,-6.636896551017464,5.8
,,0.003266764542558284,0.00131108983697098,7.803638664280306e-05,0.004655890766172067,2.46897506589241,0.7016411480899324,0.2815980663672053,-6.636896551017464,5.9
,,0.003266764542558284,0.00131108983697098,7.803638664280306e-05,0.004655890766172067,2.469346630456285,0.7016411480899324,0.2815980663672053,-6.636896551017464,6.0
,,0.003266764542558284,0.00131108983697098,7.803638664280306e-05,0.004655890766172067,2.469706209066487,0.7016411480899324,0.2815980663672053,-6.636896551017464,6.1
,,0.003266764542558284,0.00131108983697098,7.803638664280306e-05,0.004655890766172067,2.4700543724827138,0.7016411480899324,0.2815980663672053,-6.636896551017464,6.2
,,0.003916115722667323,0.0016339772769808371,0.00010101053636447838,0.005651103536012639,2.4689078506972897,0.6929824763802672,0.2891430437556192,-6.416738189017497,6.3
,,0.0030984069992051667,0.0012563548568665787,7.460562802309004e-05,0.004429367484094835,2.4688660035030257,0.6995145492739224,0.28364204626912354,-6.67954072148766,6.4
,,0.0030984069992051667,0.0012563548568665787,7.460562802309004e-05,0.004429367484094835,2.4688254244055576,0.6995145492739224,0.28364204626912354,-6.67954072148766,6.5
,,0.0030984069992051667,0.0012563548568665787,7.460562802309004e-05,0.004429367484094835,2.4687860566244315,0.6995145492739224,0.28364204626912354,-6.67954072148766,6.6
,,0.0030984069992051667,0.0012563548568665787,7.460562802309004e-05,0.004429367484094835,2.4687478467192214,0.6995145492739224,0.28364204626912354,-6.67954072148766,6.7
,,0.0030984069992051667,0.0012563548568665787,7.460562802309004e-05,0.004429367484094835,2.468710744347495,0.6995145492739224,0.28364204626912354,-6.67954072148766,6.8
,,0.0030406209156948446,0.0012450501629669508,7.372807603832094e-05,0.004359399154700116,2.468331553671876,0.6974862378492178,0.28560132228878177,-6.688579458337429,6.9
,,0.0029500819848024985,0.0012089015834386254,7.21436625078966e-05,0.004231127230749021,2.4679367366575025,0.6972331069042933,0.2857161974835292,-6.718043113939479,7.0
,,0.0029500819848024985,0.0012089015834386254,7.21436625078966e-05,0.004231127230749021,2.4675528867824172,0.6972331069042933,0.2857161974835292,-6.718043113939479,7.1
,,0.0029500819848024985,0.0012089015834386254,7.21436625078966e-05,0.004231127230749021,2.4671795533422656,0.6972331069042933,0.2857161974835292,-6.718043113939479,7.2
,,0.0029500819848024985,0.0012089015834386254,7.21436625078966e-05,0.004231127230749021,2.4668163099950915,0.6972331069042933,0.2857161974835292,-6.718043113939479,7.3
,,0.0029500819848024985,0.0012089015834386254,7.21436625078966e-05,0.004231127230749021,2.4664627531371752,0.6972331069042933,0.2857161974835292,-6.718043113939479,7.4
,,0.002926423918669312,0.0012040858962971562,7.255769987669404e-05,0.0042030675148431625,2.46598839136681,0.6962590794305886,0.2864778859832535,-6.72203459220076,7.5
,,0.002834046215757633,0.001173404112280673,7.074727391865755e-05,0.004078197601956963,2.4653292512634057,0.6949261640479824,0.28772615424951536,-6.747846256893116,7.6
,,0.002834046215757633,0.001173404112280673,7.074727391865755e-05,0.004078197601956963,2.4646870121882936,0.6949261640479824,0.28772615424951536,-6.747846256893116,7.7
,,0.002834046215757633,0.001173404112280673,7.074727391865755e-05,0.004078197601956963,2.464061032330273,0.6949261640479824,0.28772615424951536,-6.747846256893116,7.8
,,0.002834046215757633,0.001173404112280673,7.074727391865755e-05,0.004078197601956963,2.4634507019687035,0.6949261640479824,0.28772615424951536,-6.747846256893116,7.9
,,0.002834046215757633,0.001173404112280673,7.074727391865755e-05,0.004078197601956963,2.462855441492604,0.6949261640479824,0.28772615424951536,-6.747846256893116,8.0
,,0.0028361979552733894,0.001171814527634836,7.228369079022713e-05,0.004080296173698453,2.462337047724967,0.6950960995320614,0.2871885955701795,-6.749201853221924,8.1
,,0.002064867842981694,0.0015872896696850303,9.072438792001801e-05,0.0037428819005867428,2.44834354724861,0.5516785989581987,0.42408222109177507,-6.445727327512195,8.2
,,0.002064867842981694,0.0015872896696850303,9.072438792001801e-05,0.0037428819005867428,2.4346832253550232,0.5516785989581987,0.42408222109177507,-6.445727327512195,8.3
,,0.002064867842981694,0.0015872896696850303,9.072438792001801e-05,0.0037428819005867428,2.4213443228001092,0.5516785989581987,0.42408222109177507,-6.445727327512195,8.4
,,0.002064867842981694,0.0015872896696850303,9.072438792001801e-05,0.0037428819005867428,2.4083156272813557,0.5516785989581987,0.42408222109177507,-6.445727327512195,8.5
,,0.002064867842981694,0.0015872896696850303,9.072438792001801e-05,0.0037428819005867428,2.3955864420044133,0.5516785989581987,0.42408222109177507,-6.445727327512195,8.6
,,0.0027707547413520057,0.0011487721240735968,7.302848103300615e-05,0.003992555346458608,2.395772132522213,0.6939802960551722,0.2877285408435368,-6.76906162522099,8.7
,,0.0026709926228518084,0.0011230344496632454,7.028449392874465e-05,0.0038643115664437986,2.3955766147372635,0.6911949455747008,0.29061695216691286,-6.791720927237532,8.8
,,0.0026709926228518084,0.0011230344496632454,7.028449392874465e-05,0.0038643115664437986,2.395385441791979,0.6911949455747008,0.29061695216691286,-6.791720927237532,8.9
,,0.0026709926228518084,0.0011230344496632454,7.028449392874465e-05,0.0038643115664437986,2.3965908662026747,0.6911949455747008,0.29061695216691286,-6.791720927237532,9.0
,,0.0026709926228518084,0.0011230344496632454,7.028449392874465e-05,0.0038643115664437986,2.396540946522277,0.6911949455747008,0.29061695216691286,-6.791720927237532,9.1
,,0.0026709926228518084,0.0011230344496632454,7.028449392874465e-05,0.0038643115664437986,2.3964910268418786,0.6911949455747008,0.29061695216691286,-6.791720927237532,9.2
,,0.0027270128411223983,0.0011323716417302066,7.502395183470589e-05,0.003934408434687311,2.3967728878216192,0.6931188986583009,0.2878124273389533,-6.7834410476662,9.3
,,0.0017999298083243474,0.0015917500782441849,8.265032382648976e-05,0.0034743302103950216,2.3832307391244587,0.5180652670661665,0.4581458818973938,-6.442921189911064,9.4
,,0.0017999298083243474,0.0015917500782441849,8.265032382648976e-05,0.0034743302103950216,2.369688590427298,0.5180652670661665,0.4581458818973938,-6.442921189911064,9.5
,,0.0017999298083243474,0.0015917500782441849,8.265032382648976e-05,0.0034743302103950216,2.356146441730138,0.5180652670661665,0.4581458818973938,-6.442921189911064,9.6
,,0.0017999298083243474,0.0015917500782441849,8.265032382648976e-05,0.0034743302103950216,2.3426042930329776,0.5180652670661665,0.4581458818973938,-6.442921189911064,9.7
,,0.0017999298083243474,0.0015917500782441849,8.265032382648976e-05,0.0034743302103950216,2.327825707222488,0.5180652670661665,0.4581458818973938,-6.442921189911064,9.8
,,0.002701944981129268,0.0011209712822669493,7.818529189655445e-05,0.0039011015552927715,2.3272646089477047,0.6926107774516758,0.28734737262763266,-6.793559753180162,9.9
,,0.002617057133626364,0.0011014339567112046,7.54026180868907e-05,0.0037938937084244597,2.3268094758696645,0.6898077106944528,0.2903175579920534,-6.811142351112501,10.0
,,0.002617057133626364,0.0011014339567112046,7.54026180868907e-05,0.0037938937084244597,2.326359832550875,0.6898077106944528,0.2903175579920534,-6.811142351112501,10.1
,,0.002617057133626364,0.0011014339567112046,7.54026180868907e-05,0.0037938937084244597,2.3259101892320855,0.6898077106944528,0.2903175579920534,-6.811142351112501,10.2
,,0.002617057133626364,0.0011014339567112046,7.54026180868907e-05,0.0037938937084244597,2.3254605459132964,0.6898077106944528,0.2903175579920534,-6.811142351112501,10.3
,,0.002617057133626364,0.0011014339567112046,7.54026180868907e-05,0.0037938937084244597,2.3250109025945065,0.6898077106944528,0.2903175579920534,-6.811142351112501,10.4
,,0.002617057133626364,0.0011014339567112046,7.54026180868907e-05,0.0037938937084244597,2.3233415057158755,0.6898077106944528,0.2903175579920534,-6.811142351112501,10.5
,,0.0026992428436427773,0.001114976376854059,8.274952808143344e-05,0.00389696874857827,2.322786965081129,0.6926519091608166,0.28611375886984863,-6.79892206097247,10.6
,,0.0026172321044016194,0.0010958039803942382,7.962728339722122e-05,0.003792663368193079,2.3218714886007374,0.6900776183699465,0.28892729831603986,-6.81626695645714,10.7
,,0.0026172321044016194,0.0010958039803942382,7.962728339722122e-05,0.003792663368193079,2.320956012120346,0.6900776183699465,0.28892729831603986,-6.81626695645714,10.8
,,0.0026172321044016194,0.0010958039803942382,7.962728339722122e-05,0.003792663368193079,2.3200405356399543,0.6900776183699465,0.28892729831603986,-6.81626695645714,10.9
,,0.0026172321044016194,0.0010958039803942382,7.962728339722122e-05,0.003792663368193079,2.3191250591595627,0.6900776183699465,0.28892729831603986,-6.81626695645714,11.0
,,0.0026172321044016194,0.0010958039803942382,7.962728339722122e-05,0.003792663368193079,2.328339700726981,0.6900776183699465,0.28892729831603986,-6.81626695645714,11.1
,,0.003375512813014452,0.0016780446654254579,7.840142767507273e-05,0.005131958906114982,2.3228291433471986,0.6577435390202291,0.32697936521393123,-6.390126053040215,11.2
,,0.0026210673075946402,0.0010896855686325668,8.47573417836402e-05,0.003795510218010847,2.3216937826851245,0.6905704785503886,0.2870985733253143,-6.821866093500746,11.3
,,0.0026210673075946402,0.0010896855686325668,8.47573417836402e-05,0.003795510218010847,2.3205584220230504,0.6905704785503886,0.2870985733253143,-6.821866093500746,11.4
,,0.0026210673075946402,0.0010896855686325668,8.47573417836402e-05,0.003795510218010847,2.3194230613609763,0.6905704785503886,0.2870985733253143,-6.821866093500746,11.5
,,0.0026210673075946402,0.0010896855686325668,8.47573417836402e-05,0.003795510218010847,2.318287700698902,0.6905704785503886,0.2870985733253143,-6.821866093500746,11.6
,,0.0026210673075946402,0.0010896855686325668,8.47573417836402e-05,0.003795510218010847,2.317152340036828,0.6905704785503886,0.2870985733253143,-6.821866093500746,11.7
,,0.0027059690817201774,0.001102285892465473,9.418231991401707e-05,0.0039024372940996673,2.316310614178492,0.6934048846374795,0.28246088518375073,-6.8103691713482695,11.8
,,0.003182010479527891,0.0016458286796905105,7.042440555010647e-05,0.004898263564768508,2.309674537845839,0.6496201026043139,0.3360024747399015,-6.40951126495682,11.9
,,0.003182010479527891,0.0016458286796905105,7.042440555010647e-05,0.004898263564768508,2.3030384615131863,0.6496201026043139,0.3360024747399015,-6.40951126495682,12.0
,,0.003182010479527891,0.0016458286796905105,7.042440555010647e-05,0.004898263564768508,2.2964023851805337,0.6496201026043139,0.3360024747399015,-6.40951126495682,12.1
,,0.003182010479527891,0.0016458286796905105,7.042440555010647e-05,0.004898263564768508,2.2897663088478812,0.6496201026043139,0.3360024747399015,-6.40951126495682,12.2
,,0.003182010479527891,0.0016458286796905105,7.042440555010647e-05,0.004898263564768508,2.2831302325152283,0.6496201026043139,0.3360024747399015,-6.40951126495682,12.3
,,0.003182010479527891,0.0016458286796905105,7.042440555010647e-05,0.004898263564768508,2.276377249134116,0.6496201026043139,0.3360024747399015,-6.40951126495682,12.4
,,0.0026292619249214137,0.0010676541362269942,9.77551855110972e-05,0.003794671246659505,2.2755050915762007,0.6928826646671921,0.2813561615296353,-6.842291433376523,12.5
,,0.0026292619249214137,0.0010676541362269942,9.77551855110972e-05,0.003794671246659505,2.274632934018286,0.6928826646671921,0.2813561615296353,-6.842291433376523,12.6
,,0.0026292619249214137,0.0010676541362269942,9.77551855110972e-05,0.003794671246659505,2.2737607764603704,0.6928826646671921,0.2813561615296353,-6.842291433376523,12.7
,,0.0026292619249214137,0.0010676541362269942,9.77551855110972e-05,0.003794671246659505,2.2728886189024555,0.6928826646671921,0.2813561615296353,-6.842291433376523,12.8
,,0.0026292619249214137,0.0010676541362269942,9.77551855110972e-05,0.003794671246659505,2.27201646134454,0.6928826646671921,0.2813561615296353,-6.842291433376523,12.9
,,0.0026292619249214137,0.0010676541362269942,9.77551855110972e-05,0.003794671246659505,2.271149968877334,0.6928826646671921,0.2813561615296353,-6.842291433376523,13.0
,,0.002625908447101342,0.0010499796336508257,0.00010525061044647642,0.003781138691198644,2.270708592521857,0.6944755698101391,0.27768873860534743,-6.858984511523843,13.1
,,0.002625908447101342,0.0010499796336508257,0.00010525061044647642,0.003781138691198644,2.2702672161663804,0.6944755698101391,0.27768873860534743,-6.858984511523843,13.2
,,0.002625908447101342,0.0010499796336508257,0.00010525061044647642,0.003781138691198644,2.269825839810903,0.6944755698101391,0.27768873860534743,-6.858984511523843,13.3
,,0.002625908447101342,0.0010499796336508257,0.00010525061044647642,0.003781138691198644,2.269384463455426,0.6944755698101391,0.27768873860534743,-6.858984511523843,13.4
,,0.002625908447101342,0.0010499796336508257,0.00010525061044647642,0.003781138691198644,2.2689430870999496,0.6944755698101391,0.27768873860534743,-6.858984511523843,13.5
,,0.002625908447101342,0.0010499796336508257,0.00010525061044647642,0.003781138691198644,2.268614397234258,0.6944755698101391,0.27768873860534743,-6.858984511523843,13.6
,,0.0026181596430261142,0.001028145430916415,0.00011322493992162402,0.003759530013864153,2.268792084635524,0.6964061021912402,0.27347711738565367,-6.879998652192017,13.7
,,0.0026181596430261142,0.001028145430916415,0.00011322493992162402,0.003759530013864153,2.26896977203679,0.6964061021912402,0.27347711738565367,-6.879998652192017,13.8
,,0.0026181596430261142,0.001028145430916415,0.00011322493992162402,0.003759530013864153,2.2691474594380554,0.6964061021912402,0.27347711738565367,-6.879998652192017,13.9
,,0.0026181596430261142,0.001028145430916415,0.00011322493992162402,0.003759530013864153,2.269325146839322,0.6964061021912402,0.27347711738565367,-6.879998652192017,14.0
,,0.0026181596430261142,0.001028145430916415,0.00011322493992162402,0.003759530013864153,2.2695028342405874,0.6964061021912402,0.27347711738565367,-6.879998652192017,14.1
,,0.0026181596430261142,0.001028145430916415,0.00011322493992162402,0.003759530013864153,2.2698589739658885,0.6964061021912402,0.27347711738565367,-6.879998652192017,14.2
,,0.002565692204090273,0.001000918646387173,9.591711290729321e-05,0.0036625279633847392,2.2704023331653413,0.7005249460864672,0.2732862810587718,-6.906837054292316,14.3
,,0.0028218949596995487,0.0014720181735814564,5.662650212232385e-05,0.0043505396354033285,2.2637644383085305,0.6486310196408399,0.3383530083492709,-6.521120912568612,14.4
,,0.0028218949596995487,0.0014720181735814564,5.662650212232385e-05,0.0043505396354033285,2.2571265434517196,0.6486310196408399,0.3383530083492709,-6.521120912568612,14.5
,,0.0028218949596995487,0.0014720181735814564,5.662650212232385e-05,0.0043505396354033285,2.2504886485949087,0.6486310196408399,0.3383530083492709,-6.521120912568612,14.6
,,0.0028218949596995487,0.0014720181735814564,5.662650212232385e-05,0.0043505396354033285,2.2449059360379664,0.6486310196408399,0.3383530083492709,-6.521120912568612,14.7
,,0.0028218949596995487,0.0014720181735814564,5.662650212232385e-05,0.0043505396354033285,2.238521314194555,0.6486310196408399,0.3383530083492709,-6.521120912568612,14.8
,,0.0028218949596995487,0.0014720181735814564,5.662650212232385e-05,0.0043505396354033285,2.232136692351143,0.6486310196408399,0.3383530083492709,-6.521120912568612,14.9
,,0.002688905195830815,0.0013983655046007164,5.390870541398207e-05,0.004141179405845513,2.225817259392403,0.6493090330825249,0.3376732489847803,-6.572451221129903,15.0
,,0.002688905195830815,0.0013983655046007164,5.390870541398207e-05,0.004141179405845513,2.219497826433662,0.6493090330825249,0.3376732489847803,-6.572451221129903,15.1
,,0.002688905195830815,0.0013983655046007164,5.390870541398207e-05,0.004141179405845513,2.2131783934749216,0.6493090330825249,0.3376732489847803,-6.572451221129903,15.2
,,0.002688905195830815,0.0013983655046007164,5.390870541398207e-05,0.004141179405845513,2.2079141108058837,0.6493090330825249,0.3376732489847803,-6.572451221129903,15.3
,,0.002688905195830815,0.0013983655046007164,5.390870541398207e-05,0.004141179405845513,2.2018774858606838,0.6493090330825249,0.3376732489847803,-6.572451221129903,15.4
,,0.002688905195830815,0.0013983655046007164,5.390870541398207e-05,0.004141179405845513,2.1958408609154842,0.6493090330825249,0.3376732489847803,-6.572451221129903,15.5
,,0.0025302943593122954,0.000941791313692842,0.00011058413916668624,0.003582669812171824,2.198290803608759,0.7062594355516185,0.26287415895631355,-6.9677268432884105,15.6
,,0.00253991828794806,0.001319899222957656,5.1926576847565094e-05,0.003911744087753281,2.192270133089593,0.6493058418366185,0.3374196249417081,-6.63019989154258,15.7
,,0.00253991828794806,0.001319899222957656,5.1926576847565094e-05,0.003911744087753281,2.1862494625704265,0.6493058418366185,0.3374196249417081,-6.63019989154258,15.8
,,0.00253991828794806,0.001319899222957656,5.1926576847565094e-05,0.003911744087753281,2.180495685229215,0.6493058418366185,0.3374196249417081,-6.63019989154258,15.9
,,0.00253991828794806,0.001319899222957656,5.1926576847565094e-05,0.003911744087753281,2.17476266179248,0.6493058418366185,0.3374196249417081,-6.63019989154258,16.0
,,0.00253991828794806,0.001319899222957656,5.1926576847565094e-05,0.003911744087753281,2.1690296383557435,0.6493058418366185,0.3374196249417081,-6.63019989154258,16.1
,,0.00253991828794806,0.001319899222957656,5.1926576847565094e-05,0.003911744087753281,2.163296614919008,0.6493058418366185,0.3374196249417081,-6.63019989154258,16.2
,,0.00249815725321819,0.0009098215050229813,0.00014256876786203593,0.0035505475261032073,2.1666906902813166,0.7035977507277489,0.25624822603671144,-7.002262126019372,16.3
,,0.00249815725321819,0.0009098215050229813,0.00014256876786203593,0.0035505475261032073,2.170084765643626,0.7035977507277489,0.25624822603671144,-7.002262126019372,16.4
,,0.00249815725321819,0.0009098215050229813,0.00014256876786203593,0.0035505475261032073,2.173588710862179,0.7035977507277489,0.25624822603671144,-7.002262126019372,16.5
,,0.00249815725321819,0.0009098215050229813,0.00014256876786203593,0.0035505475261032073,2.1772612855827846,0.7035977507277489,0.25624822603671144,-7.002262126019372,16.6
,,0.00249815725321819,0.0009098215050229813,0.00014256876786203593,0.0035505475261032073,2.18093386030339,0.7035977507277489,0.25624822603671144,-7.002262126019372,16.7
,,0.00249815725321819,0.0009098215050229813,0.00014256876786203593,0.0035505475261032073,2.1846064350239955,0.7035977507277489,0.25624822603671144,-7.002262126019372,16.8
,,0.00232726047852892,0.001194729881533054,4.20234518999497e-05,0.003564013811961924,2.179414257447561,0.6529886249929558,0.3352203286988322,-6.729835159707794,16.9
,,0.0024478586168695323,0.0008783030387448873,0.0001475487571199653,0.003473710412734385,2.1835453389006227,0.7046812560701231,0.25284290697494194,-7.037518877244287,17.0
,,0.0024478586168695323,0.0008783030387448873,0.0001475487571199653,0.003473710412734385,2.1876196142521107,0.7046812560701231,0.25284290697494194,-7.037518877244287,17.1
,,0.0024478586168695323,0.0008783030387448873,0.0001475487571199653,0.003473710412734385,2.204132452318698,0.7046812560701231,0.25284290697494194,-7.037518877244287,17.2
,,0.0024478586168695323,0.0008783030387448873,0.0001475487571199653,0.003473710412734385,2.220645290385286,0.7046812560701231,0.25284290697494194,-7.037518877244287,17.3
,,0.0024478586168695323,0.0008783030387448873,0.0001475487571199653,0.003473710412734385,2.237158128451873,0.7046812560701231,0.25284290697494194,-7.037518877244287,17.4
,,0.002399466226407358,0.0008450606475092204,0.00012743275031714806,0.0033719596242337262,2.2542528473786043,0.7115939969039914,0.2506141062413401,-7.076102160982341,17.5
,,0.0023969405772657814,0.0008481409582608058,0.00015149265387139776,0.0033965741893979846,2.2711998984087054,0.7056935734681008,0.24970482343891684,-7.072463711621952,17.6
,,0.0023969405772657814,0.0008481409582608058,0.00015149265387139776,0.0033965741893979846,2.2758019416678787,0.7056935734681008,0.24970482343891684,-7.072463711621952,17.7
,,0.0023969405772657814,0.0008481409582608058,0.00015149265387139776,0.0033965741893979846,2.2807768311260426,0.7056935734681008,0.24970482343891684,-7.072463711621952,17.8
,,0.0023969405772657814,0.0008481409582608058,0.00015149265387139776,0.0033965741893979846,2.285751720584206,0.7056935734681008,0.24970482343891684,-7.072463711621952,17.9
,,0.0023969405772657814,0.0008481409582608058,0.00015149265387139776,0.0033965741893979846,2.2907266100423693,0.7056935734681008,0.24970482343891684,-7.072463711621952,18.0
,,0.0023969405772657814,0.0008481409582608058,0.00015149265387139776,0.0033965741893979846,2.295701499500533,0.7056935734681008,0.24970482343891684,-7.072463711621952,18.1
,,0.002347672642220347,0.0008194875734484456,0.00015403988517478034,0.003321200100843573,2.301106328551823,0.7068747955367238,0.24674441423758198,-7.106831323472606,18.2
,,0.002347672642220347,0.0008194875734484456,0.00015403988517478034,0.003321200100843573,2.3061793769429735,0.7068747955367238,0.24674441423758198,-7.106831323472606,18.3
,,0.002347672642220347,0.0008194875734484456,0.00015403988517478034,0.003321200100843573,2.3254462543927916,0.7068747955367238,0.24674441423758198,-7.106831323472606,18.4
,,0.002347672642220347,0.0008194875734484456,0.00015403988517478034,0.003321200100843573,2.3447131318426093,0.7068747955367238,0.24674441423758198,-7.106831323472606,18.5
,,0.002347672642220347,0.0008194875734484456,0.00015403988517478034,0.003321200100843573,2.363980009292427,0.7068747955367238,0.24674441423758198,-7.106831323472606,18.6
,,0.002347672642220347,0.0008194875734484456,0.00015403988517478034,0.003321200100843573,2.3832468867422447,0.7068747955367238,0.24674441423758198,-7.106831323472606,18.7
,,0.002298909368020356,0.0007862074125643117,0.00013300218835584994,0.003218118968940518,2.4031720287001104,0.7143643197184882,0.24430650953316063,-7.148289916676632,18.8
,,0.0023070057106011075,0.0007937319529766013,0.00015558385026829744,0.003256321513846006,2.408685022026925,0.7084698795225316,0.24375110062124458,-7.1387647444232805,18.9
,,0.0023070057106011075,0.0007937319529766013,0.00015558385026829744,0.003256321513846006,2.4145792945647635,0.7084698795225316,0.24375110062124458,-7.1387647444232805,19.0
,,0.0023070057106011075,0.0007937319529766013,0.00015558385026829744,0.003256321513846006,2.4204735671026016,0.7084698795225316,0.24375110062124458,-7.1387647444232805,19.1
,,0.0023070057106011075,0.0007937319529766013,0.00015558385026829744,0.003256321513846006,2.4263678396404402,0.7084698795225316,0.24375110062124458,-7.1387647444232805,19.2
,,0.0023070057106011075,0.0007937319529766013,0.00015558385026829744,0.003256321513846006,2.4322621121782784,0.7084698795225316,0.24375110062124458,-7.1387647444232805,19.3
,,0.0022621744989811945,0.0007612210412954584,0.00013465602030506894,0.003158051560581722,2.4388812833385702,0.7163196849656551,0.24104135942455587,-7.180586780654932,19.4
,,0.0011120513060484526,0.0007729192939261831,0.0001565788130268113,0.002041549413001447,2.4284670860680313,0.5447094735823886,0.3785944582109585,-7.165335921132637,19.5
,,0.0011120513060484526,0.0007729192939261831,0.0001565788130268113,0.002041549413001447,2.4175545393816398,0.5447094735823886,0.3785944582109585,-7.165335921132637,19.6
,,0.0011120513060484526,0.0007729192939261831,0.0001565788130268113,0.002041549413001447,2.407002928540893,0.5447094735823886,0.3785944582109585,-7.165335921132637,19.7
,,0.0011120513060484526,0.0007729192939261831,0.0001565788130268113,0.002041549413001447,2.396451317700147,0.5447094735823886,0.3785944582109585,-7.165335921132637,19.8
,,0.0011120513060484526,0.0007729192939261831,0.0001565788130268113,0.002041549413001447,2.3858997068594,0.5447094735823886,0.3785944582109585,-7.165335921132637,19.9
,,0.0022534579512988114,0.0007437825265474672,0.00013623619585021528,0.003133476673696494,2.393025420930635,0.7191558086949013,0.23736654330030266,-7.203761868887637,20.0
,,0.002285945852394025,0.000757549322125567,0.00015721978143321157,0.0032007149559528034,2.4000158782389183,0.7141985099743235,0.23668128294793947,-7.185421910983505,20.1
,,0.002285945852394025,0.000757549322125567,0.00015721978143321157,0.0032007149559528034,2.411193419943937,0.7141985099743235,0.23668128294793947,-7.185421910983505,20.2
,,0.002285945852394025,0.000757549322125567,0.00015721978143321157,0.0032007149559528034,2.4179957649312467,0.7141985099743235,0.23668128294793947,-7.185421910983505,20.3
,,0.002285945852394025,0.000757549322125567,0.00015721978143321157,0.0032007149559528034,2.4247981099185565,0.7141985099743235,0.23668128294793947,-7.185421910983505,20.4
,,0.002285945852394025,0.000757549322125567,0.00015721978143321157,0.0032007149559528034,2.4316004549058663,0.7141985099743235,0.23668128294793947,-7.185421910983505,20.5
,,0.002273871403436144,0.0007338087427046398,0.00013746388243405247,0.0031451440285748364,2.439304700464897,0.7229784654620433,0.233314829476077,-7.217262131825923,20.6
,,0.002273871403436144,0.0007338087427046398,0.00013746388243405247,0.0031451440285748364,2.447008946023928,0.7229784654620433,0.233314829476077,-7.217262131825923,20.7
,,0.0023208338068510964,0.0007507169490687159,0.00015786236968857515,0.0032294131256083874,2.4540824944259216,0.7186549743194828,0.23246234528364615,-7.194481875954408,20.8
,,0.0023208338068510964,0.0007507169490687159,0.00015786236968857515,0.0032294131256083874,2.4669503933022323,0.7186549743194828,0.23246234528364615,-7.194481875954408,20.9
,,0.0023208338068510964,0.0007507169490687159,0.00015786236968857515,0.0032294131256083874,2.4798182921785434,0.7186549743194828,0.23246234528364615,-7.194481875954408,21.0
,,0.0023208338068510964,0.0007507169490687159,0.00015786236968857515,0.0032294131256083874,2.492686191054854,0.7186549743194828,0.23246234528364615,-7.194481875954408,21.1
,,0.0023467633445264737,0.0007365833890197733,0.00013984777271198155,0.0032231945062582285,2.5066043337663535,0.728086170403289,0.22852588870749377,-7.213488105090325,21.2
,,0.0023467633445264737,0.0007365833890197733,0.00013984777271198155,0.0032231945062582285,2.520522476477852,0.728086170403289,0.22852588870749377,-7.213488105090325,21.3
,,0.002410485162990362,0.0007569883294677266,0.00016022021987208918,0.003327693712330178,2.534421705615791,0.7243711024421321,0.22748137145640562,-7.186162721465049,21.4
,,0.002410485162990362,0.0007569883294677266,0.00016022021987208918,0.003327693712330178,2.5424401089305326,0.7243711024421321,0.22748137145640562,-7.186162721465049,21.5
,,0.002410485162990362,0.0007569883294677266,0.00016022021987208918,0.003327693712330178,2.5504585122452745,0.7243711024421321,0.22748137145640562,-7.186162721465049,21.6
,,0.002410485162990362,0.0007569883294677266,0.00016022021987208918,0.003327693712330178,2.558476915560016,0.7243711024421321,0.22748137145640562,-7.186162721465049,21.7
,,0.002410485162990362,0.0007569883294677266,0.00016022021987208918,0.003327693712330178,2.566495318874758,0.7243711024421321,0.22748137145640562,-7.186162721465049,21.8
,,0.002468414382004943,0.0007522004337063554,0.00014298366541711026,0.0033635984811284086,2.5755946303255794,0.7338611893940585,0.22362967456627278,-7.1925077353443765,21.9
,,0.002468414382004943,0.0007522004337063554,0.00014298366541711026,0.0033635984811284086,2.5846939417764014,0.7338611893940585,0.22362967456627278,-7.1925077353443765,22.0
,,0.002553692247641548,0.0007777505038564307,0.0001637491119674248,0.0034951918634654037,2.5933886089519205,0.7306300619244461,0.2225201174179058,-7.159104774348189,22.1
,,0.002553692247641548,0.0007777505038564307,0.0001637491119674248,0.0034951918634654037,2.6020832761274395,0.7306300619244461,0.2225201174179058,-7.159104774348189,22.2
,,0.002553692247641548,0.0007777505038564307,0.0001637491119674248,0.0034951918634654037,2.610777943302959,0.7306300619244461,0.2225201174179058,-7.159104774348189,22.3
,,0.002553692247641548,0.0007777505038564307,0.0001637491119674248,0.0034951918634654037,2.619472610478478,0.7306300619244461,0.2225201174179058,-7.159104774348189,22.4
,,0.002553692247641548,0.0007777505038564307,0.0001637491119674248,0.0034951918634654037,2.628167277653997,0.7306300619244461,0.2225201174179058,-7.159104774348189,22.5
,,0.00264878180857502,0.0007836186990262722,0.00014723602698038974,0.0035796365345816816,2.637937038721187,0.7399583122437201,0.21891012996878084,-7.151588009204802,22.6
,,0.0027479610466849156,0.0008131883951999799,0.00016848882678214292,0.0037296382686670382,2.6471898739471045,0.7367902323854664,0.21803411929559888,-7.1145477468480856,22.7
,,0.0027479610466849156,0.0008131883951999799,0.00016848882678214292,0.0037296382686670382,2.6564427091730214,0.7367902323854664,0.21803411929559888,-7.1145477468480856,22.8
,,0.0027479610466849156,0.0008131883951999799,0.00016848882678214292,0.0037296382686670382,2.665695544398939,0.7367902323854664,0.21803411929559888,-7.1145477468480856,22.9
,,0.0027479610466849156,0.0008131883951999799,0.00016848882678214292,0.0037296382686670382,2.674948379624856,0.7367902323854664,0.21803411929559888,-7.1145477468480856,23.0
,,0.0027479610466849156,0.0008131883951999799,0.00016848882678214292,0.0037296382686670382,2.684201214850774,0.7367902323854664,0.21803411929559888,-7.1145477468480856,23.1
,,0.0013135047769722303,0.0008295904100903759,0.00015232908060542558,0.0022954242676680317,2.6734993211102953,0.5722274507041988,0.36141049032873285,-7.094578460794681,23.2
,,0.0013135047769722303,0.0008295904100903759,0.00015232908060542558,0.0022954242676680317,2.662610207895665,0.5722274507041988,0.36141049032873285,-7.094578460794681,23.3
,,0.0029877724643975483,0.0008625494563630754,0.00017515546994665939,0.004025477390707283,2.6797975507474465,0.7422156863418855,0.2142725874834746,-7.055618069991863,23.4
,,0.0029877724643975483,0.0008625494563630754,0.00017515546994665939,0.004025477390707283,2.696984893599228,0.7422156863418855,0.2142725874834746,-7.055618069991863,23.5
,,0.0029877724643975483,0.0008625494563630754,0.00017515546994665939,0.004025477390707283,2.7141722364510095,0.7422156863418855,0.2142725874834746,-7.055618069991863,23.6
,,0.0029877724643975483,0.0008625494563630754,0.00017515546994665939,0.004025477390707283,2.7313595793027905,0.7422156863418855,0.2142725874834746,-7.055618069991863,23.7
,,0.0029877724643975483,0.0008625494563630754,0.00017515546994665939,0.004025477390707283,2.748546922154572,0.7422156863418855,0.2142725874834746,-7.055618069991863,23.8
,,0.0031623546855259776,0.0008925447073481048,0.00016026822685569808,0.00421516761972978,2.7666141724930764,0.7502322495371383,0.21174595837432503,-7.0214339532982715,23.9
,,0.0031623546855259776,0.0008925447073481048,0.00016026822685569808,0.00421516761972978,2.78461623394691,0.7502322495371383,0.21174595837432503,-7.0214339532982715,24.0
,,0.003276025020346929,0.0009260733105863888,0.0001853933230140916,0.0043874916539474096,2.802556816101181,0.7466737896582668,0.21107124152662585,-6.984557157352031,24.1
,,0.003276025020346929,0.0009260733105863888,0.0001853933230140916,0.0043874916539474096,2.820497398255452,0.7466737896582668,0.21107124152662585,-6.984557157352031,24.2
,,0.003276025020346929,0.0009260733105863888,0.0001853933230140916,0.0043874916539474096,2.8384379804097226,0.7466737896582668,0.21107124152662585,-6.984557157352031,24.3
,,0.003276025020346929,0.0009260733105863888,0.0001853933230140916,0.0043874916539474096,2.856378562563993,0.7466737896582668,0.21107124152662585,-6.984557157352031,24.4
,,0.003276025020346929,0.0009260733105863888,0.0001853933230140916,0.0043874916539474096,2.874319144718264,0.7466737896582668,0.21107124152662585,-6.984557157352031,24.5
,,0.0034891818295763087,0.0009670008159320992,0.00017081537956681672,0.004626998025075225,2.88455879526019,0.7540919210830184,0.20899097226573332,-6.941311218734604,24.6
,,0.0034891818295763087,0.0009670008159320992,0.00017081537956681672,0.004626998025075225,2.903269059014557,0.7540919210830184,0.20899097226573332,-6.941311218734604,24.7
,,0.0036103552790475875,0.0010019745245279598,0.00019893704062244063,0.004811266844197988,2.921923649634259,0.7503959759374798,0.20825586212002828,-6.90578270126547,24.8
,,0.0036103552790475875,0.0010019745245279598,0.00019893704062244063,0.004811266844197988,2.9405782402539606,0.7503959759374798,0.20825586212002828,-6.90578270126547,24.9
,,0.0036103552790475875,0.0010019745245279598,0.00019893704062244063,0.004811266844197988,2.9592328308736624,0.7503959759374798,0.20825586212002828,-6.90578270126547,25.0
,,0.0036103552790475875,0.0010019745245279598,0.00019893704062244063,0.004811266844197988,2.977887421493364,0.7503959759374798,0.20825586212002828,-6.90578270126547,25.1
,,0.0036103552790475875,0.0010019745245279598,0.00019893704062244063,0.004811266844197988,2.996542012113066,0.7503959759374798,0.20825586212002828,-6.90578270126547,25.2
,,0.0038846538705737677,0.0010605846834183487,0.00018581926398472358,0.0051310578179768395,3.006730691514588,0.7570863569230788,0.2066990318648434,-6.84893493479646,25.3
,,0.0038846538705737677,0.0010605846834183487,0.00018581926398472358,0.0051310578179768395,3.0169193709161095,0.7570863569230788,0.2066990318648434,-6.84893493479646,25.4
,,0.003995937330565453,0.001091162695404622,0.00021728065414066832,0.005304380680110744,3.027100758644201,0.753327781610506,0.20570972583020586,-6.820511458222083,25.5
,,0.003995937330565453,0.001091162695404622,0.00021728065414066832,0.005304380680110744,3.037282146372292,0.753327781610506,0.20570972583020586,-6.820511458222083,25.6
,,0.003995937330565453,0.001091162695404622,0.00021728065414066832,0.005304380680110744,3.047463534100383,0.753327781610506,0.20570972583020586,-6.820511458222083,25.7
,,0.003995937330565453,0.001091162695404622,0.00021728065414066832,0.005304380680110744,3.0576449218284747,0.753327781610506,0.20570972583020586,-6.820511458222083,25.8
,,0.003995937330565453,0.001091162695404622,0.00021728065414066832,0.005304380680110744,3.0766910618536047,0.753327781610506,0.20570972583020586,-6.820511458222083,25.9
,,0.0018264274901340952,0.0011481038164850032,0.00020332291114863064,0.003177854217767729,3.0633998275936962,0.5747360844693065,0.36128272029151925,-6.769643552695307,26.0
,,0.004350352032672714,0.0011684945565101068,0.000238069427877683,0.005756916017060505,3.073799917774973,0.7556740483586235,0.20297231244077502,-6.752039062524148,26.1
,,0.004350352032672714,0.0011684945565101068,0.000238069427877683,0.005756916017060505,3.0842000079562504,0.7556740483586235,0.20297231244077502,-6.752039062524148,26.2
,,0.004350352032672714,0.0011684945565101068,0.000238069427877683,0.005756916017060505,3.0946000981375277,0.7556740483586235,0.20297231244077502,-6.752039062524148,26.3
,,0.004350352032672714,0.0011684945565101068,0.000238069427877683,0.005756916017060505,3.105000188318805,0.7556740483586235,0.20297231244077502,-6.752039062524148,26.4
,,0.004350352032672714,0.0011684945565101068,0.000238069427877683,0.005756916017060505,3.1148183976399384,0.7556740483586235,0.20297231244077502,-6.752039062524148,26.5
,,0.004605466247339931,0.0012215843232265553,0.00022189245609342503,0.0060489430266599115,3.125306901142801,0.7613671061277899,0.20195004612253495,-6.707606637126351,26.6
,,0.004605466247339931,0.0012215843232265553,0.00022189245609342503,0.0060489430266599115,3.1357954046456635,0.7613671061277899,0.20195004612253495,-6.707606637126351,26.7
,,0.004684079161404343,0.0012343470203815697,0.0002611244847108764,0.006179550666496789,3.146558426398168,0.7579967240659854,0.19974705071579674,-6.697213177164341,26.8
,,0.004684079161404343,0.0012343470203815697,0.0002611244847108764,0.006179550666496789,3.157321448150674,0.7579967240659854,0.19974705071579674,-6.697213177164341,26.9
,,0.004684079161404343,0.0012343470203815697,0.0002611244847108764,0.006179550666496789,3.168084469903179,0.7579967240659854,0.19974705071579674,-6.697213177164341,27.0
,,0.004684079161404343,0.0012343470203815697,0.0002611244847108764,0.006179550666496789,3.1788474916556835,0.7579967240659854,0.19974705071579674,-6.697213177164341,27.1
,,0.004684079161404343,0.0012343470203815697,0.0002611244847108764,0.006179550666496789,3.189180573815062,0.7579967240659854,0.19974705071579674,-6.697213177164341,27.2
,,0.003942046355161461,0.0010172515616757316,0.00013101721829184576,0.005090315135129039,3.2004071022154847,0.7744208856455271,0.19984058642175684,-6.890650835890012,27.3
,,0.003942046355161461,0.0010172515616757316,0.00013101721829184576,0.005090315135129039,3.2116336306159075,0.7744208856455271,0.19984058642175684,-6.890650835890012,27.4
,,0.004987908709117422,0.0012866993925485409,0.00028563218699892483,0.006560240288664888,3.222874838664797,0.7603240871734196,0.19613601574499712,-6.6556749498737435,27.5
,,0.004987908709117422,0.0012866993925485409,0.00028563218699892483,0.006560240288664888,3.234116046713687,0.7603240871734196,0.19613601574499712,-6.6556749498737435,27.6
,,0.004987908709117422,0.0012866993925485409,0.00028563218699892483,0.006560240288664888,3.245357254762576,0.7603240871734196,0.19613601574499712,-6.6556749498737435,27.7
,,0.004987908709117422,0.0012866993925485409,0.00028563218699892483,0.006560240288664888,3.2559401983034175,0.7603240871734196,0.19613601574499712,-6.6556749498737435,27.8
,,0.004987908709117422,0.0012866993925485409,0.00028563218699892483,0.006560240288664888,3.2667178029396036,0.7603240871734196,0.19613601574499712,-6.6556749498737435,27.9
,,0.00524083056464087,0.001339149883860893,0.0002664505090092583,0.006846430957511021,3.277906918820975,0.7654835924243575,0.19559824559272748,-6.61572028137487,28.0
,,0.00524083056464087,0.001339149883860893,0.0002664505090092583,0.006846430957511021,3.289096034702347,0.7654835924243575,0.19559824559272748,-6.61572028137487,28.1
,,0.005255495381629694,0.0013259910357744271,0.0003107930196586091,0.00689227943706273,3.3008395588246833,0.7625191969682266,0.19238788094458373,-6.625595147592429,28.2
,,0.005255495381629694,0.0013259910357744271,0.0003107930196586091,0.00689227943706273,3.3125830829470186,0.7625191969682266,0.19238788094458373,-6.625595147592429,28.3
,,0.005255495381629694,0.0013259910357744271,0.0003107930196586091,0.00689227943706273,3.3236017084469007,0.7625191969682266,0.19238788094458373,-6.625595147592429,28.4
,,0.005255495381629694,0.0013259910357744271,0.0003107930196586091,0.00689227943706273,3.351653702377614,0.7625191969682266,0.19238788094458373,-6.625595147592429,28.5
,,0.005255495381629694,0.0013259910357744271,0.0003107930196586091,0.00689227943706273,3.3797056963083256,0.7625191969682266,0.19238788094458373,-6.625595147592429,28.6
,,0.005469045667140103,0.0013684966828598727,0.0002879800921640219,0.007125522442163998,3.4081237155652797,0.7675290775561956,0.1920556273547101,-6.594042453410576,28.7
,,0.005469045667140103,0.0013684966828598727,0.0002879800921640219,0.007125522442163998,3.4365417348222347,0.7675290775561956,0.1920556273547101,-6.594042453410576,28.8
,,0.005456373334168222,0.001344371313182653,0.0003340427324460969,0.007134787379796972,3.4656518746958156,0.7647562630413647,0.18842486000205216,-6.61182880034853,28.9
,,0.005456373334168222,0.001344371313182653,0.0003340427324460969,0.007134787379796972,3.4770846896574152,0.7647562630413647,0.18842486000205216,-6.61182880034853,29.0
,,0.005456373334168222,0.001344371313182653,0.0003340427324460969,0.007134787379796972,3.488652761381966,0.7647562630413647,0.18842486000205216,-6.61182880034853,29.1
,,0.005456373334168222,0.001344371313182653,0.0003340427324460969,0.007134787379796972,3.500220833106518,0.7647562630413647,0.18842486000205216,-6.61182880034853,29.2
,,0.005456373334168222,0.001344371313182653,0.0003340427324460969,0.007134787379796972,3.5117889048310693,0.7647562630413647,0.18842486000205216,-6.61182880034853,29.3
,,0.002533779136303165,0.0013618476807054569,0.0003031735238983148,0.004198800340906936,3.498933253236678,0.6034531129326981,0.3243420906294628,-6.598912912526838,29.4
,,0.005545905276989083,0.001334211052023106,0.00035022451131412044,0.0072303408403263094,3.511590351353792,0.7670323432136835,0.18452948228688099,-6.6194151340902,29.5
,,0.005545905276989083,0.001334211052023106,0.00035022451131412044,0.0072303408403263094,3.523345548899185,0.7670323432136835,0.18452948228688099,-6.6194151340902,29.6
,,0.005545905276989083,0.001334211052023106,0.00035022451131412044,0.0072303408403263094,3.5351007464445785,0.7670323432136835,0.18452948228688099,-6.6194151340902,29.7
,,0.005545905276989083,0.001334211052023106,0.00035022451131412044,0.0072303408403263094,3.546936333457357,0.7670323432136835,0.18452948228688099,-6.6194151340902,29.8
,,0.005545905276989083,0.001334211052023106,0.00035022451131412044,0.0072303408403263094,3.558771920470134,0.7670323432136835,0.18452948228688099,-6.6194151340902,29.9
,,0.005548659198077974,0.0013281958272851468,0.0003118380003232036,0.007188693025686324,3.570839713549306,0.7718592487190297,0.18476179502161177,-6.623933778494017,30.0
,,0.005548659198077974,0.0013281958272851468,0.0003118380003232036,0.007188693025686324,3.5829075066284792,0.7718592487190297,0.18476179502161177,-6.623933778494017,30.1
,,0.0055035532311175925,0.001292861626502326,0.0003566843294743956,0.007153099187094314,3.59480601187767,0.7693942285949499,0.1807414650190953,-6.65089720231878,30.2
,,0.0055035532311175925,0.001292861626502326,0.0003566843294743956,0.007153099187094314,3.606704517126863,0.7693942285949499,0.1807414650190953,-6.65089720231878,30.3
,,0.0055035532311175925,0.001292861626502326,0.0003566843294743956,0.007153099187094314,3.6186219359496152,0.7693942285949499,0.1807414650190953,-6.65089720231878,30.4
,,0.0055035532311175925,0.001292861626502326,0.0003566843294743956,0.007153099187094314,3.6305393547723672,0.7693942285949499,0.1807414650190953,-6.65089720231878,30.5
,,0.0055035532311175925,0.001292861626502326,0.0003566843294743956,0.007153099187094314,3.642456773595119,0.7693942285949499,0.1807414650190953,-6.65089720231878,30.6
,,0.005447185863518729,0.0012731233152874655,0.0003134636744387265,0.007033772853244921,3.654615560327076,0.7744330073163729,0.18100148268224642,-6.6662820942732575,30.7
,,0.005447185863518729,0.0012731233152874655,0.0003134636744387265,0.007033772853244921,3.666774347059032,0.7744330073163729,0.18100148268224642,-6.6662820942732575,30.8
,,0.004429351283538953,0.0010399434271917054,0.00024643357554322804,0.005715728286273887,3.6776369251723655,0.7749408407281848,0.18194416793553528,-6.868588964239475,30.9
,,0.004429351283538953,0.0010399434271917054,0.00024643357554322804,0.005715728286273887,3.6884995032857004,0.7749408407281848,0.18194416793553528,-6.868588964239475,31.0
,,0.004429351283538953,0.0010399434271917054,0.00024643357554322804,0.005715728286273887,3.699341609562607,0.7749408407281848,0.18194416793553528,-6.868588964239475,31.1
,,0.004429351283538953,0.0010399434271917054,0.00024643357554322804,0.005715728286273887,3.710183715839515,0.7749408407281848,0.18194416793553528,-6.868588964239475,31.2
,,0.004429351283538953,0.0010399434271917054,0.00024643357554322804,0.005715728286273887,3.7210258221164225,0.7749408407281848,0.18194416793553528,-6.868588964239475,31.3
,,0.005286486937685674,0.0011996258340729407,0.0003084273837827144,0.006794540155541328,3.733507445389551,0.7780492596506693,0.1765573249419357,-6.7257455757486655,31.4
,,0.0052540338800593014,0.0011645314602937537,0.00034928592658300126,0.006767851266936057,3.747155013225,0.7763223027266539,0.17206812241619499,-6.755436452865903,31.5
,,0.0052540338800593014,0.0011645314602937537,0.00034928592658300126,0.006767851266936057,3.7597274871687785,0.7763223027266539,0.17206812241619499,-6.755436452865903,31.6
,,0.0052540338800593014,0.0011645314602937537,0.00034928592658300126,0.006767851266936057,3.7723105096868723,0.7763223027266539,0.17206812241619499,-6.755436452865903,31.7
,,0.0052540338800593014,0.0011645314602937537,0.00034928592658300126,0.006767851266936057,3.784893532204966,0.7763223027266539,0.17206812241619499,-6.755436452865903,31.8
,,0.0052540338800593014,0.0011645314602937537,0.00034928592658300126,0.006767851266936057,3.79747655472306,0.7763223027266539,0.17206812241619499,-6.755436452865903,31.9
,,0.0052540338800593014,0.0011645314602937537,0.00034928592658300126,0.006767851266936057,3.8100595772411534,0.7763223027266539,0.17206812241619499,-6.755436452865903,32.0
,,0.005088578186797062,0.0011133261446186287,0.0002979083559608953,0.006499812687376587,3.8232969761377236,0.7828807431142883,0.17128588132714057,-6.800403217611859,32.1
,,0.004134412480859967,0.0009765458416189284,0.0002541109798672532,0.005365069302346149,3.8527457915341543,0.7706167894330805,0.18201924086831164,-6.931488863927163,32.2
,,0.004134412480859967,0.0009765458416189284,0.0002541109798672532,0.005365069302346149,3.882194606930584,0.7706167894330805,0.18201924086831164,-6.931488863927163,32.3
,,0.004134412480859967,0.0009765458416189284,0.0002541109798672532,0.005365069302346149,3.890748220316866,0.7706167894330805,0.18201924086831164,-6.931488863927163,32.4
,,0.004134412480859967,0.0009765458416189284,0.0002541109798672532,0.005365069302346149,3.899301833703148,0.7706167894330805,0.18201924086831164,-6.931488863927163,32.5
,,0.004134412480859967,0.0009765458416189284,0.0002541109798672532,0.005365069302346149,3.907855447089431,0.7706167894330805,0.18201924086831164,-6.931488863927163,32.6
,,0.004134412480859967,0.0009765458416189284,0.0002541109798672532,0.005365069302346149,3.9164090604757127,0.7706167894330805,0.18201924086831164,-6.931488863927163,32.7
,,0.004843669311029746,0.0009851351695291362,0.000315167773919224,0.006143972254478106,3.932552067822721,0.788361195397551,0.1603417347484128,-6.922731698258717,32.8
,,0.004843669311029746,0.0009851351695291362,0.000315167773919224,0.006143972254478106,3.9478151676830056,0.788361195397551,0.1603417347484128,-6.922731698258717,32.9
,,0.004843669311029746,0.0009851351695291362,0.000315167773919224,0.006143972254478106,3.963078267543291,0.788361195397551,0.1603417347484128,-6.922731698258717,33.0
,,0.004843669311029746,0.0009851351695291362,0.000315167773919224,0.006143972254478106,3.9784028467031396,0.788361195397551,0.1603417347484128,-6.922731698258717,33.1
,,0.004843669311029746,0.0009851351695291362,0.000315167773919224,0.006143972254478106,3.9937274258629873,0.788361195397551,0.1603417347484128,-6.922731698258717,33.2
,,0.004843669311029746,0.0009851351695291362,0.000315167773919224,0.006143972254478106,4.009052005022836,0.788361195397551,0.1603417347484128,-6.922731698258717,33.3
,,0.004647278096918038,0.0008965669243629677,0.0002941624323518803,0.0058380074536328866,4.027339457030778,0.796038397317585,0.15357413149670618,-7.016937616993692,33.4
,,0.004647278096918038,0.0008965669243629677,0.0002941624323518803,0.0058380074536328866,4.04562690903872,0.796038397317585,0.15357413149670618,-7.016937616993692,33.5
,,0.004647278096918038,0.0008965669243629677,0.0002941624323518803,0.0058380074536328866,4.063128725020532,0.796038397317585,0.15357413149670618,-7.016937616993692,33.6
,,0.004647278096918038,0.0008965669243629677,0.0002941624323518803,0.0058380074536328866,4.080630541002345,0.796038397317585,0.15357413149670618,-7.016937616993692,33.7
,,0.004647278096918038,0.0008965669243629677,0.0002941624323518803,0.0058380074536328866,4.098188030118823,0.796038397317585,0.15357413149670618,-7.016937616993692,33.8
,,0.004647278096918038,0.0008965669243629677,0.0002941624323518803,0.0058380074536328866,4.1157455192353005,0.796038397317585,0.15357413149670618,-7.016937616993692,33.9
,,0.004647278096918038,0.0008965669243629677,0.0002941624323518803,0.0058380074536328866,4.1333030083517786,0.796038397317585,0.15357413149670618,-7.016937616993692,34.0
,,0.0044561020847862665,0.0008107247017652181,0.00027167298218378307,0.005538499768735267,4.154338590289367,0.8045684338457291,0.1463798385154306,-7.1175820167601795,34.1
,,0.0044561020847862665,0.0008107247017652181,0.00027167298218378307,0.005538499768735267,4.175374172226956,0.8045684338457291,0.1463798385154306,-7.1175820167601795,34.2
,,0.0044561020847862665,0.0008107247017652181,0.00027167298218378307,0.005538499768735267,4.19574856658368,0.8045684338457291,0.1463798385154306,-7.1175820167601795,34.3
,,0.0044561020847862665,0.0008107247017652181,0.00027167298218378307,0.005538499768735267,4.216122960940403,0.8045684338457291,0.1463798385154306,-7.1175820167601795,34.4
,,0.0044561020847862665,0.0008107247017652181,0.00027167298218378307,0.005538499768735267,4.236504646970557,0.8045684338457291,0.1463798385154306,-7.1175820167601795,34.5
,,0.0044561020847862665,0.0008107247017652181,0.00027167298218378307,0.005538499768735267,4.256886333000712,0.8045684338457291,0.1463798385154306,-7.1175820167601795,34.6
,,0.004481289976977183,0.0007967823219338358,0.00026164390786006874,0.005539716206771087,4.278687915935766,0.8089385466172055,0.14383089172689825,-7.134929038268023,34.7
,,0.0043099160053325335,0.0007379479900312222,0.00025079184088753364,0.005298655836251289,4.302891415506992,0.8133979897025596,0.13927079109053972,-7.211637210059662,34.8
,,0.0043099160053325335,0.0007379479900312222,0.00025079184088753364,0.005298655836251289,4.327094915078217,0.8133979897025596,0.13927079109053972,-7.211637210059662,34.9
,,0.0043099160053325335,0.0007379479900312222,0.00025079184088753364,0.005298655836251289,4.374312529904987,0.8133979897025596,0.13927079109053972,-7.211637210059662,35.0
,,0.0043099160053325335,0.0007379479900312222,0.00025079184088753364,0.005298655836251289,4.39783882029057,0.8133979897025596,0.13927079109053972,-7.211637210059662,35.1
,,0.0043099160053325335,0.0007379479900312222,0.00025079184088753364,0.005298655836251289,4.421365110676153,0.8133979897025596,0.13927079109053972,-7.211637210059662,35.2
,,0.004342173030059112,0.0007293021842422225,0.00024205517537262617,0.00531353038967396,4.44615215025034,0.8171917184283854,0.13725378999610327,-7.223422392994035,35.3
,,0.004186611495935184,0.000678084873683587,0.00023136358534671725,0.005096059954965489,4.473386930930805,0.8215389012163882,0.13306061539226516,-7.296238095434375,35.4
,,0.004186611495935184,0.000678084873683587,0.00023136358534671725,0.005096059954965489,4.50062171161127,0.8215389012163882,0.13306061539226516,-7.296238095434375,35.5
,,0.004186611495935184,0.000678084873683587,0.00023136358534671725,0.005096059954965489,4.527333866006638,0.8215389012163882,0.13306061539226516,-7.296238095434375,35.6
,,0.004186611495935184,0.000678084873683587,0.00023136358534671725,0.005096059954965489,4.554046020402004,0.8215389012163882,0.13306061539226516,-7.296238095434375,35.7
,,0.004186611495935184,0.000678084873683587,0.00023136358534671725,0.005096059954965489,4.580483656547729,0.8215389012163882,0.13306061539226516,-7.296238095434375,35.8
,,0.0042130215679520785,0.0006725379943558363,0.00022375170180035612,0.005109311264108271,4.607923424422551,0.8245771984078519,0.13162987330215328,-7.304451950900786,35.9
,,0.0042130215679520785,0.0006725379943558363,0.00022375170180035612,0.005109311264108271,4.635363192297373,0.8245771984078519,0.13162987330215328,-7.304451950900786,36.0
,,0.004082211841730955,0.0006300356786273636,0.00021398750295068542,0.004926235023309004,4.665191540463895,0.8286676990471499,0.12789395464209136,-7.369734107440422,36.1
,,0.004082211841730955,0.0006300356786273636,0.00021398750295068542,0.004926235023309004,4.6950198886304175,0.8286676990471499,0.12789395464209136,-7.369734107440422,36.2
,,0.004082211841730955,0.0006300356786273636,0.00021398750295068542,0.004926235023309004,4.723954790555895,0.8286676990471499,0.12789395464209136,-7.369734107440422,36.3
,,0.004082211841730955,0.0006300356786273636,0.00021398750295068542,0.004926235023309004,4.752889692481374,0.8286676990471499,0.12789395464209136,-7.369734107440422,36.4
,,0.004082211841730955,0.0006300356786273636,0.00021398750295068542,0.004926235023309004,4.781809914758385,0.8286676990471499,0.12789395464209136,-7.369734107440422,36.5
,,0.004099988929218991,0.0006268115716703566,0.00020807643569711718,0.004934876936586465,4.811415566389835,0.8308188799648205,0.1270166570970121,-7.374864586149379,36.6
,,0.0035207427860723473,0.0007670434108347357,0.0002275246202628353,0.004515310817169918,4.8193433802889984,0.7797343147861212,0.169876104191538,-7.172967159978643,36.7
,,0.0035207427860723473,0.0007670434108347357,0.0002275246202628353,0.004515310817169918,4.827271194188163,0.7797343147861212,0.169876104191538,-7.172967159978643,36.8
,,0.0035207427860723473,0.0007670434108347357,0.0002275246202628353,0.004515310817169918,4.835199008087326,0.7797343147861212,0.169876104191538,-7.172967159978643,36.9
,,0.0035207427860723473,0.0007670434108347357,0.0002275246202628353,0.004515310817169918,4.842715310741304,0.7797343147861212,0.169876104191538,-7.172967159978643,37.0
,,0.0035207427860723473,0.0007670434108347357,0.0002275246202628353,0.004515310817169918,4.850231613395281,0.7797343147861212,0.169876104191538,-7.172967159978643,37.1
,,0.0035728975236745467,0.0007960513132847409,0.000230142484816034,0.004599091321775321,4.856063038439192,0.7768703149593803,0.17308882507196066,-7.135846910272047,37.2
,,0.0035728975236745467,0.0007960513132847409,0.000230142484816034,0.004599091321775321,4.861894463483104,0.7768703149593803,0.17308882507196066,-7.135846910272047,37.3
,,0.003923433037989358,0.0005666772548618605,0.00018840489285675262,0.004678515185707971,4.894784784053774,0.83860645573509,0.12112331206981189,-7.4757206317122975,37.4
,,0.003923433037989358,0.0005666772548618605,0.00018840489285675262,0.004678515185707971,4.927675104624446,0.83860645573509,0.12112331206981189,-7.4757206317122975,37.5
,,0.003923433037989358,0.0005666772548618605,0.00018840489285675262,0.004678515185707971,4.960565425195117,0.83860645573509,0.12112331206981189,-7.4757206317122975,37.6
,,0.003923433037989358,0.0005666772548618605,0.00018840489285675262,0.004678515185707971,4.993089720439546,0.83860645573509,0.12112331206981189,-7.4757206317122975,37.7
,,0.003923433037989358,0.0005666772548618605,0.00018840489285675262,0.004678515185707971,5.025614015683975,0.83860645573509,0.12112331206981189,-7.4757206317122975,37.8
,,0.003940568379325722,0.0005691797732165699,0.00018735952583019723,0.004697107678372489,5.057442461072746,0.838935074337299,0.12117665001322393,-7.47131422783927,37.9
,,0.003940568379325722,0.0005691797732165699,0.00018735952583019723,0.004697107678372489,5.089270906461517,0.838935074337299,0.12117665001322393,-7.47131422783927,38.0
,,0.0038748619775177333,0.0005491209548404395,0.00018219564734655997,0.004606178579704733,5.12257981133231,0.8412313831232573,0.11921399601394514,-7.507191822250547,38.1
,,0.0038748619775177333,0.0005491209548404395,0.00018219564734655997,0.004606178579704733,5.155888716203101,0.8412313831232573,0.11921399601394514,-7.507191822250547,38.2
,,0.0038748619775177333,0.0005491209548404395,0.00018219564734655997,0.004606178579704733,5.189197621073893,0.8412313831232573,0.11921399601394514,-7.507191822250547,38.3
,,0.0038748619775177333,0.0005491209548404395,0.00018219564734655997,0.004606178579704733,5.246930249263627,0.8412313831232573,0.11921399601394514,-7.507191822250547,38.4
,,0.0038903523349350295,0.0005529836573512103,0.00018356324901878455,0.004626899241305024,5.278913698568216,0.8408119848829364,0.11951495559156383,-7.500182109588918,38.5
,,0.0038903523349350295,0.0005529836573512103,0.00018356324901878455,0.004626899241305024,5.3108971478728035,0.8408119848829364,0.11951495559156383,-7.500182109588918,38.6
,,0.0038903523349350295,0.0005529836573512103,0.00018356324901878455,0.004626899241305024,5.342880597177391,0.8408119848829364,0.11951495559156383,-7.500182109588918,38.7
,,0.003834855513567396,0.0005364496848238388,0.00018059898321908842,0.004551904181610323,5.376123831881515,0.8424728115016565,0.11785170852038004,-7.530537784403662,38.8
,,0.003834855513567396,0.0005364496848238388,0.00018059898321908842,0.004551904181610323,5.409367066585641,0.8424728115016565,0.11785170852038004,-7.530537784403662,38.9
,,0.003834855513567396,0.0005364496848238388,0.00018059898321908842,0.004551904181610323,5.44237809522337,0.8424728115016565,0.11785170852038004,-7.530537784403662,39.0
,,0.003834855513567396,0.0005364496848238388,0.00018059898321908842,0.004551904181610323,5.475389123861101,0.8424728115016565,0.11785170852038004,-7.530537784403662,39.1
,,0.0038557610629398687,0.0005417468333992996,0.00018432385060508638,0.0045818317469442545,5.507171318523335,0.8415326611483231,0.11823804611782286,-7.520711762697699,39.2
,,0.0038557610629398687,0.0005417468333992996,0.00018432385060508638,0.0045818317469442545,5.538953513185571,0.8415326611483231,0.11823804611782286,-7.520711762697699,39.3
,,0.0038039447248382745,0.0005269582166624223,0.00018360909201477286,0.00451451203351547,5.571862474614035,0.842603740248783,0.11672539861458242,-7.548389297836701,39.4
,,0.0038039447248382745,0.0005269582166624223,0.00018360909201477286,0.00451451203351547,5.6047714360424985,0.842603740248783,0.11672539861458242,-7.548389297836701,39.5
,,0.0038039447248382745,0.0005269582166624223,0.00018360909201477286,0.00451451203351547,5.637680397470963,0.842603740248783,0.11672539861458242,-7.548389297836701,39.6
,,0.0038039447248382745,0.0005269582166624223,0.00018360909201477286,0.00451451203351547,5.670347990990223,0.842603740248783,0.11672539861458242,-7.548389297836701,39.7
,,0.0038369589210526444,0.0005334451132224867,0.00018966155495350558,0.004560065589228637,5.702727881085838,0.8414262571389219,0.11698189483996485,-7.536154373072697,39.8
,,0.0038369589210526444,0.0005334451132224867,0.00018966155495350558,0.004560065589228637,5.735323071663997,0.8414262571389219,0.11698189483996485,-7.536154373072697,39.9
,,0.0038369589210526444,0.0005334451132224867,0.00018966155495350558,0.004560065589228637,5.767918262242153,0.8414262571389219,0.11698189483996485,-7.536154373072697,40.0
,,0.0037883461661963975,0.0005200450602210851,0.00019180207916854073,0.004500193305586024,5.801534112634945,0.8418185417710788,0.11556060482458848,-7.561595095871748,40.1
,,0.0037883461661963975,0.0005200450602210851,0.00019180207916854073,0.004500193305586024,5.835149963027737,0.8418185417710788,0.11556060482458848,-7.561595095871748,40.2
,,0.0037883461661963975,0.0005200450602210851,0.00019180207916854073,0.004500193305586024,5.868765813420528,0.8418185417710788,0.11556060482458848,-7.561595095871748,40.3
,,0.0037883461661963975,0.0005200450602210851,0.00019180207916854073,0.004500193305586024,5.900742146817098,0.8418185417710788,0.11556060482458848,-7.561595095871748,40.4
,,0.003916754817925987,0.0008515371685896731,0.00029143654739729503,0.005059728533912955,5.901718967634857,0.7741037472018195,0.16829700701968975,-7.068467408092325,40.5
,,0.003916754817925987,0.0008515371685896731,0.00029143654739729503,0.005059728533912955,5.902695788452616,0.7741037472018195,0.16829700701968975,-7.068467408092325,40.6
,,0.003916754817925987,0.0008515371685896731,0.00029143654739729503,0.005059728533912955,5.903672609270373,0.7741037472018195,0.16829700701968975,-7.068467408092325,40.7
,,0.004052658520185876,0.0008638457255650461,0.00031037060106874775,0.005226874846819669,5.905669274099257,0.7753502119247692,0.16527002288770304,-7.054116363477452,40.8
,,0.004052658520185876,0.0008638457255650461,0.00031037060106874775,0.005226874846819669,5.907665938928139,0.7753502119247692,0.16527002288770304,-7.054116363477452,40.9
,,0.004052658520185876,0.0008638457255650461,0.00031037060106874775,0.005226874846819669,5.909662603757023,0.7753502119247692,0.16527002288770304,-7.054116363477452,41.0
,,0.003854918758474971,0.000521313781082414,0.00021509131406519935,0.004591323853622584,5.941040537680697,0.8396094201530601,0.1135432388789334,-7.559158430548052,41.1
,,0.003854918758474971,0.000521313781082414,0.00021509131406519935,0.004591323853622584,5.976161784070906,0.8396094201530601,0.1135432388789334,-7.559158430548052,41.2
,,0.003854918758474971,0.000521313781082414,0.00021509131406519935,0.004591323853622584,6.011283030461115,0.8396094201530601,0.1135432388789334,-7.559158430548052,41.3
,,0.0038033871423597473,0.0005095174735915807,0.00019994901707270587,0.004512853633024034,6.0471827394767335,0.8427898291509893,0.11290361155590067,-7.582046410322193,41.4
,,0.0038033871423597473,0.0005095174735915807,0.00019994901707270587,0.004512853633024034,6.083082448492352,0.8427898291509893,0.11290361155590067,-7.582046410322193,41.5
,,0.0038033871423597473,0.0005095174735915807,0.00019994901707270587,0.004512853633024034,6.11898215750797,0.8427898291509893,0.11290361155590067,-7.582046410322193,41.6
,,0.0038033871423597473,0.0005095174735915807,0.00019994901707270587,0.004512853633024034,6.154881866523588,0.8427898291509893,0.11290361155590067,-7.582046410322193,41.7
,,0.0038928863715215075,0.0005158224370966388,0.00023402177878281975,0.004642730587400966,6.184106248627751,0.8384906895277706,0.11110324568400165,-7.569747965857374,41.8
,,0.0038928863715215075,0.0005158224370966388,0.00023402177878281975,0.004642730587400966,6.213330630731916,0.8384906895277706,0.11110324568400165,-7.569747965857374,41.9
,,0.0038928863715215075,0.0005158224370966388,0.00023402177878281975,0.004642730587400966,6.242555012836079,0.8384906895277706,0.11110324568400165,-7.569747965857374,42.0
,,0.004339911757064361,0.0008869150043443913,0.00035937263930553337,0.0055861994007142856,6.242294021248596,0.7768988261517183,0.1587689483893083,-7.027761403984085,42.1
,,0.004339911757064361,0.0008869150043443913,0.00035937263930553337,0.0055861994007142856,6.242033029661113,0.7768988261517183,0.1587689483893083,-7.027761403984085,42.2
,,0.004339911757064361,0.0008869150043443913,0.00035937263930553337,0.0055861994007142856,6.2417720380736315,0.7768988261517183,0.1587689483893083,-7.027761403984085,42.3
,,0.004362906778667583,0.0008748778366116694,0.00040732893847345063,0.005645113553752704,6.239588269263978,0.7728643077103831,0.1549796701662585,-7.041426296654732,42.4
,,0.004362906778667583,0.0008748778366116694,0.00040732893847345063,0.005645113553752704,6.237404500454327,0.7728643077103831,0.1549796701662585,-7.041426296654732,42.5
,,0.004362906778667583,0.0008748778366116694,0.00040732893847345063,0.005645113553752704,6.235220731644674,0.7728643077103831,0.1549796701662585,-7.041426296654732,42.6
,,0.004362906778667583,0.0008748778366116694,0.00040732893847345063,0.005645113553752704,6.23303696283502,0.7728643077103831,0.1549796701662585,-7.041426296654732,42.7
,,0.003908262611038727,0.0005016880045856467,0.00023698292425129058,0.004646933539875664,6.262001526582228,0.8410412108332624,0.10796108880848555,-7.597532136296188,42.8
,,0.003908262611038727,0.0005016880045856467,0.00023698292425129058,0.004646933539875664,6.290966090329434,0.8410412108332624,0.10796108880848555,-7.597532136296188,42.9
,,0.004051469936803305,0.0005082508373729951,0.00028078266423234066,0.0048405034384086405,6.321943688513069,0.8369935045713475,0.10499958193193375,-7.584535457895946,43.0
,,0.004051469936803305,0.0005082508373729951,0.00028078266423234066,0.0048405034384086405,6.349443193875593,0.8369935045713475,0.10499958193193375,-7.584535457895946,43.1
,,0.004051469936803305,0.0005082508373729951,0.00028078266423234066,0.0048405034384086405,6.376942699238116,0.8369935045713475,0.10499958193193375,-7.584535457895946,43.2
,,0.004051469936803305,0.0005082508373729951,0.00028078266423234066,0.0048405034384086405,6.40444220460064,0.8369935045713475,0.10499958193193375,-7.584535457895946,43.3
,,0.004023142730947855,0.0004998098609510243,0.00025876184630027973,0.004781714438199159,6.4328077988845624,0.8413598894171962,0.10452524244405896,-7.6012828099640855,43.4
,,0.004023142730947855,0.0004998098609510243,0.00025876184630027973,0.004781714438199159,6.461173393168484,0.8413598894171962,0.10452524244405896,-7.6012828099640855,43.5
,,0.004023142730947855,0.0004998098609510243,0.00025876184630027973,0.004781714438199159,6.489538987452406,0.8413598894171962,0.10452524244405896,-7.6012828099640855,43.6
,,0.004197091787427339,0.0005068582162528106,0.00030748340982899057,0.00501143341350914,6.519054204690995,0.8375032532834598,0.10114036732215002,-7.5872792458444245,43.7
,,0.004197091787427339,0.0005068582162528106,0.00030748340982899057,0.00501143341350914,6.546167505293416,0.8375032532834598,0.10114036732215002,-7.5872792458444245,43.8
,,0.004197091787427339,0.0005068582162528106,0.00030748340982899057,0.00501143341350914,6.573280805895835,0.8375032532834598,0.10114036732215002,-7.5872792458444245,43.9
,,0.004197091787427339,0.0005068582162528106,0.00030748340982899057,0.00501143341350914,6.6003941064982525,0.8375032532834598,0.10114036732215002,-7.5872792458444245,44.0
,,0.004722392706347021,0.0008318129001867681,0.0004586465225344973,0.006012852129068287,6.598581031829919,0.7853831434698483,0.13833915791234674,-7.091903022015482,44.1
,,0.004722392706347021,0.0008318129001867681,0.0004586465225344973,0.006012852129068287,6.596767957161585,0.7853831434698483,0.13833915791234674,-7.091903022015482,44.2
,,0.004747396511041741,0.0007987326867396287,0.0005163598205707169,0.006062489018352086,6.596654486356148,0.7830771316320149,0.13174996017670995,-7.13248422795079,44.3
,,0.004747396511041741,0.0007987326867396287,0.0005163598205707169,0.006062489018352086,6.594093274444429,0.7830771316320149,0.13174996017670995,-7.13248422795079,44.4
,,0.004747396511041741,0.0007987326867396287,0.0005163598205707169,0.006062489018352086,6.591532062532711,0.7830771316320149,0.13174996017670995,-7.13248422795079,44.5
,,0.004747396511041741,0.0007987326867396287,0.0005163598205707169,0.006062489018352086,6.588970850620992,0.7830771316320149,0.13174996017670995,-7.13248422795079,44.6
,,0.004834255978255621,0.0007867064516723119,0.0005437413463333423,0.006164703776261275,6.588645956886802,0.7841830124703031,0.1276146397661021,-7.147655375731839,44.7
,,0.004834255978255621,0.0007867064516723119,0.0005437413463333423,0.006164703776261275,6.588321063152612,0.7841830124703031,0.1276146397661021,-7.147655375731839,44.8
,,0.004834255978255621,0.0007867064516723119,0.0005437413463333423,0.006164703776261275,6.586994037689324,0.7841830124703031,0.1276146397661021,-7.147655375731839,44.9
,,0.004646281331057386,0.000509889521449562,0.0003623203903374999,0.005518491242844448,6.618638119228775,0.841947758290273,0.09239654445600694,-7.581316480321104,45.0
,,0.004646281331057386,0.000509889521449562,0.0003623203903374999,0.005518491242844448,6.647893620476528,0.841947758290273,0.09239654445600694,-7.581316480321104,45.1
,,0.004646281331057386,0.000509889521449562,0.0003623203903374999,0.005518491242844448,6.67714912172428,0.841947758290273,0.09239654445600694,-7.581316480321104,45.2
,,0.0047114832674934794,0.0005068590554755377,0.0003825532917153226,0.00560089561468434,6.70843930083421,0.8412017633645924,0.09049607247574167,-7.587277590111114,45.3
,,0.0047114832674934794,0.0005068590554755377,0.0003825532917153226,0.00560089561468434,6.73972947994414,0.8412017633645924,0.09049607247574167,-7.587277590111114,45.4
,,0.0047114832674934794,0.0005068590554755377,0.0003825532917153226,0.00560089561468434,6.771019659054069,0.8412017633645924,0.09049607247574167,-7.587277590111114,45.5
,,0.004937507129899225,0.0005144286540985258,0.0003884261502793734,0.005840361934277124,6.804986521358187,0.8454111552438149,0.08808163944075803,-7.572453682668231,45.6
,,0.004937507129899225,0.0005144286540985258,0.0003884261502793734,0.005840361934277124,6.860631221394594,0.8454111552438149,0.08808163944075803,-7.572453682668231,45.7
,,0.004937507129899225,0.0005144286540985258,0.0003884261502793734,0.005840361934277124,6.916275921431,0.8454111552438149,0.08808163944075803,-7.572453682668231,45.8
,,0.004937507129899225,0.0005144286540985258,0.0003884261502793734,0.005840361934277124,6.9719206214674045,0.8454111552438149,0.08808163944075803,-7.572453682668231,45.9
,,0.0050388299889380875,0.0005130474248647765,0.00040929189884688955,0.005961169312649753,7.030046789163922,0.845275435852084,0.08606489733081005,-7.575142270936216,46.0
,,0.0050388299889380875,0.0005130474248647765,0.00040929189884688955,0.005961169312649753,7.088172956860441,0.845275435852084,0.08606489733081005,-7.575142270936216,46.1
,,0.005261656590476674,0.0005199182350779116,0.00041170767592873874,0.006193282501483324,7.150749470932817,0.8495747754468618,0.0839487355781669,-7.561838998987128,46.2
,,0.005261656590476674,0.0005199182350779116,0.00041170767592873874,0.006193282501483324,7.213325985005194,0.8495747754468618,0.0839487355781669,-7.561838998987128,46.3
,,0.005261656590476674,0.0005199182350779116,0.00041170767592873874,0.006193282501483324,7.24884360355081,0.8495747754468618,0.0839487355781669,-7.561838998987128,46.4
,,0.005394181181528512,0.0005205060413553431,0.0004323645599999732,0.006347051782883828,7.2870632058165645,0.8498719351991213,0.08200753029288307,-7.560709063145979,46.5
,,0.005394181181528512,0.0005205060413553431,0.0004323645599999732,0.006347051782883828,7.325282808082319,0.8498719351991213,0.08200753029288307,-7.560709063145979,46.6
,,0.005394181181528512,0.0005205060413553431,0.0004323645599999732,0.006347051782883828,7.363502410348073,0.8498719351991213,0.08200753029288307,-7.560709063145979,46.7
,,0.0056113159353162745,0.0005275741892967133,0.00043132776941054695,0.006570217894023535,7.404752342229026,0.8540532484349559,0.08029782235633472,-7.547221059286865,46.8
,,0.0056113159353162745,0.0005275741892967133,0.00043132776941054695,0.006570217894023535,7.44600600334901,0.8540532484349559,0.08029782235633472,-7.547221059286865,46.9
,,0.0056113159353162745,0.0005275741892967133,0.00043132776941054695,0.006570217894023535,7.487259664468992,0.8540532484349559,0.08029782235633472,-7.547221059286865,47.0
,,0.005767409958833131,0.0005290914019372669,0.00045092824241780904,0.006747429603188207,7.529972010529562,0.8547565959203176,0.0784137713251973,-7.544349358541043,47.1
,,0.005767409958833131,0.0005290914019372669,0.00045092824241780904,0.006747429603188207,7.572684356590131,0.8547565959203176,0.0784137713251973,-7.544349358541043,47.2
,,0.005767409958833131,0.0005290914019372669,0.00045092824241780904,0.006747429603188207,7.615396702650703,0.8547565959203176,0.0784137713251973,-7.544349358541043,47.3
,,0.005947305982956689,0.0005351641991163707,0.00044536479424450145,0.0069278349763175606,7.660469672790839,0.8584653074571265,0.07724840458033445,-7.532936943920601,47.4
,,0.005947305982956689,0.0005351641991163707,0.00044536479424450145,0.0069278349763175606,7.705779072104615,0.8584653074571265,0.07724840458033445,-7.532936943920601,47.5
,,0.005947305982956689,0.0005351641991163707,0.00044536479424450145,0.0069278349763175606,7.751088471418392,0.8584653074571265,0.07724840458033445,-7.532936943920601,47.6
,,0.006128143779198694,0.0005385649545354709,0.0004629314475519432,0.007129640181286108,7.799349026872652,0.8595305826630433,0.07553886884068808,-7.5266024474062005,47.7
,,0.006128143779198694,0.0005385649545354709,0.0004629314475519432,0.007129640181286108,7.8463497969273766,0.8595305826630433,0.07553886884068808,-7.5266024474062005,47.8
,,0.006128143779198694,0.0005385649545354709,0.0004629314475519432,0.007129640181286108,7.8933505669821,0.8595305826630433,0.07553886884068808,-7.5266024474062005,47.9
,,0.005710164242572778,0.0005511270175469294,0.000520940821868728,0.006782232081988435,7.929042814767298,0.8419299389263387,0.08126041852955117,-7.503545253513686,48.0
,,0.005710164242572778,0.0005511270175469294,0.000520940821868728,0.006782232081988435,7.964735062552498,0.8419299389263387,0.08126041852955117,-7.503545253513686,48.1
,,0.005710164242572778,0.0005511270175469294,0.000520940821868728,0.006782232081988435,8.000775188307983,0.8419299389263387,0.08126041852955117,-7.503545253513686,48.2
,,0.005844693160227898,0.0005436479439085771,0.0005241264871737687,0.006912467591310245,8.04114856665535,0.8455291953303824,0.07864744922522374,-7.51720868254077,48.3
,,0.005844693160227898,0.0005436479439085771,0.0005241264871737687,0.006912467591310245,8.080395178236486,0.8455291953303824,0.07864744922522374,-7.51720868254077,48.4
,,0.005844693160227898,0.0005436479439085771,0.0005241264871737687,0.006912467591310245,8.119641789817623,0.8455291953303824,0.07864744922522374,-7.51720868254077,48.5
,,0.005844693160227898,0.0005436479439085771,0.0005241264871737687,0.006912467591310245,8.158888401398759,0.8455291953303824,0.07864744922522374,-7.51720868254077,48.6
,,0.0058667604020501245,0.0005217878092468782,0.0004977330089172244,0.006886281220214226,8.203609415830654,0.851949000402225,0.0757720738611726,-7.558249548419043,48.7
,,0.0058667604020501245,0.0005217878092468782,0.0004977330089172244,0.006886281220214226,8.248618133686191,0.851949000402225,0.0757720738611726,-7.558249548419043,48.8
,,0.006800823304674633,0.0005683402249217794,0.00046686649005992805,0.00783603001965634,8.30165504984131,0.8678914306881245,0.07252910255526367,-7.472790331026211,48.9
,,0.006800823304674633,0.0005683402249217794,0.00046686649005992805,0.00783603001965634,8.354691965996427,0.8678914306881245,0.07252910255526367,-7.472790331026211,49.0
,,0.006800823304674633,0.0005683402249217794,0.00046686649005992805,0.00783603001965634,8.406708222336912,0.8678914306881245,0.07252910255526367,-7.472790331026211,49.1
,,0.006800823304674633,0.0005683402249217794,0.00046686649005992805,0.00783603001965634,8.458724478677397,0.8678914306881245,0.07252910255526367,-7.472790331026211,49.2
,,0.006936592280792277,0.0005870539494089487,0.0004544978050311653,0.007978144035232391,8.509072109952447,0.8694493669404183,0.07358277148375007,-7.440393835359455,49.3
,,0.006936592280792277,0.0005870539494089487,0.0004544978050311653,0.007978144035232391,8.559419741227494,0.8694493669404183,0.07358277148375007,-7.440393835359455,49.4
,,0.0034508796406236566,0.0005005959482071446,0.00046683501565071214,0.004418310604481513,8.584907676459288,0.7810405264680607,0.11330030706745418,-7.599711272872419,49.5
,,0.0034508796406236566,0.0005005959482071446,0.00046683501565071214,0.004418310604481513,8.610395611691079,0.7810405264680607,0.11330030706745418,-7.599711272872419,49.6
,,0.0034508796406236566,0.0005005959482071446,0.00046683501565071214,0.004418310604481513,8.635883546922873,0.7810405264680607,0.11330030706745418,-7.599711272872419,49.7
,,0.0034508796406236566,0.0005005959482071446,0.00046683501565071214,0.004418310604481513,8.660351638143538,0.7810405264680607,0.11330030706745418,-7.599711272872419,49.8
,,0.0034508796406236566,0.0005005959482071446,0.00046683501565071214,0.004418310604481513,8.684819729364206,0.7810405264680607,0.11330030706745418,-7.599711272872419,49.9
,,0.007246475529190149,0.0006254042108196663,0.0004497630806538228,0.008321642820663638,8.761435868309082,0.8707986734537897,0.07515393586308614,-7.377112379960855,50.0
,,0.007435405562649942,0.0006420358245782167,0.0004552157715787401,0.008532657158806899,8.807950974874306,0.8714056388607575,0.07524453550973224,-7.350866454307458,50.1
,,0.007435405562649942,0.0006420358245782167,0.0004552157715787401,0.008532657158806899,8.854466081439531,0.8714056388607575,0.07524453550973224,-7.350866454307458,50.2
,,0.007435405562649942,0.0006420358245782167,0.0004552157715787401,0.008532657158806899,8.900981188004755,0.8714056388607575,0.07524453550973224,-7.350866454307458,50.3
,,0.007435405562649942,0.0006420358245782167,0.0004552157715787401,0.008532657158806899,8.946717831944571,0.8714056388607575,0.07524453550973224,-7.350866454307458,50.4
,,0.007435405562649942,0.0006420358245782167,0.0004552157715787401,0.008532657158806899,8.992454475884387,0.8714056388607575,0.07524453550973224,-7.350866454307458,50.5
,,0.007435405562649942,0.0006420358245782167,0.0004552157715787401,0.008532657158806899,9.038191119824202,0.8714056388607575,0.07524453550973224,-7.350866454307458,50.6
,,0.007733226268321951,0.0007058217121347101,0.000446972899557474,0.008886020880014134,9.076987349874369,0.8702687482667326,0.07943057096818204,-7.256147884749801,50.7
,,0.007733226268321951,0.0007058217121347101,0.000446972899557474,0.008886020880014134,9.114869512875263,0.8702687482667326,0.07943057096818204,-7.256147884749801,50.8
,,0.007733226268321951,0.0007058217121347101,0.000446972899557474,0.008886020880014134,9.152751675876155,0.8702687482667326,0.07943057096818204,-7.256147884749801,50.9
,,0.007733226268321951,0.0007058217121347101,0.000446972899557474,0.008886020880014134,9.190633838877051,0.8702687482667326,0.07943057096818204,-7.256147884749801,51.0
,,0.007733226268321951,0.0007058217121347101,0.000446972899557474,0.008886020880014134,9.258001375569592,0.8702687482667326,0.07943057096818204,-7.256147884749801,51.1
,,0.006429431428969363,0.0005167772386513304,0.0003537939876329114,0.007300002655253605,9.341869502564947,0.8807437110097875,0.07079137680579069,-7.56789864932313,51.2
,,0.006429431428969363,0.0005167772386513304,0.0003537939876329114,0.007300002655253605,9.4257376295603,0.8807437110097875,0.07079137680579069,-7.56789864932313,51.3
,,0.006475755010169877,0.0005161711463919953,0.00038828304720042424,0.007380209203762296,9.509725143200665,0.8774487052302874,0.06993990714096027,-7.569072168421795,51.4
,,0.006475755010169877,0.0005161711463919953,0.00038828304720042424,0.007380209203762296,9.59371265684103,0.8774487052302874,0.06993990714096027,-7.569072168421795,51.5
,,0.006475755010169877,0.0005161711463919953,0.00038828304720042424,0.007380209203762296,9.677700170481394,0.8774487052302874,0.06993990714096027,-7.569072168421795,51.6
,,0.006475755010169877,0.0005161711463919953,0.00038828304720042424,0.007380209203762296,9.761687684121759,0.8774487052302874,0.06993990714096027,-7.569072168421795,51.7
,,0.008205461796114265,0.0008358288674666584,0.0004383232865778592,0.009479613950158783,9.78420912801193,0.8655902908342407,0.08817119260986978,-7.087086669821544,51.8
,,0.008205461796114265,0.0008358288674666584,0.0004383232865778592,0.009479613950158783,9.806730571902099,0.8655902908342407,0.08817119260986978,-7.087086669821544,51.9
,,0.008315956453675425,0.0009207058755342296,0.00043402915673390087,0.009670691485943555,9.818516735000683,0.859913323236787,0.09520579545655909,-6.990369926096148,52.0
,,0.008315956453675425,0.0009207058755342296,0.00043402915673390087,0.009670691485943555,9.83030289809927,0.859913323236787,0.09520579545655909,-6.990369926096148,52.1
,,0.008315956453675425,0.0009207058755342296,0.00043402915673390087,0.009670691485943555,9.842089061197854,0.859913323236787,0.09520579545655909,-6.990369926096148,52.2
,,0.008315956453675425,0.0009207058755342296,0.00043402915673390087,0.009670691485943555,9.85387522429644,0.859913323236787,0.09520579545655909,-6.990369926096148,52.3
,,0.00672544976494364,0.0005778272447170051,0.00036763019891646845,0.007670907208577113,9.89376254167077,0.8767476365016743,0.0753271065606055,-7.4562356185394485,52.4
,,0.00672544976494364,0.0005778272447170051,0.00036763019891646845,0.007670907208577113,9.933649859045097,0.8767476365016743,0.0753271065606055,-7.4562356185394485,52.5
,,0.00672544976494364,0.0005778272447170051,0.00036763019891646845,0.007670907208577113,9.973537176419427,0.8767476365016743,0.0753271065606055,-7.4562356185394485,52.6
,,0.008593618382001122,0.0010770803000776019,0.00043163387411026546,0.010102332556188991,9.970181847925158,0.8506568492180961,0.10661699108467285,-6.833501324555144,52.7
,,0.008593618382001122,0.0010770803000776019,0.00043163387411026546,0.010102332556188991,9.966826519430887,0.8506568492180961,0.10661699108467285,-6.833501324555144,52.8
,,0.006914385879046411,0.0006268866398431254,0.00036092676276073914,0.007902199281650275,9.997372292584219,0.8749951289006759,0.07933065435325343,-7.374744831375592,52.9
,,0.006914385879046411,0.0006268866398431254,0.00036092676276073914,0.007902199281650275,10.027918065737552,0.8749951289006759,0.07933065435325343,-7.374744831375592,53.0
,,0.006914385879046411,0.0006268866398431254,0.00036092676276073914,0.007902199281650275,10.087390214161635,0.8749951289006759,0.07933065435325343,-7.374744831375592,53.1
,,0.006914385879046411,0.0006268866398431254,0.00036092676276073914,0.007902199281650275,10.14686236258572,0.8749951289006759,0.07933065435325343,-7.374744831375592,53.2
,,0.008882221098896295,0.0012674194975116995,0.00043323545657511964,0.010582876052983114,10.158689622268064,0.8393012499085788,0.11976134759269316,-6.670772337327242,53.3
,,0.008882221098896295,0.0012674194975116995,0.00043323545657511964,0.010582876052983114,10.170516881950407,0.8393012499085788,0.11976134759269316,-6.670772337327242,53.4
,,0.009046942830575945,0.0013414373931286304,0.0004354218401115142,0.010823802063816088,10.179411929051685,0.8358377931558658,0.12393402846981545,-6.614013558491681,53.5
,,0.009046942830575945,0.0013414373931286304,0.0004354218401115142,0.010823802063816088,10.188306976152964,0.8358377931558658,0.12393402846981545,-6.614013558491681,53.6
,,0.009046942830575945,0.0013414373931286304,0.0004354218401115142,0.010823802063816088,10.194965705076717,0.8358377931558658,0.12393402846981545,-6.614013558491681,53.7
,,0.009046942830575945,0.0013414373931286304,0.0004354218401115142,0.010823802063816088,10.201624434000466,0.8358377931558658,0.12393402846981545,-6.614013558491681,53.8
,,0.009046942830575945,0.0013414373931286304,0.0004354218401115142,0.010823802063816088,10.208283162924218,0.8358377931558658,0.12393402846981545,-6.614013558491681,53.9
,,0.00922876350267269,0.0014964340336303657,0.00044149704377571494,0.01116669458007877,10.175559171558573,0.8264543671801212,0.13400868295439758,-6.504670312077194,54.0
,,0.009399099865697915,0.0015890297501069536,0.0004460844284395523,0.01143421404424442,10.140033210500869,0.8220153855200122,0.13897148889798988,-6.444631669068554,54.1
,,0.009399099865697915,0.0015890297501069536,0.0004460844284395523,0.01143421404424442,10.104507249443165,0.8220153855200122,0.13897148889798988,-6.444631669068554,54.2
,,0.009399099865697915,0.0015890297501069536,0.0004460844284395523,0.01143421404424442,10.066946610523283,0.8220153855200122,0.13897148889798988,-6.444631669068554,54.3
,,0.009399099865697915,0.0015890297501069536,0.0004460844284395523,0.01143421404424442,10.029385971603402,0.8220153855200122,0.13897148889798988,-6.444631669068554,54.4
,,0.009399099865697915,0.0015890297501069536,0.0004460844284395523,0.01143421404424442,9.99182533268352,0.8220153855200122,0.13897148889798988,-6.444631669068554,54.5
,,0.009888293108934623,0.0018862340914609903,0.00046775704561279085,0.012242284246008404,9.943428733578191,0.8077163469030464,0.15407533868330142,-6.273172981868218,54.6
,,0.009888293108934623,0.0018862340914609903,0.00046775704561279085,0.012242284246008404,9.89503213447286,0.8077163469030464,0.15407533868330142,-6.273172981868218,54.7
,,0.009888293108934623,0.0018862340914609903,0.00046775704561279085,0.012242284246008404,9.846635535367529,0.8077163469030464,0.15407533868330142,-6.273172981868218,54.8
,,0.009888293108934623,0.0018862340914609903,0.00046775704561279085,0.012242284246008404,9.7982389362622,0.8077163469030464,0.15407533868330142,-6.273172981868218,54.9
,,0.009888293108934623,0.0018862340914609903,0.00046775704561279085,0.012242284246008404,9.747360869496756,0.8077163469030464,0.15407533868330142,-6.273172981868218,55.0
,,0.009888293108934623,0.0018862340914609903,0.00046775704561279085,0.012242284246008404,9.696482802731314,0.8077163469030464,0.15407533868330142,-6.273172981868218,55.1
,,0.010527468831487575,0.002241896435360512,0.0005003418860164218,0.013269707152864508,9.636211976587948,0.7933459804510478,0.16894844848754315,-6.10043314836943,55.2
,,0.010527468831487575,0.002241896435360512,0.0005003418860164218,0.013269707152864508,9.575941150444585,0.7933459804510478,0.16894844848754315,-6.10043314836943,55.3
,,0.010527468831487575,0.002241896435360512,0.0005003418860164218,0.013269707152864508,9.51567032430122,0.7933459804510478,0.16894844848754315,-6.10043314836943,55.4
,,0.010527468831487575,0.002241896435360512,0.0005003418860164218,0.013269707152864508,9.452697514437718,0.7933459804510478,0.16894844848754315,-6.10043314836943,55.5
,,0.010527468831487575,0.002241896435360512,0.0005003418860164218,0.013269707152864508,9.389724704574215,0.7933459804510478,0.16894844848754315,-6.10043314836943,55.6
,,0.010527468831487575,0.002241896435360512,0.0005003418860164218,0.013269707152864508,9.326751894710712,0.7933459804510478,0.16894844848754315,-6.10043314836943,55.7
,,0.008120632992782293,0.0009633055660575827,0.0003917744579070979,0.009475713016746974,9.302239627527358,0.8569944001501766,0.10166048342273318,-6.945139890103009,55.8
,,0.011389328419152795,0.0026611413485427534,0.0005448005763455413,0.01459527034404109,9.231615140328225,0.7803437792300156,0.18232902069054416,-5.929000169816811,55.9
,,0.011389328419152795,0.0026611413485427534,0.0005448005763455413,0.01459527034404109,9.16099065312909,0.7803437792300156,0.18232902069054416,-5.929000169816811,56.0
,,0.011389328419152795,0.0026611413485427534,0.0005448005763455413,0.01459527034404109,9.087427021507349,0.7803437792300156,0.18232902069054416,-5.929000169816811,56.1
,,0.011389328419152795,0.0026611413485427534,0.0005448005763455413,0.01459527034404109,9.013863389885607,0.7803437792300156,0.18232902069054416,-5.929000169816811,56.2
,,0.011389328419152795,0.0026611413485427534,0.0005448005763455413,0.01459527034404109,8.940299758263867,0.7803437792300156,0.18232902069054416,-5.929000169816811,56.3
,,0.01169907883671212,0.002813884076923305,0.0005038369560985329,0.015016799869733958,8.863017285058467,0.7790660419129222,0.18738240512844742,-5.873189516261686,56.4
,,0.012527876275975314,0.0031519615556879583,0.0006019877840227551,0.016281825615686026,8.78370150157256,0.7694392859671626,0.1935877235198574,-5.759730303860391,56.5
,,0.012527876275975314,0.0031519615556879583,0.0006019877840227551,0.016281825615686026,8.704385718086652,0.7694392859671626,0.1935877235198574,-5.759730303860391,56.6
,,0.012527876275975314,0.0031519615556879583,0.0006019877840227551,0.016281825615686026,8.62211877846026,0.7694392859671626,0.1935877235198574,-5.759730303860391,56.7
,,0.012527876275975314,0.0031519615556879583,0.0006019877840227551,0.016281825615686026,8.539851838833869,0.7694392859671626,0.1935877235198574,-5.759730303860391,56.8
,,0.012527876275975314,0.0031519615556879583,0.0006019877840227551,0.016281825615686026,8.457584899207477,0.7694392859671626,0.1935877235198574,-5.759730303860391,56.9
,,0.013048045553247829,0.003349333576430005,0.0005631633697764696,0.016960542499454303,8.385749653409935,0.7693177004018382,0.19747797433588982,-5.698993885343792,57.0
,,0.014146869706201184,0.003749611460786841,0.0006790461067191993,0.018575527273707225,8.312549691437328,0.7615864410064637,0.20185760573775138,-5.586103054824594,57.1
,,0.014146869706201184,0.003749611460786841,0.0006790461067191993,0.018575527273707225,8.239349729464724,0.7615864410064637,0.20185760573775138,-5.586103054824594,57.2
,,0.014146869706201184,0.003749611460786841,0.0006790461067191993,0.018575527273707225,8.16181651490024,0.7615864410064637,0.20185760573775138,-5.586103054824594,57.3
,,0.014146869706201184,0.003749611460786841,0.0006790461067191993,0.018575527273707225,8.084283300335757,0.7615864410064637,0.20185760573775138,-5.586103054824594,57.4
,,0.014146869706201184,0.003749611460786841,0.0006790461067191993,0.018575527273707225,8.006750085771273,0.7615864410064637,0.20185760573775138,-5.586103054824594,57.5
,,0.014891309362157698,0.00399402758219755,0.0006378063085432989,0.01952314325289855,7.9287224792448106,0.7627516311927295,0.2045791259358079,-5.522955138104109,57.6
,,0.014891309362157698,0.00399402758219755,0.0006378063085432989,0.01952314325289855,7.845220469867588,0.7627516311927295,0.2045791259358079,-5.522955138104109,57.7
,,0.01624046136511532,0.004447535379386303,0.0007717334693167242,0.021459730213818348,7.760864794561281,0.7567877696178009,0.20725029322700644,-5.415405183562995,57.8
,,0.01624046136511532,0.004447535379386303,0.0007717334693167242,0.021459730213818348,7.6684809209553935,0.7567877696178009,0.20725029322700644,-5.415405183562995,57.9
,,0.01624046136511532,0.004447535379386303,0.0007717334693167242,0.021459730213818348,7.576097047349506,0.7567877696178009,0.20725029322700644,-5.415405183562995,58.0
,,0.01624046136511532,0.004447535379386303,0.0007717334693167242,0.021459730213818348,7.483713173743619,0.7567877696178009,0.20725029322700644,-5.415405183562995,58.1
,,0.017296976636169015,0.004750941436226598,0.0008235664822026223,0.022871484554598236,7.391209110038242,0.7562682079022071,0.20772335197067202,-5.349412483473701,58.2
,,0.017268574491489542,0.004744452800661645,0.0008220642208930386,0.022835091513044223,7.3003624801696665,0.7562297038146361,0.20777025561519838,-5.35077917482175,58.3
,,0.019093926667380197,0.005306689759332711,0.0008891794532692212,0.02528979587998213,7.2090530295453155,0.7550051711763238,0.20983521514039444,-5.23878703561043,58.4
,,0.019093926667380197,0.005306689759332711,0.0008891794532692212,0.02528979587998213,7.172436842980711,0.7550051711763238,0.20983521514039444,-5.23878703561043,58.5
,,0.019093926667380197,0.005306689759332711,0.0008891794532692212,0.02528979587998213,7.135820656416107,0.7550051711763238,0.20983521514039444,-5.23878703561043,58.6
,,0.019093926667380197,0.005306689759332711,0.0008891794532692212,0.02528979587998213,7.099204469851504,0.7550051711763238,0.20983521514039444,-5.23878703561043,58.7
,,0.02052356958542806,0.00567381510281308,0.000950271236067608,0.027147655924308747,7.062801140891406,0.7559978527299183,0.20899834293732122,-5.171893529870695,58.8
,,0.02052356958542806,0.00567381510281308,0.000950271236067608,0.027147655924308747,7.026397811931309,0.7559978527299183,0.20899834293732122,-5.171893529870695,58.9
,,0.02052356958542806,0.00567381510281308,0.000950271236067608,0.027147655924308747,6.9378464352470015,0.7559978527299183,0.20899834293732122,-5.171893529870695,59.0
,,0.022713940036810494,0.0063135560018389245,0.0010268164651971215,0.030054312503846537,6.8491426988013915,0.755763088372207,0.21007154966632083,-5.065056210951611,59.1
,,0.022672759809922127,0.006302091017415821,0.001024951721119657,0.029999802548457605,6.760439080005346,0.7557636345539152,0.21007108320917375,-5.0668737931274475,59.2
,,0.022713940036810494,0.0063135560018389245,0.0010268164651971215,0.030054312503846537,6.671735343559736,0.755763088372207,0.21007154966632083,-5.065056210951611,59.3
,,0.024678788562105862,0.006767757339635528,0.0011010814764844615,0.03254762737822585,6.583574693404106,0.7582361772586782,0.20793396891851829,-4.995585511393752,59.4
,,0.024678788562105862,0.006767757339635528,0.0011010814764844615,0.03254762737822585,6.495414043248475,0.7582361772586782,0.20793396891851829,-4.995585511393752,59.5
,,0.024678788562105862,0.006767757339635528,0.0011010814764844615,0.03254762737822585,6.407253393092844,0.7582361772586782,0.20793396891851829,-4.995585511393752,59.6
,,0.02718798946600075,0.007468929404500477,0.001184468055255127,0.035841386925756356,6.325962285811658,0.7585641013925971,0.2083884036064785,-4.897003609452589,59.7
,,0.02718798946600075,0.007468929404500477,0.001184468055255127,0.035841386925756356,6.244671178530475,0.7585641013925971,0.2083884036064785,-4.897003609452589,59.8
,,0.02718798946600075,0.007468929404500477,0.001184468055255127,0.035841386925756356,6.163380071249291,0.7585641013925971,0.2083884036064785,-4.897003609452589,59.9
,,0.029982622759754617,0.008067111784013134,0.0012771352457604662,0.03932686978952822,6.082939003041693,0.7623953525977868,0.20512977074420521,-4.819959756173619,60.0
,,0.029982622759754617,0.008067111784013134,0.0012771352457604662,0.03932686978952822,6.002497934834096,0.7623953525977868,0.20512977074420521,-4.819959756173619,60.1
,,0.029982622759754617,0.008067111784013134,0.0012771352457604662,0.03932686978952822,5.9055562763236855,0.7623953525977868,0.20512977074420521,-4.819959756173619,60.2
,,0.03302672798229551,0.008885132763454442,0.001376092872774904,0.04328795361852485,5.808619380308358,0.7629542452697947,0.20525647485567663,-4.723375875061223,60.3
,,0.03302672798229551,0.008885132763454442,0.001376092872774904,0.04328795361852485,5.710523002022098,0.7629542452697947,0.20525647485567663,-4.723375875061223,60.4
,,0.03302672798229551,0.008885132763454442,0.001376092872774904,0.04328795361852485,5.6124266237358365,0.7629542452697947,0.20525647485567663,-4.723375875061223,60.5
,,0.018583318051330774,0.002077072129899014,0.0011408807724390877,0.021801270953668878,5.572439176788312,0.8523960869448044,0.0952729835940812,-6.176796006766745,60.6
,,0.018583318051330774,0.002077072129899014,0.0011408807724390877,0.021801270953668878,5.532451729840788,0.8523960869448044,0.0952729835940812,-6.176796006766745,60.7
,,0.018583318051330774,0.002077072129899014,0.0011408807724390877,0.021801270953668878,5.5227820200865985,0.8523960869448044,0.0952729835940812,-6.176796006766745,60.8
,,0.018583318051330774,0.002077072129899014,0.0011408807724390877,0.021801270953668878,5.51311231033241,0.8523960869448044,0.0952729835940812,-6.176796006766745,60.9
,,0.03887479117727172,0.010162562875022235,0.0015384003201134508,0.050575754372407404,5.455258320444219,0.768644811326445,0.2009374452468201,-4.58904461716329,61.0
,,0.03887479117727172,0.010162562875022235,0.0015384003201134508,0.050575754372407404,5.397404330556029,0.768644811326445,0.2009374452468201,-4.58904461716329,61.1
,,0.04207492201876315,0.010623736642598282,0.001595482850747,0.054294141512108436,5.341052224427637,0.7749440519172734,0.19567003633769628,-4.544664475467369,61.2
,,0.04207492201876315,0.010623736642598282,0.001595482850747,0.054294141512108436,5.284700118299246,0.7749440519172734,0.19567003633769628,-4.544664475467369,61.3
,,0.04207492201876315,0.010623736642598282,0.001595482850747,0.054294141512108436,5.199380768973711,0.7749440519172734,0.19567003633769628,-4.544664475467369,61.4
,,0.04207492201876315,0.010623736642598282,0.001595482850747,0.054294141512108436,5.114061419648177,0.7749440519172734,0.19567003633769628,-4.544664475467369,61.5
,,0.04207492201876315,0.010623736642598282,0.001595482850747,0.054294141512108436,5.028742070322643,0.7749440519172734,0.19567003633769628,-4.544664475467369,61.6
,,0.04489072434346638,0.011332577699633296,0.0016801212161736644,0.05790342325927334,4.984104144752346,0.775268918772899,0.19571515916925278,-4.480073718818634,61.7
,,0.012347792190969615,0.002365037483535624,0.0013403079601015402,0.01605313763460678,4.9534635598301175,0.7691824783430927,0.14732555948671122,-6.046961407888734,61.8
,,0.012347792190969615,0.002365037483535624,0.0013403079601015402,0.01605313763460678,4.888921873260289,0.7691824783430927,0.14732555948671122,-6.046961407888734,61.9
,,0.012347792190969615,0.002365037483535624,0.0013403079601015402,0.01605313763460678,4.824380186690461,0.7691824783430927,0.14732555948671122,-6.046961407888734,62.0
,,0.012347792190969615,0.002365037483535624,0.0013403079601015402,0.01605313763460678,4.759838500120632,0.7691824783430927,0.14732555948671122,-6.046961407888734,62.1
,,0.012347792190969615,0.002365037483535624,0.0013403079601015402,0.01605313763460678,4.6952968135508035,0.7691824783430927,0.14732555948671122,-6.046961407888734,62.2
,,0.04685980507303438,0.011382159629918901,0.0016540361966296765,0.05989600089958296,4.66317278475373,0.7823528177047402,0.19003204653014075,-4.475708094130714,62.3
,,0.047944768514199945,0.01116368646793087,0.0015942625089999456,0.06070271749113076,4.633023817363007,0.7898290306559197,0.183907523902237,-4.495089047907834,62.4
,,0.047944768514199945,0.01116368646793087,0.0015942625089999456,0.06070271749113076,4.605807062553348,0.7898290306559197,0.183907523902237,-4.495089047907834,62.5
,,0.047944768514199945,0.01116368646793087,0.0015942625089999456,0.06070271749113076,4.57859030774369,0.7898290306559197,0.183907523902237,-4.495089047907834,62.6
,,0.047944768514199945,0.01116368646793087,0.0015942625089999456,0.06070271749113076,4.551373552934031,0.7898290306559197,0.183907523902237,-4.495089047907834,62.7
,,0.047944768514199945,0.01116368646793087,0.0015942625089999456,0.06070271749113076,4.5241567981243715,0.7898290306559197,0.183907523902237,-4.495089047907834,62.8
,,0.026673700790429383,0.0024938003212264955,0.0013870625728191937,0.03055456368447507,4.568065570963519,0.8729858186121776,0.0816179326590616,-5.99394749859175,62.9
,,0.02760081755317098,0.0024725949947562342,0.0013865305125649484,0.031459943060492164,4.6235713731484696,0.8773320886213705,0.07859502447292581,-6.002487074677151,63.0
,,0.02760081755317098,0.0024725949947562342,0.0013865305125649484,0.031459943060492164,4.68187914502548,0.8773320886213705,0.07859502447292581,-6.002487074677151,63.1
,,0.02760081755317098,0.0024725949947562342,0.0013865305125649484,0.031459943060492164,4.74018691690249,0.8773320886213705,0.07859502447292581,-6.002487074677151,63.2
,,0.02760081755317098,0.0024725949947562342,0.0013865305125649484,0.031459943060492164,4.7984946887795,0.8773320886213705,0.07859502447292581,-6.002487074677151,63.3
,,0.02760081755317098,0.0024725949947562342,0.0013865305125649484,0.031459943060492164,4.85680246065651,0.8773320886213705,0.07859502447292581,-6.002487074677151,63.4
,,0.02760081755317098,0.0024725949947562342,0.0013865305125649484,0.031459943060492164,4.915110232533521,0.8773320886213705,0.07859502447292581,-6.002487074677151,63.5
,,0.050238675660799564,0.01074795064515856,0.0014554161236261358,0.06244204242958426,4.908798116351575,0.8045649006028847,0.1721268271658314,-4.5330401802418026,63.6
,,0.050238675660799564,0.01074795064515856,0.0014554161236261358,0.06244204242958426,4.90248600016963,0.8045649006028847,0.1721268271658314,-4.5330401802418026,63.7
,,0.050238675660799564,0.01074795064515856,0.0014554161236261358,0.06244204242958426,4.896173883987684,0.8045649006028847,0.1721268271658314,-4.5330401802418026,63.8
,,0.050238675660799564,0.01074795064515856,0.0014554161236261358,0.06244204242958426,4.889861767805739,0.8045649006028847,0.1721268271658314,-4.5330401802418026,63.9
,,0.050238675660799564,0.01074795064515856,0.0014554161236261358,0.06244204242958426,4.8835496516237935,0.8045649006028847,0.1721268271658314,-4.5330401802418026,64.0
,,0.050238675660799564,0.01074795064515856,0.0014554161236261358,0.06244204242958426,4.877237535441848,0.8045649006028847,0.1721268271658314,-4.5330401802418026,64.1
,,0.05092505142305724,0.010465776733806257,0.001377222919612209,0.0627680510764757,4.879127281943431,0.8113212143708409,0.16673732184316034,-4.559644703783429,64.2
,,0.05092505142305724,0.010465776733806257,0.001377222919612209,0.0627680510764757,4.881017028445013,0.8113212143708409,0.16673732184316034,-4.559644703783429,64.3
,,0.05092505142305724,0.010465776733806257,0.001377222919612209,0.0627680510764757,4.882906774946597,0.8113212143708409,0.16673732184316034,-4.559644703783429,64.4
,,0.05092505142305724,0.010465776733806257,0.001377222919612209,0.0627680510764757,4.884796521448179,0.8113212143708409,0.16673732184316034,-4.559644703783429,64.5
,,0.05092505142305724,0.010465776733806257,0.001377222919612209,0.0627680510764757,4.886686267949762,0.8113212143708409,0.16673732184316034,-4.559644703783429,64.6
,,0.05092505142305724,0.010465776733806257,0.001377222919612209,0.0627680510764757,4.888576014451345,0.8113212143708409,0.16673732184316034,-4.559644703783429,64.7
,,0.051299446693560215,0.010176577241035004,0.0012973792466171286,0.06277340318121234,4.850920097162905,0.8172162746294086,0.16211606708111032,-4.587666548262573,64.8
,,0.051299446693560215,0.010176577241035004,0.0012973792466171286,0.06277340318121234,4.8593763998902455,0.8172162746294086,0.16211606708111032,-4.587666548262573,64.9
,,0.051299446693560215,0.010176577241035004,0.0012973792466171286,0.06277340318121234,4.8678327026175845,0.8172162746294086,0.16211606708111032,-4.587666548262573,65.0
,,0.051299446693560215,0.010176577241035004,0.0012973792466171286,0.06277340318121234,4.876289005344924,0.8172162746294086,0.16211606708111032,-4.587666548262573,65.1
,,0.051299446693560215,0.010176577241035004,0.0012973792466171286,0.06277340318121234,4.884745308072263,0.8172162746294086,0.16211606708111032,-4.587666548262573,65.2
,,0.051299446693560215,0.010176577241035004,0.0012973792466171286,0.06277340318121234,4.893201610799603,0.8172162746294086,0.16211606708111032,-4.587666548262573,65.3
,,0.05147837486747077,0.009901742685522541,0.001218404752523192,0.0625985223055165,4.9047715468599495,0.8223576687038542,0.15817853714176172,-4.615044508492191,65.4
,,0.05147837486747077,0.009901742685522541,0.001218404752523192,0.0625985223055165,4.918374793200803,0.8223576687038542,0.15817853714176172,-4.615044508492191,65.5
,,0.05147837486747077,0.009901742685522541,0.001218404752523192,0.0625985223055165,4.931978039541657,0.8223576687038542,0.15817853714176172,-4.615044508492191,65.6
,,0.05147837486747077,0.009901742685522541,0.001218404752523192,0.0625985223055165,4.945581285882511,0.8223576687038542,0.15817853714176172,-4.615044508492191,65.7
,,0.05147837486747077,0.009901742685522541,0.001218404752523192,0.0625985223055165,4.9591845322233645,0.8223576687038542,0.15817853714176172,-4.615044508492191,65.8
,,0.05177417349526846,0.00958994865388775,0.000943022358085861,0.06230714450724207,4.975008611991627,0.830950830835309,0.15391410936466673,-4.647039744231702,65.9
,,0.03458178427431347,0.009691149111062957,0.001153205750276276,0.0454261391356527,4.9713716616154215,0.7612750044868322,0.21333860406060481,-4.636542272797383,66.0
,,0.03458178427431347,0.009691149111062957,0.001153205750276276,0.0454261391356527,4.969099427414276,0.7612750044868322,0.21333860406060481,-4.636542272797383,66.1
,,0.03458178427431347,0.009691149111062957,0.001153205750276276,0.0454261391356527,4.966827193213131,0.7612750044868322,0.21333860406060481,-4.636542272797383,66.2
,,0.03458178427431347,0.009691149111062957,0.001153205750276276,0.0454261391356527,4.964554959011986,0.7612750044868322,0.21333860406060481,-4.636542272797383,66.3
,,0.03458178427431347,0.009691149111062957,0.001153205750276276,0.0454261391356527,4.962282724810841,0.7612750044868322,0.21333860406060481,-4.636542272797383,66.4
,,0.051082537094010054,0.00929082879786918,0.0008752223411457688,0.061248588233025,4.981452485338602,0.8340198291536547,0.1516904971347503,-4.67872751615626,66.5
,,0.02464766289864022,0.002502077447847249,0.0008012219117521132,0.027950962258239582,5.049480097135539,0.8818180451506425,0.08951668370950874,-5.990633913041095,66.6
,,0.02464766289864022,0.002502077447847249,0.0008012219117521132,0.027950962258239582,5.117507708932474,0.8818180451506425,0.08951668370950874,-5.990633913041095,66.7
,,0.02464766289864022,0.002502077447847249,0.0008012219117521132,0.027950962258239582,5.186388986658498,0.8818180451506425,0.08951668370950874,-5.990633913041095,66.8
,,0.02464766289864022,0.002502077447847249,0.0008012219117521132,0.027950962258239582,5.25527026438452,0.8818180451506425,0.08951668370950874,-5.990633913041095,66.9
,,0.02464766289864022,0.002502077447847249,0.0008012219117521132,0.027950962258239582,5.324151542110543,0.8818180451506425,0.08951668370950874,-5.990633913041095,67.0
,,0.04970490014227133,0.008984834043818776,0.0008122474206869064,0.05950198160677701,5.345046259343688,0.8353486522642157,0.15100058521068555,-4.712217229276818,67.1
,,0.04830939171300901,0.008954841853549143,0.0009958949294027034,0.058260128495960864,5.36453550046468,0.8292015991066389,0.15370446452362316,-4.71556090375392,67.2
,,0.04830939171300901,0.008954841853549143,0.0009958949294027034,0.058260128495960864,5.384035932814312,0.8292015991066389,0.15370446452362316,-4.71556090375392,67.3
,,0.04830939171300901,0.008954841853549143,0.0009958949294027034,0.058260128495960864,5.403999185919718,0.8292015991066389,0.15370446452362316,-4.71556090375392,67.4
,,0.04830939171300901,0.008954841853549143,0.0009958949294027034,0.058260128495960864,5.423962439025123,0.8292015991066389,0.15370446452362316,-4.71556090375392,67.5
,,0.04830939171300901,0.008954841853549143,0.0009958949294027034,0.058260128495960864,5.443925692130529,0.8292015991066389,0.15370446452362316,-4.71556090375392,67.6
,,0.04658748764335103,0.008468096397038284,0.0007315564669001715,0.05578714050728949,5.465075070451094,0.8350936653091876,0.15179298168064,-4.771449542090055,67.7
,,0.043895180670015674,0.008232903588554772,0.0008861790906370979,0.053014263349207544,5.484124331194202,0.8279881280416173,0.15529601032696114,-4.799616521100652,67.8
,,0.043895180670015674,0.008232903588554772,0.0008861790906370979,0.053014263349207544,5.50317359193731,0.8279881280416173,0.15529601032696114,-4.799616521100652,67.9
,,0.043895180670015674,0.008232903588554772,0.0008861790906370979,0.053014263349207544,5.522222852680419,0.8279881280416173,0.15529601032696114,-4.799616521100652,68.0
,,0.043895180670015674,0.008232903588554772,0.0008861790906370979,0.053014263349207544,5.541489860091215,0.8279881280416173,0.15529601032696114,-4.799616521100652,68.1
,,0.043895180670015674,0.008232903588554772,0.0008861790906370979,0.053014263349207544,5.560756749852446,0.8279881280416173,0.15529601032696114,-4.799616521100652,68.2
,,0.042103294761457015,0.007819177207527415,0.0006508757383409347,0.05057334770732536,5.580612011000237,0.8325194330641178,0.1546106311327861,-4.851175946389273,68.3
,,0.0401619665879162,0.0077266018546905185,0.0008116718949774957,0.048700240337584216,5.597849326470624,0.8246769689331772,0.15865633929382367,-4.863086117863918,68.4
,,0.0401619665879162,0.0077266018546905185,0.0008116718949774957,0.048700240337584216,5.615086641941012,0.8246769689331772,0.15865633929382367,-4.863086117863918,68.5
,,0.0401619665879162,0.0077266018546905185,0.0008116718949774957,0.048700240337584216,5.6323239574114,0.8246769689331772,0.15865633929382367,-4.863086117863918,68.6
,,0.0401619665879162,0.0077266018546905185,0.0008116718949774957,0.048700240337584216,5.649632143896991,0.8246769689331772,0.15865633929382367,-4.863086117863918,68.7
,,0.0401619665879162,0.0077266018546905185,0.0008116718949774957,0.048700240337584216,5.666940330382581,0.8246769689331772,0.15865633929382367,-4.863086117863918,68.8
,,0.01954066861394929,0.003077920018979331,0.00043642806711855625,0.023055016700047178,5.69703493964943,0.8475668817845318,0.13350326564599854,-5.783501228640118,68.9
,,0.01954066861394929,0.003077920018979331,0.00043642806711855625,0.023055016700047178,5.72627950984269,0.8475668817845318,0.13350326564599854,-5.783501228640118,69.0
,,0.02368349416619014,0.007373020468075946,0.0007658211590291623,0.03182233579329525,5.720674337082059,0.744241224780869,0.2316932520594353,-4.909927823893309,69.1
,,0.02368349416619014,0.007373020468075946,0.0007658211590291623,0.03182233579329525,5.715069164321428,0.744241224780869,0.2316932520594353,-4.909927823893309,69.2
,,0.02368349416619014,0.007373020468075946,0.0007658211590291623,0.03182233579329525,5.709459229065714,0.744241224780869,0.2316932520594353,-4.909927823893309,69.3
,,0.02368349416619014,0.007373020468075946,0.0007658211590291623,0.03182233579329525,5.7038492938099985,0.744241224780869,0.2316932520594353,-4.909927823893309,69.4
,,0.02368349416619014,0.007373020468075946,0.0007658211590291623,0.03182233579329525,5.698239358554282,0.744241224780869,0.2316932520594353,-4.909927823893309,69.5
,,0.03528941547468886,0.00712306752988949,0.000576040128039525,0.042988523132617876,5.653876721939866,0.8209031830617308,0.16569695841643853,-4.944416813490429,69.6
,,0.034039634960101,0.007134000764040346,0.0007380964306268253,0.04191173215476817,5.607483206145909,0.8121743771983047,0.1702148872706215,-4.942883084946993,69.7
,,0.034039634960101,0.007134000764040346,0.0007380964306268253,0.04191173215476817,5.561089690351951,0.8121743771983047,0.1702148872706215,-4.942883084946993,69.8
,,0.034039634960101,0.007134000764040346,0.0007380964306268253,0.04191173215476817,5.514696174557994,0.8121743771983047,0.1702148872706215,-4.942883084946993,69.9
,,0.034039634960101,0.007134000764040346,0.0007380964306268253,0.04191173215476817,5.525209185253195,0.8121743771983047,0.1702148872706215,-4.942883084946993,70.0
,,0.034039634960101,0.007134000764040346,0.0007380964306268253,0.04191173215476817,5.535722195948398,0.8121743771983047,0.1702148872706215,-4.942883084946993,70.1
,,0.03290573671255804,0.007019008978503962,0.0005711903983320015,0.040495936089393995,5.543806919599222,0.8125688622166743,0.17332625582501995,-4.9591332420632845,70.2
,,0.03208858924592798,0.007107460396607776,0.0007468184182770106,0.03994286806081277,5.549965942816904,0.8033621721172676,0.17794066229262032,-4.946610286511235,70.3
,,0.03208858924592798,0.007107460396607776,0.0007468184182770106,0.03994286806081277,5.556124966034587,0.8033621721172676,0.17794066229262032,-4.946610286511235,70.4
,,0.03208858924592798,0.007107460396607776,0.0007468184182770106,0.03994286806081277,5.562283989252268,0.8033621721172676,0.17794066229262032,-4.946610286511235,70.5
,,0.03208858924592798,0.007107460396607776,0.0007468184182770106,0.03994286806081277,5.568443012469951,0.8033621721172676,0.17794066229262032,-4.946610286511235,70.6
,,0.03208858924592798,0.007107460396607776,0.0007468184182770106,0.03994286806081277,5.574593737941425,0.8033621721172676,0.17794066229262032,-4.946610286511235,70.7
,,0.0314658558023023,0.007116039512434979,0.0005951182188294315,0.039177013533566715,5.565714297591281,0.8031713743402742,0.18163813089882372,-4.945403956575221,70.8
,,0.0314658558023023,0.007116039512434979,0.0005951182188294315,0.039177013533566715,5.556834857241136,0.8031713743402742,0.18163813089882372,-4.945403956575221,70.9
,,0.019709383460888363,0.007349933516186972,0.0007945914317240571,0.02785390840879939,5.5286193238434,0.7075984874949157,0.26387440528328293,-4.91306401121504,71.0
