HRV_ULF,HRV_VLF,HRV_LF,HRV_HF,HRV_VHF,HRV_TP,HRV_LFHF,HRV_LFn,HRV_HFn,HRV_LnHF,time
,,0.023096126264751486,0.00703322817959768,0.0008194194502017347,0.0309487738945509,3.2838585177358266,0.7462695079115229,0.22725385514661728,-4.957109478048092,0.0
,,0.023096126264751486,0.00703322817959768,0.0008194194502017347,0.0309487738945509,3.2838585177358266,0.7462695079115229,0.22725385514661728,-4.957109478048092,0.1
,,0.023096126264751486,0.00703322817959768,0.0008194194502017347,0.0309487738945509,3.2838585177358266,0.7462695079115229,0.22725385514661728,-4.957109478048092,0.2
,,0.023096126264751486,0.00703322817959768,0.0008194194502017347,0.0309487738945509,3.2838585177358266,0.7462695079115229,0.22725385514661728,-4.957109478048092,0.3
,,0.023096126264751486,0.00703322817959768,0.0008194194502017347,0.0309487738945509,3.2838585177358266,0.7462695079115229,0.22725385514661728,-4.957109478048092,0.4
,,0.023096126264751486,0.00703322817959768,0.0008194194502017347,0.0309487738945509,3.2838585177358266,0.7462695079115229,0.22725385514661728,-4.957109478048092,0.5
,,0.030660206396838155,0.010637056572108635,0.0008754184780734027,0.042172681447020195,3.2265066902935837,0.7270158155666556,0.25222623288660295,-4.5434114712996925,0.6
,,0.030660206396838155,0.010637056572108635,0.0008754184780734027,0.042172681447020195,3.1834928197119017,0.7270158155666556,0.25222623288660295,-4.5434114712996925,0.7
,,0.030660206396838155,0.010637056572108635,0.0008754184780734027,0.042172681447020195,3.15003758703726,0.7270158155666556,0.25222623288660295,-4.5434114712996925,0.8
,,0.030660206396838155,0.010637056572108635,0.0008754184780734027,0.042172681447020195,3.123273400897547,0.7270158155666556,0.25222623288660295,-4.5434114712996925,0.9
,,0.030660206396838155,0.010637056572108635,0.0008754184780734027,0.042172681447020195,3.1013754304195995,0.7270158155666556,0.25222623288660295,-4.5434114712996925,1.0
,,0.030660206396838155,0.010637056572108635,0.0008754184780734027,0.042172681447020195,3.0831271216879768,0.7270158155666556,0.25222623288660295,-4.5434114712996925,1.1
,,0.031466863675516724,0.011259097233384505,0.0009460158811138245,0.04367197679001505,3.060947693709662,0.7205275782870254,0.25781057009443026,-4.486578834139769,1.2
,,0.031466863675516724,0.011259097233384505,0.0009460158811138245,0.04367197679001505,3.0419367554425345,0.7205275782870254,0.25781057009443026,-4.486578834139769,1.3
,,0.031466863675516724,0.011259097233384505,0.0009460158811138245,0.04367197679001505,3.025460608944357,0.7205275782870254,0.25781057009443026,-4.486578834139769,1.4
,,0.031466863675516724,0.011259097233384505,0.0009460158811138245,0.04367197679001505,3.011043980758452,0.7205275782870254,0.25781057009443026,-4.486578834139769,1.5
,,0.031466863675516724,0.011259097233384505,0.0009460158811138245,0.04367197679001505,2.9983234264767713,0.7205275782870254,0.25781057009443026,-4.486578834139769,1.6
,,0.031466863675516724,0.011259097233384505,0.0009460158811138245,0.04367197679001505,2.9870162671152776,0.7205275782870254,0.25781057009443026,-4.486578834139769,1.7
,,0.026407329002008942,0.00839780678855601,0.0008529150605929312,0.03565805085115788,2.995307551719076,0.7405712979724312,0.23550941759575506,-4.779784703824996,1.8
,,0.025628408455565087,0.008939456472414337,0.0009614212124962015,0.035529286140475624,2.9888865068375217,0.7213319275325581,0.2516081082256911,-4.717280488914033,1.9
,,0.025628408455565087,0.008939456472414337,0.0009614212124962015,0.035529286140475624,2.9830769900399243,0.7213319275325581,0.2516081082256911,-4.717280488914033,2.0
,,0.025628408455565087,0.008939456472414337,0.0009614212124962015,0.035529286140475624,2.977795611133018,0.7213319275325581,0.2516081082256911,-4.717280488914033,2.1
,,0.025628408455565087,0.008939456472414337,0.0009614212124962015,0.035529286140475624,2.9729734825658425,0.7213319275325581,0.2516081082256911,-4.717280488914033,2.2
,,0.025628408455565087,0.008939456472414337,0.0009614212124962015,0.035529286140475624,2.9685531980459317,0.7213319275325581,0.2516081082256911,-4.717280488914033,2.3
,,0.025628408455565087,0.008939456472414337,0.0009614212124962015,0.035529286140475624,2.9644865362876134,0.7213319275325581,0.2516081082256911,-4.717280488914033,2.4
,,0.03281679900979103,0.011734522507643003,0.001059937065872285,0.045611258583306315,2.958029471173193,0.7194890040109955,0.2572724996441521,-4.445220140098558,2.5
,,0.03281679900979103,0.011734522507643003,0.001059937065872285,0.045611258583306315,2.952050707178359,0.7194890040109955,0.2572724996441521,-4.445220140098558,2.6
,,0.03281679900979103,0.011734522507643003,0.001059937065872285,0.045611258583306315,2.946498997754585,0.7194890040109955,0.2572724996441521,-4.445220140098558,2.7
,,0.03281679900979103,0.011734522507643003,0.001059937065872285,0.045611258583306315,2.9413301648427947,0.7194890040109955,0.2572724996441521,-4.445220140098558,2.8
,,0.03281679900979103,0.011734522507643003,0.001059937065872285,0.045611258583306315,2.9365059207917907,0.7194890040109955,0.2572724996441521,-4.445220140098558,2.9
,,0.03281679900979103,0.011734522507643003,0.001059937065872285,0.045611258583306315,2.9319929182924644,0.7194890040109955,0.2572724996441521,-4.445220140098558,3.0
,,0.03360832958958972,0.011621007576527865,0.0011047013311485487,0.046334038497266125,2.9307441498305997,0.725348592084688,0.25080929600413626,-4.454940820772947,3.1
,,0.03360832958958972,0.011621007576527865,0.0011047013311485487,0.046334038497266125,2.929571064305818,0.725348592084688,0.25080929600413626,-4.454940820772947,3.2
,,0.03360832958958972,0.011621007576527865,0.0011047013311485487,0.046334038497266125,2.9284669838119055,0.725348592084688,0.25080929600413626,-4.454940820772947,3.3
,,0.03360832958958972,0.011621007576527865,0.0011047013311485487,0.046334038497266125,2.927425993631931,0.725348592084688,0.25080929600413626,-4.454940820772947,3.4
,,0.03360832958958972,0.011621007576527865,0.0011047013311485487,0.046334038497266125,2.926442836239733,0.725348592084688,0.25080929600413626,-4.454940820772947,3.5
,,0.03360832958958972,0.011621007576527865,0.0011047013311485487,0.046334038497266125,2.925512822490356,0.725348592084688,0.25080929600413626,-4.454940820772947,3.6
,,0.03393943841264657,0.011125104722196818,0.0011217227633802602,0.04618626589822365,2.928807414532151,0.7348383280743183,0.2408747385361737,-4.4985510377429625,3.7
,,0.03393943841264657,0.011125104722196818,0.0011217227633802602,0.04618626589822365,2.9319330531359062,0.7348383280743183,0.2408747385361737,-4.4985510377429625,3.8
,,0.03393943841264657,0.011125104722196818,0.0011217227633802602,0.04618626589822365,2.9349024098094727,0.7348383280743183,0.2408747385361737,-4.4985510377429625,3.9
,,0.03393943841264657,0.011125104722196818,0.0011217227633802602,0.04618626589822365,2.9377269198160363,0.7348383280743183,0.2408747385361737,-4.4985510377429625,4.0
,,0.03393943841264657,0.011125104722196818,0.0011217227633802602,0.04618626589822365,2.940416929346097,0.7348383280743183,0.2408747385361737,-4.4985510377429625,4.1
,,0.03393943841264657,0.011125104722196818,0.0011217227633802602,0.04618626589822365,2.9429818221538286,0.7348383280743183,0.2408747385361737,-4.4985510377429625,4.2
,,0.023492362999653224,0.007906249442330242,0.0008440933975806838,0.03224270583956415,2.9436269234841648,0.7286101581098191,0.24521048207525742,-4.840101763589651,4.3
,,0.023492362999653224,0.007906249442330242,0.0008440933975806838,0.03224270583956415,2.944243353644264,0.7286101581098191,0.24521048207525742,-4.840101763589651,4.4
,,0.023492362999653224,0.007906249442330242,0.0008440933975806838,0.03224270583956415,2.944832982493054,0.7286101581098191,0.24521048207525742,-4.840101763589651,4.5
,,0.023492362999653224,0.007906249442330242,0.0008440933975806838,0.03224270583956415,2.945397520752534,0.7286101581098191,0.24521048207525742,-4.840101763589651,4.6
,,0.023492362999653224,0.007906249442330242,0.0008440933975806838,0.03224270583956415,2.9459385365845354,0.7286101581098191,0.24521048207525742,-4.840101763589651,4.7
,,0.023492362999653224,0.007906249442330242,0.0008440933975806838,0.03224270583956415,2.94645747013768,0.7286101581098191,0.24521048207525742,-4.840101763589651,4.8
,,0.02232645931879878,0.00794393888933132,0.000798983970073645,0.031069382178203746,2.9437383687472116,0.7186000413764767,0.2556838383128284,-4.835346044951216,4.9
,,0.023400637288940124,0.007528694196441156,0.000817359069304664,0.031746690554685944,2.9469629763617755,0.7371047778549028,0.23714894576089568,-4.889033665695423,5.0
,,0.023400637288940124,0.007528694196441156,0.000817359069304664,0.031746690554685944,2.9500635606065484,0.7371047778549028,0.23714894576089568,-4.889033665695423,5.1
,,0.023400637288940124,0.007528694196441156,0.000817359069304664,0.031746690554685944,2.953047141672273,0.7371047778549028,0.23714894576089568,-4.889033665695423,5.2
,,0.023400637288940124,0.007528694196441156,0.000817359069304664,0.031746690554685944,2.9559202197355634,0.7371047778549028,0.23714894576089568,-4.889033665695423,5.3
,,0.023400637288940124,0.007528694196441156,0.000817359069304664,0.031746690554685944,2.958688822232916,0.7371047778549028,0.23714894576089568,-4.889033665695423,5.4
,,0.022393427668603316,0.007571610245847254,0.0007718936387736523,0.030736931553224222,2.9586685139181115,0.7285511772646123,0.2463359178432049,-4.883349520038655,5.5
,,0.02335801705899606,0.007128767175759497,0.0007902886978871038,0.03127707293264266,2.964246009573038,0.746809559491042,0.22792309213562886,-4.943616966131603,5.6
,,0.02335801705899606,0.007128767175759497,0.0007902886978871038,0.03127707293264266,2.9696311777915874,0.746809559491042,0.22792309213562886,-4.943616966131603,5.7
,,0.02335801705899606,0.007128767175759497,0.0007902886978871038,0.03127707293264266,2.974833797934932,0.746809559491042,0.22792309213562886,-4.943616966131603,5.8
,,0.02335801705899606,0.007128767175759497,0.0007902886978871038,0.03127707293264266,2.979862997406832,0.746809559491042,0.22792309213562886,-4.943616966131603,5.9
,,0.02335801705899606,0.007128767175759497,0.0007902886978871038,0.03127707293264266,2.9847273050927674,0.746809559491042,0.22792309213562886,-4.943616966131603,6.0
,,0.02721701416711495,0.007205508788058183,0.0008649659240263098,0.03528748887919944,2.997509942852832,0.7712935953104413,0.20419443312401697,-4.932909436054628,6.1
,,0.02336975182462068,0.0067549439256335345,0.0007656251913038736,0.030890320941558087,3.0048455229837523,0.7565396251089234,0.21867509691509276,-4.99748060876897,6.2
,,0.02336975182462068,0.0067549439256335345,0.0007656251913038736,0.030890320941558087,3.011951866235582,0.7565396251089234,0.21867509691509276,-4.99748060876897,6.3
,,0.02336975182462068,0.0067549439256335345,0.0007656251913038736,0.030890320941558087,3.018839552771971,0.7565396251089234,0.21867509691509276,-4.99748060876897,6.4
,,0.02336975182462068,0.0067549439256335345,0.0007656251913038736,0.030890320941558087,3.0255185215345297,0.7565396251089234,0.21867509691509276,-4.99748060876897,6.5
,,0.02336975182462068,0.0067549439256335345,0.0007656251913038736,0.030890320941558087,3.031998118095221,0.7565396251089234,0.21867509691509276,-4.99748060876897,6.6
,,0.025172416441291305,0.006042915526924917,0.000785363453802334,0.032000695422018555,3.048668849654701,0.7866209189932494,0.1888370064222729,-5.10886868036583,6.7
,,0.021801833444473707,0.0059915029123115745,0.0006929425531447553,0.028486278909930038,3.057221360480959,0.7653450811672634,0.2103294337339018,-5.117412994767954,6.8
,,0.021801833444473707,0.0059915029123115745,0.0006929425531447553,0.028486278909930038,3.0655295138550382,0.7653450811672634,0.2103294337339018,-5.117412994767954,6.9
,,0.021801833444473707,0.0059915029123115745,0.0006929425531447553,0.028486278909930038,3.073603634739707,0.7653450811672634,0.2103294337339018,-5.117412994767954,7.0
,,0.021801833444473707,0.0059915029123115745,0.0006929425531447553,0.028486278909930038,3.0814534744886903,0.7653450811672634,0.2103294337339018,-5.117412994767954,7.1
,,0.021801833444473707,0.0059915029123115745,0.0006929425531447553,0.028486278909930038,3.0890882501349615,0.7653450811672634,0.2103294337339018,-5.117412994767954,7.2
,,0.023569419087809986,0.005143202549076632,0.0007239716334281896,0.029436593270314806,3.109271311890154,0.8006843343376442,0.17472139190316124,-5.270079329516172,7.3
,,0.023569419087809986,0.005143202549076632,0.0007239716334281896,0.029436593270314806,3.1289161586652074,0.8006843343376442,0.17472139190316124,-5.270079329516172,7.4
,,0.0240317150201204,0.0045758390919312456,0.0007396512446128355,0.02934720535666448,3.1568497703762857,0.8188757576081437,0.15592077802025242,-5.386965188999453,7.5
,,0.0240317150201204,0.0045758390919312456,0.0007396512446128355,0.02934720535666448,3.1840578337312317,0.8188757576081437,0.15592077802025242,-5.386965188999453,7.6
,,0.0240317150201204,0.0045758390919312456,0.0007396512446128355,0.02934720535666448,3.2105682544360508,0.8188757576081437,0.15592077802025242,-5.386965188999453,7.7
,,0.0240317150201204,0.0045758390919312456,0.0007396512446128355,0.02934720535666448,3.2364075252496085,0.8188757576081437,0.15592077802025242,-5.386965188999453,7.8
,,0.021812652736122515,0.004350679875896654,0.0006625965008498431,0.02682592911286901,3.2586226728425607,0.8131182575017872,0.16218188967812988,-5.437423152784495,7.9
,,0.021812652736122515,0.004350679875896654,0.0006625965008498431,0.02682592911286901,3.2802892982727245,0.8131182575017872,0.16218188967812988,-5.437423152784495,8.0
,,0.021913712934177907,0.003840520679241086,0.0006687943921384739,0.02642302800555747,3.3098701896391836,0.8293414717483881,0.14534748547491688,-5.56214732802211,8.1
,,0.021913712934177907,0.003840520679241086,0.0006687943921384739,0.02642302800555747,3.3387382884425962,0.8293414717483881,0.14534748547491688,-5.56214732802211,8.2
,,0.021913712934177907,0.003840520679241086,0.0006687943921384739,0.02642302800555747,3.3669190515602128,0.8293414717483881,0.14534748547491688,-5.56214732802211,8.3
,,0.021913712934177907,0.003840520679241086,0.0006687943921384739,0.02642302800555747,3.394436737898592,0.8293414717483881,0.14534748547491688,-5.56214732802211,8.4
,,0.017348201019112476,0.0045646186217876625,0.0005101389524990389,0.022422958593399177,3.399159341044988,0.7736802860715892,0.20356897163121843,-5.389420312392851,8.5
,,0.017348201019112476,0.0045646186217876625,0.0005101389524990389,0.022422958593399177,3.403773378601812,0.7736802860715892,0.20356897163121843,-5.389420312392851,8.6
,,0.017484001621643375,0.004292624724310703,0.0005204852371284913,0.02229711158308257,3.4113786001504356,0.7841375129014004,0.19251931840210348,-5.450856909281468,8.7
,,0.017484001621643375,0.004292624724310703,0.0005204852371284913,0.02229711158308257,3.418812917844035,0.7841375129014004,0.19251931840210348,-5.450856909281468,8.8
,,0.017484001621643375,0.004292624724310703,0.0005204852371284913,0.02229711158308257,3.4260820284777767,0.7841375129014004,0.19251931840210348,-5.450856909281468,8.9
,,0.017484001621643375,0.004292624724310703,0.0005204852371284913,0.02229711158308257,3.434850632446053,0.7841375129014004,0.19251931840210348,-5.450856909281468,9.0
,,0.016417288412043526,0.00419813322475429,0.0004759982670713087,0.021091419903869126,3.441814608317332,0.7783870638805047,0.1990445993626139,-5.473115322795613,9.1
,,0.016417288412043526,0.00419813322475429,0.0004759982670713087,0.021091419903869126,3.4487785841886116,0.7783870638805047,0.1990445993626139,-5.473115322795613,9.2
,,0.016417288412043526,0.00419813322475429,0.0004759982670713087,0.021091419903869126,3.4557425600598908,0.7783870638805047,0.1990445993626139,-5.473115322795613,9.3
,,0.016459514995952898,0.0039656453052972765,0.0004851216312810775,0.020910281932531253,3.465372201692356,0.7871493578642736,0.18965049434018907,-5.5300866867475005,9.4
,,0.016459514995952898,0.0039656453052972765,0.0004851216312810775,0.020910281932531253,3.4750018433248213,0.7871493578642736,0.18965049434018907,-5.5300866867475005,9.5
,,0.016459514995952898,0.0039656453052972765,0.0004851216312810775,0.020910281932531253,3.489092182647239,0.7871493578642736,0.18965049434018907,-5.5300866867475005,9.6
,,0.015555276859504513,0.0038904483486539446,0.0004496024896782245,0.01989532769783668,3.501491396709326,0.7818557751725755,0.19554582903788875,-5.549230871269949,9.7
,,0.015555276859504513,0.0038904483486539446,0.0004496024896782245,0.01989532769783668,3.5138906107714125,0.7818557751725755,0.19554582903788875,-5.549230871269949,9.8
,,0.015555276859504513,0.0038904483486539446,0.0004496024896782245,0.01989532769783668,3.526289824833499,0.7818557751725755,0.19554582903788875,-5.549230871269949,9.9
,,0.01870444575200232,0.002833050577073822,0.0005798552494767962,0.022117351578552942,3.5676212941824126,0.8456910261416609,0.12809176392624755,-5.866401205460847,10.0
,,0.01870444575200232,0.002833050577073822,0.0005798552494767962,0.022117351578552942,3.608952763531327,0.8456910261416609,0.12809176392624755,-5.866401205460847,10.1
,,0.01870444575200232,0.002833050577073822,0.0005798552494767962,0.022117351578552942,3.651257579187688,0.8456910261416609,0.12809176392624755,-5.866401205460847,10.2
,,0.01870444575200232,0.002833050577073822,0.0005798552494767962,0.022117351578552942,3.693562394844049,0.8456910261416609,0.12809176392624755,-5.866401205460847,10.3
,,0.014592250150763661,0.0035988912564538,0.0004239521160784706,0.018615093523295934,3.7075608062972996,0.7838934643278656,0.19333189231361922,-5.627129465275372,10.4
,,0.014592250150763661,0.0035988912564538,0.0004239521160784706,0.018615093523295934,3.72155921775055,0.7838934643278656,0.19333189231361922,-5.627129465275372,10.5
,,0.014515377082210222,0.003433254260682621,0.0004299069511825895,0.01837853829407543,3.7374823571549616,0.7898004101277983,0.18680779753792373,-5.67424670354901,10.6
,,0.014515377082210222,0.003433254260682621,0.0004299069511825895,0.01837853829407543,3.753405496559374,0.7898004101277983,0.18680779753792373,-5.67424670354901,10.7
,,0.014515377082210222,0.003433254260682621,0.0004299069511825895,0.01837853829407543,3.765442456890256,0.7898004101277983,0.18680779753792373,-5.67424670354901,10.8
,,0.014515377082210222,0.003433254260682621,0.0004299069511825895,0.01837853829407543,3.7805645730044666,0.7898004101277983,0.18680779753792373,-5.67424670354901,10.9
,,0.013836727895851636,0.003391758465294511,0.00040723609726387756,0.017635722458410025,3.794038215920879,0.784585260313691,0.19232319363684863,-5.686406770753364,11.0
,,0.013836727895851636,0.003391758465294511,0.00040723609726387756,0.017635722458410025,3.8075118588372923,0.784585260313691,0.19232319363684863,-5.686406770753364,11.1
,,0.013836727895851636,0.003391758465294511,0.00040723609726387756,0.017635722458410025,3.820985501753705,0.784585260313691,0.19232319363684863,-5.686406770753364,11.2
,,0.017438998580797616,0.002633250931745183,0.0005703087342068183,0.02064255824674962,3.8627157806795527,0.8448080113104955,0.12756417592571478,-5.939536100409203,11.3
,,0.017438998580797616,0.002633250931745183,0.0005703087342068183,0.02064255824674962,3.904446059605399,0.8448080113104955,0.12756417592571478,-5.939536100409203,11.4
,,0.017438998580797616,0.002633250931745183,0.0005703087342068183,0.02064255824674962,3.946957269762083,0.8448080113104955,0.12756417592571478,-5.939536100409203,11.5
,,0.017438998580797616,0.002633250931745183,0.0005703087342068183,0.02064255824674962,3.989468479918767,0.8448080113104955,0.12756417592571478,-5.939536100409203,11.6
,,0.013147798975875747,0.0032087063807812186,0.00039539186478942544,0.01675189722144639,4.003923324168739,0.7848543243832379,0.19154286457018824,-5.741887419706547,11.7
,,0.013147798975875747,0.0032087063807812186,0.00039539186478942544,0.01675189722144639,4.01837816841871,0.7848543243832379,0.19154286457018824,-5.741887419706547,11.8
,,0.01762240957000291,0.0027272523091766312,0.0006004557620976329,0.020950117641277174,4.0591003429518935,0.8411604112084883,0.1301783768413422,-5.9044606567816125,11.9
,,0.01762240957000291,0.0027272523091766312,0.0006004557620976329,0.020950117641277174,4.099822517485077,0.8411604112084883,0.1301783768413422,-5.9044606567816125,12.0
,,0.01762240957000291,0.0027272523091766312,0.0006004557620976329,0.020950117641277174,4.1394843644160355,0.8411604112084883,0.1301783768413422,-5.9044606567816125,12.1
,,0.01762240957000291,0.0027272523091766312,0.0006004557620976329,0.020950117641277174,4.179146211346994,0.8411604112084883,0.1301783768413422,-5.9044606567816125,12.2
,,0.017601947610241232,0.002979007300063222,0.0006219923833723014,0.021202947293676756,4.212664320231308,0.8301651353673161,0.1404996795399117,-5.816165154746031,12.3
,,0.017601947610241232,0.002979007300063222,0.0006219923833723014,0.021202947293676756,4.246182429115623,0.8301651353673161,0.1404996795399117,-5.816165154746031,12.4
,,0.012327096288036805,0.0029350791200289518,0.00039000481140562656,0.015652180219471384,4.2607145097858,0.7875641677510102,0.1875188682262743,-5.831020868644996,12.5
,,0.012327096288036805,0.0029350791200289518,0.00039000481140562656,0.015652180219471384,4.2752465904559775,0.7875641677510102,0.1875188682262743,-5.831020868644996,12.6
,,0.012327096288036805,0.0029350791200289518,0.00039000481140562656,0.015652180219471384,4.288015615653202,0.7875641677510102,0.1875188682262743,-5.831020868644996,12.7
,,0.012327096288036805,0.0029350791200289518,0.00039000481140562656,0.015652180219471384,4.300784640850427,0.7875641677510102,0.1875188682262743,-5.831020868644996,12.8
,,0.012327096288036805,0.0029350791200289518,0.00039000481140562656,0.015652180219471384,4.313553666047651,0.7875641677510102,0.1875188682262743,-5.831020868644996,12.9
,,0.012327096288036805,0.0029350791200289518,0.00039000481140562656,0.015652180219471384,4.326322691244875,0.7875641677510102,0.1875188682262743,-5.831020868644996,13.0
,,0.011675726222499018,0.0027852608227111864,0.00038395154116365257,0.014844938586373858,4.339003373373084,0.7865122617089266,0.18762360022612504,-5.883413757308967,13.1
,,0.011675726222499018,0.0027852608227111864,0.00038395154116365257,0.014844938586373858,4.351684055501294,0.7865122617089266,0.18762360022612504,-5.883413757308967,13.2
,,0.011675726222499018,0.0027852608227111864,0.00038395154116365257,0.014844938586373858,4.3652463047338355,0.7865122617089266,0.18762360022612504,-5.883413757308967,13.3
,,0.011675726222499018,0.0027852608227111864,0.00038395154116365257,0.014844938586373858,4.378808553966378,0.7865122617089266,0.18762360022612504,-5.883413757308967,13.4
,,0.011675726222499018,0.0027852608227111864,0.00038395154116365257,0.014844938586373858,4.3923708031989195,0.7865122617089266,0.18762360022612504,-5.883413757308967,13.5
,,0.011675726222499018,0.0027852608227111864,0.00038395154116365257,0.014844938586373858,4.405933052431461,0.7865122617089266,0.18762360022612504,-5.883413757308967,13.6
,,0.011380765033920869,0.0026762363844215886,0.0003385616559885978,0.014395563074331055,4.4201681613663535,0.7905744968193764,0.18590703056232832,-5.923343805631815,13.7
,,0.01104542301512027,0.002620185547844635,0.00037812885109282635,0.014043737414057731,4.433992000130531,0.7865016761181992,0.1865732369235157,-5.944510143928706,13.8
,,0.01104542301512027,0.002620185547844635,0.00037812885109282635,0.014043737414057731,4.44960321533998,0.7865016761181992,0.1865732369235157,-5.944510143928706,13.9
,,0.01104542301512027,0.002620185547844635,0.00037812885109282635,0.014043737414057731,4.4619067532552545,0.7865016761181992,0.1865732369235157,-5.944510143928706,14.0
,,0.01104542301512027,0.002620185547844635,0.00037812885109282635,0.014043737414057731,4.47421029117053,0.7865016761181992,0.1865732369235157,-5.944510143928706,14.1
,,0.01104542301512027,0.002620185547844635,0.00037812885109282635,0.014043737414057731,4.486513829085804,0.7865016761181992,0.1865732369235157,-5.944510143928706,14.2
,,0.01104542301512027,0.002620185547844635,0.00037812885109282635,0.014043737414057731,4.498817367001078,0.7865016761181992,0.1865732369235157,-5.944510143928706,14.3
,,0.010727920167518418,0.00251592976319138,0.00033353917883777374,0.013577389109547571,4.511659643854598,0.7901313044033321,0.1853029137555016,-5.985112856594263,14.4
,,0.01045948005886091,0.002455667709152939,0.00037522537425742494,0.013290373142271274,4.526123762428759,0.786996719120967,0.18477041109872666,-6.009356575426948,14.5
,,0.01045948005886091,0.002455667709152939,0.00037522537425742494,0.013290373142271274,4.537043056451311,0.786996719120967,0.18477041109872666,-6.009356575426948,14.6
,,0.01045948005886091,0.002455667709152939,0.00037522537425742494,0.013290373142271274,4.547962350473862,0.786996719120967,0.18477041109872666,-6.009356575426948,14.7
,,0.01045948005886091,0.002455667709152939,0.00037522537425742494,0.013290373142271274,4.558881644496413,0.786996719120967,0.18477041109872666,-6.009356575426948,14.8
,,0.01045948005886091,0.002455667709152939,0.00037522537425742494,0.013290373142271274,4.569800938518965,0.786996719120967,0.18477041109872666,-6.009356575426948,14.9
,,0.007905458184043717,0.0023574869993344405,0.0003307319229064101,0.010593677106284567,4.570653776203795,0.7462430754429831,0.22253717719373292,-6.050159058070196,15.0
,,0.007905458184043717,0.0023574869993344405,0.0003307319229064101,0.010593677106284567,4.565943668555649,0.7462430754429831,0.22253717719373292,-6.050159058070196,15.1
,,0.010029744663997775,0.0023075433580996615,0.00037769800042010957,0.012714986022517546,4.575797576788042,0.7888128737409262,0.18148217811746928,-6.071571801688105,15.2
,,0.010029744663997775,0.0023075433580996615,0.00037769800042010957,0.012714986022517546,4.585651485020435,0.7888128737409262,0.18148217811746928,-6.071571801688105,15.3
,,0.010029744663997775,0.0023075433580996615,0.00037769800042010957,0.012714986022517546,4.595505393252828,0.7888128737409262,0.18148217811746928,-6.071571801688105,15.4
,,0.010029744663997775,0.0023075433580996615,0.00037769800042010957,0.012714986022517546,4.605359301485222,0.7888128737409262,0.18148217811746928,-6.071571801688105,15.5
,,0.023388426399616056,0.005557681913458145,0.0011067385958934309,0.03005284690896763,4.613677685431474,0.7782432882469134,0.18493029729572005,-5.192574179695706,15.6
,,0.023388426399616056,0.005557681913458145,0.0011067385958934309,0.03005284690896763,4.6141521096772955,0.7782432882469134,0.18493029729572005,-5.192574179695706,15.7
,,0.023388426399616056,0.005557681913458145,0.0011067385958934309,0.03005284690896763,4.6204800424505965,0.7782432882469134,0.18493029729572005,-5.192574179695706,15.8
,,0.00979505005313521,0.002196061507600937,0.0003869348365613661,0.012378046397297513,4.62960769003059,0.7913243931024329,0.1774158406839064,-6.12108974680135,15.9
,,0.00979505005313521,0.002196061507600937,0.0003869348365613661,0.012378046397297513,4.6387353376105835,0.7913243931024329,0.1774158406839064,-6.12108974680135,16.0
,,0.00979505005313521,0.002196061507600937,0.0003869348365613661,0.012378046397297513,4.647862985190577,0.7913243931024329,0.1774158406839064,-6.12108974680135,16.1
,,0.00979505005313521,0.002196061507600937,0.0003869348365613661,0.012378046397297513,4.6569906327705715,0.7913243931024329,0.1774158406839064,-6.12108974680135,16.2
,,0.00959037218404609,0.002121296347110385,0.0003380503844858621,0.012049718915642339,4.6563057563846995,0.7959000746147159,0.17604529715266842,-6.155727892692645,16.3
,,0.00959037218404609,0.002121296347110385,0.0003380503844858621,0.012049718915642339,4.6556208799988275,0.7959000746147159,0.17604529715266842,-6.155727892692645,16.4
,,0.00959037218404609,0.002121296347110385,0.0003380503844858621,0.012049718915642339,4.647500049960868,0.7959000746147159,0.17604529715266842,-6.155727892692645,16.5
,,0.009820105213888777,0.0021266391714567603,0.00040757427083478766,0.012354318656180325,4.640453309789917,0.7948722618528387,0.1721373092795284,-6.153212399159213,16.6
,,0.009820105213888777,0.0021266391714567603,0.00040757427083478766,0.012354318656180325,4.633406569618968,0.7948722618528387,0.1721373092795284,-6.153212399159213,16.7
,,0.009820105213888777,0.0021266391714567603,0.00040757427083478766,0.012354318656180325,4.626359829448018,0.7948722618528387,0.1721373092795284,-6.153212399159213,16.8
,,0.009610051942308986,0.00205262837770883,0.00035030018132296587,0.012012980501340783,4.622673253292579,0.7999723250392687,0.17086753595244192,-6.188634171597897,16.9
,,0.009610051942308986,0.00205262837770883,0.00035030018132296587,0.012012980501340783,4.618986677137139,0.7999723250392687,0.17086753595244192,-6.188634171597897,17.0
,,0.009610051942308986,0.00205262837770883,0.00035030018132296587,0.012012980501340783,4.607607844785738,0.7999723250392687,0.17086753595244192,-6.188634171597897,17.1
,,0.009610051942308986,0.00205262837770883,0.00035030018132296587,0.012012980501340783,4.596229012434337,0.7999723250392687,0.17086753595244192,-6.188634171597897,17.2
,,0.010027408323576466,0.002078796749453763,0.0004358485689282798,0.01254205364195851,4.586426094822165,0.7995029051726039,0.16574612171162326,-6.175966038495938,17.3
,,0.010027408323576466,0.002078796749453763,0.0004358485689282798,0.01254205364195851,4.576623177209992,0.7995029051726039,0.16574612171162326,-6.175966038495938,17.4
,,0.010027408323576466,0.002078796749453763,0.0004358485689282798,0.01254205364195851,4.587990723840417,0.7995029051726039,0.16574612171162326,-6.175966038495938,17.5
,,0.00987718602839898,0.0020151449131130556,0.00045124428237265293,0.01234357522388469,4.60022290368069,0.8001884259016568,0.16325455765958077,-6.207064168991712,17.6
,,0.00987718602839898,0.0020151449131130556,0.00045124428237265293,0.01234357522388469,4.609427836116607,0.8001884259016568,0.16325455765958077,-6.207064168991712,17.7
,,0.00987718602839898,0.0020151449131130556,0.00045124428237265293,0.01234357522388469,4.618632768552524,0.8001884259016568,0.16325455765958077,-6.207064168991712,17.8
,,0.00987718602839898,0.0020151449131130556,0.00045124428237265293,0.01234357522388469,4.62783770098844,0.8001884259016568,0.16325455765958077,-6.207064168991712,17.9
,,0.00987718602839898,0.0020151449131130556,0.00045124428237265293,0.01234357522388469,4.637042633424357,0.8001884259016568,0.16325455765958077,-6.207064168991712,18.0
,,0.010392396160053009,0.0020485452189154575,0.00047240953862765693,0.012913350917596123,4.64995869220242,0.8047791952971722,0.15863777202275575,-6.190625387061615,18.1
,,0.010210293762918666,0.0019780678733820173,0.0004918965772979036,0.012680258213598588,4.6638601880160175,0.805211817529782,0.15599586696591822,-6.225634732223712,18.2
,,0.010210293762918666,0.0019780678733820173,0.0004918965772979036,0.012680258213598588,4.677761683829615,0.805211817529782,0.15599586696591822,-6.225634732223712,18.3
,,0.010210293762918666,0.0019780678733820173,0.0004918965772979036,0.012680258213598588,4.688997513882027,0.805211817529782,0.15599586696591822,-6.225634732223712,18.4
,,0.010210293762918666,0.0019780678733820173,0.0004918965772979036,0.012680258213598588,4.700233343934438,0.805211817529782,0.15599586696591822,-6.225634732223712,18.5
,,0.010210293762918666,0.0019780678733820173,0.0004918965772979036,0.012680258213598588,4.71146917398685,0.805211817529782,0.15599586696591822,-6.225634732223712,18.6
,,0.010210293762918666,0.0019780678733820173,0.0004918965772979036,0.012680258213598588,4.724396129299592,0.805211817529782,0.15599586696591822,-6.225634732223712,18.7
,,0.010884178214774396,0.0020372402905566417,0.0005194768225889302,0.013440895327919969,4.739332617758458,0.8097807437102306,0.15157028165562783,-6.196159185731055,18.8
,,0.010622180067659543,0.001960889698211111,0.0005414814153884921,0.013124551181259147,4.755095903309675,0.8093366333796772,0.14940622891631608,-6.234356981074974,18.9
,,0.010622180067659543,0.001960889698211111,0.0005414814153884921,0.013124551181259147,4.741926933574065,0.8093366333796772,0.14940622891631608,-6.234356981074974,19.0
,,0.010622180067659543,0.001960889698211111,0.0005414814153884921,0.013124551181259147,4.728757963838453,0.8093366333796772,0.14940622891631608,-6.234356981074974,19.1
,,0.010622180067659543,0.001960889698211111,0.0005414814153884921,0.013124551181259147,4.715588994102843,0.8093366333796772,0.14940622891631608,-6.234356981074974,19.2
,,0.010622180067659543,0.001960889698211111,0.0005414814153884921,0.013124551181259147,4.702420024367233,0.8093366333796772,0.14940622891631608,-6.234356981074974,19.3
,,0.010622180067659543,0.001960889698211111,0.0005414814153884921,0.013124551181259147,4.717557458834732,0.8093366333796772,0.14940622891631608,-6.234356981074974,19.4
,,0.01107604388068742,0.001964087554500022,0.000598225150386177,0.013638356585573618,4.735164465034264,0.8121245262353265,0.144012040026699,-6.232727490359179,19.5
,,0.01107604388068742,0.001964087554500022,0.000598225150386177,0.013638356585573618,4.750846743282634,0.8121245262353265,0.144012040026699,-6.232727490359179,19.6
,,0.01107604388068742,0.001964087554500022,0.000598225150386177,0.013638356585573618,4.766529021531005,0.8121245262353265,0.144012040026699,-6.232727490359179,19.7
,,0.01107604388068742,0.001964087554500022,0.000598225150386177,0.013638356585573618,4.782211299779375,0.8121245262353265,0.144012040026699,-6.232727490359179,19.8
,,0.01107604388068742,0.001964087554500022,0.000598225150386177,0.013638356585573618,4.797893578027745,0.8121245262353265,0.144012040026699,-6.232727490359179,19.9
,,0.01107604388068742,0.001964087554500022,0.000598225150386177,0.013638356585573618,4.815224329473914,0.8121245262353265,0.144012040026699,-6.232727490359179,20.0
,,0.010832423067428576,0.0019030197804537166,0.0004980759019673912,0.013233518749849684,4.833143371615249,0.8185595435493389,0.1438030063225121,-6.264313296369168,20.1
,,0.011407661574420573,0.0019795515555633457,0.0006555090084783026,0.014042722138462221,4.851845992855377,0.8123540052947166,0.14096636934383727,-6.224884947016987,20.2
,,0.011407661574420573,0.0019795515555633457,0.0006555090084783026,0.014042722138462221,4.842291978086072,0.8123540052947166,0.14096636934383727,-6.224884947016987,20.3
,,0.011407661574420573,0.0019795515555633457,0.0006555090084783026,0.014042722138462221,4.832737963316767,0.8123540052947166,0.14096636934383727,-6.224884947016987,20.4
,,0.011407661574420573,0.0019795515555633457,0.0006555090084783026,0.014042722138462221,4.823183948547461,0.8123540052947166,0.14096636934383727,-6.224884947016987,20.5
,,0.011407661574420573,0.0019795515555633457,0.0006555090084783026,0.014042722138462221,4.813629933778155,0.8123540052947166,0.14096636934383727,-6.224884947016987,20.6
,,0.011407661574420573,0.0019795515555633457,0.0006555090084783026,0.014042722138462221,4.832132284915562,0.8123540052947166,0.14096636934383727,-6.224884947016987,20.7
,,0.011143134835255936,0.0019284672036815683,0.0005421181346122518,0.013613720173549755,4.850806676149304,0.8185223945550206,0.14165615122811237,-6.2510297865889,20.8
,,0.011143134835255936,0.0019284672036815683,0.0005421181346122518,0.013613720173549755,4.843213737099836,0.8185223945550206,0.14165615122811237,-6.2510297865889,20.9
,,0.010911782667927509,0.0018913404733320123,0.000673425924375556,0.013476549065635076,4.835521954396103,0.809686709467213,0.1403430851711802,-6.270469456156854,21.0
,,0.010911782667927509,0.0018913404733320123,0.000673425924375556,0.013476549065635076,4.827830171692371,0.809686709467213,0.1403430851711802,-6.270469456156854,21.1
,,0.010911782667927509,0.0018913404733320123,0.000673425924375556,0.013476549065635076,4.820138388988639,0.809686709467213,0.1403430851711802,-6.270469456156854,21.2
,,0.010911782667927509,0.0018913404733320123,0.000673425924375556,0.013476549065635076,4.81859034433155,0.809686709467213,0.1403430851711802,-6.270469456156854,21.3
,,0.01071909262101838,0.0018663122827267005,0.0005568291674779768,0.013142234071223058,4.816754781083071,0.8156218008998547,0.1420087538094667,-6.283790836471926,21.4
,,0.01071909262101838,0.0018663122827267005,0.0005568291674779768,0.013142234071223058,4.833905246048727,0.8156218008998547,0.1420087538094667,-6.283790836471926,21.5
,,0.01071909262101838,0.0018663122827267005,0.0005568291674779768,0.013142234071223058,4.851055711014384,0.8156218008998547,0.1420087538094667,-6.283790836471926,21.6
,,0.010487279745386177,0.001849698585603994,0.0006960190453879279,0.0130329973763781,4.86738686683553,0.8046713616619031,0.14192426593720603,-6.292732579866444,21.7
,,0.010487279745386177,0.001849698585603994,0.0006960190453879279,0.0130329973763781,4.8837180226566765,0.8046713616619031,0.14192426593720603,-6.292732579866444,21.8
,,0.010487279745386177,0.001849698585603994,0.0006960190453879279,0.0130329973763781,4.900049178477823,0.8046713616619031,0.14192426593720603,-6.292732579866444,21.9
,,0.010343080141543882,0.0018438552653261251,0.0005786013799992628,0.01276553678686927,4.915711026565931,0.8102346430259677,0.14444008866299526,-6.295896646447654,22.0
,,0.010343080141543882,0.0018438552653261251,0.0005786013799992628,0.01276553678686927,4.931461217723053,0.8102346430259677,0.14444008866299526,-6.295896646447654,22.1
,,0.010343080141543882,0.0018438552653261251,0.0005786013799992628,0.01276553678686927,4.947211408880175,0.8102346430259677,0.14444008866299526,-6.295896646447654,22.2
,,0.010343080141543882,0.0018438552653261251,0.0005786013799992628,0.01276553678686927,4.962961600037297,0.8102346430259677,0.14444008866299526,-6.295896646447654,22.3
,,0.010138848451790309,0.0018458264428737243,0.0007266186537764895,0.012711293548440522,4.977415840638412,0.7976252309139842,0.14521153459634945,-6.294828165266336,22.4
,,0.010138848451790309,0.0018458264428737243,0.0007266186537764895,0.012711293548440522,4.991870081239526,0.7976252309139842,0.14521153459634945,-6.294828165266336,22.5
,,0.010138848451790309,0.0018458264428737243,0.0007266186537764895,0.012711293548440522,5.006324321840641,0.7976252309139842,0.14521153459634945,-6.294828165266336,22.6
,,0.01004448319360579,0.0018575341479419609,0.0006068749366409307,0.01250889227818868,5.0191565715100275,0.8029874244836216,0.1484970936380097,-6.288505397723326,22.7
,,0.01004448319360579,0.0018575341479419609,0.0006068749366409307,0.01250889227818868,5.0324000913501274,0.8029874244836216,0.1484970936380097,-6.288505397723326,22.8
,,0.01004448319360579,0.0018575341479419609,0.0006068749366409307,0.01250889227818868,5.045643611190227,0.8029874244836216,0.1484970936380097,-6.288505397723326,22.9
,,0.01004448319360579,0.0018575341479419609,0.0006068749366409307,0.01250889227818868,5.058887131030327,0.8029874244836216,0.1484970936380097,-6.288505397723326,23.0
,,0.009785751588331231,0.0018566119665204721,0.0007568135956106016,0.012399177150462305,5.070612084436881,0.7892258872973976,0.14973670784687904,-6.289001975624151,23.1
,,0.009785751588331231,0.0018566119665204721,0.0007568135956106016,0.012399177150462305,5.082337037843435,0.7892258872973976,0.14973670784687904,-6.289001975624151,23.2
,,0.009785751588331231,0.0018566119665204721,0.0007568135956106016,0.012399177150462305,5.094061991249989,0.7892258872973976,0.14973670784687904,-6.289001975624151,23.3
,,0.00970109071789154,0.0018757474901414358,0.0006324865422973297,0.012209324750330305,5.104149268553771,0.7945640660945719,0.1536323693978809,-6.278748037595343,23.4
,,0.00970109071789154,0.0018757474901414358,0.0006324865422973297,0.012209324750330305,5.114288501920088,0.7945640660945719,0.1536323693978809,-6.278748037595343,23.5
,,0.00970109071789154,0.0018757474901414358,0.0006324865422973297,0.012209324750330305,5.124427735286405,0.7945640660945719,0.1536323693978809,-6.278748037595343,23.6
,,0.00970109071789154,0.0018757474901414358,0.0006324865422973297,0.012209324750330305,5.134566968652722,0.7945640660945719,0.1536323693978809,-6.278748037595343,23.7
,,0.009402626575543997,0.0018647064424774673,0.0007820519864378242,0.012049385004459288,5.143268016368579,0.7803407868587677,0.15475532085557633,-6.284651641772926,23.8
,,0.009402626575543997,0.0018647064424774673,0.0007820519864378242,0.012049385004459288,5.151969064084436,0.7803407868587677,0.15475532085557633,-6.284651641772926,23.9
,,0.009402626575543997,0.0018647064424774673,0.0007820519864378242,0.012049385004459288,5.170736568138013,0.7803407868587677,0.15475532085557633,-6.284651641772926,24.0
,,0.009338075501007915,0.0018913220667325372,0.0006565598824855239,0.011885957450225975,5.1883364108001935,0.7856393176664435,0.15912239923899268,-6.27047918824333,24.1
,,0.009338075501007915,0.0018913220667325372,0.0006565598824855239,0.011885957450225975,5.194901119305345,0.7856393176664435,0.15912239923899268,-6.27047918824333,24.2
,,0.009338075501007915,0.0018913220667325372,0.0006565598824855239,0.011885957450225975,5.2014658278104955,0.7856393176664435,0.15912239923899268,-6.27047918824333,24.3
,,0.009338075501007915,0.0018913220667325372,0.0006565598824855239,0.011885957450225975,5.208030536315647,0.7856393176664435,0.15912239923899268,-6.27047918824333,24.4
,,0.009033042728486235,0.0018795470546483241,0.000807963309719674,0.011720553092854233,5.213135698804397,0.7707010630747012,0.16036334119711834,-6.276724459546735,24.5
,,0.009033042728486235,0.0018795470546483241,0.000807963309719674,0.011720553092854233,5.219776385579285,0.7707010630747012,0.16036334119711834,-6.276724459546735,24.6
,,0.008953581591088099,0.0019022164155651385,0.0008594501250821911,0.011715248131735427,5.225316547048018,0.7642673454635373,0.16237098814938677,-6.264735538174476,24.7
,,0.008953581591088099,0.0019022164155651385,0.0008594501250821911,0.011715248131735427,5.230856708516749,0.7642673454635373,0.16237098814938677,-6.264735538174476,24.8
,,0.008953581591088099,0.0019022164155651385,0.0008594501250821911,0.011715248131735427,5.23359715517879,0.7642673454635373,0.16237098814938677,-6.264735538174476,24.9
,,0.008953581591088099,0.0019022164155651385,0.0008594501250821911,0.011715248131735427,5.23633760184083,0.7642673454635373,0.16237098814938677,-6.264735538174476,25.0
,,0.008953581591088099,0.0019022164155651385,0.0008594501250821911,0.011715248131735427,5.23907804850287,0.7642673454635373,0.16237098814938677,-6.264735538174476,25.1
,,0.008596470602308838,0.0018773327601749102,0.0008213364430939667,0.011295139805577715,5.240398125418079,0.7610769543608277,0.1662071291271538,-6.27790325409911,25.2
,,0.008596470602308838,0.0018773327601749102,0.0008213364430939667,0.011295139805577715,5.241043584928568,0.7610769543608277,0.1662071291271538,-6.27790325409911,25.3
,,0.008491948376068334,0.0018911267815901003,0.0008659791881383119,0.011249054345796745,5.240703821965296,0.7549033114273632,0.16811428973998402,-6.270582446820216,25.4
,,0.008491948376068334,0.0018911267815901003,0.0008659791881383119,0.011249054345796745,5.240364059002024,0.7549033114273632,0.16811428973998402,-6.270582446820216,25.5
,,0.008491948376068334,0.0018911267815901003,0.0008659791881383119,0.011249054345796745,5.238950206171743,0.7549033114273632,0.16811428973998402,-6.270582446820216,25.6
,,0.008491948376068334,0.0018911267815901003,0.0008659791881383119,0.011249054345796745,5.237536353341461,0.7549033114273632,0.16811428973998402,-6.270582446820216,25.7
,,0.008491948376068334,0.0018911267815901003,0.0008659791881383119,0.011249054345796745,5.236122500511178,0.7549033114273632,0.16811428973998402,-6.270582446820216,25.8
,,0.003617673120258446,0.0018579486915798376,0.000821085470375374,0.006296707282213658,5.205737005768662,0.5745341109435571,0.29506670840932925,-6.2882822538373215,25.9
,,0.003617673120258446,0.0018579486915798376,0.000821085470375374,0.006296707282213658,5.175351511026145,0.5745341109435571,0.29506670840932925,-6.2882822538373215,26.0
,,0.007984082214706298,0.0018654187717988035,0.0008617601760936596,0.01071126116259876,5.1708872965695685,0.7453914243623208,0.17415491448499204,-6.284269708572791,26.1
,,0.007984082214706298,0.0018654187717988035,0.0008617601760936596,0.01071126116259876,5.166423082112989,0.7453914243623208,0.17415491448499204,-6.284269708572791,26.2
,,0.007984082214706298,0.0018654187717988035,0.0008617601760936596,0.01071126116259876,5.160382952917183,0.7453914243623208,0.17415491448499204,-6.284269708572791,26.3
,,0.007984082214706298,0.0018654187717988035,0.0008617601760936596,0.01071126116259876,5.154342823721376,0.7453914243623208,0.17415491448499204,-6.284269708572791,26.4
,,0.007984082214706298,0.0018654187717988035,0.0008617601760936596,0.01071126116259876,5.14830269452557,0.7453914243623208,0.17415491448499204,-6.284269708572791,26.5
,,0.0075894657337324855,0.0018244075890225236,0.0008096364755948595,0.01022350979834987,5.140063638157017,0.7423542289710983,0.17845217787310116,-6.30649995339929,26.6
,,0.007461147854177049,0.0018249844334382352,0.0008451630717387155,0.010131295359354,5.1310287300671575,0.7364455964940689,0.18013337571421878,-6.306183821606944,26.7
,,0.007461147854177049,0.0018249844334382352,0.0008451630717387155,0.010131295359354,5.1219938219772985,0.7364455964940689,0.18013337571421878,-6.306183821606944,26.8
,,0.007461147854177049,0.0018249844334382352,0.0008451630717387155,0.010131295359354,5.11295891388744,0.7364455964940689,0.18013337571421878,-6.306183821606944,26.9
,,0.007461147854177049,0.0018249844334382352,0.0008451630717387155,0.010131295359354,5.103924005797581,0.7364455964940689,0.18013337571421878,-6.306183821606944,27.0
,,0.007461147854177049,0.0018249844334382352,0.0008451630717387155,0.010131295359354,5.092982599462574,0.7364455964940689,0.18013337571421878,-6.306183821606944,27.1
,,0.007126421783573467,0.0017880092633257235,0.000796468594294789,0.00971089964119398,5.079915076033145,0.7338580406436221,0.1841239565221048,-6.326652421413294,27.2
,,0.007461147854177049,0.0018249844334382352,0.0008451630717387155,0.010131295359354,5.067988232662603,0.7364455964940689,0.18013337571421878,-6.306183821606944,27.3
,,0.006932365860028046,0.0017726097384808878,0.0008176257916683932,0.009522601390177327,5.054089051335884,0.7279907638661492,0.18614763611856686,-6.335302389778595,27.4
,,0.006932365860028046,0.0017726097384808878,0.0008176257916683932,0.009522601390177327,5.040189870009166,0.7279907638661492,0.18614763611856686,-6.335302389778595,27.5
,,0.006932365860028046,0.0017726097384808878,0.0008176257916683932,0.009522601390177327,5.026290688682447,0.7279907638661492,0.18614763611856686,-6.335302389778595,27.6
,,0.006932365860028046,0.0017726097384808878,0.0008176257916683932,0.009522601390177327,5.012391507355728,0.7279907638661492,0.18614763611856686,-6.335302389778595,27.7
,,0.006932365860028046,0.0017726097384808878,0.0008176257916683932,0.009522601390177327,4.996482792882886,0.7279907638661492,0.18614763611856686,-6.335302389778595,27.8
,,0.006932365860028046,0.0017726097384808878,0.0008176257916683932,0.009522601390177327,4.979747281317693,0.7279907638661492,0.18614763611856686,-6.335302389778595,27.9
,,0.006599573168474398,0.0017121487839462893,0.0006533381682923378,0.008965060120713025,4.962386561235432,0.7361437714429414,0.19098017870404596,-6.370006098528056,28.0
,,0.005873970790587621,0.0015590507835040773,0.0007120658467356247,0.008145087420827321,4.944060313631383,0.7211673106868856,0.1914099509254524,-6.463678115027746,28.1
,,0.005873970790587621,0.0015590507835040773,0.0007120658467356247,0.008145087420827321,4.925734066027335,0.7211673106868856,0.1914099509254524,-6.463678115027746,28.2
,,0.005873970790587621,0.0015590507835040773,0.0007120658467356247,0.008145087420827321,4.907407818423287,0.7211673106868856,0.1914099509254524,-6.463678115027746,28.3
,,0.005873970790587621,0.0015590507835040773,0.0007120658467356247,0.008145087420827321,4.889081570819239,0.7211673106868856,0.1914099509254524,-6.463678115027746,28.4
,,0.005873970790587621,0.0015590507835040773,0.0007120658467356247,0.008145087420827321,4.86828575148316,0.7211673106868856,0.1914099509254524,-6.463678115027746,28.5
,,0.005873970790587621,0.0015590507835040773,0.0007120658467356247,0.008145087420827321,4.847489932147081,0.7211673106868856,0.1914099509254524,-6.463678115027746,28.6
,,0.0027838464604296384,0.0014982751774165342,0.0005635393192128975,0.00484566095705907,4.805476065625814,0.5745029388352444,0.30919934157462553,-6.50344071421751,28.7
,,0.00498519127856976,0.001359540787119724,0.0006144471373249652,0.006959179203014449,4.783559818975324,0.7163475940395911,0.19535935883513722,-6.600608292782593,28.8
,,0.00498519127856976,0.001359540787119724,0.0006144471373249652,0.006959179203014449,4.761643572324834,0.7163475940395911,0.19535935883513722,-6.600608292782593,28.9
,,0.00498519127856976,0.001359540787119724,0.0006144471373249652,0.006959179203014449,4.739727325674345,0.7163475940395911,0.19535935883513722,-6.600608292782593,29.0
,,0.00498519127856976,0.001359540787119724,0.0006144471373249652,0.006959179203014449,4.717222788328687,0.7163475940395911,0.19535935883513722,-6.600608292782593,29.1
,,0.00498519127856976,0.001359540787119724,0.0006144471373249652,0.006959179203014449,4.693934671884237,0.7163475940395911,0.19535935883513722,-6.600608292782593,29.2
,,0.004742295096792156,0.0013019717849299063,0.0004818126777035995,0.006526079559425663,4.670375163518706,0.7266682935151819,0.19950289803768317,-6.643875405991317,29.3
,,0.004742295096792156,0.0013019717849299063,0.0004818126777035995,0.006526079559425663,4.646815655153176,0.7266682935151819,0.19950289803768317,-6.643875405991317,29.4
,,0.004742295096792156,0.0013019717849299063,0.0004818126777035995,0.006526079559425663,4.623256146787646,0.7266682935151819,0.19950289803768317,-6.643875405991317,29.5
,,0.0042559428419834955,0.0011757947487302314,0.0005233587661265938,0.005955096356840321,4.599443706049339,0.7146723725292718,0.19744344646575782,-6.745810978131087,29.6
,,0.0042559428419834955,0.0011757947487302314,0.0005233587661265938,0.005955096356840321,4.575631265311032,0.7146723725292718,0.19744344646575782,-6.745810978131087,29.7
,,0.0042559428419834955,0.0011757947487302314,0.0005233587661265938,0.005955096356840321,4.551646784476389,0.7146723725292718,0.19744344646575782,-6.745810978131087,29.8
,,0.004071524422299691,0.0011260730242084625,0.00040804916568354193,0.0056056466121916955,4.5276184527646715,0.7263255613446182,0.20088191463218022,-6.789018898606864,29.9
,,0.004071524422299691,0.0011260730242084625,0.00040804916568354193,0.0056056466121916955,4.503688964707218,0.7263255613446182,0.20088191463218022,-6.789018898606864,30.0
,,0.004071524422299691,0.0011260730242084625,0.00040804916568354193,0.0056056466121916955,4.479759476649763,0.7263255613446182,0.20088191463218022,-6.789018898606864,30.1
,,0.004071524422299691,0.0011260730242084625,0.00040804916568354193,0.0056056466121916955,4.45582998859231,0.7263255613446182,0.20088191463218022,-6.789018898606864,30.2
,,0.0031197859994000036,0.0006452551942113279,0.00010655923473434929,0.0038716004283456808,4.4454480603372675,0.8058130112184835,0.16666368499371273,-7.345864669477257,30.3
,,0.0031197859994000036,0.0006452551942113279,0.00010655923473434929,0.0038716004283456808,4.435353650673618,0.8058130112184835,0.16666368499371273,-7.345864669477257,30.4
,,0.0031197859994000036,0.0006452551942113279,0.00010655923473434929,0.0038716004283456808,4.425259241009967,0.8058130112184835,0.16666368499371273,-7.345864669477257,30.5
,,0.0035623478258176708,0.0009741979278997321,0.0004415737495579642,0.004978119503275367,4.402072983033524,0.7156011066977831,0.19569597058864416,-6.933896063570349,30.6
,,0.0035623478258176708,0.0009741979278997321,0.0004415737495579642,0.004978119503275367,4.3797060342015905,0.7156011066977831,0.19569597058864416,-6.933896063570349,30.7
,,0.0035623478258176708,0.0009741979278997321,0.0004415737495579642,0.004978119503275367,4.357339085369658,0.7156011066977831,0.19569597058864416,-6.933896063570349,30.8
,,0.0035623478258176708,0.0009741979278997321,0.0004415737495579642,0.004978119503275367,4.334972136537725,0.7156011066977831,0.19569597058864416,-6.933896063570349,30.9
,,0.0033213154962638764,0.0008878097252859271,0.0003809952891218653,0.0045901205106716695,4.314211423636261,0.7235791497286572,0.19341751991518288,-7.0267531112585715,31.0
,,0.0033213154962638764,0.0008878097252859271,0.0003809952891218653,0.0045901205106716695,4.293450710734799,0.7235791497286572,0.19341751991518288,-7.0267531112585715,31.1
,,0.003212122058956943,0.0005585034691436587,0.00010916740289915732,0.0038797929309997595,4.29502644380778,0.8279106942259498,0.14395187554500272,-7.490249727936873,31.2
,,0.003212122058956943,0.0005585034691436587,0.00010916740289915732,0.0038797929309997595,4.296602176880762,0.8279106942259498,0.14395187554500272,-7.490249727936873,31.3
,,0.003212122058956943,0.0005585034691436587,0.00010916740289915732,0.0038797929309997595,4.2994738605097504,0.8279106942259498,0.14395187554500272,-7.490249727936873,31.4
,,0.003212122058956943,0.0005585034691436587,0.00010916740289915732,0.0038797929309997595,4.302345544138739,0.8279106942259498,0.14395187554500272,-7.490249727936873,31.5
,,0.003212122058956943,0.0005585034691436587,0.00010916740289915732,0.0038797929309997595,4.305217227767727,0.8279106942259498,0.14395187554500272,-7.490249727936873,31.6
,,0.003212122058956943,0.0005585034691436587,0.00010916740289915732,0.0038797929309997595,4.309038042626094,0.8279106942259498,0.14395187554500272,-7.490249727936873,31.7
,,0.003251785794240559,0.0005429269512282551,0.00011250966494279483,0.0039072224104116085,4.315503964548311,0.8322499854565478,0.1389547085370705,-7.5185357752048185,31.8
,,0.002983470565862488,0.0007470420110988144,0.00032545640492435957,0.004055968981885662,4.299796001659681,0.7355752914252913,0.18418336393477713,-7.199389134655403,31.9
,,0.002983470565862488,0.0007470420110988144,0.00032545640492435957,0.004055968981885662,4.284088038771051,0.7355752914252913,0.18418336393477713,-7.199389134655403,32.0
,,0.002983470565862488,0.0007470420110988144,0.00032545640492435957,0.004055968981885662,4.269898642315967,0.7355752914252913,0.18418336393477713,-7.199389134655403,32.1
,,0.002983470565862488,0.0007470420110988144,0.00032545640492435957,0.004055968981885662,4.255709245860883,0.7355752914252913,0.18418336393477713,-7.199389134655403,32.2
,,0.002983470565862488,0.0007470420110988144,0.00032545640492435957,0.004055968981885662,4.241519849405799,0.7355752914252913,0.18418336393477713,-7.199389134655403,32.3
,,0.002983470565862488,0.0007470420110988144,0.00032545640492435957,0.004055968981885662,4.2284293901152425,0.7355752914252913,0.18418336393477713,-7.199389134655403,32.4
,,0.002923620949961323,0.0006977429539039227,0.0002860217384327359,0.0039073856422979815,4.217521151439955,0.7482294346154954,0.1785702814564194,-7.267659783909225,32.5
,,0.002870168917058672,0.0006710573182241926,0.0002862751465193706,0.0038275013818022353,4.207579277685994,0.7498805697902088,0.1753251668084873,-7.306656002548165,32.6
,,0.002870168917058672,0.0006710573182241926,0.0002862751465193706,0.0038275013818022353,4.197637403932033,0.7498805697902088,0.1753251668084873,-7.306656002548165,32.7
,,0.002870168917058672,0.0006710573182241926,0.0002862751465193706,0.0038275013818022353,4.1891337158285324,0.7498805697902088,0.1753251668084873,-7.306656002548165,32.8
,,0.002870168917058672,0.0006710573182241926,0.0002862751465193706,0.0038275013818022353,4.180630027725032,0.7498805697902088,0.1753251668084873,-7.306656002548165,32.9
,,0.002870168917058672,0.0006710573182241926,0.0002862751465193706,0.0038275013818022353,4.172126339621531,0.7498805697902088,0.1753251668084873,-7.306656002548165,33.0
,,0.002878559519549321,0.0006354330856874388,0.0002538987414542715,0.003767891346691031,4.167601317145853,0.7639709467942267,0.16864421694258178,-7.361203766840108,33.1
,,0.0037349236548254797,0.0005267021880077502,0.00015449649933659047,0.004416122342169821,4.191532671907452,0.8457473243348507,0.11926802456948236,-7.548875277301387,33.2
,,0.0037349236548254797,0.0005267021880077502,0.00015449649933659047,0.004416122342169821,4.21546402666905,0.8457473243348507,0.11926802456948236,-7.548875277301387,33.3
,,0.0037349236548254797,0.0005267021880077502,0.00015449649933659047,0.004416122342169821,4.239395381430649,0.8457473243348507,0.11926802456948236,-7.548875277301387,33.4
,,0.0037349236548254797,0.0005267021880077502,0.00015449649933659047,0.004416122342169821,4.264786282208648,0.8457473243348507,0.11926802456948236,-7.548875277301387,33.5
,,0.0037349236548254797,0.0005267021880077502,0.00015449649933659047,0.004416122342169821,4.290177182986649,0.8457473243348507,0.11926802456948236,-7.548875277301387,33.6
,,0.0037349236548254797,0.0005267021880077502,0.00015449649933659047,0.004416122342169821,4.316668609070806,0.8457473243348507,0.11926802456948236,-7.548875277301387,33.7
,,0.002906392744534918,0.0005904543903270899,0.00023092680409477872,0.0037277739389567867,4.319061696800297,0.7796590652029368,0.1583932931545543,-7.434618164383462,33.8
,,0.0028959472388318604,0.0005793877538810125,0.0002385642246032419,0.003713899217316115,4.322299119906879,0.779759242073522,0.15600524407867822,-7.45353860871533,33.9
,,0.0028959472388318604,0.0005793877538810125,0.0002385642246032419,0.003713899217316115,4.325536543013461,0.779759242073522,0.15600524407867822,-7.45353860871533,34.0
,,0.0028959472388318604,0.0005793877538810125,0.0002385642246032419,0.003713899217316115,4.3287739661200435,0.779759242073522,0.15600524407867822,-7.45353860871533,34.1
,,0.0028959472388318604,0.0005793877538810125,0.0002385642246032419,0.003713899217316115,4.3334317589734574,0.779759242073522,0.15600524407867822,-7.45353860871533,34.2
,,0.0028959472388318604,0.0005793877538810125,0.0002385642246032419,0.003713899217316115,4.3380895518268705,0.779759242073522,0.15600524407867822,-7.45353860871533,34.3
,,0.0028959472388318604,0.0005793877538810125,0.0002385642246032419,0.003713899217316115,4.343732567154045,0.779759242073522,0.15600524407867822,-7.45353860871533,34.4
,,0.004288939674840071,0.0005842397139515039,0.00019173802470005092,0.005064917413491627,4.375406391911994,0.8467936048503867,0.11535029424077889,-7.4451991902604,34.5
,,0.002996480896601651,0.0005585701861639434,0.00022780892553095938,0.0037828600082965543,4.3851190414477985,0.7921204829229156,0.14765816999278042,-7.490130278301574,34.6
,,0.002996480896601651,0.0005585701861639434,0.00022780892553095938,0.0037828600082965543,4.394831690983603,0.7921204829229156,0.14765816999278042,-7.490130278301574,34.7
,,0.002996480896601651,0.0005585701861639434,0.00022780892553095938,0.0037828600082965543,4.404544340519408,0.7921204829229156,0.14765816999278042,-7.490130278301574,34.8
,,0.002996480896601651,0.0005585701861639434,0.00022780892553095938,0.0037828600082965543,4.442515704796618,0.7921204829229156,0.14765816999278042,-7.490130278301574,34.9
,,0.002996480896601651,0.0005585701861639434,0.00022780892553095938,0.0037828600082965543,4.480487069073828,0.7921204829229156,0.14765816999278042,-7.490130278301574,35.0
,,0.002996480896601651,0.0005585701861639434,0.00022780892553095938,0.0037828600082965543,4.492537153065098,0.7921204829229156,0.14765816999278042,-7.490130278301574,35.1
,,0.002192751145039876,0.0006616946690296569,0.0002569461824597954,0.0031113919965293285,4.4818015214749005,0.704749240046201,0.21266837150952336,-7.320706333454977,35.2
,,0.002192751145039876,0.0006616946690296569,0.0002569461824597954,0.0031113919965293285,4.471065889884704,0.704749240046201,0.21266837150952336,-7.320706333454977,35.3
,,0.002192751145039876,0.0006616946690296569,0.0002569461824597954,0.0031113919965293285,4.460330258294507,0.704749240046201,0.21266837150952336,-7.320706333454977,35.4
,,0.002192751145039876,0.0006616946690296569,0.0002569461824597954,0.0031113919965293285,4.44959462670431,0.704749240046201,0.21266837150952336,-7.320706333454977,35.5
,,0.002192751145039876,0.0006616946690296569,0.0002569461824597954,0.0031113919965293285,4.440193289077011,0.704749240046201,0.21266837150952336,-7.320706333454977,35.6
,,0.002192751145039876,0.0006616946690296569,0.0002569461824597954,0.0031113919965293285,4.431587803171017,0.704749240046201,0.21266837150952336,-7.320706333454977,35.7
,,0.002192751145039876,0.0006616946690296569,0.0002569461824597954,0.0031113919965293285,4.422982317265024,0.704749240046201,0.21266837150952336,-7.320706333454977,35.8
,,0.0033114602521756497,0.0005643399271293762,0.00022991575849387114,0.004105715937798897,4.442754670192695,0.8065487974189823,0.13745225818811097,-7.4798537803453415,35.9
,,0.0033114602521756497,0.0005643399271293762,0.00022991575849387114,0.004105715937798897,4.4625270231203675,0.8065487974189823,0.13745225818811097,-7.4798537803453415,36.0
,,0.0033114602521756497,0.0005643399271293762,0.00022991575849387114,0.004105715937798897,4.48229937604804,0.8065487974189823,0.13745225818811097,-7.4798537803453415,36.1
,,0.0033114602521756497,0.0005643399271293762,0.00022991575849387114,0.004105715937798897,4.5032124090345995,0.8065487974189823,0.13745225818811097,-7.4798537803453415,36.2
,,0.0033114602521756497,0.0005643399271293762,0.00022991575849387114,0.004105715937798897,4.522984761962272,0.8065487974189823,0.13745225818811097,-7.4798537803453415,36.3
,,0.0033114602521756497,0.0005643399271293762,0.00022991575849387114,0.004105715937798897,4.54472945284612,0.8065487974189823,0.13745225818811097,-7.4798537803453415,36.4
,,0.0033277399333072446,0.0005772967337545169,0.0001810483052727725,0.004086084972334534,4.565324169451368,0.8144079126690263,0.14128358506080835,-7.457154153709136,36.5
,,0.003487279792059313,0.0005842725957722222,0.0002410080163597203,0.004312560404191255,4.588188157005409,0.8086332631237175,0.13548160280940857,-7.445142910458376,36.6
,,0.003487279792059313,0.0005842725957722222,0.0002410080163597203,0.004312560404191255,4.611052144559451,0.8086332631237175,0.13548160280940857,-7.445142910458376,36.7
,,0.003487279792059313,0.0005842725957722222,0.0002410080163597203,0.004312560404191255,4.633916132113492,0.8086332631237175,0.13548160280940857,-7.445142910458376,36.8
,,0.003487279792059313,0.0005842725957722222,0.0002410080163597203,0.004312560404191255,4.656780119667533,0.8086332631237175,0.13548160280940857,-7.445142910458376,36.9
,,0.003487279792059313,0.0005842725957722222,0.0002410080163597203,0.004312560404191255,4.680269315738642,0.8086332631237175,0.13548160280940857,-7.445142910458376,37.0
,,0.003487279792059313,0.0005842725957722222,0.0002410080163597203,0.004312560404191255,4.704724039331539,0.8086332631237175,0.13548160280940857,-7.445142910458376,37.1
,,0.0055150962363280185,0.0009426164579336644,0.00040821322822645606,0.006865925922488139,4.727870479787984,0.8032560063405703,0.13728905155330748,-6.966851083481023,37.2
,,0.0055150962363280185,0.0009426164579336644,0.00040821322822645606,0.006865925922488139,4.751016920244428,0.8032560063405703,0.13728905155330748,-6.966851083481023,37.3
,,0.0055150962363280185,0.0009426164579336644,0.00040821322822645606,0.006865925922488139,4.7741633607008716,0.8032560063405703,0.13728905155330748,-6.966851083481023,37.4
,,0.0055150962363280185,0.0009426164579336644,0.00040821322822645606,0.006865925922488139,4.797309801157316,0.8032560063405703,0.13728905155330748,-6.966851083481023,37.5
,,0.0055150962363280185,0.0009426164579336644,0.00040821322822645606,0.006865925922488139,4.82045624161376,0.8032560063405703,0.13728905155330748,-6.966851083481023,37.6
,,0.0055150962363280185,0.0009426164579336644,0.00040821322822645606,0.006865925922488139,4.864820729255393,0.8032560063405703,0.13728905155330748,-6.966851083481023,37.7
,,0.0036606904927502103,0.0006346301104788837,0.00020776664986757692,0.0045030872530966715,4.888169695700792,0.8129290611086507,0.1409322260061612,-7.362468231975334,37.8
,,0.0038032388611641604,0.0006470135000942538,0.0002752969648307162,0.00472554932608913,4.912739968741992,0.8048247089850451,0.13691815605905924,-7.343143398002151,37.9
,,0.0038032388611641604,0.0006470135000942538,0.0002752969648307162,0.00472554932608913,4.937310241783191,0.8048247089850451,0.13691815605905924,-7.343143398002151,38.0
,,0.0038032388611641604,0.0006470135000942538,0.0002752969648307162,0.00472554932608913,4.961880514824392,0.8048247089850451,0.13691815605905924,-7.343143398002151,38.1
,,0.0038032388611641604,0.0006470135000942538,0.0002752969648307162,0.00472554932608913,4.986450787865592,0.8048247089850451,0.13691815605905924,-7.343143398002151,38.2
,,0.0038032388611641604,0.0006470135000942538,0.0002752969648307162,0.00472554932608913,5.011292452827872,0.8048247089850451,0.13691815605905924,-7.343143398002151,38.3
,,0.0038032388611641604,0.0006470135000942538,0.0002752969648307162,0.00472554932608913,5.036134117790152,0.8048247089850451,0.13691815605905924,-7.343143398002151,38.4
,,0.0037905736484697434,0.0006692018115748007,0.000224959892563765,0.0046847353526083095,5.0585999620890245,0.8091329313531604,0.1428473032531519,-7.309424881779955,38.5
,,0.003926665803967689,0.0006828971048208365,0.00029491937727104154,0.004904482286059567,5.082270852639042,0.8006279918940251,0.13923938654277412,-7.28916636154226,38.6
,,0.003926665803967689,0.0006828971048208365,0.00029491937727104154,0.004904482286059567,5.10594174318906,0.8006279918940251,0.13923938654277412,-7.28916636154226,38.7
,,0.003926665803967689,0.0006828971048208365,0.00029491937727104154,0.004904482286059567,5.129612633739079,0.8006279918940251,0.13923938654277412,-7.28916636154226,38.8
,,0.003926665803967689,0.0006828971048208365,0.00029491937727104154,0.004904482286059567,5.153327375166172,0.8006279918940251,0.13923938654277412,-7.28916636154226,38.9
,,0.003926665803967689,0.0006828971048208365,0.00029491937727104154,0.004904482286059567,5.177042116593265,0.8006279918940251,0.13923938654277412,-7.28916636154226,39.0
,,0.0018236777668726352,0.0007051271917330251,0.00024304558167472662,0.0027718505402803866,5.1656046297643625,0.6579278862157413,0.2543886048277689,-7.25713235761891,39.1
,,0.0018236777668726352,0.0007051271917330251,0.00024304558167472662,0.0027718505402803866,5.15416714293546,0.6579278862157413,0.2543886048277689,-7.25713235761891,39.2
,,0.004009130523998774,0.0007173302775372083,0.0003141894295327103,0.005040650231068692,5.162544874576657,0.7953597929267112,0.14230907614177463,-7.239974185298618,39.3
,,0.004009130523998774,0.0007173302775372083,0.0003141894295327103,0.005040650231068692,5.170922606217853,0.7953597929267112,0.14230907614177463,-7.239974185298618,39.4
,,0.004009130523998774,0.0007173302775372083,0.0003141894295327103,0.005040650231068692,5.17930033785905,0.7953597929267112,0.14230907614177463,-7.239974185298618,39.5
,,0.004009130523998774,0.0007173302775372083,0.0003141894295327103,0.005040650231068692,5.200769917813039,0.7953597929267112,0.14230907614177463,-7.239974185298618,39.6
,,0.004009130523998774,0.0007173302775372083,0.0003141894295327103,0.005040650231068692,5.222239497767029,0.7953597929267112,0.14230907614177463,-7.239974185298618,39.7
,,0.003966520838987532,0.0007381103276159622,0.00026006257698966766,0.004964693743593162,5.241319363272948,0.7989457243170835,0.14867187499097578,-7.211417249122545,39.8
,,0.004047507897480032,0.0007483379954297819,0.0003317790489972505,0.005127624941907064,5.260785636712545,0.7893533445475995,0.14594242049837994,-7.1976558165024525,39.9
,,0.004047507897480032,0.0007483379954297819,0.0003317790489972505,0.005127624941907064,5.279314981954712,0.7893533445475995,0.14594242049837994,-7.1976558165024525,40.0
,,0.004047507897480032,0.0007483379954297819,0.0003317790489972505,0.005127624941907064,5.297844327196878,0.7893533445475995,0.14594242049837994,-7.1976558165024525,40.1
,,0.004047507897480032,0.0007483379954297819,0.0003317790489972505,0.005127624941907064,5.2940372264646,0.7893533445475995,0.14594242049837994,-7.1976558165024525,40.2
,,0.004047507897480032,0.0007483379954297819,0.0003317790489972505,0.005127624941907064,5.290230125732323,0.7893533445475995,0.14594242049837994,-7.1976558165024525,40.3
,,0.003985054532842339,0.0007644984831547965,0.00027335464528531456,0.00502290766128245,5.284244981381257,0.7933760287014462,0.1522023765333573,-7.176290516698111,40.4
,,0.003985054532842339,0.0007644984831547965,0.00027335464528531456,0.00502290766128245,5.278259837030191,0.7933760287014462,0.1522023765333573,-7.176290516698111,40.5
,,0.005272031922399764,0.001245358408528504,0.0005773655373840511,0.007094755868312319,5.261393650501529,0.7430885600935921,0.17553224263722925,-6.688331912158335,40.6
,,0.005272031922399764,0.001245358408528504,0.0005773655373840511,0.007094755868312319,5.244527463972867,0.7430885600935921,0.17553224263722925,-6.688331912158335,40.7
,,0.005272031922399764,0.001245358408528504,0.0005773655373840511,0.007094755868312319,5.225016170380355,0.7430885600935921,0.17553224263722925,-6.688331912158335,40.8
,,0.005272031922399764,0.001245358408528504,0.0005773655373840511,0.007094755868312319,5.22767876159869,0.7430885600935921,0.17553224263722925,-6.688331912158335,40.9
,,0.005272031922399764,0.001245358408528504,0.0005773655373840511,0.007094755868312319,5.230341352817025,0.7430885600935921,0.17553224263722925,-6.688331912158335,41.0
,,0.003962564707350663,0.0007844736174230958,0.0002829695536023654,0.005030007878376125,5.2420916678142815,0.7877849902354284,0.15595872539196762,-7.150497616155157,41.1
,,0.003962564707350663,0.0007844736174230958,0.0002829695536023654,0.005030007878376125,5.253841982811538,0.7877849902354284,0.15595872539196762,-7.150497616155157,41.2
,,0.003994469078712387,0.0007897339211473851,0.0003519478781012444,0.005136150877961016,5.265667334523295,0.777716459976374,0.15375987581207876,-7.143814477910183,41.3
,,0.003994469078712387,0.0007897339211473851,0.0003519478781012444,0.005136150877961016,5.2774926862350515,0.777716459976374,0.15375987581207876,-7.143814477910183,41.4
,,0.003994469078712387,0.0007897339211473851,0.0003519478781012444,0.005136150877961016,5.287135817331538,0.777716459976374,0.15375987581207876,-7.143814477910183,41.5
,,0.003994469078712387,0.0007897339211473851,0.0003519478781012444,0.005136150877961016,5.2958125835067,0.777716459976374,0.15375987581207876,-7.143814477910183,41.6
,,0.0038940132810160732,0.0007935552326371246,0.00028651257536154925,0.004974081089014747,5.302812172206307,0.7828608362690342,0.15953805706740296,-7.138987414072237,41.7
,,0.0038940132810160732,0.0007935552326371246,0.00028651257536154925,0.004974081089014747,5.309811760905916,0.7828608362690342,0.15953805706740296,-7.138987414072237,41.8
,,0.0038940132810160732,0.0007935552326371246,0.00028651257536154925,0.004974081089014747,5.3168113496055245,0.7828608362690342,0.15953805706740296,-7.138987414072237,41.9
,,0.0039033227961069324,0.0007961093450494392,0.0003536904720496722,0.005053122613206043,5.3237659467743175,0.7724575663186609,0.1575479967513263,-7.13577401340147,42.0
,,0.0039033227961069324,0.0007961093450494392,0.0003536904720496722,0.005053122613206043,5.327909539706684,0.7724575663186609,0.1575479967513263,-7.13577401340147,42.1
,,0.0039033227961069324,0.0007961093450494392,0.0003536904720496722,0.005053122613206043,5.3035967554017756,0.7724575663186609,0.1575479967513263,-7.13577401340147,42.2
,,0.0039033227961069324,0.0007961093450494392,0.0003536904720496722,0.005053122613206043,5.279283971096866,0.7724575663186609,0.1575479967513263,-7.13577401340147,42.3
,,0.003788796298653157,0.000792544277521961,0.0002848198953257626,0.0048661604715008805,5.253610632210663,0.7786007717671033,0.1628685042681124,-7.140262183083376,42.4
,,0.003788796298653157,0.000792544277521961,0.0002848198953257626,0.0048661604715008805,5.227937293324458,0.7786007717671033,0.1628685042681124,-7.140262183083376,42.5
,,0.003788796298653157,0.000792544277521961,0.0002848198953257626,0.0048661604715008805,5.202263954438253,0.7786007717671033,0.1628685042681124,-7.140262183083376,42.6
,,0.0037798915289221297,0.000791774611013507,0.00034857515855201473,0.004920241298487651,5.176517287421057,0.7682329584290848,0.16092190666682896,-7.141233788704658,42.7
,,0.0037798915289221297,0.000791774611013507,0.00034857515855201473,0.004920241298487651,5.174868958758527,0.7682329584290848,0.16092190666682896,-7.141233788704658,42.8
,,0.0037798915289221297,0.000791774611013507,0.00034857515855201473,0.004920241298487651,5.172376294718906,0.7682329584290848,0.16092190666682896,-7.141233788704658,42.9
,,0.0037798915289221297,0.000791774611013507,0.00034857515855201473,0.004920241298487651,5.169883630679284,0.7682329584290848,0.16092190666682896,-7.141233788704658,43.0
,,0.003661914199094937,0.0007809234334332471,0.0002776392450154414,0.004720476877543626,5.166449426580505,0.7757509027351642,0.1654331656931265,-7.155033449507636,43.1
,,0.003661914199094937,0.0007809234334332471,0.0002776392450154414,0.004720476877543626,5.163015222481726,0.7757509027351642,0.1654331656931265,-7.155033449507636,43.2
,,0.0036422773746476,0.000776503926484369,0.00033758726414908957,0.0047563685652810585,5.159596574904559,0.7657685321600755,0.16325562576298894,-7.160708858743927,43.3
,,0.0036422773746476,0.000776503926484369,0.00033758726414908957,0.0047563685652810585,5.156177927327393,0.7657685321600755,0.16325562576298894,-7.160708858743927,43.4
,,0.0036422773746476,0.000776503926484369,0.00033758726414908957,0.0047563685652810585,5.12672847031945,0.7657685321600755,0.16325562576298894,-7.160708858743927,43.5
,,0.0036422773746476,0.000776503926484369,0.00033758726414908957,0.0047563685652810585,5.119240188533654,0.7657685321600755,0.16325562576298894,-7.160708858743927,43.6
,,0.0035839441599267267,0.0010210644477925794,0.0003854112176107638,0.00499041982533007,5.098634100171277,0.7181648609472815,0.20460491973238853,-6.886909619565896,43.7
,,0.0035839441599267267,0.0010210644477925794,0.0003854112176107638,0.00499041982533007,5.078028011808901,0.7181648609472815,0.20460491973238853,-6.886909619565896,43.8
,,0.0035839441599267267,0.0010210644477925794,0.0003854112176107638,0.00499041982533007,5.057421923446525,0.7181648609472815,0.20460491973238853,-6.886909619565896,43.9
,,0.0035046390018025997,0.0007525676686242244,0.00032256727393101747,0.004579773944357842,5.049559179751208,0.7652427924134161,0.16432419542265128,-7.192019640302235,44.0
,,0.0035046390018025997,0.0007525676686242244,0.00032256727393101747,0.004579773944357842,5.041696436055891,0.7652427924134161,0.16432419542265128,-7.192019640302235,44.1
,,0.0035046390018025997,0.0007525676686242244,0.00032256727393101747,0.004579773944357842,5.0566194079420415,0.7652427924134161,0.16432419542265128,-7.192019640302235,44.2
,,0.0035046390018025997,0.0007525676686242244,0.00032256727393101747,0.004579773944357842,5.071542379828192,0.7652427924134161,0.16432419542265128,-7.192019640302235,44.3
,,0.0034017789068023605,0.0007306234592740776,0.00025106244860616955,0.004383464814682607,5.086455194281642,0.776047955354393,0.16667715840374087,-7.221612334518159,44.4
,,0.0034017789068023605,0.0007306234592740776,0.00025106244860616955,0.004383464814682607,5.101368008735093,0.776047955354393,0.16667715840374087,-7.221612334518159,44.5
,,0.0034017789068023605,0.0007306234592740776,0.00025106244860616955,0.004383464814682607,5.1162808231885455,0.776047955354393,0.16667715840374087,-7.221612334518159,44.6
,,0.003385041339102707,0.0007220916472118561,0.00030503459206958637,0.004412167578384149,5.131547340105299,0.767205977326545,0.1636591617121453,-7.233358491930562,44.7
,,0.003385041339102707,0.0007220916472118561,0.00030503459206958637,0.004412167578384149,5.146813857022053,0.767205977326545,0.1636591617121453,-7.233358491930562,44.8
,,0.003385041339102707,0.0007220916472118561,0.00030503459206958637,0.004412167578384149,5.133702535105142,0.767205977326545,0.1636591617121453,-7.233358491930562,44.9
,,0.003385041339102707,0.0007220916472118561,0.00030503459206958637,0.004412167578384149,5.12059121318823,0.767205977326545,0.1636591617121453,-7.233358491930562,45.0
,,0.0033049115545257177,0.000697986951990121,0.00023410913755887822,0.004237007644074716,5.108003124184581,0.7800107604590949,0.1647358255221058,-7.267310148800521,45.1
,,0.0033049115545257177,0.000697986951990121,0.00023410913755887822,0.004237007644074716,5.095415035180931,0.7800107604590949,0.1647358255221058,-7.267310148800521,45.2
,,0.0033049115545257177,0.000697986951990121,0.00023410913755887822,0.004237007644074716,5.082826946177283,0.7800107604590949,0.1647358255221058,-7.267310148800521,45.3
,,0.0032942108852945214,0.0006885532778533214,0.0002869366895938678,0.004269700852741711,5.070786979238092,0.771532011002411,0.1612649929353199,-7.2809178602864275,45.4
,,0.0032942108852945214,0.0006885532778533214,0.0002869366895938678,0.004269700852741711,5.059896986577503,0.771532011002411,0.1612649929353199,-7.2809178602864275,45.5
,,0.0032942108852945214,0.0006885532778533214,0.0002869366895938678,0.004269700852741711,5.046737722968121,0.771532011002411,0.1612649929353199,-7.2809178602864275,45.6
,,0.003238161492567411,0.0006639642466983097,0.0002185227693417148,0.004120648508607436,5.034609148638024,0.7858378325167416,0.16113100773127942,-7.317282255271423,45.7
,,0.003238161492567411,0.0006639642466983097,0.0002185227693417148,0.004120648508607436,5.022480574307928,0.7858378325167416,0.16113100773127942,-7.317282255271423,45.8
,,0.003238161492567411,0.0006639642466983097,0.0002185227693417148,0.004120648508607436,5.010351999977832,0.7858378325167416,0.16113100773127942,-7.317282255271423,45.9
,,0.003238161492567411,0.0006639642466983097,0.0002185227693417148,0.004120648508607436,4.998223425647735,0.7858378325167416,0.16113100773127942,-7.317282255271423,46.0
,,0.003238014580816134,0.0006541862790733463,0.0002703921843159471,0.0041625930442054275,4.986902306551191,0.7778840127846846,0.1571583558916507,-7.3321184166761695,46.1
,,0.003238014580816134,0.0006541862790733463,0.0002703921843159471,0.0041625930442054275,4.976889470591099,0.7778840127846846,0.1571583558916507,-7.3321184166761695,46.2
,,0.003238014580816134,0.0006541862790733463,0.0002703921843159471,0.0041625930442054275,4.966876634631007,0.7778840127846846,0.1571583558916507,-7.3321184166761695,46.3
,,0.0027175567653911644,0.0006542338342110333,0.00032073759642445494,0.003692528196026653,4.948020660822836,0.7359610058808469,0.17717774908666156,-7.332045725745749,46.4
,,0.0027175567653911644,0.0006542338342110333,0.00032073759642445494,0.003692528196026653,4.929164687014663,0.7359610058808469,0.17717774908666156,-7.332045725745749,46.5
,,0.0027175567653911644,0.0006542338342110333,0.00032073759642445494,0.003692528196026653,4.910308713206491,0.7359610058808469,0.17717774908666156,-7.332045725745749,46.6
,,0.0027175567653911644,0.0006542338342110333,0.00032073759642445494,0.003692528196026653,4.891452739398319,0.7359610058808469,0.17717774908666156,-7.332045725745749,46.7
,,0.0026981633695958357,0.00062504364020376,0.00029036839507850354,0.0036135754048780993,4.875325328823156,0.7466741571113986,0.17297096924004698,-7.377689086339461,46.8
,,0.0026981633695958357,0.00062504364020376,0.00029036839507850354,0.0036135754048780993,4.857976611652192,0.7466741571113986,0.17297096924004698,-7.377689086339461,46.9
,,0.0026981633695958357,0.00062504364020376,0.00029036839507850354,0.0036135754048780993,4.840627894481228,0.7466741571113986,0.17297096924004698,-7.377689086339461,47.0
,,0.003227796398193093,0.0006022098160870125,0.00025858937961004906,0.0040885955938901545,4.834869843513922,0.7894633558321571,0.14729013967214866,-7.414904641672519,47.1
,,0.003227796398193093,0.0006022098160870125,0.00025858937961004906,0.0040885955938901545,4.829111792546617,0.7894633558321571,0.14729013967214866,-7.414904641672519,47.2
,,0.003227796398193093,0.0006022098160870125,0.00025858937961004906,0.0040885955938901545,4.823353741579311,0.7894633558321571,0.14729013967214866,-7.414904641672519,47.3
,,0.003254380128375595,0.0005948047710159404,0.0002452021292003154,0.004094387028591851,4.818833709876788,0.7948393998050662,0.14527321595694553,-7.427277322200053,47.4
,,0.003254380128375595,0.0005948047710159404,0.0002452021292003154,0.004094387028591851,4.816689498837674,0.7948393998050662,0.14527321595694553,-7.427277322200053,47.5
,,0.003254380128375595,0.0005948047710159404,0.0002452021292003154,0.004094387028591851,4.813593173920189,0.7948393998050662,0.14527321595694553,-7.427277322200053,47.6
,,0.003288313219061918,0.0005798906178994105,0.00025042430364503887,0.004118628140606368,4.812710552271705,0.7984001242165538,0.1407970319490984,-7.45267106203771,47.7
,,0.003288313219061918,0.0005798906178994105,0.00025042430364503887,0.004118628140606368,4.8118279306232195,0.7984001242165538,0.1407970319490984,-7.45267106203771,47.8
,,0.003288313219061918,0.0005798906178994105,0.00025042430364503887,0.004118628140606368,4.810945308974734,0.7984001242165538,0.1407970319490984,-7.45267106203771,47.9
,,0.003288313219061918,0.0005798906178994105,0.00025042430364503887,0.004118628140606368,4.810062687326249,0.7984001242165538,0.1407970319490984,-7.45267106203771,48.0
,,0.003332325024119225,0.0005737881845756005,0.00023939529508730406,0.00414550850378213,4.845854654212909,0.8038398717742343,0.13841201484742058,-7.463250246166836,48.1
,,0.003332325024119225,0.0005737881845756005,0.00023939529508730406,0.00414550850378213,4.881646621099568,0.8038398717742343,0.13841201484742058,-7.463250246166836,48.2
,,0.003332325024119225,0.0005737881845756005,0.00023939529508730406,0.00414550850378213,4.884075809713718,0.8038398717742343,0.13841201484742058,-7.463250246166836,48.3
,,0.003398371729778238,0.0005651341341281547,0.0002482341485936162,0.004211740012500009,4.88879168967086,0.8068807000651089,0.13418067887640142,-7.478447449457511,48.4
,,0.003398371729778238,0.0005651341341281547,0.0002482341485936162,0.004211740012500009,4.893507569628002,0.8068807000651089,0.13418067887640142,-7.478447449457511,48.5
,,0.003398371729778238,0.0005651341341281547,0.0002482341485936162,0.004211740012500009,4.898223449585145,0.8068807000651089,0.13418067887640142,-7.478447449457511,48.6
,,0.0034593878770860435,0.0005603073154338315,0.0002390516854961003,0.004258746878015976,4.9047248911083905,0.8123018287242444,0.13156624037136064,-7.487025147198004,48.7
,,0.0034593878770860435,0.0005603073154338315,0.0002390516854961003,0.004258746878015976,4.9136160470797074,0.8123018287242444,0.13156624037136064,-7.487025147198004,48.8
,,0.0034593878770860435,0.0005603073154338315,0.0002390516854961003,0.004258746878015976,4.922120795117346,0.8123018287242444,0.13156624037136064,-7.487025147198004,48.9
,,0.0035566734958572075,0.0005595166828131508,0.0002530313258767694,0.0043692215045471276,4.932654418332931,0.8140291107135935,0.1280586672547619,-7.48843721329641,49.0
,,0.0035566734958572075,0.0005595166828131508,0.0002530313258767694,0.0043692215045471276,4.943188041548516,0.8140291107135935,0.1280586672547619,-7.48843721329641,49.1
,,0.0035566734958572075,0.0005595166828131508,0.0002530313258767694,0.0043692215045471276,4.953721664764101,0.8140291107135935,0.1280586672547619,-7.48843721329641,49.2
,,0.0035566734958572075,0.0005595166828131508,0.0002530313258767694,0.0043692215045471276,4.964255287979687,0.8140291107135935,0.1280586672547619,-7.48843721329641,49.3
,,0.0036359376986589767,0.0005563757325607498,0.0002459099696878284,0.004438223400907554,4.9789486341531015,0.8192326907013014,0.12536001059500043,-7.494066713961857,49.4
,,0.0036359376986589767,0.0005563757325607498,0.0002459099696878284,0.004438223400907554,4.993641980326518,0.8192326907013014,0.12536001059500043,-7.494066713961857,49.5
,,0.003764153375007712,0.0005650124365383907,0.00026563270042289684,0.004594798511968999,5.020627831609014,0.8192205523707866,0.12296783745067139,-7.478662815487711,49.6
,,0.003764153375007712,0.0005650124365383907,0.00026563270042289684,0.004594798511968999,5.047613682891509,0.8192205523707866,0.12296783745067139,-7.478662815487711,49.7
,,0.003764153375007712,0.0005650124365383907,0.00026563270042289684,0.004594798511968999,5.074599534174005,0.8192205523707866,0.12296783745067139,-7.478662815487711,49.8
,,0.003764153375007712,0.0005650124365383907,0.00026563270042289684,0.004594798511968999,5.1015853854565,0.8192205523707866,0.12296783745067139,-7.478662815487711,49.9
,,0.003764153375007712,0.0005650124365383907,0.00026563270042289684,0.004594798511968999,5.1285712367389955,0.8192205523707866,0.12296783745067139,-7.478662815487711,50.0
,,0.0038625448525585705,0.0005638291973671148,0.00026021630984667454,0.00468659035977236,5.14856366085005,0.8241695040626901,0.1203069084524173,-7.480759193879646,50.1
,,0.0038625448525585705,0.0005638291973671148,0.00026021630984667454,0.00468659035977236,5.1685560849611045,0.8241695040626901,0.1203069084524173,-7.480759193879646,50.2
,,0.004020263456938529,0.0005830931888294531,0.0002866860507324212,0.004890042696500403,5.188964141127009,0.8221325878842861,0.11924091976676364,-7.447163540769139,50.3
,,0.004020263456938529,0.0005830931888294531,0.0002866860507324212,0.004890042696500403,5.209372197292914,0.8221325878842861,0.11924091976676364,-7.447163540769139,50.4
,,0.004020263456938529,0.0005830931888294531,0.0002866860507324212,0.004890042696500403,5.229780253458818,0.8221325878842861,0.11924091976676364,-7.447163540769139,50.5
,,0.004020263456938529,0.0005830931888294531,0.0002866860507324212,0.004890042696500403,5.250188309624723,0.8221325878842861,0.11924091976676364,-7.447163540769139,50.6
,,0.00413378292862223,0.000582839441529221,0.00028209727719384197,0.004998719647345293,5.274471003563363,0.8269683479483769,0.11659774555245438,-7.447598810007912,50.7
,,0.00413378292862223,0.000582839441529221,0.00028209727719384197,0.004998719647345293,5.298753697502003,0.8269683479483769,0.11659774555245438,-7.447598810007912,50.8
,,0.004318830814230119,0.0006131300837154886,0.00031647264761392737,0.005248433545559535,5.322496571390545,0.8228799653725422,0.1168215389207377,-7.396933436196063,50.9
,,0.004318830814230119,0.0006131300837154886,0.00031647264761392737,0.005248433545559535,5.346284436809902,0.8228799653725422,0.1168215389207377,-7.396933436196063,51.0
,,0.004318830814230119,0.0006131300837154886,0.00031647264761392737,0.005248433545559535,5.37007230222926,0.8228799653725422,0.1168215389207377,-7.396933436196063,51.1
,,0.004317859529157007,0.000612961416543498,0.0003163855738378683,0.005247206519538373,5.39386409739877,0.8228872854687781,0.11681671271391539,-7.397208566026126,51.2
,,0.004318830814230119,0.0006131300837154886,0.00031647264761392737,0.005248433545559535,5.417651962818128,0.8228799653725422,0.1168215389207377,-7.396933436196063,51.3
,,0.004454211095443273,0.0006149128667564679,0.0003128767957811059,0.005382000757980847,5.445019713055824,0.8276124987233091,0.1142535823401042,-7.39402998026611,51.4
,,0.004454211095443273,0.0006149128667564679,0.0003128767957811059,0.005382000757980847,5.472387463293521,0.8276124987233091,0.1142535823401042,-7.39402998026611,51.5
,,0.00466556384154055,0.000657679676102331,0.0003556437413785133,0.005678887259021394,5.498092214173326,0.821563033167969,0.11581136340707435,-7.326792559605721,51.6
,,0.00466556384154055,0.000657679676102331,0.0003556437413785133,0.005678887259021394,5.523870293184123,0.821563033167969,0.11581136340707435,-7.326792559605721,51.7
,,0.00466556384154055,0.000657679676102331,0.0003556437413785133,0.005678887259021394,5.549648372194919,0.821563033167969,0.11581136340707435,-7.326792559605721,51.8
,,0.00466556384154055,0.000657679676102331,0.0003556437413785133,0.005678887259021394,5.575426451205715,0.821563033167969,0.11581136340707435,-7.326792559605721,51.9
,,0.00466556384154055,0.000657679676102331,0.0003556437413785133,0.005678887259021394,5.601204530216512,0.821563033167969,0.11581136340707435,-7.326792559605721,52.0
,,0.004823476667453492,0.0006628980380919688,0.00035286155861196815,0.005839236264157429,5.629950502330621,0.8260458130562549,0.11352478442446129,-7.318889368305003,52.1
,,0.005060674535283904,0.0007194196070764119,0.0004047906553888011,0.006184884797749117,5.656007999775138,0.818232626923892,0.11631899875293271,-7.23706577231128,52.2
,,0.005060674535283904,0.0007194196070764119,0.0004047906553888011,0.006184884797749117,5.682049940698043,0.818232626923892,0.11631899875293271,-7.23706577231128,52.3
,,0.005060674535283904,0.0007194196070764119,0.0004047906553888011,0.006184884797749117,5.708091881620948,0.818232626923892,0.11631899875293271,-7.23706577231128,52.4
,,0.005060674535283904,0.0007194196070764119,0.0004047906553888011,0.006184884797749117,5.734133822543853,0.818232626923892,0.11631899875293271,-7.23706577231128,52.5
,,0.005060674535283904,0.0007194196070764119,0.0004047906553888011,0.006184884797749117,5.760175763466758,0.818232626923892,0.11631899875293271,-7.23706577231128,52.6
,,0.005060674535283904,0.0007194196070764119,0.0004047906553888011,0.006184884797749117,5.799335510966241,0.818232626923892,0.11631899875293271,-7.23706577231128,52.7
,,0.0024522412176132377,0.0006429928087610873,0.0004140481937198702,0.0035092822200941953,5.802710897837908,0.6987871205033533,0.18322630339597715,-7.349377017675529,52.8
,,0.0024522412176132377,0.0006429928087610873,0.0004140481937198702,0.0035092822200941953,5.806086284709574,0.6987871205033533,0.18322630339597715,-7.349377017675529,52.9
,,0.0024522412176132377,0.0006429928087610873,0.0004140481937198702,0.0035092822200941953,5.796718326914182,0.6987871205033533,0.18322630339597715,-7.349377017675529,53.0
,,0.0024522412176132377,0.0006429928087610873,0.0004140481937198702,0.0035092822200941953,5.78735036911879,0.6987871205033533,0.18322630339597715,-7.349377017675529,53.1
,,0.0024522412176132377,0.0006429928087610873,0.0004140481937198702,0.0035092822200941953,5.777982411323396,0.6987871205033533,0.18322630339597715,-7.349377017675529,53.2
,,0.0024522412176132377,0.0006429928087610873,0.0004140481937198702,0.0035092822200941953,5.768614453528004,0.6987871205033533,0.18322630339597715,-7.349377017675529,53.3
,,0.005681414952111113,0.0008081703799879246,0.0004563857911110033,0.006945971123210041,5.794991977184312,0.8179439348842958,0.11635095592139941,-7.120737655350668,53.4
,,0.005963626487534285,0.000892661834884403,0.000526203638090063,0.007382491960508751,5.817488959462438,0.8078067025925095,0.12091605919241487,-7.02130273314677,53.5
,,0.005963626487534285,0.000892661834884403,0.000526203638090063,0.007382491960508751,5.839985941740566,0.8078067025925095,0.12091605919241487,-7.02130273314677,53.6
,,0.005963626487534285,0.000892661834884403,0.000526203638090063,0.007382491960508751,5.862129221555391,0.8078067025925095,0.12091605919241487,-7.02130273314677,53.7
,,0.005963626487534285,0.000892661834884403,0.000526203638090063,0.007382491960508751,5.884272501370217,0.8078067025925095,0.12091605919241487,-7.02130273314677,53.8
,,0.005963626487534285,0.000892661834884403,0.000526203638090063,0.007382491960508751,5.906415781185041,0.8078067025925095,0.12091605919241487,-7.02130273314677,53.9
,,0.005963626487534285,0.000892661834884403,0.000526203638090063,0.007382491960508751,5.9285590609998655,0.8078067025925095,0.12091605919241487,-7.02130273314677,54.0
,,0.006437311985350481,0.0010034146602931505,0.0005971399661409331,0.008037866611784565,5.9472311358393135,0.8008732038315414,0.12483594326161288,-6.904346435403803,54.1
,,0.006437311985350481,0.0010034146602931505,0.0005971399661409331,0.008037866611784565,5.9659032106787615,0.8008732038315414,0.12483594326161288,-6.904346435403803,54.2
,,0.006437311985350481,0.0010034146602931505,0.0005971399661409331,0.008037866611784565,5.984575285518208,0.8008732038315414,0.12483594326161288,-6.904346435403803,54.3
,,0.006437311985350481,0.0010034146602931505,0.0005971399661409331,0.008037866611784565,6.002699238293196,0.8008732038315414,0.12483594326161288,-6.904346435403803,54.4
,,0.006437311985350481,0.0010034146602931505,0.0005971399661409331,0.008037866611784565,6.0208231910681835,0.8008732038315414,0.12483594326161288,-6.904346435403803,54.5
,,0.006437311985350481,0.0010034146602931505,0.0005971399661409331,0.008037866611784565,6.038947143843172,0.8008732038315414,0.12483594326161288,-6.904346435403803,54.6
,,0.006876898623593651,0.0011252500669556484,0.0006688460724194146,0.008670994762968714,6.052663015785677,0.7930922358485184,0.12977173873535974,-6.789749986288324,54.7
,,0.006876898623593651,0.0011252500669556484,0.0006688460724194146,0.008670994762968714,6.066378887728183,0.7930922358485184,0.12977173873535974,-6.789749986288324,54.8
,,0.006876898623593651,0.0011252500669556484,0.0006688460724194146,0.008670994762968714,6.08009475967069,0.7930922358485184,0.12977173873535974,-6.789749986288324,54.9
,,0.006876898623593651,0.0011252500669556484,0.0006688460724194146,0.008670994762968714,6.093810631613194,0.7930922358485184,0.12977173873535974,-6.789749986288324,55.0
,,0.006876898623593651,0.0011252500669556484,0.0006688460724194146,0.008670994762968714,6.106719048322148,0.7930922358485184,0.12977173873535974,-6.789749986288324,55.1
,,0.006876898623593651,0.0011252500669556484,0.0006688460724194146,0.008670994762968714,6.119627465031102,0.7930922358485184,0.12977173873535974,-6.789749986288324,55.2
,,0.003304628263553078,0.0012477831547669628,0.000589340481461711,0.0051417518997817525,6.094057650287937,0.6427047294314894,0.24267665556168247,-6.686386778325049,55.3
,,0.0072690388586043085,0.0012530573749331706,0.0007346818893398674,0.009256778122877347,6.112360338209836,0.7852666189156561,0.13536646966144136,-6.682168814066123,55.4
,,0.0072690388586043085,0.0012530573749331706,0.0007346818893398674,0.009256778122877347,6.130663026131734,0.7852666189156561,0.13536646966144136,-6.682168814066123,55.5
,,0.0072690388586043085,0.0012530573749331706,0.0007346818893398674,0.009256778122877347,6.148965714053634,0.7852666189156561,0.13536646966144136,-6.682168814066123,55.6
,,0.0072690388586043085,0.0012530573749331706,0.0007346818893398674,0.009256778122877347,6.167268401975533,0.7852666189156561,0.13536646966144136,-6.682168814066123,55.7
,,0.0072690388586043085,0.0012530573749331706,0.0007346818893398674,0.009256778122877347,6.183760427989877,0.7852666189156561,0.13536646966144136,-6.682168814066123,55.8
,,0.007499373407765499,0.0013821281232254208,0.0006426209363224043,0.009524122467313325,6.1960848847241685,0.787408334311456,0.14511868447396262,-6.584130849377087,55.9
,,0.007604020417996874,0.0013865840612477492,0.0007966330881664172,0.009787237567411039,6.209054165640136,0.7769322411582497,0.14167266827819877,-6.580912066367076,56.0
,,0.007604020417996874,0.0013865840612477492,0.0007966330881664172,0.009787237567411039,6.2104327803524475,0.7769322411582497,0.14167266827819877,-6.580912066367076,56.1
,,0.007604020417996874,0.0013865840612477492,0.0007966330881664172,0.009787237567411039,6.211811395064756,0.7769322411582497,0.14167266827819877,-6.580912066367076,56.2
,,0.007604020417996874,0.0013865840612477492,0.0007966330881664172,0.009787237567411039,6.213190009777065,0.7769322411582497,0.14167266827819877,-6.580912066367076,56.3
,,0.007604020417996874,0.0013865840612477492,0.0007966330881664172,0.009787237567411039,6.213330605224592,0.7769322411582497,0.14167266827819877,-6.580912066367076,56.4
,,0.007604020417996874,0.0013865840612477492,0.0007966330881664172,0.009787237567411039,6.213471200672119,0.7769322411582497,0.14167266827819877,-6.580912066367076,56.5
,,0.007800418487361852,0.0015085760469339593,0.0008383454227006703,0.010147339956996482,6.210130916821973,0.7687155964439278,0.1486671436383495,-6.496589088349465,56.6
,,0.007800418487361852,0.0015085760469339593,0.0008383454227006703,0.010147339956996482,6.2045769297028315,0.7687155964439278,0.1486671436383495,-6.496589088349465,56.7
,,0.007800418487361852,0.0015085760469339593,0.0008383454227006703,0.010147339956996482,6.199022942583686,0.7687155964439278,0.1486671436383495,-6.496589088349465,56.8
,,0.007800418487361852,0.0015085760469339593,0.0008383454227006703,0.010147339956996482,6.193468955464542,0.7687155964439278,0.1486671436383495,-6.496589088349465,56.9
,,0.007800418487361852,0.0015085760469339593,0.0008383454227006703,0.010147339956996482,6.187914968345398,0.7687155964439278,0.1486671436383495,-6.496589088349465,57.0
,,0.007800418487361852,0.0015085760469339593,0.0008383454227006703,0.010147339956996482,6.180838620947106,0.7687155964439278,0.1486671436383495,-6.496589088349465,57.1
,,0.007797049517635597,0.0016119427223437596,0.0007022923679889116,0.01011128460796827,6.170054885788242,0.7711235337487263,0.15942017110995538,-6.430315167573792,57.2
,,0.007766155302705123,0.0015993012277795132,0.0008500897038990711,0.010215546234383708,6.159481335075319,0.7602290787511322,0.15655562522898192,-6.43818847776968,57.3
,,0.007766155302705123,0.0015993012277795132,0.0008500897038990711,0.010215546234383708,6.146621093019405,0.7602290787511322,0.15655562522898192,-6.43818847776968,57.4
,,0.007766155302705123,0.0015993012277795132,0.0008500897038990711,0.010215546234383708,6.1337608509634896,0.7602290787511322,0.15655562522898192,-6.43818847776968,57.5
,,0.007766155302705123,0.0015993012277795132,0.0008500897038990711,0.010215546234383708,6.120900608907576,0.7602290787511322,0.15655562522898192,-6.43818847776968,57.6
,,0.007766155302705123,0.0015993012277795132,0.0008500897038990711,0.010215546234383708,6.106254805285555,0.7602290787511322,0.15655562522898192,-6.43818847776968,57.7
,,0.007755319877485423,0.0017041995965561545,0.0007058281537993843,0.010165347627840963,6.088217259354177,0.7629173306621674,0.1676479407244937,-6.374659723305481,57.8
,,0.007743268921570879,0.001700267339343852,0.0008575593220816109,0.010301095582996342,6.0702179009488555,0.7516937260879728,0.1650569423072264,-6.376969781846219,57.9
,,0.007743268921570879,0.001700267339343852,0.0008575593220816109,0.010301095582996342,6.0501896673655855,0.7516937260879728,0.1650569423072264,-6.376969781846219,58.0
,,0.007743268921570879,0.001700267339343852,0.0008575593220816109,0.010301095582996342,6.0301614337823155,0.7516937260879728,0.1650569423072264,-6.376969781846219,58.1
,,0.007743268921570879,0.001700267339343852,0.0008575593220816109,0.010301095582996342,6.010133200199046,0.7516937260879728,0.1650569423072264,-6.376969781846219,58.2
,,0.007743268921570879,0.001700267339343852,0.0008575593220816109,0.010301095582996342,5.9901049666157755,0.7516937260879728,0.1650569423072264,-6.376969781846219,58.3
,,0.007195837681450887,0.0014431393517741948,0.000646442736553167,0.009285419769778248,5.972896065706461,0.7749609452091294,0.15541993658393966,-6.540934432976982,58.4
,,0.007195837681450887,0.0014431393517741948,0.000646442736553167,0.009285419769778248,5.955687164797147,0.7749609452091294,0.15541993658393966,-6.540934432976982,58.5
,,0.007700137409319173,0.0018029475518692088,0.0008576895284809833,0.010360774489669365,5.929118150786532,0.7432009467049892,0.17401667738902254,-6.31833242455222,58.6
,,0.007700137409319173,0.0018029475518692088,0.0008576895284809833,0.010360774489669365,5.902549136775918,0.7432009467049892,0.17401667738902254,-6.31833242455222,58.7
,,0.007700137409319173,0.0018029475518692088,0.0008576895284809833,0.010360774489669365,5.875980122765303,0.7432009467049892,0.17401667738902254,-6.31833242455222,58.8
,,0.007700137409319173,0.0018029475518692088,0.0008576895284809833,0.010360774489669365,5.849411108754689,0.7432009467049892,0.17401667738902254,-6.31833242455222,58.9
,,0.007667230035076284,0.0018979731939493844,0.0006931516444726725,0.01025835487349834,5.820273573328038,0.7474132187495263,0.18501730709791003,-6.266968702208475,59.0
,,0.007667230035076284,0.0018979731939493844,0.0006931516444726725,0.01025835487349834,5.789041741293907,0.7474132187495263,0.18501730709791003,-6.266968702208475,59.1
,,0.007649856983960688,0.001903555543077162,0.0008497131877285881,0.010403125714766438,5.757576871488117,0.7353421648170899,0.18297919253010766,-6.26403180312054,59.2
,,0.007649856983960688,0.001903555543077162,0.0008497131877285881,0.010403125714766438,5.725621332912977,0.7353421648170899,0.18297919253010766,-6.26403180312054,59.3
,,0.007649856983960688,0.001903555543077162,0.0008497131877285881,0.010403125714766438,5.693665794337835,0.7353421648170899,0.18297919253010766,-6.26403180312054,59.4
,,0.007649856983960688,0.001903555543077162,0.0008497131877285881,0.010403125714766438,5.661710255762694,0.7353421648170899,0.18297919253010766,-6.26403180312054,59.5
,,0.007634030136303021,0.0019939356964169806,0.0006788846795677354,0.010306850512287736,5.627642538354905,0.7406753524951,0.19345732181133588,-6.217644856499607,59.6
,,0.007634030136303021,0.0019939356964169806,0.0006788846795677354,0.010306850512287736,5.5913773606499335,0.7406753524951,0.19345732181133588,-6.217644856499607,59.7
,,0.007634030136303021,0.0019939356964169806,0.0006788846795677354,0.010306850512287736,5.555112182944963,0.7406753524951,0.19345732181133588,-6.217644856499607,59.8
,,0.006970325373441915,0.0015407287870457943,0.0007905702204342104,0.009301624380921919,5.527113717721163,0.7493664641778471,0.1656408304560119,-6.475499736157123,59.9
,,0.006970325373441915,0.0015407287870457943,0.0007905702204342104,0.009301624380921919,5.499115252497365,0.7493664641778471,0.1656408304560119,-6.475499736157123,60.0
,,0.006970325373441915,0.0015407287870457943,0.0007905702204342104,0.009301624380921919,5.471116787273567,0.7493664641778471,0.1656408304560119,-6.475499736157123,60.1
,,0.007534167012448069,0.002064490661620859,0.0008467898385186943,0.010445447512587623,5.43339620128569,0.7212871447938232,0.1976450179978386,-6.182871735961094,60.2
,,0.007534167012448069,0.002064490661620859,0.0008467898385186943,0.010445447512587623,5.395679545047966,0.7212871447938232,0.1976450179978386,-6.182871735961094,60.3
,,0.007534167012448069,0.002064490661620859,0.0008467898385186943,0.010445447512587623,5.355743558573198,0.7212871447938232,0.1976450179978386,-6.182871735961094,60.4
,,0.007449347847482012,0.0020648873378267306,0.0008003125285674039,0.010314547713876148,5.315343372449517,0.7222175953930015,0.20019174811211937,-6.182679612010637,60.5
,,0.007449347847482012,0.0020648873378267306,0.0008003125285674039,0.010314547713876148,5.276606185683728,0.7222175953930015,0.20019174811211937,-6.182679612010637,60.6
,,0.007449347847482012,0.0020648873378267306,0.0008003125285674039,0.010314547713876148,5.237868998917939,0.7222175953930015,0.20019174811211937,-6.182679612010637,60.7
,,0.007449347847482012,0.0020648873378267306,0.0008003125285674039,0.010314547713876148,5.19913181215215,0.7222175953930015,0.20019174811211937,-6.182679612010637,60.8
,,0.007165938964193254,0.002049223049493771,0.0007756307361879986,0.009990792749875023,5.15916435998617,0.7172542903848039,0.20511115592097584,-6.190294557917507,60.9
,,0.007165938964193254,0.002049223049493771,0.0007756307361879986,0.009990792749875023,5.119196907820191,0.7172542903848039,0.20511115592097584,-6.190294557917507,61.0
,,0.007165938964193254,0.002049223049493771,0.0007756307361879986,0.009990792749875023,5.0772031026100555,0.7172542903848039,0.20511115592097584,-6.190294557917507,61.1
,,0.007022213082158684,0.0020401180395612424,0.0007294822393285958,0.00979181336104852,5.037288403601177,0.7171514430710856,0.2083493592388881,-6.194747610269963,61.2
,,0.007022213082158684,0.0020401180395612424,0.0007294822393285958,0.00979181336104852,4.997373704592297,0.7171514430710856,0.2083493592388881,-6.194747610269963,61.3
,,0.007022213082158684,0.0020401180395612424,0.0007294822393285958,0.00979181336104852,4.957459005583418,0.7171514430710856,0.2083493592388881,-6.194747610269963,61.4
,,0.006802391103319906,0.002020782329474378,0.000701889096265583,0.009525062529059866,4.9167015787040205,0.7141571073750536,0.21215423240626552,-6.204270550728143,61.5
,,0.006802391103319906,0.002020782329474378,0.000701889096265583,0.009525062529059866,4.875944151824621,0.7141571073750536,0.21215423240626552,-6.204270550728143,61.6
,,0.006802391103319906,0.002020782329474378,0.000701889096265583,0.009525062529059866,4.835186724945223,0.7141571073750536,0.21215423240626552,-6.204270550728143,61.7
,,0.006624756874426343,0.0020114893749885432,0.0006579538520399019,0.009294200101454788,4.829405235438891,0.7127839730273715,0.21642415194758846,-6.208879848721843,61.8
,,0.006624756874426343,0.0020114893749885432,0.0006579538520399019,0.009294200101454788,4.823623745932558,0.7127839730273715,0.21642415194758846,-6.208879848721843,61.9
,,0.006624756874426343,0.0020114893749885432,0.0006579538520399019,0.009294200101454788,4.817842256426226,0.7127839730273715,0.21642415194758846,-6.208879848721843,62.0
,,0.006437210147123448,0.00198665620379256,0.0006248394911545683,0.009048705842070575,4.811469266559895,0.7113956691126617,0.21955141856373597,-6.2213023531342255,62.1
,,0.006437210147123448,0.00198665620379256,0.0006248394911545683,0.009048705842070575,4.805096276693564,0.7113956691126617,0.21955141856373597,-6.2213023531342255,62.2
,,0.006437210147123448,0.00198665620379256,0.0006248394911545683,0.009048705842070575,4.798723286827233,0.7113956691126617,0.21955141856373597,-6.2213023531342255,62.3
,,0.006270600316242225,0.0019917105783878565,0.000589505569708416,0.008851816464338498,4.755594146721897,0.7083970099814797,0.22500586025612973,-6.2187614223495995,62.4
,,0.006270600316242225,0.0019917105783878565,0.000589505569708416,0.008851816464338498,4.7163455479947425,0.7083970099814797,0.22500586025612973,-6.2187614223495995,62.5
,,0.006270600316242225,0.0019917105783878565,0.000589505569708416,0.008851816464338498,4.677096949267586,0.7083970099814797,0.22500586025612973,-6.2187614223495995,62.6
,,0.006171626063993354,0.001976670410164573,0.0005586696822357503,0.008706966156393678,4.637558173735659,0.7088147528242569,0.22702171739958693,-6.226341460798609,62.7
,,0.006171626063993354,0.001976670410164573,0.0005586696822357503,0.008706966156393678,4.598019398203732,0.7088147528242569,0.22702171739958693,-6.226341460798609,62.8
,,0.006171626063993354,0.001976670410164573,0.0005586696822357503,0.008706966156393678,4.558480622671804,0.7088147528242569,0.22702171739958693,-6.226341460798609,62.9
,,0.006171626063993354,0.001976670410164573,0.0005586696822357503,0.008706966156393678,4.518941847139876,0.7088147528242569,0.22702171739958693,-6.226341460798609,63.0
,,0.00602004357075476,0.001999884108886011,0.0005304200741340536,0.008550347753774824,4.481106187785825,0.7040700266368722,0.23389506093516468,-6.214666045658095,63.1
,,0.00602004357075476,0.001999884108886011,0.0005304200741340536,0.008550347753774824,4.443270528431773,0.7040700266368722,0.23389506093516468,-6.214666045658095,63.2
,,0.00602004357075476,0.001999884108886011,0.0005304200741340536,0.008550347753774824,4.405434869077721,0.7040700266368722,0.23389506093516468,-6.214666045658095,63.3
,,0.005968259990093669,0.00198259762249995,0.0005004979786336196,0.008451355591227238,4.367600622769919,0.7061896669321195,0.2345893035855628,-6.223347363549112,63.4
,,0.005968259990093669,0.00198259762249995,0.0005004979786336196,0.008451355591227238,4.329766376462117,0.7061896669321195,0.2345893035855628,-6.223347363549112,63.5
,,0.005968259990093669,0.00198259762249995,0.0005004979786336196,0.008451355591227238,4.291932130154314,0.7061896669321195,0.2345893035855628,-6.223347363549112,63.6
,,0.0057777525766464916,0.0020044968484268597,0.0004749726006948446,0.008257222025768196,4.256053853772884,0.6997211118480211,0.24275680636556152,-6.212362198131959,63.7
,,0.0057777525766464916,0.0020044968484268597,0.0004749726006948446,0.008257222025768196,4.220175577391453,0.6997211118480211,0.24275680636556152,-6.212362198131959,63.8
,,0.0057777525766464916,0.0020044968484268597,0.0004749726006948446,0.008257222025768196,4.184297301010022,0.6997211118480211,0.24275680636556152,-6.212362198131959,63.9
,,0.005798452056915556,0.001998376632769548,0.0004506367835200635,0.008247465473205168,4.148632199670254,0.7030586639924586,0.24230190950928948,-6.215420111630926,64.0
,,0.005798452056915556,0.001998376632769548,0.0004506367835200635,0.008247465473205168,4.112967098330486,0.7030586639924586,0.24230190950928948,-6.215420111630926,64.1
,,0.005798452056915556,0.001998376632769548,0.0004506367835200635,0.008247465473205168,4.077301996990718,0.7030586639924586,0.24230190950928948,-6.215420111630926,64.2
,,0.005798452056915556,0.001998376632769548,0.0004506367835200635,0.008247465473205168,4.080115127103069,0.7030586639924586,0.24230190950928948,-6.215420111630926,64.3
,,0.005594151876380073,0.002027040426832359,0.00042935074038178296,0.008050543043594214,4.0463231385580505,0.6948788232156983,0.25178927879222596,-6.20117846754127,64.4
,,0.005594151876380073,0.002027040426832359,0.00042935074038178296,0.008050543043594214,4.012531150013033,0.6948788232156983,0.25178927879222596,-6.20117846754127,64.5
,,0.005666473297053698,0.002023957188581595,0.00040767711502609537,0.008098107600661387,3.979182903992971,0.6997280817299719,0.2499296488004549,-6.202700679667186,64.6
,,0.005666473297053698,0.002023957188581595,0.00040767711502609537,0.008098107600661387,3.945834657972908,0.6997280817299719,0.2499296488004549,-6.202700679667186,64.7
,,0.005666473297053698,0.002023957188581595,0.00040767711502609537,0.008098107600661387,3.9124864119528455,0.6997280817299719,0.2499296488004549,-6.202700679667186,64.8
,,0.005666473297053698,0.002023957188581595,0.00040767711502609537,0.008098107600661387,3.8833057352128373,0.6997280817299719,0.2499296488004549,-6.202700679667186,64.9
,,0.005666473297053698,0.002023957188581595,0.00040767711502609537,0.008098107600661387,3.853480234291152,0.6997280817299719,0.2499296488004549,-6.202700679667186,65.0
,,0.0048145136219649295,0.001149663004522619,0.00041091559117397,0.006375092217661518,3.8390776287899726,0.7552068985962006,0.18033668616394277,-6.768286419097005,65.1
,,0.0048145136219649295,0.001149663004522619,0.00041091559117397,0.006375092217661518,3.8246750232887936,0.7552068985962006,0.18033668616394277,-6.768286419097005,65.2
,,0.0048145136219649295,0.001149663004522619,0.00041091559117397,0.006375092217661518,3.810272417787614,0.7552068985962006,0.18033668616394277,-6.768286419097005,65.3
,,0.0048145136219649295,0.001149663004522619,0.00041091559117397,0.006375092217661518,3.7958698122864356,0.7552068985962006,0.18033668616394277,-6.768286419097005,65.4
,,0.0048145136219649295,0.001149663004522619,0.00041091559117397,0.006375092217661518,3.781467206785256,0.7552068985962006,0.18033668616394277,-6.768286419097005,65.5
,,0.0048145136219649295,0.001149663004522619,0.00041091559117397,0.006375092217661518,3.7705454805817484,0.7552068985962006,0.18033668616394277,-6.768286419097005,65.6
,,0.004834427887954742,0.001096953534516606,0.00038834265028146845,0.0063197240727528164,3.7620613023366043,0.7649745198209117,0.17357617546089835,-6.81521845545339,65.7
,,0.004834427887954742,0.001096953534516606,0.00038834265028146845,0.0063197240727528164,3.7535771240914593,0.7649745198209117,0.17357617546089835,-6.81521845545339,65.8
,,0.004834427887954742,0.001096953534516606,0.00038834265028146845,0.0063197240727528164,3.7450929458463147,0.7649745198209117,0.17357617546089835,-6.81521845545339,65.9
,,0.004834427887954742,0.001096953534516606,0.00038834265028146845,0.0063197240727528164,3.7366087676011697,0.7649745198209117,0.17357617546089835,-6.81521845545339,66.0
,,0.004834427887954742,0.001096953534516606,0.00038834265028146845,0.0063197240727528164,3.7281245893560255,0.7649745198209117,0.17357617546089835,-6.81521845545339,66.1
,,0.004834427887954742,0.001096953534516606,0.00038834265028146845,0.0063197240727528164,3.7233477988714503,0.7649745198209117,0.17357617546089835,-6.81521845545339,66.2
,,0.005240132824702568,0.002007002171630736,0.00031026145129266284,0.007557396447625968,3.6984028823698454,0.6933780516898342,0.26556793540468593,-6.211113127140252,66.3
,,0.005240132824702568,0.002007002171630736,0.00031026145129266284,0.007557396447625968,3.6734579658682405,0.6933780516898342,0.26556793540468593,-6.211113127140252,66.4
,,0.005240132824702568,0.002007002171630736,0.00031026145129266284,0.007557396447625968,3.6485130493666347,0.6933780516898342,0.26556793540468593,-6.211113127140252,66.5
,,0.005240132824702568,0.002007002171630736,0.00031026145129266284,0.007557396447625968,3.6235681328650298,0.6933780516898342,0.26556793540468593,-6.211113127140252,66.6
,,0.005240132824702568,0.002007002171630736,0.00031026145129266284,0.007557396447625968,3.5986232163634253,0.6933780516898342,0.26556793540468593,-6.211113127140252,66.7
,,0.005240132824702568,0.002007002171630736,0.00031026145129266284,0.007557396447625968,3.5770700421711794,0.6933780516898342,0.26556793540468593,-6.211113127140252,66.8
,,0.005074784477241142,0.001966068134629521,0.00028774742329626965,0.007328600035166933,3.555148226023946,0.6924630151583306,0.268273357148046,-6.231719601382851,66.9
,,0.005074784477241142,0.001966068134629521,0.00028774742329626965,0.007328600035166933,3.533226409876712,0.6924630151583306,0.268273357148046,-6.231719601382851,67.0
,,0.005074784477241142,0.001966068134629521,0.00028774742329626965,0.007328600035166933,3.511304593729479,0.6924630151583306,0.268273357148046,-6.231719601382851,67.1
,,0.005074784477241142,0.001966068134629521,0.00028774742329626965,0.007328600035166933,3.4893827775822457,0.6924630151583306,0.268273357148046,-6.231719601382851,67.2
,,0.005074784477241142,0.001966068134629521,0.00028774742329626965,0.007328600035166933,3.4674609614350116,0.6924630151583306,0.268273357148046,-6.231719601382851,67.3
,,0.005074784477241142,0.001966068134629521,0.00028774742329626965,0.007328600035166933,3.4407381332747824,0.6924630151583306,0.268273357148046,-6.231719601382851,67.4
,,0.005078826104059915,0.0009879128404958778,0.0002493521861762477,0.006316091130732041,3.44245731997386,0.8041090603249853,0.15641206246835418,-6.9199160822294346,67.5
,,0.004939544365852881,0.0019349814039848882,0.0002710311025649439,0.007145556872402713,3.4233673219746903,0.6912749354679679,0.2707950462836699,-6.247657562890298,67.6
,,0.004939544365852881,0.0019349814039848882,0.0002710311025649439,0.007145556872402713,3.4042773239755206,0.6912749354679679,0.2707950462836699,-6.247657562890298,67.7
,,0.004939544365852881,0.0019349814039848882,0.0002710311025649439,0.007145556872402713,3.385187325976351,0.6912749354679679,0.2707950462836699,-6.247657562890298,67.8
,,0.004939544365852881,0.0019349814039848882,0.0002710311025649439,0.007145556872402713,3.3660973279771818,0.6912749354679679,0.2707950462836699,-6.247657562890298,67.9
,,0.004939544365852881,0.0019349814039848882,0.0002710311025649439,0.007145556872402713,3.3495758513940475,0.6912749354679679,0.2707950462836699,-6.247657562890298,68.0
,,0.005075653008480041,0.001918227080476327,0.0002004695381647239,0.007194349627121091,3.3340905076142957,0.7055054690900707,0.2666296718809772,-6.256353915120026,68.1
,,0.004834380327028317,0.0019238656788177434,0.00026079057297025566,0.007019036578816316,3.31735858523634,0.6887526903077604,0.27409255632376006,-6.253418742679989,68.2
,,0.004834380327028317,0.0019238656788177434,0.00026079057297025566,0.007019036578816316,3.3006266628583845,0.6887526903077604,0.27409255632376006,-6.253418742679989,68.3
,,0.004834380327028317,0.0019238656788177434,0.00026079057297025566,0.007019036578816316,3.283894740480428,0.6887526903077604,0.27409255632376006,-6.253418742679989,68.4
,,0.004834380327028317,0.0019238656788177434,0.00026079057297025566,0.007019036578816316,3.267162818102472,0.6887526903077604,0.27409255632376006,-6.253418742679989,68.5
,,0.004834380327028317,0.0019238656788177434,0.00026079057297025566,0.007019036578816316,3.252543074557164,0.6887526903077604,0.27409255632376006,-6.253418742679989,68.6
,,0.005442962282592244,0.0009537407102490783,0.0002524015319138632,0.006649104524755185,3.2734134997582025,0.8186007999013446,0.14343897087167454,-6.955118715649921,68.7
,,0.005442962282592244,0.0009537407102490783,0.0002524015319138632,0.006649104524755185,3.2942839249592413,0.8186007999013446,0.14343897087167454,-6.955118715649921,68.8
,,0.004745891267399709,0.0019255580019345046,0.000253882353505698,0.0069253316228399114,3.271402139005539,0.6852944416044489,0.2780456022616979,-6.252539482112102,68.9
,,0.004745891267399709,0.0019255580019345046,0.000253882353505698,0.0069253316228399114,3.248520353051836,0.6852944416044489,0.2780456022616979,-6.252539482112102,69.0
,,0.004745891267399709,0.0019255580019345046,0.000253882353505698,0.0069253316228399114,3.2256385670981325,0.6852944416044489,0.2780456022616979,-6.252539482112102,69.1
,,0.004745891267399709,0.0019255580019345046,0.000253882353505698,0.0069253316228399114,3.212474972158354,0.6852944416044489,0.2780456022616979,-6.252539482112102,69.2
,,0.004745891267399709,0.0019255580019345046,0.000253882353505698,0.0069253316228399114,3.1993113772185753,0.6852944416044489,0.2780456022616979,-6.252539482112102,69.3
,,0.00486879025616047,0.0019157771800590792,0.00019740892865251534,0.006981976364872065,3.187000384448477,0.6973369719004604,0.2743889523456133,-6.257631900528601,69.4
,,0.00486879025616047,0.0019157771800590792,0.00019740892865251534,0.006981976364872065,3.1751535913272915,0.6973369719004604,0.2743889523456133,-6.257631900528601,69.5
,,0.005843460956010679,0.0009499565401564563,0.0003329724784111996,0.007126389974578334,3.2034165217780393,0.8199749069102037,0.13330122874908554,-6.959094321619853,69.6
,,0.005843460956010679,0.0009499565401564563,0.0003329724784111996,0.007126389974578334,3.231679452228787,0.8199749069102037,0.13330122874908554,-6.959094321619853,69.7
,,0.005843460956010679,0.0009499565401564563,0.0003329724784111996,0.007126389974578334,3.259942382679535,0.8199749069102037,0.13330122874908554,-6.959094321619853,69.8
,,0.005843460956010679,0.0009499565401564563,0.0003329724784111996,0.007126389974578334,3.2894355785304743,0.8199749069102037,0.13330122874908554,-6.959094321619853,69.9
,,0.004784033985960353,0.0019380623865748047,0.0001975205153675393,0.006919616887902697,3.27800843425392,0.6913726675134426,0.2800823250725117,-6.246066574816619,70.0
,,0.004784033985960353,0.0019380623865748047,0.0001975205153675393,0.006919616887902697,3.266581289977366,0.6913726675134426,0.2800823250725117,-6.246066574816619,70.1
,,0.004784033985960353,0.0019380623865748047,0.0001975205153675393,0.006919616887902697,3.255763514169147,0.6913726675134426,0.2800823250725117,-6.246066574816619,70.2
,,0.004589113944882011,0.0019729591154775132,0.0002456655033869085,0.006807738563746433,3.2433628858186228,0.6741025528390049,0.2898112342304395,-6.228220774164718,70.3
,,0.004589113944882011,0.0019729591154775132,0.0002456655033869085,0.006807738563746433,3.2309622574680974,0.6741025528390049,0.2898112342304395,-6.228220774164718,70.4
,,0.004589113944882011,0.0019729591154775132,0.0002456655033869085,0.006807738563746433,3.219404356988092,0.6741025528390049,0.2898112342304395,-6.228220774164718,70.5
,,0.006860505471713165,0.0011113449953822107,0.00027354263033182416,0.0082453930974272,3.250592566554226,0.8320410428768812,0.13478374921008707,-6.802184289631463,70.6
,,0.006860505471713165,0.0011113449953822107,0.00027354263033182416,0.0082453930974272,3.281780776120361,0.8320410428768812,0.13478374921008707,-6.802184289631463,70.7
,,0.006860505471713165,0.0011113449953822107,0.00027354263033182416,0.0082453930974272,3.3137774089412466,0.8320410428768812,0.13478374921008707,-6.802184289631463,70.8
,,0.006860505471713165,0.0011113449953822107,0.00027354263033182416,0.0082453930974272,3.345774041762133,0.8320410428768812,0.13478374921008707,-6.802184289631463,70.9
,,0.0045106981947666755,0.002015541460245741,0.0002439255018198818,0.006770165156832298,3.334046263746238,0.6662611753591536,0.29770934882019856,-6.206867404918682,71.0
,,0.0045106981947666755,0.002015541460245741,0.0002439255018198818,0.006770165156832298,3.322909986090342,0.6662611753591536,0.29770934882019856,-6.206867404918682,71.1
