time,ecg,hr,rr,marker,norm_time
1716183323592363588,0.07,,,,0.0
1716183323600057538,0.058,,,,0.00769395
1716183323607751488,0.046,,,,0.0153879
1716183323615445438,0.043,,,,0.02308185
1716183323623139388,0.043,,,,0.0307758
1716183323630833338,0.043,,,,0.03846975
1716183323638527288,0.053,,,,0.0461637
1716183323646221238,0.068,,,,0.05385765
1716183323653915188,0.07,,,,0.0615516
1716183323661609138,0.063,,,,0.06924555
1716183323669303088,0.056,,,,0.0769395
1716183323676997038,0.048,,,,0.08463345
1716183323684690988,0.043,,,,0.0923274
1716183323692384938,0.034,,,,0.10002135
1716183323700078888,0.026,,,,0.1077153
1716183323707772838,0.036,,,,0.11540925
1716183323715466788,0.036,,,,0.1231032
1716183323723160738,0.031,,,,0.13079715
1716183323730854688,0.031,,,,0.1384911
1716183323738548638,0.036,,,,0.14618505
1716183323746242588,0.041,,,,0.153879
1716183323753936538,0.039,,,,0.16157295
1716183323761630488,0.012,,,,0.1692669
1716183323769324438,0.009,,,,0.17696085
1716183323777018388,0.227,,,,0.1846548
1716183323784712338,0.749,,,,0.19234875
1716183323792406288,1.079,,,,0.2000427
1716183323800100238,0.434,,,,0.20773665
1716183323807794188,-0.5710000000000001,,,,0.2154306
1716183323815488138,-0.498,,,,0.22312455
1716183323823182088,0.095,,,,0.2308185
1716183323830876038,0.026,,,,0.23851245
1716183323838569988,-0.139,,,,0.2462064
1716183323846263938,0.009,,,,0.25390035
1716183323853957888,0.036,,,,0.2615943
1716183323861651838,-0.029,,,,0.26928825
1716183323869345788,0.009,,,,0.2769822
1716183323877039738,0.031,,,,0.28467615
1716183323884733688,0.009,,,,0.2923701
1716183323892427638,0.017,,,,0.30006405
1716183323900121588,0.031,,,,0.307758
1716183323907815538,0.021,,,,0.31545195
1716183323915509488,0.021,,,,0.3231459
1716183323923203438,0.029,,,,0.33083985
1716183323930897388,0.031,,,,0.3385338
1716183323938591338,0.036,,,,0.34622775
1716183323946285288,0.048,,,,0.3539217
1716183323953979238,0.056,,,,0.36161565
1716183323961673188,0.07,,,,0.3693096
1716183323969367138,0.087,,,,0.37700355
1716183323977061088,0.095,,,,0.3846975
1716183323984755038,0.102,,,,0.39239145
1716183323992448988,0.117,,,,0.4000854
1716183324000142938,0.131,,,,0.40777935
1716183324007836888,0.148,,,,0.4154733
1716183324015530838,0.158,,,,0.42316725
1716183324023224788,0.153,,,,0.4308612
1716183324030918738,0.146,,,,0.43855515
1716183324038612688,0.131,,,,0.4462491
1716183324046306638,0.104,,,,0.45394305
1716183324054000588,0.07,,,,0.461637
1716183324061694538,0.034,,,,0.46933095
1716183324069388488,0.007,,,,0.4770249
1716183324077082438,-0.004,,,,0.48471885
1716183324084776388,-0.002,,,,0.4924128
1716183324092470338,-0.004,,,,0.50010675
1716183324100164288,-0.012,,,,0.5078007
1716183324107858238,-0.012,,,,0.51549465
1716183324115552188,-0.002,,,,0.5231886
1716183324123246138,0.002,,,,0.53088255
1716183324130940088,-0.002,,,,0.5385765
1716183324138634038,-0.002,,,,0.54627045
1716183324146327988,0.002,,,,0.5539644
1716183324154021946,0.014,76.0,788.0,,0.561658358
1716183324161715896,0.007,,777.0,,0.569352308
1716183324169409846,-0.009,,,,0.577046258
1716183324177103796,0.009,,,,0.584740208
1716183324184797746,0.034,,,,0.592434158
1716183324192491696,0.026,,,,0.600128108
1716183324200185646,0.029,,,,0.607822058
1716183324207879596,0.041,,,,0.615516008
1716183324215573546,0.039,,,,0.623209958
1716183324223267496,0.034,,,,0.630903908
1716183324230961446,0.031,,,,0.638597858
1716183324238655396,0.029,,,,0.646291808
1716183324246349346,0.036,,,,0.653985758
1716183324254043296,0.041,,,,0.661679708
1716183324261737246,0.043,,,,0.669373658
1716183324269431196,0.046,,,,0.677067608
1716183324277125146,0.048,,,,0.684761558
1716183324284819096,0.051,,,,0.692455508
1716183324292513046,0.048,,,,0.700149458
1716183324300206996,0.046,,,,0.707843408
1716183324307900946,0.053,,,,0.715537358
1716183324315594896,0.056,,,,0.723231308
1716183324323288846,0.058,,,,0.730925258
1716183324330982796,0.061,,,,0.738619208
1716183324338676746,0.058,,,,0.746313158
1716183324346370696,0.056,,,,0.754007108
1716183324354064646,0.048,,,,0.761701058
1716183324361758596,0.041,,,,0.769395008
1716183324369452546,0.053,,,,0.777088958
1716183324377146496,0.075,,,,0.784782908
1716183324384840446,0.09,,,,0.792476858
1716183324392534396,0.095,,,,0.800170808
1716183324400228346,0.08,,,,0.807864758
1716183324407922296,0.068,,,,0.815558708
1716183324415616246,0.065,,,,0.823252658
1716183324423310196,0.061,,,,0.830946608
1716183324431004146,0.056,,,,0.838640558
1716183324438698096,0.053,,,,0.846334508
1716183324446392046,0.051,,,,0.854028458
1716183324454085996,0.048,,,,0.861722408
1716183324461779946,0.056,,,,0.869416358
1716183324469473896,0.061,,,,0.877110308
1716183324477167846,0.063,,,,0.884804258
1716183324484861796,0.07,,,,0.892498208
1716183324492555746,0.075,,,,0.900192158
1716183324500249696,0.065,,,,0.907886108
1716183324507943646,0.048,,,,0.915580058
1716183324515637596,0.148,,,,0.923274008
1716183324523331546,0.556,,,,0.930967958
1716183324531025496,1.018,,,,0.938661908
1716183324538719446,0.759,,,,0.946355858
1716183324546413396,-0.236,,,,0.954049808
1716183324554107346,-0.607,,,,0.961743758
1716183324561801296,-0.014,,,,0.969437708
1716183324569495246,0.185,,,,0.977131658
1716183324577189196,-0.078,,,,0.984825608
1716183324584883146,-0.007,,,,0.992519558
1716183324592577096,0.114,,,,1.000213508
1716183324600271046,0.039,,,,1.007907458
1716183324607964996,0.031,,,,1.015601408
1716183324615658946,0.083,,,,1.023295358
1716183324623352896,0.068,,,,1.030989308
1716183324631046846,0.051,,,,1.038683258
1716183324638740796,0.07,,,,1.046377208
1716183324646434746,0.078,,,,1.054071158
1716183324654128696,0.073,,,,1.061765108
1716183324661822646,0.08,,,,1.069459058
1716183324669516596,0.09,,,,1.077153008
1716183324677210546,0.087,,,,1.084846958
1716183324684904496,0.095,,,,1.092540908
1716183324692598446,0.107,,,,1.100234858
1716183324700292396,0.114,,,,1.107928808
1716183324707986346,0.117,,,,1.115622758
1716183324715680304,0.129,76.0,766.0,,1.123316716
1716183324723374045,0.146,,,,1.131010457
1716183324731067786,0.161,,,,1.138704198
1716183324738761527,0.175,,,,1.146397939
1716183324746455268,0.187,,,,1.15409168
1716183324754149009,0.197,,,,1.161785421
1716183324761842750,0.202,,,,1.169479162
1716183324769536491,0.197,,,,1.177172903
1716183324777230232,0.175,,,,1.184866644
1716183324784923973,0.148,,,,1.192560385
1716183324792617714,0.126,,,,1.200254126
1716183324800311455,0.104,,,,1.207947867
1716183324808005196,0.085,,,,1.215641608
1716183324815698937,0.068,,,,1.223335349
1716183324823392678,0.061,,,,1.23102909
1716183324831086419,0.061,,,,1.238722831
1716183324838780160,0.063,,,,1.246416572
1716183324846473901,0.07,,,,1.254110313
1716183324854167642,0.073,,,,1.261804054
1716183324861861383,0.065,,,,1.269497795
1716183324869555124,0.065,,,,1.277191536
1716183324877248865,0.075,,,,1.284885277
1716183324884942606,0.083,,,,1.292579018
1716183324892636347,0.083,,,,1.300272759
1716183324900330088,0.083,,,,1.3079665
1716183324908023829,0.085,,,,1.315660241
1716183324915717570,0.087,,,,1.323353982
1716183324923411311,0.09,,,,1.331047723
1716183324931105052,0.092,,,,1.338741464
1716183324938798793,0.102,,,,1.346435205
1716183324946492534,0.107,,,,1.354128946
1716183324954186275,0.104,,,,1.361822687
1716183324961880016,0.107,,,,1.369516428
1716183324969573757,0.117,,,,1.377210169
1716183324977267498,0.119,,,,1.38490391
1716183324984961239,0.119,,,,1.392597651
1716183324992654980,0.119,,,,1.400291392
1716183325000348721,0.119,,,,1.407985133
1716183325008042462,0.124,,,,1.415678874
1716183325015736203,0.124,,,,1.423372615
1716183325023429944,0.126,,,,1.431066356
1716183325031123685,0.129,,,,1.438760097
1716183325038817426,0.129,,,,1.446453838
1716183325046511167,0.124,,,,1.454147579
1716183325054204908,0.124,,,,1.46184132
1716183325061898649,0.124,,,,1.469535061
1716183325069592390,0.117,,,,1.477228802
1716183325077286131,0.112,,,,1.484922543
1716183325084979872,0.112,,,,1.492616284
1716183325092673613,0.104,,,,1.500310025
1716183325100367354,0.097,,,,1.508003766
1716183325108061095,0.102,,,,1.515697507
1716183325115754836,0.107,,,,1.523391248
1716183325123448577,0.122,,,,1.531084989
1716183325131142318,0.144,,,,1.53877873
1716183325138836059,0.148,,,,1.546472471
1716183325146529800,0.139,,,,1.554166212
1716183325154223541,0.129,,,,1.561859953
1716183325161917282,0.124,,,,1.569553694
1716183325169611023,0.119,,,,1.577247435
1716183325177304764,0.109,,,,1.584941176
1716183325184998505,0.102,,,,1.592634917
1716183325192692246,0.102,,,,1.600328658
1716183325200385987,0.102,,,,1.608022399
1716183325208079728,0.102,,,,1.61571614
1716183325215773469,0.104,,,,1.623409881
1716183325223467210,0.104,,,,1.631103622
1716183325231160951,0.104,,,,1.638797363
1716183325238854692,0.104,,,,1.646491104
1716183325246548433,0.083,,,,1.654184845
1716183325254242174,0.068,,,,1.661878586
1716183325261935915,0.261,,,,1.669572327
1716183325269629656,0.786,,,,1.677266068
1716183325277323404,1.162,,,,1.684959816
1716183325285017145,0.6,,,,1.692653557
1716183325292710886,-0.402,,,,1.700347298
1716183325300404627,-0.415,,,,1.708041039
1716183325308098368,0.17,,,,1.71573478
1716183325315792109,0.136,,,,1.723428521
1716183325323485850,-0.048,,,,1.731122262
1716183325331179591,0.092,,,,1.738816003
1716183325338873332,0.124,,,,1.746509744
1716183325346567073,0.039,,,,1.754203485
1716183325354260814,0.063,,,,1.761897226
1716183325361954555,0.095,,,,1.769590967
1716183325369648296,0.078,,,,1.777284708
1716183325377342037,0.083,,,,1.784978449
1716183325385035778,0.1,,,,1.79267219
1716183325392729519,0.095,,,,1.800365931
1716183325400423260,0.087,,,,1.808059672
1716183325408117001,0.085,,,,1.815753413
1716183325415810742,0.087,,,,1.823447154
1716183325423504483,0.097,,,,1.831140895
1716183325431198224,0.104,,,,1.838834636
1716183325438891965,0.109,,,,1.846528377
1716183325446585706,0.119,,,,1.854222118
1716183325454279447,0.131,,,,1.861915859
1716183325461973188,0.144,,,,1.8696096
1716183325469666929,0.161,,,,1.877303341
1716183325477360670,0.173,,,,1.884997082
1716183325485054411,0.187,,,,1.892690823
1716183325492748152,0.197,,,,1.900384564
1716183325500441893,0.202,,,,1.908078305
1716183325508135634,0.212,,,,1.915772046
1716183325515829375,0.214,,,,1.923465787
1716183325523523116,0.197,,,,1.931159528
1716183325531216857,0.17,,,,1.938853269
1716183325538910598,0.141,,,,1.94654701
1716183325546604339,0.114,,,,1.954240751
1716183325554298080,0.092,,,,1.961934492
1716183325561991821,0.08,,,,1.969628233
1716183325569685562,0.065,,,,1.977321974
1716183325577379303,0.056,,,,1.985015715
1716183325585073044,0.058,,,,1.992709456
1716183325592766785,0.061,,,,2.000403197
1716183325600460526,0.061,,,,2.008096938
1716183325608154267,0.063,,,,2.015790679
1716183325615848008,0.068,,,,2.02348442
1716183325623541749,0.075,,,,2.031178161
1716183325631235490,0.073,,,,2.038871902
1716183325638929231,0.065,,,,2.046565643
1716183325646622972,0.07,,,,2.054259384
1716183325654316713,0.078,,,,2.061953125
1716183325662010454,0.078,,,,2.069646866
1716183325669704195,0.08,,,,2.077340607
1716183325677397936,0.09,,,,2.085034348
1716183325685091677,0.095,,,,2.092728089
1716183325692785418,0.095,,,,2.10042183
1716183325700479159,0.097,,,,2.108115571
1716183325708172900,0.1,,,,2.115809312
1716183325715866641,0.102,,,,2.123503053
1716183325723560382,0.102,,,,2.131196794
1716183325731254123,0.104,,,,2.138890535
1716183325738947864,0.107,,,,2.146584276
1716183325746641605,0.109,,,,2.154278017
1716183325754335346,0.109,,,,2.161971758
1716183325762029087,0.109,,,,2.169665499
1716183325769722828,0.109,,,,2.17735924
1716183325777416569,0.107,,,,2.185052981
1716183325785110310,0.107,,,,2.192746722
1716183325792804051,0.107,,,,2.200440463
1716183325800497792,0.109,,,,2.208134204
1716183325808191533,0.112,,,,2.215827945
1716183325815885274,0.114,,,,2.223521686
1716183325823579015,0.114,,,,2.231215427
1716183325831272756,0.107,,,,2.238909168
1716183325838966502,0.104,76.0,747.0,,2.246602914
1716183325846660452,0.102,,,,2.254296864
1716183325854354402,0.095,,,,2.261990814
1716183325862048352,0.1,,,,2.269684764
1716183325869742302,0.124,,,,2.277378714
1716183325877436252,0.139,,,,2.285072664
1716183325885130202,0.139,,,,2.292766614
1716183325892824152,0.136,,,,2.300460564
1716183325900518102,0.131,,,,2.308154514
1716183325908212052,0.119,,,,2.315848464
1716183325915906002,0.109,,,,2.323542414
1716183325923599952,0.112,,,,2.331236364
1716183325931293902,0.114,,,,2.338930314
1716183325938987852,0.107,,,,2.346624264
1716183325946681802,0.1,,,,2.354318214
1716183325954375752,0.102,,,,2.362012164
1716183325962069702,0.104,,,,2.369706114
1716183325969763652,0.097,,,,2.377400064
1716183325977457602,0.09,,,,2.385094014
1716183325985151552,0.092,,,,2.392787964
1716183325992845502,0.08,,,,2.400481914
1716183326000539452,0.063,,,,2.408175864
1716183326008233402,0.244,,,,2.415869814
1716183326015927352,0.761,,,,2.423563764
1716183326023621302,1.154,,,,2.431257714
1716183326031315252,0.598,,,,2.438951664
1716183326039009202,-0.437,,,,2.446645614
1716183326046703152,-0.458,,,,2.454339564
1716183326054397102,0.148,,,,2.462033514
1716183326062091052,0.119,,,,2.469727464
1716183326069785002,-0.078,,,,2.477421414
1716183326077478952,0.058,,,,2.485115364
1716183326085172902,0.092,,,,2.492809314
1716183326092866852,0.014,,,,2.500503264
1716183326100560802,0.041,,,,2.508197214
1716183326108254752,0.08,,,,2.515891164
1716183326115948702,0.068,,,,2.523585114
1716183326123642652,0.065,,,,2.531279064
1716183326131336602,0.065,,,,2.538973014
1716183326139030552,0.056,,,,2.546666964
1716183326146724502,0.063,,,,2.554360914
1716183326154418452,0.068,,,,2.562054864
1716183326162112402,0.068,,,,2.569748814
1716183326169806352,0.085,,,,2.577442764
1716183326177500302,0.092,,,,2.585136714
1716183326185194252,0.08,,,,2.592830664
1716183326192888202,0.078,,,,2.600524614
1716183326200582152,0.095,,,,2.608218564
1716183326208276102,0.112,,,,2.615912514
1716183326215970052,0.122,,,,2.623606464
1716183326223664002,0.141,,,,2.631300414
1716183326231357952,0.158,,,,2.638994364
1716183326239051902,0.161,,,,2.646688314
1716183326246745852,0.166,,,,2.654382264
1716183326254439802,0.178,,,,2.662076214
1716183326262133752,0.17,,,,2.669770164
1716183326269827702,0.144,,,,2.677464114
1716183326277521652,0.122,,,,2.685158064
1716183326285215602,0.107,,,,2.692852014
1716183326292909552,0.083,,,,2.700545964
1716183326300603502,0.056,,,,2.708239914
1716183326308297452,0.048,,,,2.715933864
1716183326315991402,0.043,,,,2.723627814
1716183326323685352,0.041,,,,2.731321764
1716183326331379302,0.041,,,,2.739015714
1716183326339073252,0.026,,,,2.746709664
1716183326346767202,0.029,,,,2.754403614
1716183326354461152,0.039,,,,2.762097564
1716183326362155102,0.041,,,,2.769791514
1716183326369849052,0.039,,,,2.777485464
1716183326377543002,0.036,,,,2.785179414
1716183326385236952,0.039,,,,2.792873364
1716183326392930902,0.039,,,,2.800567314
1716183326400624860,0.039,,,,2.808261272
1716183326408318392,0.046,,,,2.815954804
1716183326416011924,0.051,,,,2.823648336
1716183326423705456,0.048,,,,2.831341868
1716183326431398988,0.048,,,,2.8390354
1716183326439092520,0.043,,,,2.846728932
1716183326446786052,0.043,,,,2.854422464
1716183326454479584,0.043,,,,2.862115996
1716183326462173116,0.048,,,,2.869809528
1716183326469866648,0.053,,,,2.87750306
1716183326477560180,0.048,,,,2.885196592
1716183326485253712,0.041,,,,2.892890124
1716183326492947244,0.043,,,,2.900583656
1716183326500640776,0.048,,,,2.908277188
1716183326508334308,0.046,,,,2.91597072
1716183326516027840,0.036,,,,2.923664252
1716183326523721372,0.039,,,,2.931357784
1716183326531414904,0.056,,,,2.939051316
1716183326539108436,0.063,,,,2.946744848
1716183326546801968,0.056,,,,2.95443838
1716183326554495500,0.051,,,,2.962131912
1716183326562189032,0.056,,,,2.969825444
1716183326569882564,0.063,,,,2.977518976
1716183326577576096,0.056,,,,2.985212508
1716183326585269628,0.043,,,,2.99290604
1716183326592963160,0.039,,,,3.000599572
1716183326600656692,0.036,,,,3.008293104
1716183326608350224,0.034,,,,3.015986636
1716183326616043756,0.046,,,,3.023680168
1716183326623737288,0.073,,,,3.0313737
1716183326631430820,0.08,,,,3.039067232
1716183326639124352,0.075,,,,3.046760764
1716183326646817884,0.078,,,,3.054454296
1716183326654511416,0.07,,,,3.062147828
1716183326662204948,0.061,,,,3.06984136
1716183326669898480,0.056,,,,3.077534892
1716183326677592012,0.053,,,,3.085228424
1716183326685285544,0.058,,,,3.092921956
1716183326692979076,0.065,,,,3.100615488
1716183326700672608,0.068,,,,3.10830902
1716183326708366140,0.07,,,,3.116002552
1716183326716059672,0.068,,,,3.123696084
1716183326723753204,0.068,,,,3.131389616
1716183326731446736,0.07,,,,3.139083148
1716183326739140268,0.07,,,,3.14677668
1716183326746833800,0.043,,,,3.154470212
1716183326754527332,0.056,,,,3.162163744
1716183326762220864,0.336,,,,3.169857276
1716183326769914396,0.869,,,,3.177550808
1716183326777607928,0.988,,,,3.18524434
1716183326785301460,0.163,,,,3.192937872
1716183326792994992,-0.634,,,,3.200631404
1716183326800688524,-0.275,,,,3.208324936
1716183326808382056,0.224,,,,3.216018468
1716183326816075588,0.026,,,,3.223712
1716183326823769120,-0.051,,,,3.231405532
1716183326831462652,0.122,,,,3.239099064
1716183326839156184,0.087,,,,3.246792596
1716183326846849716,0.021,,,,3.254486128
1716183326854543248,0.08,,,,3.26217966
1716183326862236780,0.095,,,,3.269873192
1716183326869930312,0.065,,,,3.277566724
1716183326877623844,0.083,,,,3.285260256
1716183326885317376,0.104,,,,3.292953788
1716183326893010908,0.1,,,,3.30064732
1716183326900704440,0.087,,,,3.308340852
1716183326908397972,0.087,,,,3.316034384
1716183326916091504,0.092,,,,3.323727916
1716183326923785036,0.097,,,,3.331421448
1716183326931478568,0.1,,,,3.33911498
1716183326939172100,0.104,,,,3.346808512
1716183326946865632,0.114,,,,3.354502044
1716183326954559164,0.117,,,,3.362195576
1716183326962252702,0.126,77.0,741.0,,3.369889114
1716183326969946582,0.144,,744.0,,3.377582994
1716183326977640462,0.158,,,,3.385276874
1716183326985334342,0.163,,,,3.392970754
1716183326993028222,0.166,,,,3.400664634
1716183327000722102,0.17,,,,3.408358514
1716183327008415982,0.175,,,,3.416052394
1716183327016109862,0.166,,,,3.423746274
1716183327023803742,0.146,,,,3.431440154
1716183327031497622,0.122,,,,3.439134034
1716183327039191502,0.102,,,,3.446827914
1716183327046885382,0.085,,,,3.454521794
1716183327054579262,0.07,,,,3.462215674
1716183327062273142,0.058,,,,3.469909554
1716183327069967022,0.051,,,,3.477603434
1716183327077660902,0.046,,,,3.485297314
1716183327085354782,0.039,,,,3.492991194
1716183327093048662,0.039,,,,3.500685074
1716183327100742542,0.046,,,,3.508378954
1716183327108436422,0.048,,,,3.516072834
1716183327116130302,0.039,,,,3.523766714
1716183327123824182,0.041,,,,3.531460594
1716183327131518062,0.053,,,,3.539154474
1716183327139211942,0.051,,,,3.546848354
1716183327146905822,0.048,,,,3.554542234
1716183327154599702,0.058,,,,3.562236114
1716183327162293582,0.068,,,,3.569929994
1716183327169987462,0.068,,,,3.577623874
1716183327177681342,0.07,,,,3.585317754
1716183327185375222,0.078,,,,3.593011634
1716183327193069102,0.078,,,,3.600705514
1716183327200762982,0.073,,,,3.608399394
1716183327208456862,0.08,,,,3.616093274
1716183327216150742,0.087,,,,3.623787154
1716183327223844622,0.087,,,,3.631481034
1716183327231538502,0.087,,,,3.639174914
1716183327239232382,0.092,,,,3.646868794
1716183327246926262,0.095,,,,3.654562674
1716183327254620142,0.092,,,,3.662256554
1716183327262314022,0.092,,,,3.669950434
1716183327270007902,0.095,,,,3.677644314
1716183327277701782,0.097,,,,3.685338194
1716183327285395662,0.097,,,,3.693032074
1716183327293089542,0.095,,,,3.700725954
1716183327300783422,0.097,,,,3.708419834
1716183327308477302,0.102,,,,3.716113714
1716183327316171182,0.1,,,,3.723807594
1716183327323865062,0.102,,,,3.731501474
1716183327331558942,0.107,,,,3.739195354
1716183327339252822,0.097,,,,3.746889234
1716183327346946702,0.092,,,,3.754583114
1716183327354640582,0.092,,,,3.762276994
1716183327362334462,0.09,,,,3.769970874
1716183327370028342,0.102,,,,3.777664754
1716183327377722222,0.126,,,,3.785358634
1716183327385416102,0.134,,,,3.793052514
1716183327393109982,0.131,,,,3.800746394
1716183327400803862,0.129,,,,3.808440274
1716183327408497742,0.122,,,,3.816134154
1716183327416191622,0.112,,,,3.823828034
1716183327423885502,0.107,,,,3.831521914
1716183327431579382,0.109,,,,3.839215794
1716183327439273262,0.104,,,,3.846909674
1716183327446967142,0.102,,,,3.854603554
1716183327454661022,0.107,,,,3.862297434
1716183327462354902,0.114,,,,3.869991314
1716183327470048782,0.114,,,,3.877685194
1716183327477742662,0.114,,,,3.885379074
1716183327485436542,0.117,,,,3.893072954
1716183327493130422,0.097,,,,3.900766834
1716183327500824302,0.058,,,,3.908460714
1716183327508518182,0.151,,,,3.916154594
1716183327516212062,0.578,,,,3.923848474
1716183327523905974,1.076,,,,3.931542386
1716183327531599575,0.8320000000000001,,,,3.939235987
1716183327539293176,-0.168,,,,3.946929588
1716183327546986777,-0.539,,,,3.954623189
1716183327554680378,0.034,,,,3.96231679
1716183327562373979,0.214,,,,3.970010391
1716183327570067580,-0.036,,,,3.977703992
1716183327577761181,0.034,,,,3.985397593
1716183327585454782,0.126,,,,3.993091194
1716183327593148383,0.034,,,,4.000784795
1716183327600841984,0.031,,,,4.008478396
1716183327608535585,0.087,,,,4.016171997
1716183327616229186,0.068,,,,4.023865598
1716183327623922787,0.056,,,,4.031559199
1716183327631616388,0.078,,,,4.0392528
1716183327639309989,0.08,,,,4.046946401
1716183327647003590,0.083,,,,4.054640002
1716183327654697191,0.09,,,,4.062333603
1716183327662390792,0.09,,,,4.070027204
1716183327670084393,0.087,,,,4.077720805
1716183327677777994,0.092,,,,4.085414406
1716183327685471595,0.092,,,,4.093108007
1716183327693165196,0.095,,,,4.100801608
1716183327700858797,0.109,,,,4.108495209
1716183327708552398,0.119,,,,4.11618881
1716183327716245999,0.122,,,,4.123882411
1716183327723939600,0.134,,,,4.131576012
1716183327731633201,0.151,,,,4.139269613
1716183327739326802,0.153,,,,4.146963214
1716183327747020403,0.156,,,,4.154656815
1716183327754714004,0.17,,,,4.162350416
1716183327762407605,0.183,,,,4.170044017
1716183327770101206,0.168,,,,4.177737618
1716183327777794807,0.146,,,,4.185431219
1716183327785488408,0.129,,,,4.19312482
1716183327793182009,0.109,,,,4.200818421
1716183327800875610,0.085,,,,4.208512022
1716183327808569211,0.073,,,,4.216205623
1716183327816262812,0.065,,,,4.223899224
1716183327823956413,0.056,,,,4.231592825
1716183327831650014,0.051,,,,4.239286426
1716183327839343615,0.058,,,,4.246980027
1716183327847037216,0.063,,,,4.254673628
1716183327854730817,0.056,,,,4.262367229
1716183327862424418,0.046,,,,4.27006083
1716183327870118019,0.053,,,,4.277754431
1716183327877811620,0.061,,,,4.285448032
1716183327885505221,0.061,,,,4.293141633
1716183327893198822,0.063,,,,4.300835234
1716183327900892423,0.07,,,,4.308528835
1716183327908586024,0.07,,,,4.316222436
1716183327916279625,0.07,,,,4.323916037
1716183327923973226,0.075,,,,4.331609638
1716183327931666827,0.083,,,,4.339303239
1716183327939360428,0.083,,,,4.34699684
1716183327947054029,0.083,,,,4.354690441
1716183327954747630,0.083,,,,4.362384042
1716183327962441231,0.083,,,,4.370077643
1716183327970134832,0.092,,,,4.377771244
1716183327977828433,0.097,,,,4.385464845
1716183327985522034,0.095,,,,4.393158446
1716183327993215635,0.092,,,,4.400852047
1716183328000909236,0.095,,,,4.408545648
1716183328008602837,0.095,,,,4.416239249
1716183328016296438,0.097,,,,4.42393285
1716183328023990039,0.1,,,,4.431626451
1716183328031683640,0.1,,,,4.439320052
1716183328039377241,0.102,,,,4.447013653
1716183328047070842,0.1,,,,4.454707254
1716183328054764443,0.102,,,,4.462400855
1716183328062458044,0.104,,,,4.470094456
1716183328070151645,0.104,,,,4.477788057
1716183328077845246,0.1,,,,4.485481658
1716183328085538900,0.092,77.0,746.0,,4.493175312
1716183328093232641,0.075,,,,4.500869053
1716183328100926382,0.07,,,,4.508562794
1716183328108620123,0.073,,,,4.516256535
1716183328116313864,0.08,,,,4.523950276
1716183328124007605,0.102,,,,4.531644017
1716183328131701346,0.119,,,,4.539337758
1716183328139395087,0.114,,,,4.547031499
1716183328147088828,0.112,,,,4.55472524
1716183328154782569,0.112,,,,4.562418981
1716183328162476310,0.092,,,,4.570112722
1716183328170170051,0.075,,,,4.577806463
1716183328177863792,0.078,,,,4.585500204
1716183328185557533,0.083,,,,4.593193945
1716183328193251274,0.078,,,,4.600887686
1716183328200945015,0.078,,,,4.608581427
1716183328208638756,0.087,,,,4.616275168
1716183328216332497,0.087,,,,4.623968909
1716183328224026238,0.085,,,,4.63166265
1716183328231719979,0.085,,,,4.639356391
1716183328239413720,0.078,,,,4.647050132
1716183328247107461,0.051,,,,4.654743873
1716183328254801202,0.065,,,,4.662437614
1716183328262494943,0.356,,,,4.670131355
1716183328270188684,0.915,,,,4.677825096
1716183328277882425,1.042,,,,4.685518837
1716183328285576166,0.183,,,,4.693212578
1716183328293269907,-0.607,,,,4.700906319
1716183328300963648,-0.229,,,,4.70860006
1716183328308657389,0.222,,,,4.716293801
1716183328316351130,0.012,,,,4.723987542
1716183328324044871,-0.048,,,,4.731681283
1716183328331738612,0.107,,,,4.739375024
1716183328339432353,0.075,,,,4.747068765
1716183328347126094,0.031,,,,4.754762506
1716183328354819835,0.083,,,,4.762456247
1716183328362513576,0.087,,,,4.770149988
1716183328370207317,0.063,,,,4.777843729
1716183328377901058,0.078,,,,4.78553747
1716183328385594799,0.092,,,,4.793231211
1716183328393288540,0.087,,,,4.800924952
1716183328400982281,0.09,,,,4.808618693
1716183328408676022,0.095,,,,4.816312434
1716183328416369763,0.092,,,,4.824006175
1716183328424063504,0.092,,,,4.831699916
1716183328431757245,0.092,,,,4.839393657
1716183328439450986,0.095,,,,4.847087398
1716183328447144727,0.104,,,,4.854781139
1716183328454838468,0.107,,,,4.86247488
1716183328462532209,0.107,,,,4.870168621
1716183328470225950,0.124,,,,4.877862362
1716183328477919691,0.139,,,,4.885556103
1716183328485613432,0.144,,,,4.893249844
1716183328493307173,0.146,,,,4.900943585
1716183328501000914,0.153,,,,4.908637326
1716183328508694655,0.156,,,,4.916331067
1716183328516388396,0.148,,,,4.924024808
1716183328524082137,0.139,,,,4.931718549
1716183328531775878,0.124,,,,4.93941229
1716183328539469619,0.102,,,,4.947106031
1716183328547163360,0.085,,,,4.954799772
1716183328554857101,0.068,,,,4.962493513
1716183328562550842,0.058,,,,4.970187254
1716183328570244583,0.053,,,,4.977880995
1716183328577938324,0.051,,,,4.985574736
1716183328585632065,0.046,,,,4.993268477
1716183328593325806,0.039,,,,5.000962218
1716183328601019547,0.031,,,,5.008655959
1716183328608713288,0.029,,,,5.0163497
1716183328616407029,0.031,,,,5.024043441
1716183328624100770,0.036,,,,5.031737182
1716183328631794511,0.046,,,,5.039430923
1716183328639488252,0.051,,,,5.047124664
1716183328647182000,0.048,78.0,751.0,,5.054818412
1716183328654875741,0.048,,,,5.062512153
1716183328662569482,0.058,,,,5.070205894
1716183328670263223,0.061,,,,5.077899635
1716183328677956964,0.058,,,,5.085593376
1716183328685650705,0.063,,,,5.093287117
1716183328693344446,0.063,,,,5.100980858
1716183328701038187,0.053,,,,5.108674599
1716183328708731928,0.051,,,,5.11636834
1716183328716425669,0.061,,,,5.124062081
1716183328724119410,0.065,,,,5.131755822
1716183328731813151,0.058,,,,5.139449563
1716183328739506892,0.058,,,,5.147143304
1716183328747200633,0.065,,,,5.154837045
1716183328754894374,0.07,,,,5.162530786
1716183328762588115,0.068,,,,5.170224527
1716183328770281856,0.065,,,,5.177918268
1716183328777975597,0.07,,,,5.185612009
1716183328785669338,0.078,,,,5.19330575
1716183328793363079,0.08,,,,5.200999491
1716183328801056820,0.073,,,,5.208693232
1716183328808750561,0.068,,,,5.216386973
1716183328816444302,0.073,,,,5.224080714
1716183328824138043,0.073,,,,5.231774455
1716183328831831784,0.07,,,,5.239468196
1716183328839525525,0.068,,,,5.247161937
1716183328847219266,0.063,,,,5.254855678
1716183328854913007,0.063,,,,5.262549419
1716183328862606748,0.065,,,,5.27024316
1716183328870300489,0.063,,,,5.277936901
1716183328877994230,0.07,,,,5.285630642
1716183328885687971,0.092,,,,5.293324383
1716183328893381712,0.109,,,,5.301018124
1716183328901075453,0.104,,,,5.308711865
1716183328908769194,0.09,,,,5.316405606
1716183328916462935,0.085,,,,5.324099347
1716183328924156676,0.087,,,,5.331793088
1716183328931850417,0.075,,,,5.339486829
1716183328939544158,0.068,,,,5.34718057
1716183328947237899,0.07,,,,5.354874311
1716183328954931640,0.073,,,,5.362568052
1716183328962625381,0.075,,,,5.370261793
1716183328970319122,0.073,,,,5.377955534
1716183328978012863,0.073,,,,5.385649275
1716183328985706604,0.078,,,,5.393343016
1716183328993400345,0.075,,,,5.401036757
1716183329001094086,0.048,,,,5.408730498
1716183329008787827,0.014,,,,5.416424239
1716183329016481568,0.141,,,,5.42411798
1716183329024175309,0.617,,,,5.431811721
1716183329031869050,1.064,,,,5.439505462
1716183329039562791,0.629,,,,5.447199203
1716183329047256532,-0.415,,,,5.454892944
1716183329054950273,-0.5630000000000001,,,,5.462586685
1716183329062644014,0.085,,,,5.470280426
1716183329070337755,0.151,,,,5.477974167
1716183329078031496,-0.09,,,,5.485667908
1716183329085725237,0.024,,,,5.493361649
1716183329093418978,0.087,,,,5.50105539
1716183329101112719,-0.009,,,,5.508749131
1716183329108806460,0.004,,,,5.516442872
1716183329116500201,0.061,,,,5.524136613
1716183329124193942,0.036,,,,5.531830354
1716183329131887683,0.024,,,,5.539524095
1716183329139581424,0.051,,,,5.547217836
1716183329147275165,0.061,,,,5.554911577
1716183329154968906,0.053,,,,5.562605318
1716183329162662647,0.056,,,,5.570299059
1716183329170356388,0.051,,,,5.5779928
1716183329178050129,0.039,,,,5.585686541
1716183329185743870,0.048,,,,5.593380282
1716183329193437611,0.058,,,,5.601074023
1716183329201131352,0.058,,,,5.608767764
1716183329208825098,0.068,,,,5.61646151
1716183329216518630,0.078,,,,5.624155042
1716183329224212162,0.08,,,,5.631848574
1716183329231905694,0.087,,,,5.639542106
1716183329239599226,0.097,,,,5.647235638
1716183329247292758,0.102,,,,5.65492917
1716183329254986290,0.109,,,,5.662622702
1716183329262679822,0.119,,,,5.670316234
1716183329270373354,0.119,,,,5.678009766
1716183329278066886,0.104,,,,5.685703298
1716183329285760418,0.09,,,,5.69339683
1716183329293453950,0.07,,,,5.701090362
1716183329301147482,0.046,,,,5.708783894
1716183329308841014,0.034,,,,5.716477426
1716183329316534546,0.029,,,,5.724170958
1716183329324228078,0.024,,,,5.73186449
1716183329331921610,0.017,,,,5.739558022
1716183329339615142,0.004,,,,5.747251554
1716183329347308674,0.0,,,,5.754945086
1716183329355002206,0.012,,,,5.762638618
1716183329362695738,0.017,,,,5.77033215
1716183329370389270,0.019,,,,5.778025682
1716183329378082802,0.024,,,,5.785719214
1716183329385776334,0.026,,,,5.793412746
1716183329393469866,0.026,,,,5.801106278
1716183329401163398,0.031,,,,5.80879981
1716183329408856930,0.039,,,,5.816493342
1716183329416550462,0.046,,,,5.824186874
1716183329424243994,0.053,,,,5.831880406
1716183329431937526,0.058,,,,5.839573938
1716183329439631058,0.058,,,,5.84726747
1716183329447324590,0.058,,,,5.854961002
1716183329455018122,0.058,,,,5.862654534
1716183329462711654,0.056,,,,5.870348066
1716183329470405186,0.061,,,,5.878041598
1716183329478098718,0.068,,,,5.88573513
1716183329485792250,0.078,,,,5.893428662
1716183329493485782,0.078,,,,5.901122194
1716183329501179314,0.078,,,,5.908815726
1716183329508872846,0.08,,,,5.916509258
1716183329516566378,0.078,,,,5.92420279
1716183329524259910,0.078,,,,5.931896322
1716183329531953442,0.08,,,,5.939589854
1716183329539646974,0.075,,,,5.947283386
1716183329547340506,0.073,,,,5.954976918
1716183329555034038,0.083,,,,5.96267045
1716183329562727570,0.09,,,,5.970363982
1716183329570421102,0.085,,,,5.978057514
1716183329578114634,0.08,,,,5.985751046
1716183329585808166,0.085,,,,5.993444578
1716183329593501698,0.087,,,,6.00113811
1716183329601195230,0.078,,,,6.008831642
1716183329608888762,0.063,,,,6.016525174
1716183329616582294,0.063,,,,6.024218706
1716183329624275826,0.068,,,,6.031912238
1716183329631969358,0.068,,,,6.03960577
1716183329639662890,0.09,,,,6.047299302
1716183329647356422,0.112,,,,6.054992834
1716183329655049954,0.107,,,,6.062686366
1716183329662743486,0.109,,,,6.070379898
1716183329670437018,0.119,,,,6.07807343
1716183329678130550,0.107,,,,6.085766962
1716183329685824082,0.09,,,,6.093460494
1716183329693517614,0.085,,,,6.101154026
1716183329701211146,0.09,,,,6.108847558
1716183329708904678,0.092,,,,6.11654109
1716183329716598210,0.092,,,,6.124234622
1716183329724291742,0.097,,,,6.131928154
1716183329731985274,0.102,,,,6.139621686
1716183329739678806,0.102,,,,6.147315218
1716183329747372338,0.095,,,,6.15500875
1716183329755065870,0.087,,,,6.162702282
1716183329762759402,0.075,,,,6.170395814
1716183329770452938,0.053,78.0,751.0,,6.17808935
1716183329778146470,0.195,,749.0,,6.185782882
1716183329785840002,0.673,,,,6.193476414
1716183329793533534,1.044,,,,6.201169946
1716183329801227066,0.517,,,,6.208863478
1716183329808920598,-0.461,,,,6.21655701
1716183329816614130,-0.463,,,,6.224250542
1716183329824307662,0.156,,,,6.231944074
1716183329832001194,0.134,,,,6.239637606
1716183329839694726,-0.08,,,,6.247331138
1716183329847388258,0.061,,,,6.25502467
1716183329855081790,0.109,,,,6.262718202
1716183329862775322,0.029,,,,6.270411734
1716183329870468854,0.065,,,,6.278105266
1716183329878162386,0.107,,,,6.285798798
1716183329885855918,0.083,,,,6.29349233
1716183329893549450,0.085,,,,6.301185862
1716183329901242982,0.117,,,,6.308879394
1716183329908936514,0.104,,,,6.316572926
1716183329916630046,0.073,,,,6.324266458
1716183329924323578,0.056,,,,6.33195999
1716183329932017110,0.07,,,,6.339653522
1716183329939710642,0.083,,,,6.347347054
1716183329947404174,0.08,,,,6.355040586
1716183329955097706,0.087,,,,6.362734118
1716183329962791238,0.102,,,,6.37042765
1716183329970484770,0.102,,,,6.378121182
1716183329978178302,0.104,,,,6.385814714
1716183329985871834,0.119,,,,6.393508246
1716183329993565366,0.136,,,,6.401201778
1716183330001258898,0.144,,,,6.40889531
1716183330008952430,0.141,,,,6.416588842
1716183330016645962,0.146,,,,6.424282374
1716183330024339494,0.163,,,,6.431975906
1716183330032033026,0.156,,,,6.439669438
1716183330039726558,0.139,,,,6.44736297
1716183330047420090,0.134,,,,6.455056502
1716183330055113622,0.124,,,,6.462750034
1716183330062807154,0.104,,,,6.470443566
1716183330070500686,0.08,,,,6.478137098
1716183330078194218,0.061,,,,6.48583063
1716183330085887750,0.063,,,,6.493524162
1716183330093581282,0.07,,,,6.501217694
1716183330101274814,0.056,,,,6.508911226
1716183330108968346,0.034,,,,6.516604758
1716183330116661878,0.031,,,,6.52429829
1716183330124355410,0.046,,,,6.531991822
1716183330132048942,0.061,,,,6.539685354
1716183330139742474,0.063,,,,6.547378886
1716183330147436006,0.058,,,,6.555072418
1716183330155129538,0.056,,,,6.56276595
1716183330162823070,0.068,,,,6.570459482
1716183330170516602,0.073,,,,6.578153014
1716183330178210134,0.051,,,,6.585846546
1716183330185903666,0.056,,,,6.593540078
1716183330193597198,0.092,,,,6.60123361
1716183330201290730,0.114,,,,6.608927142
1716183330208984262,0.124,,,,6.616620674
1716183330216677794,0.117,,,,6.624314206
1716183330224371326,0.08,,,,6.632007738
1716183330232064858,0.056,,,,6.63970127
1716183330239758390,0.068,,,,6.647394802
1716183330247451922,0.083,,,,6.655088334
1716183330255145454,0.087,,,,6.662781866
1716183330262838986,0.104,,,,6.670475398
1716183330270532518,0.114,,,,6.67816893
1716183330278226050,0.114,,,,6.685862462
1716183330285919582,0.117,,,,6.693555994
1716183330293613114,0.109,,,,6.701249526
1716183330301306646,0.09,,,,6.708943058
1716183330309000178,0.09,,,,6.71663659
1716183330316693710,0.09,,,,6.724330122
1716183330324387242,0.053,,,,6.732023654
1716183330332080780,0.056,,,,6.739717192
1716183330339774730,0.097,,,,6.747411142
1716183330347468680,0.092,,,,6.755105092
1716183330355162630,0.056,,,,6.762799042
1716183330362856580,0.075,,,,6.770492992
1716183330370550530,0.104,,,,6.778186942
1716183330378244480,0.068,,,,6.785880892
1716183330385938430,0.041,,,,6.793574842
1716183330393632380,0.078,,,,6.801268792
1716183330401326330,0.1,,,,6.808962742
1716183330409020280,0.085,,,,6.816656692
1716183330416714230,0.092,,,,6.824350642
1716183330424408180,0.112,,,,6.832044592
1716183330432102130,0.122,,,,6.839738542
1716183330439796080,0.119,,,,6.847432492
1716183330447490030,0.095,,,,6.855126442
1716183330455183980,0.065,,,,6.862820392
1716183330462877930,0.063,,,,6.870514342
1716183330470571880,0.078,,,,6.878208292
1716183330478265830,0.078,,,,6.885902242
1716183330485959780,0.085,,,,6.893596192
1716183330493653730,0.109,,,,6.901290142
1716183330501347680,0.102,,,,6.908984092
1716183330509041630,0.068,,,,6.916678042
1716183330516735580,0.061,,,,6.924371992
1716183330524429530,0.046,,,,6.932065942
1716183330532123480,0.046,,,,6.939759892
1716183330539817430,0.312,,,,6.947453842
1716183330547511380,0.861,,,,6.955147792
1716183330555205330,1.013,,,,6.962841742
1716183330562899280,0.197,,,,6.970535692
1716183330570593230,-0.578,,,,6.978229642
1716183330578287180,-0.231,,,,6.985923592
1716183330585981130,0.19,,,,6.993617542
1716183330593675080,-0.024,,,,7.001311492
1716183330601369030,-0.048,,,,7.009005442
1716183330609062980,0.131,,,,7.016699392
1716183330616756930,0.063,,,,7.024393342
1716183330624450880,0.014,,,,7.032087292
1716183330632144830,0.109,,,,7.039781242
1716183330639838780,0.092,,,,7.047475192
1716183330647532730,0.031,,,,7.055169142
1716183330655226680,0.07,,,,7.062863092
1716183330662920630,0.08,,,,7.070557042
1716183330670614580,0.043,,,,7.078250992
1716183330678308530,0.078,,,,7.085944942
1716183330686002480,0.104,,,,7.093638892
1716183330693696430,0.087,,,,7.101332842
1716183330701390380,0.107,,,,7.109026792
1716183330709084330,0.097,,,,7.116720742
1716183330716778280,0.053,,,,7.124414692
1716183330724472230,0.087,,,,7.132108642
1716183330732166180,0.112,,,,7.139802592
1716183330739860130,0.102,,,,7.147496542
1716183330747554080,0.134,,,,7.155190492
1716183330755248030,0.166,,,,7.162884442
1716183330762941980,0.158,,,,7.170578392
1716183330770635930,0.161,,,,7.178272342
1716183330778329880,0.166,,,,7.185966292
1716183330786023830,0.129,,,,7.193660242
1716183330793717780,0.117,,,,7.201354192
1716183330801411730,0.153,,,,7.209048142
1716183330809105680,0.148,,,,7.216742092
1716183330816799630,0.104,,,,7.224436042
1716183330824493580,0.095,,,,7.232129992
1716183330832187530,0.092,,,,7.239823942
1716183330839881480,0.075,,,,7.247517892
1716183330847575430,0.053,,,,7.255211842
1716183330855269380,0.029,,,,7.262905792
1716183330862963330,0.034,,,,7.270599742
1716183330870657280,0.061,,,,7.278293692
1716183330878351230,0.063,,,,7.285987642
1716183330886045180,0.068,,,,7.293681592
1716183330893739138,0.083,78.0,758.0,,7.30137555
1716183330901432670,0.068,,,,7.309069082
1716183330909126202,0.048,,,,7.316762614
1716183330916819734,0.043,,,,7.324456146
1716183330924513266,0.058,,,,7.332149678
1716183330932206798,0.09,,,,7.33984321
1716183330939900330,0.104,,,,7.347536742
1716183330947593862,0.104,,,,7.355230274
1716183330955287394,0.087,,,,7.362923806
1716183330962980926,0.073,,,,7.370617338
1716183330970674458,0.083,,,,7.37831087
1716183330978367990,0.083,,,,7.386004402
1716183330986061522,0.083,,,,7.393697934
1716183330993755054,0.109,,,,7.401391466
1716183331001448586,0.1,,,,7.409084998
1716183331009142118,0.083,,,,7.41677853
1716183331016835650,0.107,,,,7.424472062
1716183331024529182,0.122,,,,7.432165594
1716183331032222714,0.085,,,,7.439859126
1716183331039916246,0.063,,,,7.447552658
1716183331047609778,0.097,,,,7.45524619
1716183331055303310,0.102,,,,7.462939722
1716183331062996842,0.061,,,,7.470633254
1716183331070690374,0.058,,,,7.478326786
1716183331078383906,0.092,,,,7.486020318
1716183331086077438,0.112,,,,7.49371385
1716183331093770970,0.104,,,,7.501407382
1716183331101464502,0.087,,,,7.509100914
1716183331109158034,0.09,,,,7.516794446
1716183331116851566,0.097,,,,7.524487978
1716183331124545098,0.058,,,,7.53218151
1716183331132238630,0.041,,,,7.539875042
1716183331139932162,0.068,,,,7.547568574
1716183331147625694,0.07,,,,7.555262106
1716183331155319226,0.065,,,,7.562955638
1716183331163012758,0.1,,,,7.57064917
1716183331170706290,0.134,,,,7.578342702
1716183331178399822,0.114,,,,7.586036234
1716183331186093354,0.107,,,,7.593729766
1716183331193786886,0.141,,,,7.601423298
1716183331201480418,0.104,,,,7.60911683
1716183331209173950,0.039,,,,7.616810362
1716183331216867482,0.068,,,,7.624503894
1716183331224561014,0.109,,,,7.632197426
1716183331232254546,0.09,,,,7.639890958
1716183331239948078,0.085,,,,7.64758449
1716183331247641610,0.1,,,,7.655278022
1716183331255335142,0.09,,,,7.662971554
1716183331263028674,0.095,,,,7.670665086
1716183331270722206,0.107,,,,7.678358618
1716183331278415738,0.073,,,,7.68605215
1716183331286109270,0.036,,,,7.693745682
1716183331293802802,0.065,,,,7.701439214
1716183331301496334,0.275,,,,7.709132746
1716183331309189866,0.756,,,,7.716826278
1716183331316883398,1.018,,,,7.72451981
1716183331324576930,0.329,,,,7.732213342
1716183331332270462,-0.581,,,,7.739906874
1716183331339963994,-0.363,,,,7.747600406
1716183331347657526,0.209,,,,7.755293938
1716183331355351058,0.046,,,,7.76298747
1716183331363044590,-0.097,,,,7.770681002
1716183331370738122,0.109,,,,7.778374534
1716183331378431654,0.117,,,,7.786068066
1716183331386125186,0.029,,,,7.793761598
1716183331393818718,0.09,,,,7.80145513
1716183331401512250,0.114,,,,7.809148662
1716183331409205782,0.065,,,,7.816842194
1716183331416899314,0.078,,,,7.824535726
1716183331424592846,0.102,,,,7.832229258
1716183331432286378,0.085,,,,7.83992279
1716183331439979910,0.063,,,,7.847616322
1716183331447673442,0.07,,,,7.855309854
1716183331455366978,0.097,,,,7.86300339
1716183331463060928,0.104,,,,7.87069734
1716183331470754878,0.102,,,,7.87839129
1716183331478448828,0.122,,,,7.88608524
1716183331486142778,0.148,,,,7.89377919
1716183331493836728,0.146,,,,7.90147314
1716183331501530678,0.122,,,,7.90916709
1716183331509224628,0.112,,,,7.91686104
1716183331516918578,0.122,,,,7.92455499
1716183331524612528,0.124,,,,7.93224894
1716183331532306478,0.134,,,,7.93994289
1716183331540000428,0.163,,,,7.94763684
1716183331547694378,0.175,,,,7.95533079
1716183331555388328,0.156,,,,7.96302474
1716183331563082278,0.156,,,,7.97071869
1716183331570776228,0.136,,,,7.97841264
1716183331578470178,0.056,,,,7.98610659
1716183331586164128,0.031,,,,7.99380054
1716183331593858078,0.065,,,,8.00149449
1716183331601552028,0.051,,,,8.00918844
1716183331609245978,0.039,,,,8.01688239
1716183331616939928,0.063,,,,8.02457634
1716183331624633878,0.051,,,,8.03227029
1716183331632327828,0.029,,,,8.03996424
1716183331640021778,0.009,,,,8.04765819
1716183331647715728,-0.021,,,,8.05535214
1716183331655409678,-0.009,,,,8.06304609
1716183331663103628,0.034,,,,8.07074004
1716183331670797578,0.034,,,,8.07843399
1716183331678491528,0.024,,,,8.08612794
1716183331686185478,0.053,,,,8.09382189
1716183331693879428,0.063,,,,8.10151584
1716183331701573378,0.053,,,,8.10920979
1716183331709267328,0.083,,,,8.11690374
1716183331716961278,0.087,,,,8.12459769
1716183331724655228,0.036,,,,8.13229164
1716183331732349178,0.048,,,,8.13998559
1716183331740043128,0.08,,,,8.14767954
1716183331747737078,0.048,,,,8.15537349
1716183331755431028,0.048,,,,8.16306744
1716183331763124978,0.097,,,,8.17076139
1716183331770818928,0.092,,,,8.17845534
1716183331778512878,0.073,,,,8.18614929
1716183331786206828,0.102,,,,8.19384324
1716183331793900778,0.092,,,,8.20153719
1716183331801594728,0.056,,,,8.20923114
1716183331809288678,0.08,,,,8.21692509
1716183331816982628,0.08,,,,8.22461904
1716183331824676578,0.046,,,,8.23231299
1716183331832370528,0.068,,,,8.24000694
1716183331840064478,0.114,,,,8.24770089
1716183331847758428,0.104,,,,8.25539484
1716183331855452378,0.083,,,,8.26308879
1716183331863146328,0.095,,,,8.27078274
1716183331870840278,0.092,,,,8.27847669
1716183331878534228,0.061,,,,8.28617064
1716183331886228178,0.068,,,,8.29386459
1716183331893922128,0.09,,,,8.30155854
1716183331901616078,0.078,,,,8.30925249
1716183331909310028,0.075,,,,8.31694644
1716183331917003978,0.114,,,,8.32464039
1716183331924697928,0.117,,,,8.33233434
1716183331932391878,0.092,,,,8.34002829
1716183331940085828,0.131,,,,8.34772224
1716183331947779778,0.141,,,,8.35541619
1716183331955473728,0.095,,,,8.36311014
1716183331963167678,0.1,,,,8.37080409
1716183331970861628,0.112,,,,8.37849804
1716183331978555578,0.087,,,,8.38619199
1716183331986249528,0.104,,,,8.39388594
1716183331993943478,0.122,,,,8.40157989
1716183332001637428,0.097,,,,8.40927384
1716183332009331378,0.097,,,,8.41696779
1716183332017025336,0.104,78.0,761.0,,8.424661748
1716183332024719007,0.063,,,,8.432355419
1716183332032412678,0.043,,,,8.44004909
1716183332040106349,0.087,,,,8.447742761
1716183332047800020,0.109,,,,8.455436432
1716183332055493691,0.085,,,,8.463130103
1716183332063187362,0.209,,,,8.470823774
1716183332070881033,0.676,,,,8.478517445
1716183332078574704,1.027,,,,8.486211116
1716183332086268375,0.427,,,,8.493904787
1716183332093962046,-0.6,,,,8.501598458
1716183332101655717,-0.539,,,,8.509292129
1716183332109349388,0.161,,,,8.5169858
1716183332117043059,0.153,,,,8.524679471
1716183332124736730,-0.056,,,,8.532373142
1716183332132430401,0.114,,,,8.540066813
1716183332140124072,0.161,,,,8.547760484
1716183332147817743,0.024,,,,8.555454155
1716183332155511414,0.019,,,,8.563147826
1716183332163205085,0.075,,,,8.570841497
1716183332170898756,0.075,,,,8.578535168
1716183332178592427,0.085,,,,8.586228839
1716183332186286098,0.102,,,,8.59392251
1716183332193979769,0.095,,,,8.601616181
1716183332201673440,0.102,,,,8.609309852
1716183332209367111,0.119,,,,8.617003523
1716183332217060782,0.117,,,,8.624697194
1716183332224754453,0.095,,,,8.632390865
1716183332232448124,0.095,,,,8.640084536
1716183332240141795,0.112,,,,8.647778207
1716183332247835466,0.102,,,,8.655471878
1716183332255529137,0.119,,,,8.663165549
1716183332263222808,0.168,,,,8.67085922
1716183332270916479,0.166,,,,8.678552891
1716183332278610150,0.166,,,,8.686246562
1716183332286303821,0.202,,,,8.693940233
1716183332293997492,0.173,,,,8.701633904
1716183332301691163,0.141,,,,8.709327575
1716183332309384834,0.185,,,,8.717021246
1716183332317078505,0.192,,,,8.724714917
1716183332324772176,0.139,,,,8.732408588
1716183332332465847,0.126,,,,8.740102259
1716183332340159518,0.144,,,,8.74779593
1716183332347853189,0.119,,,,8.755489601
1716183332355546860,0.085,,,,8.763183272
1716183332363240531,0.075,,,,8.770876943
1716183332370934202,0.063,,,,8.778570614
1716183332378627873,0.043,,,,8.786264285
1716183332386321544,0.039,,,,8.793957956
1716183332394015215,0.051,,,,8.801651627
1716183332401708886,0.048,,,,8.809345298
1716183332409402557,0.056,,,,8.817038969
1716183332417096228,0.09,,,,8.82473264
1716183332424789899,0.07,,,,8.832426311
1716183332432483570,0.009,,,,8.840119982
1716183332440177241,0.056,,,,8.847813653
1716183332447870912,0.112,,,,8.855507324
1716183332455564583,0.061,,,,8.863200995
1716183332463258254,0.051,,,,8.870894666
1716183332470951925,0.119,,,,8.878588337
1716183332478645596,0.114,,,,8.886282008
1716183332486339267,0.08,,,,8.893975679
1716183332494032938,0.073,,,,8.90166935
1716183332501726609,0.053,,,,8.909363021
1716183332509420280,0.061,,,,8.917056692
1716183332517113951,0.104,,,,8.924750363
1716183332524807622,0.117,,,,8.932444034
1716183332532501293,0.107,,,,8.940137705
1716183332540194964,0.097,,,,8.947831376
1716183332547888635,0.068,,,,8.955525047
1716183332555582306,0.068,,,,8.963218718
1716183332563275977,0.114,,,,8.970912389
1716183332570969648,0.107,,,,8.97860606
1716183332578663350,0.051,,,,8.986299762
1716183332586357160,0.063,,,,8.993993572
1716183332594050970,0.107,,,,9.001687382
1716183332601744780,0.087,,,,9.009381192
1716183332609438590,0.068,,,,9.017075002
1716183332617132400,0.102,,,,9.024768812
1716183332624826210,0.097,,,,9.032462622
1716183332632520020,0.07,,,,9.040156432
1716183332640213830,0.085,,,,9.047850242
1716183332647907640,0.065,,,,9.055544052
1716183332655601450,0.031,,,,9.063237862
1716183332663295260,0.063,,,,9.070931672
1716183332670989070,0.073,,,,9.078625482
1716183332678682880,0.034,,,,9.086319292
1716183332686376690,0.061,,,,9.094013102
1716183332694070500,0.131,,,,9.101706912
1716183332701764310,0.129,,,,9.109400722
1716183332709458120,0.092,,,,9.117094532
1716183332717151930,0.092,,,,9.124788342
1716183332724845740,0.07,,,,9.132482152
1716183332732539550,0.029,,,,9.140175962
1716183332740233360,0.056,,,,9.147869772
1716183332747927170,0.083,,,,9.155563582
1716183332755620980,0.061,,,,9.163257392
1716183332763314790,0.063,,,,9.170951202
1716183332771008600,0.092,,,,9.178645012
1716183332778702410,0.08,,,,9.186338822
1716183332786396220,0.043,,,,9.194032632
1716183332794090030,0.031,,,,9.201726442
1716183332801783840,0.039,,,,9.209420252
1716183332809477650,0.043,,,,9.217114062
1716183332817171460,0.034,,,,9.224807872
1716183332824865270,0.117,,,,9.232501682
1716183332832559080,0.52,,,,9.240195492
1716183332840252890,1.0,,,,9.247889302
1716183332847946700,0.725,,,,9.255583112
1716183332855640510,-0.332,,,,9.263276922
1716183332863334320,-0.6950000000000001,,,,9.270970732
1716183332871028130,-0.021,,,,9.278664542
1716183332878721940,0.2,,,,9.286358352
1716183332886415750,-0.09,,,,9.294052162
1716183332894109560,-0.004,,,,9.301745972
1716183332901803370,0.134,,,,9.309439782
1716183332909497180,0.034,,,,9.317133592
1716183332917190990,0.009,,,,9.324827402
1716183332924884800,0.085,,,,9.332521212
1716183332932578610,0.075,,,,9.340215022
1716183332940272420,0.017,,,,9.347908832
1716183332947966230,0.024,,,,9.355602642
1716183332955660040,0.058,,,,9.363296452
1716183332963353850,0.07,,,,9.370990262
1716183332971047660,0.085,,,,9.378684072
1716183332978741470,0.107,,,,9.386377882
1716183332986435280,0.085,,,,9.394071692
1716183332994129090,0.053,,,,9.401765502
1716183333001822900,0.095,,,,9.409459312
1716183333009516710,0.117,,,,9.417153122
1716183333017210520,0.07,,,,9.424846932
1716183333024904330,0.08,,,,9.432540742
1716183333032598140,0.136,,,,9.440234552
1716183333040291950,0.139,,,,9.447928362
1716183333047985760,0.109,,,,9.455622172
1716183333055679570,0.124,,,,9.463315982
1716183333063373380,0.158,,,,9.471009792
1716183333071067190,0.166,,,,9.478703602
1716183333078761000,0.166,,,,9.486397412
1716183333086454810,0.146,,,,9.494091222
1716183333094148620,0.092,,,,9.501785032
1716183333101842430,0.087,,,,9.509478842
1716183333109536240,0.09,,,,9.517172652
1716183333117230050,0.029,,,,9.524866462
1716183333124923860,0.007,,,,9.532560272
1716183333132617670,0.036,,,,9.540254082
1716183333140311534,0.024,78.0,759.0,,9.547947946
1716183333148005066,-0.004,,763.0,,9.555641478
1716183333155698598,-0.002,,,,9.56333501
1716183333163392130,0.009,,,,9.571028542
1716183333171085662,0.021,,,,9.578722074
1716183333178779194,0.026,,,,9.586415606
1716183333186472726,-0.012,,,,9.594109138
1716183333194166258,-0.053,,,,9.60180267
1716183333201859790,-0.017,,,,9.609496202
1716183333209553322,0.024,,,,9.617189734
1716183333217246854,0.007,,,,9.624883266
1716183333224940386,0.012,,,,9.632576798
1716183333232633918,0.029,,,,9.64027033
1716183333240327450,0.026,,,,9.647963862
1716183333248020982,0.024,,,,9.655657394
1716183333255714514,0.029,,,,9.663350926
1716183333263408046,0.031,,,,9.671044458
1716183333271101578,0.041,,,,9.67873799
1716183333278795110,0.051,,,,9.686431522
1716183333286488642,0.024,,,,9.694125054
1716183333294182174,-0.002,,,,9.701818586
1716183333301875706,0.024,,,,9.709512118
1716183333309569238,0.051,,,,9.71720565
1716183333317262770,0.034,,,,9.724899182
1716183333324956302,0.026,,,,9.732592714
1716183333332649834,0.043,,,,9.740286246
1716183333340343366,0.051,,,,9.747979778
1716183333348036898,0.039,,,,9.75567331
1716183333355730430,0.041,,,,9.763366842
1716183333363423962,0.051,,,,9.771060374
1716183333371117494,0.031,,,,9.778753906
1716183333378811026,0.021,,,,9.786447438
1716183333386504558,0.043,,,,9.79414097
1716183333394198090,0.056,,,,9.801834502
1716183333401891622,0.063,,,,9.809528034
1716183333409585154,0.063,,,,9.817221566
1716183333417278686,0.043,,,,9.824915098
1716183333424972218,0.036,,,,9.83260863
1716183333432665750,0.051,,,,9.840302162
1716183333440359282,0.056,,,,9.847995694
1716183333448052814,0.046,,,,9.855689226
1716183333455746346,0.053,,,,9.863382758
1716183333463439878,0.083,,,,9.87107629
1716183333471133410,0.087,,,,9.878769822
1716183333478826942,0.083,,,,9.886463354
1716183333486520474,0.1,,,,9.894156886
1716183333494214006,0.085,,,,9.901850418
1716183333501907538,0.053,,,,9.90954395
1716183333509601070,0.065,,,,9.917237482
1716183333517294602,0.07,,,,9.924931014
1716183333524988134,0.029,,,,9.932624546
1716183333532681666,0.024,,,,9.940318078
1716183333540375198,0.048,,,,9.94801161
1716183333548068730,0.036,,,,9.955705142
1716183333555762262,0.031,,,,9.963398674
1716183333563455794,0.056,,,,9.971092206
1716183333571149326,0.056,,,,9.978785738
1716183333578842858,0.039,,,,9.98647927
1716183333586536390,0.019,,,,9.994172802
1716183333594229922,0.068,,,,10.001866334
1716183333601923454,0.397,,,,10.009559866
1716183333609616986,0.898,,,,10.017253398
1716183333617310518,0.861,,,,10.02494693
1716183333625004050,-0.039,,,,10.032640462
1716183333632697582,-0.676,,,,10.040333994
1716183333640391114,-0.212,,,,10.048027526
1716183333648084646,0.173,,,,10.055721058
1716183333655778178,-0.063,,,,10.06341459
1716183333663471710,-0.083,,,,10.071108122
1716183333671165242,0.068,,,,10.078801654
1716183333678858774,0.017,,,,10.086495186
1716183333686552306,-0.004,,,,10.094188718
1716183333694245838,0.053,,,,10.10188225
1716183333701939374,0.007,79.0,763.0,,10.109575786
1716183333709632906,-0.034,,,,10.117269318
1716183333717326438,0.017,,,,10.12496285
1716183333725019970,0.041,,,,10.132656382
1716183333732713502,0.019,,,,10.140349914
1716183333740407034,0.026,,,,10.148043446
1716183333748100566,0.041,,,,10.155736978
1716183333755794098,0.048,,,,10.16343051
1716183333763487630,0.058,,,,10.171124042
1716183333771181162,0.07,,,,10.178817574
1716183333778874694,0.065,,,,10.186511106
1716183333786568226,0.036,,,,10.194204638
1716183333794261758,0.043,,,,10.20189817
1716183333801955290,0.08,,,,10.209591702
1716183333809648822,0.08,,,,10.217285234
1716183333817342354,0.087,,,,10.224978766
1716183333825035886,0.134,,,,10.232672298
1716183333832729418,0.144,,,,10.24036583
1716183333840422950,0.134,,,,10.248059362
1716183333848116482,0.148,,,,10.255752894
1716183333855810014,0.148,,,,10.263446426
1716183333863503546,0.131,,,,10.271139958
1716183333871197078,0.1,,,,10.27883349
1716183333878890610,0.046,,,,10.286527022
1716183333886584142,0.002,,,,10.294220554
1716183333894277674,-0.002,,,,10.301914086
1716183333901971206,0.002,,,,10.309607618
1716183333909664738,0.002,,,,10.31730115
1716183333917358270,-0.004,,,,10.324994682
1716183333925051802,-0.004,,,,10.332688214
1716183333932745334,0.009,,,,10.340381746
1716183333940438866,0.021,,,,10.348075278
1716183333948132398,0.019,,,,10.35576881
1716183333955825930,0.019,,,,10.363462342
1716183333963519462,0.021,,,,10.371155874
1716183333971212994,0.004,,,,10.378849406
1716183333978906526,-0.004,,,,10.386542938
1716183333986600058,0.021,,,,10.39423647
1716183333994293590,0.041,,,,10.401930002
1716183334001987122,0.039,,,,10.409623534
1716183334009680654,0.041,,,,10.417317066
1716183334017374186,0.043,,,,10.425010598
1716183334025067718,0.048,,,,10.43270413
1716183334032761250,0.053,,,,10.440397662
1716183334040454782,0.041,,,,10.448091194
1716183334048148314,0.034,,,,10.455784726
1716183334055841846,0.039,,,,10.463478258
1716183334063535378,0.043,,,,10.47117179
1716183334071228910,0.056,,,,10.478865322
1716183334078922442,0.068,,,,10.486558854
1716183334086615974,0.075,,,,10.494252386
1716183334094309506,0.08,,,,10.501945918
1716183334102003038,0.078,,,,10.50963945
1716183334109696570,0.053,,,,10.517332982
1716183334117390102,0.039,,,,10.525026514
1716183334125083634,0.063,,,,10.532720046
1716183334132777166,0.073,,,,10.540413578
1716183334140470698,0.063,,,,10.54810711
1716183334148164230,0.061,,,,10.555800642
1716183334155857762,0.053,,,,10.563494174
1716183334163551294,0.053,,,,10.571187706
1716183334171244826,0.063,,,,10.578881238
1716183334178938358,0.065,,,,10.58657477
1716183334186631890,0.051,,,,10.594268302
1716183334194325422,0.046,,,,10.601961834
1716183334202018954,0.061,,,,10.609655366
1716183334209712486,0.065,,,,10.617348898
1716183334217406018,0.051,,,,10.62504243
1716183334225099550,0.048,,,,10.632735962
1716183334232793082,0.07,,,,10.640429494
1716183334240486614,0.085,,,,10.648123026
1716183334248180146,0.092,,,,10.655816558
1716183334255873678,0.107,,,,10.66351009
1716183334263567216,0.104,,,,10.671203628
1716183334271261026,0.087,,,,10.678897438
1716183334278954836,0.065,,,,10.686591248
1716183334286648646,0.041,,,,10.694285058
1716183334294342456,0.053,,,,10.701978868
1716183334302036266,0.08,,,,10.709672678
1716183334309730076,0.078,,,,10.717366488
1716183334317423886,0.063,,,,10.725060298
1716183334325117696,0.07,,,,10.732754108
1716183334332811506,0.075,,,,10.740447918
1716183334340505316,0.061,,,,10.748141728
1716183334348199126,0.058,,,,10.755835538
1716183334355892936,0.053,,,,10.763529348
1716183334363586746,0.036,,,,10.771223158
1716183334371280556,0.161,,,,10.778916968
1716183334378974366,0.603,,,,10.786610778
1716183334386668176,1.025,,,,10.794304588
1716183334394361986,0.629,,,,10.801998398
1716183334402055796,-0.383,,,,10.809692208
1716183334409749606,-0.593,,,,10.817386018
1716183334417443416,0.029,,,,10.825079828
1716183334425137226,0.175,,,,10.832773638
1716183334432831036,-0.034,,,,10.840467448
1716183334440524846,0.019,,,,10.848161258
1716183334448218656,0.061,,,,10.855855068
1716183334455912466,0.012,,,,10.863548878
1716183334463606276,0.029,,,,10.871242688
1716183334471300086,0.041,,,,10.878936498
1716183334478993896,0.046,,,,10.886630308
1716183334486687706,0.09,,,,10.894324118
1716183334494381516,0.092,,,,10.902017928
1716183334502075326,0.073,,,,10.909711738
1716183334509769136,0.09,,,,10.917405548
1716183334517462946,0.083,,,,10.925099358
1716183334525156756,0.07,,,,10.932793168
1716183334532850566,0.085,,,,10.940486978
1716183334540544376,0.107,,,,10.948180788
1716183334548238186,0.109,,,,10.955874598
1716183334555931996,0.1,,,,10.963568408
1716183334563625806,0.107,,,,10.971262218
1716183334571319616,0.129,,,,10.978956028
1716183334579013426,0.146,,,,10.986649838
1716183334586707236,0.166,,,,10.994343648
1716183334594401046,0.183,,,,11.002037458
1716183334602094856,0.19,,,,11.009731268
1716183334609788666,0.195,,,,11.017425078
1716183334617482476,0.207,,,,11.025118888
1716183334625176286,0.227,,,,11.032812698
1716183334632870096,0.202,,,,11.040506508
1716183334640563906,0.126,,,,11.048200318
1716183334648257716,0.08,,,,11.055894128
1716183334655951526,0.073,,,,11.063587938
1716183334663645336,0.065,,,,11.071281748
1716183334671339146,0.053,,,,11.078975558
1716183334679032956,0.036,,,,11.086669368
1716183334686726766,0.039,,,,11.094363178
1716183334694420576,0.041,,,,11.102056988
1716183334702114386,0.017,,,,11.109750798
1716183334709808196,0.004,,,,11.117444608
1716183334717502006,0.024,,,,11.125138418
1716183334725195816,0.039,,,,11.132832228
1716183334732889626,0.026,,,,11.140526038
1716183334740583436,0.031,,,,11.148219848
1716183334748277246,0.046,,,,11.155913658
1716183334755971056,0.036,,,,11.163607468
1716183334763664866,0.034,,,,11.171301278
1716183334771358676,0.051,,,,11.178995088
1716183334779052486,0.058,,,,11.186688898
1716183334786746296,0.061,,,,11.194382708
1716183334794440106,0.065,,,,11.202076518
1716183334802133916,0.068,,,,11.209770328
1716183334809827726,0.051,,,,11.217464138
1716183334817521536,0.051,,,,11.225157948
1716183334825215402,0.078,79.0,765.0,,11.232851814
1716183334832909073,0.075,,,,11.240545485
1716183334840602744,0.068,,,,11.248239156
1716183334848296415,0.083,,,,11.255932827
1716183334855990086,0.087,,,,11.263626498
1716183334863683757,0.095,,,,11.271320169
1716183334871377428,0.102,,,,11.27901384
1716183334879071099,0.075,,,,11.286707511
1716183334886764770,0.041,,,,11.294401182
1716183334894458441,0.051,,,,11.302094853
1716183334902152112,0.075,,,,11.309788524
1716183334909845783,0.073,,,,11.317482195
1716183334917539454,0.075,,,,11.325175866
1716183334925233125,0.09,,,,11.332869537
1716183334932926796,0.083,,,,11.340563208
1716183334940620467,0.075,,,,11.348256879
1716183334948314138,0.087,,,,11.35595055
1716183334956007809,0.087,,,,11.363644221
1716183334963701480,0.085,,,,11.371337892
1716183334971395151,0.087,,,,11.379031563
1716183334979088822,0.083,,,,11.386725234
1716183334986782493,0.08,,,,11.394418905
1716183334994476164,0.068,,,,11.402112576
1716183335002169835,0.056,,,,11.409806247
1716183335009863506,0.085,,,,11.417499918
1716183335017557177,0.109,,,,11.425193589
1716183335025250848,0.097,,,,11.43288726
1716183335032944519,0.085,,,,11.440580931
1716183335040638190,0.09,,,,11.448274602
1716183335048331861,0.097,,,,11.455968273
1716183335056025532,0.083,,,,11.463661944
1716183335063719203,0.058,,,,11.471355615
1716183335071412874,0.058,,,,11.479049286
1716183335079106545,0.08,,,,11.486742957
1716183335086800216,0.085,,,,11.494436628
1716183335094493887,0.07,,,,11.502130299
1716183335102187558,0.07,,,,11.50982397
1716183335109881229,0.083,,,,11.517517641
1716183335117574900,0.087,,,,11.525211312
1716183335125268571,0.08,,,,11.532904983
1716183335132962242,0.065,,,,11.540598654
1716183335140655913,0.109,,,,11.548292325
1716183335148349584,0.38,,,,11.555985996
1716183335156043255,0.839,,,,11.563679667
1716183335163736926,0.905,,,,11.571373338
1716183335171430597,0.09,,,,11.579067009
1716183335179124268,-0.656,,,,11.58676068
1716183335186817939,-0.27,,,,11.594454351
1716183335194511610,0.212,,,,11.602148022
1716183335202205281,0.012,,,,11.609841693
1716183335209898952,-0.065,,,,11.617535364
1716183335217592623,0.097,,,,11.625229035
1716183335225286294,0.068,,,,11.632922706
1716183335232979965,0.009,,,,11.640616377
1716183335240673636,0.063,,,,11.648310048
1716183335248367307,0.075,,,,11.656003719
1716183335256060978,0.051,,,,11.66369739
1716183335263754649,0.073,,,,11.671391061
1716183335271448320,0.085,,,,11.679084732
1716183335279141991,0.07,,,,11.686778403
1716183335286835662,0.078,,,,11.694472074
1716183335294529333,0.09,,,,11.702165745
1716183335302223004,0.09,,,,11.709859416
1716183335309916675,0.1,,,,11.717553087
1716183335317610346,0.109,,,,11.725246758
1716183335325304017,0.109,,,,11.732940429
1716183335332997688,0.109,,,,11.7406341
1716183335340691359,0.126,,,,11.748327771
1716183335348385030,0.146,,,,11.756021442
1716183335356078701,0.153,,,,11.763715113
1716183335363772372,0.168,,,,11.771408784
1716183335371466043,0.195,,,,11.779102455
1716183335379159714,0.202,,,,11.786796126
1716183335386853414,0.2,,,,11.794489826
1716183335394547085,0.207,,,,11.802183497
1716183335402240756,0.205,,,,11.809877168
1716183335409934427,0.166,,,,11.817570839
1716183335417628098,0.124,,,,11.82526451
1716183335425321769,0.104,,,,11.832958181
1716183335433015440,0.087,,,,11.840651852
1716183335440709111,0.061,,,,11.848345523
1716183335448402782,0.043,,,,11.856039194
1716183335456096453,0.034,,,,11.863732865
1716183335463790124,0.029,,,,11.871426536
1716183335471483795,0.024,,,,11.879120207
1716183335479177466,0.024,,,,11.886813878
1716183335486871137,0.026,,,,11.894507549
1716183335494564808,0.021,,,,11.90220122
1716183335502258479,0.024,,,,11.909894891
1716183335509952150,0.026,,,,11.917588562
1716183335517645821,0.019,,,,11.925282233
1716183335525339492,0.024,,,,11.932975904
1716183335533033163,0.031,,,,11.940669575
1716183335540726834,0.034,,,,11.948363246
1716183335548420505,0.043,,,,11.956056917
1716183335556114176,0.053,,,,11.963750588
1716183335563807847,0.056,,,,11.971444259
1716183335571501518,0.051,,,,11.97913793
1716183335579195189,0.056,,,,11.986831601
1716183335586888860,0.07,,,,11.994525272
1716183335594582531,0.07,,,,12.002218943
1716183335602276202,0.07,,,,12.009912614
1716183335609969873,0.07,,,,12.017606285
1716183335617663544,0.065,,,,12.025299956
1716183335625357215,0.073,,,,12.032993627
1716183335633050886,0.078,,,,12.040687298
1716183335640744557,0.08,,,,12.048380969
1716183335648438228,0.083,,,,12.05607464
1716183335656131899,0.08,,,,12.063768311
1716183335663825570,0.08,,,,12.071461982
1716183335671519241,0.075,,,,12.079155653
1716183335679212912,0.065,,,,12.086849324
1716183335686906583,0.068,,,,12.094542995
1716183335694600254,0.065,,,,12.102236666
1716183335702293925,0.065,,,,12.109930337
1716183335709987596,0.073,,,,12.117624008
1716183335717681267,0.07,,,,12.125317679
1716183335725374938,0.073,,,,12.13301135
1716183335733068609,0.07,,,,12.140705021
1716183335740762280,0.065,,,,12.148398692
1716183335748455951,0.063,,,,12.156092363
1716183335756149622,0.053,,,,12.163786034
1716183335763843293,0.056,,,,12.171479705
1716183335771536964,0.065,,,,12.179173376
1716183335779230635,0.073,,,,12.186867047
1716183335786924306,0.09,,,,12.194560718
1716183335794617977,0.102,,,,12.202254389
1716183335802311648,0.1,,,,12.20994806
1716183335810005319,0.095,,,,12.217641731
1716183335817698990,0.09,,,,12.225335402
1716183335825392661,0.085,,,,12.233029073
1716183335833086332,0.078,,,,12.240722744
1716183335840780003,0.073,,,,12.248416415
1716183335848473674,0.075,,,,12.256110086
1716183335856167345,0.078,,,,12.263803757
1716183335863861016,0.083,,,,12.271497428
1716183335871554687,0.083,,,,12.279191099
1716183335879248358,0.083,,,,12.28688477
1716183335886942029,0.083,,,,12.294578441
1716183335894635700,0.078,,,,12.302272112
1716183335902329371,0.08,,,,12.309965783
1716183335910023042,0.065,,,,12.317659454
1716183335917716713,0.09,,,,12.325353125
1716183335925410384,0.388,,,,12.333046796
1716183335933104055,0.881,,,,12.340740467
1716183335940797726,0.908,,,,12.348434138
1716183335948491428,0.08,79.0,771.0,,12.35612784
1716183335956185238,-0.595,,774.0,,12.36382165
1716183335963879048,-0.202,,,,12.37151546
1716183335971572858,0.212,,,,12.37920927
1716183335979266668,0.004,,,,12.38690308
1716183335986960478,-0.048,,,,12.39459689
1716183335994654288,0.09,,,,12.4022907
1716183336002348098,0.051,,,,12.40998451
1716183336010041908,0.012,,,,12.41767832
1716183336017735718,0.065,,,,12.42537213
1716183336025429528,0.073,,,,12.43306594
1716183336033123338,0.053,,,,12.44075975
1716183336040817148,0.07,,,,12.44845356
1716183336048510958,0.085,,,,12.45614737
1716183336056204768,0.08,,,,12.46384118
1716183336063898578,0.083,,,,12.47153499
1716183336071592388,0.087,,,,12.4792288
1716183336079286198,0.09,,,,12.48692261
1716183336086980008,0.095,,,,12.49461642
1716183336094673818,0.102,,,,12.50231023
1716183336102367628,0.114,,,,12.51000404
1716183336110061438,0.126,,,,12.51769785
1716183336117755248,0.129,,,,12.52539166
1716183336125449058,0.139,,,,12.53308547
1716183336133142868,0.156,,,,12.54077928
1716183336140836678,0.168,,,,12.54847309
1716183336148530488,0.18,,,,12.5561669
1716183336156224298,0.197,,,,12.56386071
1716183336163918108,0.212,,,,12.57155452
1716183336171611918,0.209,,,,12.57924833
1716183336179305728,0.195,,,,12.58694214
1716183336186999538,0.17,,,,12.59463595
1716183336194693348,0.136,,,,12.60232976
1716183336202387158,0.107,,,,12.61002357
1716183336210080968,0.083,,,,12.61771738
1716183336217774778,0.063,,,,12.62541119
1716183336225468588,0.056,,,,12.633105
1716183336233162398,0.043,,,,12.64079881
1716183336240856208,0.036,,,,12.64849262
1716183336248550018,0.046,,,,12.65618643
1716183336256243828,0.048,,,,12.66388024
1716183336263937638,0.043,,,,12.67157405
1716183336271631448,0.051,,,,12.67926786
1716183336279325258,0.061,,,,12.68696167
1716183336287019068,0.058,,,,12.69465548
1716183336294712878,0.053,,,,12.70234929
1716183336302406688,0.058,,,,12.7100431
1716183336310100498,0.063,,,,12.71773691
1716183336317794308,0.063,,,,12.72543072
1716183336325488118,0.07,,,,12.73312453
1716183336333181928,0.075,,,,12.74081834
1716183336340875738,0.083,,,,12.74851215
1716183336348569548,0.085,,,,12.75620596
1716183336356263358,0.078,,,,12.76389977
1716183336363957168,0.083,,,,12.77159358
1716183336371650978,0.09,,,,12.77928739
1716183336379344788,0.095,,,,12.7869812
1716183336387038598,0.1,,,,12.79467501
1716183336394732408,0.102,,,,12.80236882
1716183336402426218,0.1,,,,12.81006263
1716183336410120028,0.097,,,,12.81775644
1716183336417813838,0.097,,,,12.82545025
1716183336425507648,0.1,,,,12.83314406
1716183336433201458,0.097,,,,12.84083787
1716183336440895268,0.097,,,,12.84853168
1716183336448589078,0.097,,,,12.85622549
1716183336456282888,0.1,,,,12.8639193
1716183336463976698,0.102,,,,12.87161311
1716183336471670508,0.107,,,,12.87930692
1716183336479364318,0.102,,,,12.88700073
1716183336487058128,0.1,,,,12.89469454
1716183336494751938,0.097,,,,12.90238835
1716183336502445748,0.097,,,,12.91008216
1716183336510139612,0.097,,,,12.917776024
1716183336517833144,0.1,,,,12.925469556
1716183336525526676,0.102,,,,12.933163088
1716183336533220208,0.09,,,,12.94085662
1716183336540913740,0.078,,,,12.948550152
1716183336548607272,0.075,,,,12.956243684
1716183336556300804,0.075,,,,12.963937216
1716183336563994336,0.078,,,,12.971630748
1716183336571687868,0.092,,,,12.97932428
1716183336579381400,0.104,,,,12.987017812
1716183336587074932,0.109,,,,12.994711344
1716183336594768464,0.104,,,,13.002404876
1716183336602461996,0.097,,,,13.010098408
1716183336610155528,0.087,,,,13.01779194
1716183336617849060,0.083,,,,13.025485472
1716183336625542592,0.08,,,,13.033179004
1716183336633236124,0.083,,,,13.040872536
1716183336640929656,0.085,,,,13.048566068
1716183336648623188,0.085,,,,13.0562596
1716183336656316720,0.087,,,,13.063953132
1716183336664010252,0.092,,,,13.071646664
1716183336671703784,0.087,,,,13.079340196
1716183336679397316,0.073,,,,13.087033728
1716183336687090848,0.058,,,,13.09472726
1716183336694784380,0.036,,,,13.102420792
1716183336702477912,0.134,,,,13.110114324
1716183336710171444,0.549,,,,13.117807856
1716183336717864976,1.003,,,,13.125501388
1716183336725558508,0.715,,,,13.13319492
1716183336733252040,-0.256,,,,13.140888452
1716183336740945572,-0.561,,,,13.148581984
1716183336748639104,0.004,,,,13.156275516
1716183336756332636,0.156,,,,13.163969048
1716183336764026168,-0.075,,,,13.17166258
1716183336771719700,0.0,,,,13.179356112
1716183336779413232,0.092,,,,13.187049644
1716183336787106764,0.021,,,,13.194743176
1716183336794800296,0.026,,,,13.202436708
1716183336802493828,0.075,,,,13.21013024
1716183336810187360,0.058,,,,13.217823772
1716183336817880892,0.048,,,,13.225517304
1716183336825574424,0.07,,,,13.233210836
1716183336833267956,0.073,,,,13.240904368
1716183336840961488,0.07,,,,13.2485979
1716183336848655020,0.085,,,,13.256291432
1716183336856348552,0.087,,,,13.263984964
1716183336864042084,0.087,,,,13.271678496
1716183336871735616,0.095,,,,13.279372028
1716183336879429148,0.107,,,,13.28706556
1716183336887122680,0.114,,,,13.294759092
1716183336894816212,0.114,,,,13.302452624
1716183336902509744,0.124,,,,13.310146156
1716183336910203276,0.139,,,,13.317839688
1716183336917896808,0.153,,,,13.32553322
1716183336925590340,0.17,,,,13.333226752
1716183336933283872,0.183,,,,13.340920284
1716183336940977404,0.195,,,,13.348613816
1716183336948670936,0.2,,,,13.356307348
1716183336956364468,0.197,,,,13.36400088
1716183336964058000,0.19,,,,13.371694412
1716183336971751532,0.168,,,,13.379387944
1716183336979445064,0.134,,,,13.387081476
1716183336987138596,0.097,,,,13.394775008
1716183336994832128,0.07,,,,13.40246854
1716183337002525660,0.058,,,,13.410162072
1716183337010219192,0.048,,,,13.417855604
1716183337017912724,0.043,,,,13.425549136
1716183337025606256,0.046,,,,13.433242668
1716183337033299788,0.048,,,,13.4409362
1716183337040993320,0.046,,,,13.448629732
1716183337048686852,0.046,,,,13.456323264
1716183337056380384,0.051,,,,13.464016796
1716183337064073916,0.056,,,,13.471710328
1716183337071767454,0.051,78.0,773.0,,13.479403866
1716183337079461404,0.056,,,,13.487097816
1716183337087155354,0.061,,,,13.494791766
1716183337094849304,0.056,,,,13.502485716
1716183337102543254,0.051,,,,13.510179666
1716183337110237204,0.061,,,,13.517873616
1716183337117931154,0.073,,,,13.525567566
1716183337125625104,0.073,,,,13.533261516
1716183337133319054,0.07,,,,13.540955466
1716183337141013004,0.073,,,,13.548649416
1716183337148706954,0.078,,,,13.556343366
1716183337156400904,0.078,,,,13.564037316
1716183337164094854,0.083,,,,13.571731266
1716183337171788804,0.085,,,,13.579425216
1716183337179482754,0.08,,,,13.587119166
1716183337187176704,0.073,,,,13.594813116
1716183337194870654,0.07,,,,13.602507066
1716183337202564604,0.073,,,,13.610201016
1716183337210258554,0.073,,,,13.617894966
1716183337217952504,0.065,,,,13.625588916
1716183337225646454,0.065,,,,13.633282866
1716183337233340404,0.068,,,,13.640976816
1716183337241034354,0.068,,,,13.648670766
1716183337248728304,0.07,,,,13.656364716
1716183337256422254,0.075,,,,13.664058666
1716183337264116204,0.083,,,,13.671752616
1716183337271810154,0.08,,,,13.679446566
1716183337279504104,0.08,,,,13.687140516
1716183337287198054,0.087,,,,13.694834466
1716183337294892004,0.09,,,,13.702528416
1716183337302585954,0.087,,,,13.710222366
1716183337310279904,0.087,,,,13.717916316
1716183337317973854,0.078,,,,13.725610266
1716183337325667804,0.068,,,,13.733304216
1716183337333361754,0.068,,,,13.740998166
1716183337341055704,0.07,,,,13.748692116
1716183337348749654,0.073,,,,13.756386066
1716183337356443604,0.092,,,,13.764080016
1716183337364137554,0.117,,,,13.771773966
1716183337371831504,0.117,,,,13.779467916
1716183337379525454,0.114,,,,13.787161866
1716183337387219404,0.114,,,,13.794855816
1716183337394913354,0.104,,,,13.802549766
1716183337402607304,0.095,,,,13.810243716
1716183337410301254,0.09,,,,13.817937666
1716183337417995204,0.09,,,,13.825631616
1716183337425689154,0.095,,,,13.833325566
1716183337433383104,0.095,,,,13.841019516
1716183337441077054,0.097,,,,13.848713466
1716183337448771004,0.102,,,,13.856407416
1716183337456464954,0.095,,,,13.864101366
1716183337464158904,0.085,,,,13.871795316
1716183337471852854,0.08,,,,13.879489266
1716183337479546804,0.058,,,,13.887183216
1716183337487240754,0.065,,,,13.894877166
1716183337494934704,0.327,,,,13.902571116
1716183337502628654,0.849,,,,13.910265066
1716183337510322604,1.01,,,,13.917959016
1716183337518016554,0.236,,,,13.925652966
1716183337525710504,-0.5680000000000001,,,,13.933346916
1716183337533404454,-0.273,,,,13.941040866
1716183337541098404,0.2,,,,13.948734816
1716183337548792354,0.034,,,,13.956428766
1716183337556486304,-0.048,,,,13.964122716
1716183337564180254,0.102,,,,13.971816666
1716183337571874204,0.075,,,,13.979510616
1716183337579568154,0.026,,,,13.987204566
1716183337587262104,0.083,,,,13.994898516
1716183337594956054,0.087,,,,14.002592466
1716183337602650004,0.063,,,,14.010286416
1716183337610343954,0.08,,,,14.017980366
1716183337618037904,0.095,,,,14.025674316
1716183337625731854,0.092,,,,14.033368266
1716183337633425812,0.1,78.0,777.0,,14.041062224
1716183337641119622,0.102,,,,14.048756034
1716183337648813432,0.097,,,,14.056449844
1716183337656507242,0.1,,,,14.064143654
1716183337664201052,0.109,,,,14.071837464
1716183337671894862,0.119,,,,14.079531274
1716183337679588672,0.129,,,,14.087225084
1716183337687282482,0.131,,,,14.094918894
1716183337694976292,0.129,,,,14.102612704
1716183337702670102,0.134,,,,14.110306514
1716183337710363912,0.144,,,,14.118000324
1716183337718057722,0.156,,,,14.125694134
1716183337725751532,0.17,,,,14.133387944
1716183337733445342,0.175,,,,14.141081754
1716183337741139152,0.166,,,,14.148775564
1716183337748832962,0.161,,,,14.156469374
1716183337756526772,0.151,,,,14.164163184
1716183337764220582,0.129,,,,14.171856994
1716183337771914392,0.097,,,,14.179550804
1716183337779608202,0.073,,,,14.187244614
1716183337787302012,0.053,,,,14.194938424
1716183337794995822,0.031,,,,14.202632234
1716183337802689632,0.021,,,,14.210326044
1716183337810383442,0.029,,,,14.218019854
1716183337818077252,0.036,,,,14.225713664
1716183337825771062,0.029,,,,14.233407474
1716183337833464872,0.019,,,,14.241101284
1716183337841158682,0.024,,,,14.248795094
1716183337848852492,0.031,,,,14.256488904
1716183337856546302,0.031,,,,14.264182714
1716183337864240112,0.039,,,,14.271876524
1716183337871933922,0.046,,,,14.279570334
1716183337879627732,0.046,,,,14.287264144
1716183337887321542,0.048,,,,14.294957954
1716183337895015352,0.056,,,,14.302651764
1716183337902709162,0.053,,,,14.310345574
1716183337910402972,0.051,,,,14.318039384
1716183337918096782,0.058,,,,14.325733194
1716183337925790592,0.065,,,,14.333427004
1716183337933484402,0.065,,,,14.341120814
1716183337941178212,0.065,,,,14.348814624
1716183337948872022,0.065,,,,14.356508434
1716183337956565832,0.065,,,,14.364202244
1716183337964259642,0.068,,,,14.371896054
1716183337971953452,0.068,,,,14.379589864
1716183337979647262,0.07,,,,14.387283674
1716183337987341072,0.073,,,,14.394977484
1716183337995034882,0.068,,,,14.402671294
1716183338002728692,0.065,,,,14.410365104
1716183338010422502,0.068,,,,14.418058914
1716183338018116312,0.07,,,,14.425752724
1716183338025810122,0.073,,,,14.433446534
1716183338033503932,0.075,,,,14.441140344
1716183338041197742,0.08,,,,14.448834154
1716183338048891552,0.075,,,,14.456527964
1716183338056585362,0.068,,,,14.464221774
1716183338064279172,0.075,,,,14.471915584
1716183338071972982,0.075,,,,14.479609394
1716183338079666792,0.068,,,,14.487303204
1716183338087360602,0.065,,,,14.494997014
1716183338095054412,0.068,,,,14.502690824
1716183338102748222,0.075,,,,14.510384634
1716183338110442032,0.07,,,,14.518078444
1716183338118135842,0.061,,,,14.525772254
1716183338125829652,0.058,,,,14.533466064
1716183338133523462,0.056,,,,14.541159874
1716183338141217272,0.063,,,,14.548853684
1716183338148911082,0.087,,,,14.556547494
1716183338156604892,0.102,,,,14.564241304
1716183338164298702,0.107,,,,14.571935114
1716183338171992512,0.107,,,,14.579628924
1716183338179686322,0.095,,,,14.587322734
1716183338187380132,0.085,,,,14.595016544
1716183338195073998,0.08,,,,14.60271041
1716183338202767669,0.068,,,,14.610404081
1716183338210461340,0.056,,,,14.618097752
1716183338218155011,0.061,,,,14.625791423
1716183338225848682,0.065,,,,14.633485094
1716183338233542353,0.051,,,,14.641178765
1716183338241236024,0.048,,,,14.648872436
1716183338248929695,0.056,,,,14.656566107
1716183338256623366,0.056,,,,14.664259778
1716183338264317037,0.039,,,,14.671953449
1716183338272010708,0.004,,,,14.67964712
1716183338279704379,0.078,,,,14.687340791
1716183338287398050,0.48,,,,14.695034462
1716183338295091721,0.944,,,,14.702728133
1716183338302785392,0.6930000000000001,,,,14.710421804
1716183338310479063,-0.273,,,,14.718115475
1716183338318172734,-0.629,,,,14.725809146
1716183338325866405,-0.039,,,,14.733502817
1716183338333560076,0.17,,,,14.741196488
1716183338341253747,-0.08,,,,14.748890159
1716183338348947418,-0.017,,,,14.75658383
1716183338356641089,0.092,,,,14.764277501
1716183338364334760,0.017,,,,14.771971172
1716183338372028431,0.017,,,,14.779664843
1716183338379722102,0.07,,,,14.787358514
1716183338387415773,0.056,,,,14.795052185
1716183338395109444,0.046,,,,14.802745856
1716183338402803115,0.07,,,,14.810439527
1716183338410496786,0.073,,,,14.818133198
1716183338418190457,0.073,,,,14.825826869
1716183338425884128,0.085,,,,14.83352054
1716183338433577799,0.078,,,,14.841214211
1716183338441271470,0.073,,,,14.848907882
1716183338448965141,0.085,,,,14.856601553
1716183338456658812,0.095,,,,14.864295224
1716183338464352483,0.097,,,,14.871988895
1716183338472046154,0.097,,,,14.879682566
1716183338479739825,0.109,,,,14.887376237
1716183338487433496,0.124,,,,14.895069908
1716183338495127167,0.139,,,,14.902763579
1716183338502820838,0.153,,,,14.91045725
1716183338510514509,0.161,,,,14.918150921
1716183338518208180,0.163,,,,14.925844592
1716183338525901851,0.175,,,,14.933538263
1716183338533595522,0.187,,,,14.941231934
1716183338541289193,0.18,,,,14.948925605
1716183338548982864,0.153,,,,14.956619276
1716183338556676535,0.122,,,,14.964312947
1716183338564370206,0.097,,,,14.972006618
1716183338572063877,0.075,,,,14.979700289
1716183338579757548,0.058,,,,14.98739396
1716183338587451219,0.051,,,,14.995087631
1716183338595144890,0.043,,,,15.002781302
1716183338602838561,0.043,,,,15.010474973
1716183338610532232,0.046,,,,15.018168644
1716183338618225903,0.043,,,,15.025862315
1716183338625919574,0.036,,,,15.033555986
1716183338633613245,0.039,,,,15.041249657
1716183338641306916,0.051,,,,15.048943328
1716183338649000587,0.058,,,,15.056636999
1716183338656694258,0.056,,,,15.06433067
1716183338664387929,0.056,,,,15.072024341
1716183338672081600,0.058,,,,15.079718012
1716183338679775271,0.063,,,,15.087411683
1716183338687468942,0.07,,,,15.095105354
1716183338695162613,0.068,,,,15.102799025
1716183338702856284,0.058,,,,15.110492696
1716183338710549955,0.043,,,,15.118186367
1716183338718243626,0.043,,,,15.125880038
1716183338725937297,0.056,,,,15.133573709
1716183338733630968,0.065,,,,15.14126738
1716183338741324639,0.07,,,,15.148961051
1716183338749018310,0.068,,,,15.156654722
1716183338756712010,0.063,78.0,782.0,,15.164348422
1716183338764405960,0.073,,,,15.172042372
1716183338772099910,0.075,,,,15.179736322
1716183338779793860,0.068,,,,15.187430272
1716183338787487810,0.068,,,,15.195124222
1716183338795181760,0.073,,,,15.202818172
1716183338802875710,0.078,,,,15.210512122
1716183338810569660,0.08,,,,15.218206072
1716183338818263610,0.08,,,,15.225900022
1716183338825957560,0.083,,,,15.233593972
1716183338833651510,0.08,,,,15.241287922
1716183338841345460,0.078,,,,15.248981872
1716183338849039410,0.07,,,,15.256675822
1716183338856733360,0.065,,,,15.264369772
1716183338864427310,0.065,,,,15.272063722
1716183338872121260,0.07,,,,15.279757672
1716183338879815210,0.073,,,,15.287451622
1716183338887509160,0.068,,,,15.295145572
1716183338895203110,0.061,,,,15.302839522
1716183338902897060,0.061,,,,15.310533472
1716183338910591010,0.061,,,,15.318227422
1716183338918284960,0.058,,,,15.325921372
1716183338925978910,0.068,,,,15.333615322
1716183338933672860,0.09,,,,15.341309272
1716183338941366810,0.102,,,,15.349003222
1716183338949060760,0.102,,,,15.356697172
1716183338956754710,0.1,,,,15.364391122
1716183338964448660,0.097,,,,15.372085072
1716183338972142610,0.083,,,,15.379779022
1716183338979836560,0.078,,,,15.387472972
1716183338987530510,0.078,,,,15.395166922
1716183338995224460,0.078,,,,15.402860872
1716183339002918410,0.08,,,,15.410554822
1716183339010612360,0.078,,,,15.418248772
1716183339018306310,0.078,,,,15.425942722
1716183339026000260,0.075,,,,15.433636672
1716183339033694210,0.065,,,,15.441330622
1716183339041388160,0.07,,,,15.449024572
1716183339049082110,0.065,,,,15.456718522
1716183339056776060,0.036,,,,15.464412472
1716183339064470010,0.119,,,,15.472106422
1716183339072163960,0.505,,,,15.479800372
1716183339079857910,0.957,,,,15.487494322
1716183339087551860,0.747,,,,15.495188272
1716183339095245810,-0.173,,,,15.502882222
1716183339102939760,-0.554,,,,15.510576172
1716183339110633710,-0.017,,,,15.518270122
1716183339118327660,0.187,,,,15.525964072
1716183339126021610,-0.046,,,,15.533658022
1716183339133715560,0.012,,,,15.541351972
1716183339141409510,0.119,,,,15.549045922
1716183339149103460,0.051,,,,15.556739872
1716183339156797410,0.051,,,,15.564433822
1716183339164491360,0.102,,,,15.572127772
1716183339172185310,0.083,,,,15.579821722
1716183339179879260,0.065,,,,15.587515672
1716183339187573210,0.083,,,,15.595209622
1716183339195267160,0.085,,,,15.602903572
1716183339202961110,0.083,,,,15.610597522
1716183339210655060,0.083,,,,15.618291472
1716183339218349010,0.073,,,,15.625985422
1716183339226042960,0.073,,,,15.633679372
1716183339233736910,0.085,,,,15.641373322
1716183339241430860,0.09,,,,15.649067272
1716183339249124810,0.095,,,,15.656761222
1716183339256818760,0.102,,,,15.664455172
1716183339264512710,0.107,,,,15.672149122
1716183339272206660,0.119,,,,15.679843072
1716183339279900610,0.136,,,,15.687537022
1716183339287594560,0.146,,,,15.695230972
1716183339295288510,0.151,,,,15.702924922
1716183339302982460,0.166,,,,15.710618872
1716183339310676410,0.178,,,,15.718312822
1716183339318370368,0.183,,,,15.72600678
1716183339326063969,0.175,,,,15.733700381
1716183339333757570,0.153,,,,15.741393982
1716183339341451171,0.126,,,,15.749087583
1716183339349144772,0.107,,,,15.756781184
1716183339356838373,0.087,,,,15.764474785
1716183339364531974,0.068,,,,15.772168386
1716183339372225575,0.058,,,,15.779861987
1716183339379919176,0.053,,,,15.787555588
1716183339387612777,0.043,,,,15.795249189
1716183339395306378,0.039,,,,15.80294279
1716183339402999979,0.046,,,,15.810636391
1716183339410693580,0.043,,,,15.818329992
1716183339418387181,0.041,,,,15.826023593
1716183339426080782,0.051,,,,15.833717194
1716183339433774383,0.051,,,,15.841410795
1716183339441467984,0.043,,,,15.849104396
1716183339449161585,0.046,,,,15.856797997
1716183339456855186,0.053,,,,15.864491598
1716183339464548787,0.061,,,,15.872185199
1716183339472242388,0.065,,,,15.8798788
1716183339479935989,0.065,,,,15.887572401
1716183339487629590,0.068,,,,15.895266002
1716183339495323191,0.07,,,,15.902959603
1716183339503016792,0.073,,,,15.910653204
1716183339510710393,0.073,,,,15.918346805
1716183339518403994,0.075,,,,15.926040406
1716183339526097595,0.083,,,,15.933734007
1716183339533791196,0.08,,,,15.941427608
1716183339541484797,0.083,,,,15.949121209
1716183339549178398,0.092,,,,15.95681481
1716183339556871999,0.095,,,,15.964508411
1716183339564565600,0.092,,,,15.972202012
1716183339572259201,0.087,,,,15.979895613
1716183339579952802,0.09,,,,15.987589214
1716183339587646403,0.087,,,,15.995282815
1716183339595340004,0.085,,,,16.002976416
1716183339603033605,0.092,,,,16.010670017
1716183339610727206,0.097,,,,16.018363618
1716183339618420807,0.095,,,,16.026057219
1716183339626114408,0.087,,,,16.03375082
1716183339633808009,0.083,,,,16.041444421
1716183339641501610,0.09,,,,16.049138022
1716183339649195211,0.09,,,,16.056831623
1716183339656888812,0.087,,,,16.064525224
1716183339664582413,0.092,,,,16.072218825
1716183339672276014,0.087,,,,16.079912426
1716183339679969615,0.07,,,,16.087606027
1716183339687663216,0.063,,,,16.095299628
1716183339695356817,0.065,,,,16.102993229
1716183339703050418,0.068,,,,16.11068683
1716183339710744019,0.073,,,,16.118380431
1716183339718437620,0.087,,,,16.126074032
1716183339726131221,0.092,,,,16.133767633
1716183339733824822,0.09,,,,16.141461234
1716183339741518423,0.092,,,,16.149154835
1716183339749212024,0.09,,,,16.156848436
1716183339756905625,0.083,,,,16.164542037
1716183339764599226,0.078,,,,16.172235638
1716183339772292827,0.068,,,,16.179929239
1716183339779986428,0.065,,,,16.18762284
1716183339787680029,0.07,,,,16.195316441
1716183339795373630,0.068,,,,16.203010042
1716183339803067231,0.063,,,,16.210703643
1716183339810760832,0.061,,,,16.218397244
1716183339818454433,0.065,,,,16.226090845
1716183339826148034,0.065,,,,16.233784446
1716183339833841635,0.051,,,,16.241478047
1716183339841535236,0.031,,,,16.249171648
1716183339849228837,0.119,,,,16.256865249
1716183339856922438,0.515,,,,16.26455885
1716183339864616039,0.976,,,,16.272252451
1716183339872309640,0.725,,,,16.279946052
1716183339880003296,-0.219,78.0,788.0,,16.287639708
1716183339887697176,-0.544,,789.0,,16.295333588
1716183339895391056,0.007,,,,16.303027468
1716183339903084936,0.175,,,,16.310721348
1716183339910778816,-0.056,,,,16.318415228
1716183339918472696,0.009,,,,16.326109108
1716183339926166576,0.102,,,,16.333802988
1716183339933860456,0.034,,,,16.341496868
1716183339941554336,0.039,,,,16.349190748
1716183339949248216,0.078,,,,16.356884628
1716183339956942096,0.056,,,,16.364578508
1716183339964635976,0.053,,,,16.372272388
1716183339972329856,0.078,,,,16.379966268
1716183339980023736,0.078,,,,16.387660148
1716183339987717616,0.075,,,,16.395354028
1716183339995411496,0.087,,,,16.403047908
1716183340003105376,0.092,,,,16.410741788
1716183340010799256,0.09,,,,16.418435668
1716183340018493136,0.095,,,,16.426129548
1716183340026187016,0.104,,,,16.433823428
1716183340033880896,0.109,,,,16.441517308
1716183340041574776,0.114,,,,16.449211188
1716183340049268656,0.122,,,,16.456905068
1716183340056962536,0.131,,,,16.464598948
1716183340064656416,0.146,,,,16.472292828
1716183340072350296,0.156,,,,16.479986708
1716183340080044176,0.166,,,,16.487680588
1716183340087738056,0.173,,,,16.495374468
1716183340095431936,0.18,,,,16.503068348
1716183340103125816,0.187,,,,16.510762228
1716183340110819696,0.183,,,,16.518456108
1716183340118513576,0.168,,,,16.526149988
1716183340126207456,0.141,,,,16.533843868
1716183340133901336,0.114,,,,16.541537748
1716183340141595216,0.097,,,,16.549231628
1716183340149289096,0.085,,,,16.556925508
1716183340156982976,0.075,,,,16.564619388
1716183340164676856,0.07,,,,16.572313268
1716183340172370736,0.061,,,,16.580007148
1716183340180064616,0.058,,,,16.587701028
1716183340187758496,0.063,,,,16.595394908
1716183340195452376,0.063,,,,16.603088788
1716183340203146256,0.063,,,,16.610782668
1716183340210840136,0.065,,,,16.618476548
1716183340218534016,0.065,,,,16.626170428
1716183340226227896,0.058,,,,16.633864308
1716183340233921776,0.056,,,,16.641558188
1716183340241615656,0.065,,,,16.649252068
1716183340249309536,0.073,,,,16.656945948
1716183340257003416,0.07,,,,16.664639828
1716183340264697296,0.075,,,,16.672333708
1716183340272391176,0.08,,,,16.680027588
1716183340280085056,0.083,,,,16.687721468
1716183340287778936,0.083,,,,16.695415348
1716183340295472816,0.083,,,,16.703109228
1716183340303166696,0.085,,,,16.710803108
1716183340310860576,0.087,,,,16.718496988
1716183340318554456,0.09,,,,16.726190868
1716183340326248336,0.092,,,,16.733884748
1716183340333942216,0.092,,,,16.741578628
1716183340341636096,0.092,,,,16.749272508
1716183340349329976,0.095,,,,16.756966388
1716183340357023856,0.097,,,,16.764660268
1716183340364717736,0.095,,,,16.772354148
1716183340372411616,0.092,,,,16.780048028
1716183340380105496,0.095,,,,16.787741908
1716183340387799376,0.097,,,,16.795435788
1716183340395493256,0.102,,,,16.803129668
1716183340403187136,0.104,,,,16.810823548
1716183340410881016,0.09,,,,16.818517428
1716183340418574896,0.083,,,,16.826211308
1716183340426268776,0.085,,,,16.833905188
1716183340433962656,0.083,,,,16.841599068
1716183340441656566,0.087,,,,16.849292978
1716183340449350446,0.087,,,,16.856986858
1716183340457044326,0.083,,,,16.864680738
1716183340464738206,0.075,,,,16.872374618
1716183340472432086,0.075,,,,16.880068498
1716183340480125966,0.085,,,,16.887762378
1716183340487819846,0.087,,,,16.895456258
1716183340495513726,0.083,,,,16.903150138
1716183340503207606,0.097,,,,16.910844018
1716183340510901486,0.114,,,,16.918537898
1716183340518595366,0.117,,,,16.926231778
1716183340526289246,0.1,,,,16.933925658
1716183340533983126,0.083,,,,16.941619538
1716183340541677006,0.087,,,,16.949313418
1716183340549370886,0.087,,,,16.957007298
1716183340557064766,0.083,,,,16.964701178
1716183340564758646,0.078,,,,16.972395058
1716183340572452526,0.068,,,,16.980088938
1716183340580146406,0.063,,,,16.987782818
1716183340587840286,0.063,,,,16.995476698
1716183340595534166,0.065,,,,17.003170578
1716183340603228046,0.07,,,,17.010864458
1716183340610921926,0.078,,,,17.018558338
1716183340618615806,0.058,,,,17.026252218
1716183340626309686,0.036,,,,17.033946098
1716183340634003566,0.202,,,,17.041639978
1716183340641697446,0.683,,,,17.049333858
1716183340649391326,1.013,,,,17.057027738
1716183340657085206,0.451,,,,17.064721618
1716183340664779086,-0.483,,,,17.072415498
1716183340672472966,-0.434,,,,17.080109378
1716183340680166846,0.146,,,,17.087803258
1716183340687860726,0.092,,,,17.095497138
1716183340695554606,-0.085,,,,17.103191018
1716183340703248486,0.063,,,,17.110884898
1716183340710942366,0.085,,,,17.118578778
1716183340718636246,0.004,,,,17.126272658
1716183340726330126,0.041,,,,17.133966538
1716183340734024006,0.063,,,,17.141660418
1716183340741717886,0.041,,,,17.149354298
1716183340749411766,0.051,,,,17.157048178
1716183340757105646,0.07,,,,17.164742058
1716183340764799526,0.07,,,,17.172435938
1716183340772493406,0.07,,,,17.180129818
1716183340780187286,0.078,,,,17.187823698
1716183340787881166,0.08,,,,17.195517578
1716183340795575046,0.085,,,,17.203211458
1716183340803268926,0.092,,,,17.210905338
1716183340810962806,0.1,,,,17.218599218
1716183340818656686,0.1,,,,17.226293098
1716183340826350566,0.102,,,,17.233986978
1716183340834044446,0.112,,,,17.241680858
1716183340841738326,0.117,,,,17.249374738
1716183340849432206,0.126,,,,17.257068618
1716183340857126086,0.141,,,,17.264762498
1716183340864819966,0.151,,,,17.272456378
1716183340872513846,0.161,,,,17.280150258
1716183340880207726,0.168,,,,17.287844138
1716183340887901606,0.163,,,,17.295538018
1716183340895595486,0.156,,,,17.303231898
1716183340903289366,0.146,,,,17.310925778
1716183340910983246,0.112,,,,17.318619658
1716183340918677126,0.075,,,,17.326313538
1716183340926371006,0.065,,,,17.334007418
1716183340934064886,0.063,,,,17.341701298
1716183340941758766,0.056,,,,17.349395178
1716183340949452646,0.053,,,,17.357089058
1716183340957146526,0.048,,,,17.364782938
1716183340964840406,0.041,,,,17.372476818
1716183340972534286,0.039,,,,17.380170698
1716183340980228166,0.043,,,,17.387864578
1716183340987922046,0.051,,,,17.395558458
1716183340995615926,0.051,,,,17.403252338
1716183341003309840,0.056,78.0,785.0,,17.410946252
1716183341011003720,0.065,,,,17.418640132
1716183341018697600,0.068,,,,17.426334012
1716183341026391480,0.061,,,,17.434027892
1716183341034085360,0.063,,,,17.441721772
1716183341041779240,0.08,,,,17.449415652
1716183341049473120,0.083,,,,17.457109532
1716183341057167000,0.073,,,,17.464803412
1716183341064860880,0.065,,,,17.472497292
1716183341072554760,0.065,,,,17.480191172
1716183341080248640,0.075,,,,17.487885052
1716183341087942520,0.075,,,,17.495578932
1716183341095636400,0.068,,,,17.503272812
1716183341103330280,0.07,,,,17.510966692
1716183341111024160,0.065,,,,17.518660572
1716183341118718040,0.068,,,,17.526354452
1716183341126411920,0.08,,,,17.534048332
1716183341134105800,0.08,,,,17.541742212
1716183341141799680,0.078,,,,17.549436092
1716183341149493560,0.087,,,,17.557129972
1716183341157187440,0.09,,,,17.564823852
1716183341164881320,0.073,,,,17.572517732
1716183341172575200,0.068,,,,17.580211612
1716183341180269080,0.078,,,,17.587905492
1716183341187962960,0.073,,,,17.595599372
1716183341195656840,0.063,,,,17.603293252
1716183341203350720,0.075,,,,17.610987132
1716183341211044600,0.08,,,,17.618681012
1716183341218738480,0.073,,,,17.626374892
1716183341226432360,0.073,,,,17.634068772
1716183341234126240,0.065,,,,17.641762652
1716183341241820120,0.048,,,,17.649456532
1716183341249514000,0.046,,,,17.657150412
1716183341257207880,0.056,,,,17.664844292
1716183341264901760,0.061,,,,17.672538172
1716183341272595640,0.07,,,,17.680232052
1716183341280289520,0.102,,,,17.687925932
1716183341287983400,0.112,,,,17.695619812
1716183341295677280,0.097,,,,17.703313692
1716183341303371160,0.092,,,,17.711007572
1716183341311065040,0.092,,,,17.718701452
1716183341318758920,0.087,,,,17.726395332
1716183341326452800,0.08,,,,17.734089212
1716183341334146680,0.078,,,,17.741783092
1716183341341840560,0.083,,,,17.749476972
1716183341349534440,0.085,,,,17.757170852
1716183341357228320,0.078,,,,17.764864732
1716183341364922200,0.073,,,,17.772558612
1716183341372616080,0.073,,,,17.780252492
1716183341380309960,0.075,,,,17.787946372
1716183341388003840,0.073,,,,17.795640252
1716183341395697720,0.063,,,,17.803334132
1716183341403391600,0.058,,,,17.811028012
1716183341411085480,0.227,,,,17.818721892
1716183341418779360,0.681,,,,17.826415772
1716183341426473240,0.957,,,,17.834109652
1716183341434167120,0.373,,,,17.841803532
1716183341441861000,-0.51,,,,17.849497412
1716183341449554880,-0.407,,,,17.857191292
1716183341457248760,0.183,,,,17.864885172
1716183341464942640,0.124,,,,17.872579052
1716183341472636520,-0.058,,,,17.880272932
1716183341480330400,0.092,,,,17.887966812
1716183341488024280,0.122,,,,17.895660692
1716183341495718160,0.048,,,,17.903354572
1716183341503412040,0.09,,,,17.911048452
1716183341511105920,0.124,,,,17.918742332
1716183341518799800,0.097,,,,17.926436212
1716183341526493680,0.102,,,,17.934130092
1716183341534187560,0.117,,,,17.941823972
1716183341541881440,0.112,,,,17.949517852
1716183341549575320,0.109,,,,17.957211732
1716183341557269200,0.122,,,,17.964905612
1716183341564963112,0.131,,,,17.972599524
1716183341572656783,0.129,,,,17.980293195
1716183341580350454,0.131,,,,17.987986866
1716183341588044125,0.139,,,,17.995680537
1716183341595737796,0.144,,,,18.003374208
1716183341603431467,0.148,,,,18.011067879
1716183341611125138,0.153,,,,18.01876155
1716183341618818809,0.161,,,,18.026455221
1716183341626512480,0.173,,,,18.034148892
1716183341634206151,0.173,,,,18.041842563
1716183341641899822,0.168,,,,18.049536234
1716183341649593493,0.17,,,,18.057229905
1716183341657287164,0.183,,,,18.064923576
1716183341664980835,0.19,,,,18.072617247
1716183341672674506,0.18,,,,18.080310918
1716183341680368177,0.161,,,,18.088004589
1716183341688061848,0.139,,,,18.09569826
1716183341695755519,0.122,,,,18.103391931
1716183341703449190,0.112,,,,18.111085602
1716183341711142861,0.097,,,,18.118779273
1716183341718836532,0.087,,,,18.126472944
1716183341726530203,0.09,,,,18.134166615
1716183341734223874,0.087,,,,18.141860286
1716183341741917545,0.075,,,,18.149553957
1716183341749611216,0.068,,,,18.157247628
1716183341757304887,0.07,,,,18.164941299
1716183341764998558,0.073,,,,18.17263497
1716183341772692229,0.075,,,,18.180328641
1716183341780385900,0.087,,,,18.188022312
1716183341788079571,0.095,,,,18.195715983
1716183341795773242,0.097,,,,18.203409654
1716183341803466913,0.095,,,,18.211103325
1716183341811160584,0.097,,,,18.218796996
1716183341818854255,0.102,,,,18.226490667
1716183341826547926,0.107,,,,18.234184338
1716183341834241597,0.112,,,,18.241878009
1716183341841935268,0.114,,,,18.24957168
1716183341849628939,0.112,,,,18.257265351
1716183341857322610,0.114,,,,18.264959022
1716183341865016281,0.122,,,,18.272652693
1716183341872709952,0.119,,,,18.280346364
1716183341880403623,0.119,,,,18.288040035
1716183341888097294,0.119,,,,18.295733706
1716183341895790965,0.114,,,,18.303427377
1716183341903484636,0.112,,,,18.311121048
1716183341911178307,0.109,,,,18.318814719
1716183341918871978,0.112,,,,18.32650839
1716183341926565649,0.117,,,,18.334202061
1716183341934259320,0.122,,,,18.341895732
1716183341941952991,0.119,,,,18.349589403
1716183341949646662,0.119,,,,18.357283074
1716183341957340333,0.122,,,,18.364976745
1716183341965034004,0.119,,,,18.372670416
1716183341972727675,0.114,,,,18.380364087
1716183341980421346,0.117,,,,18.388057758
1716183341988115017,0.117,,,,18.395751429
1716183341995808688,0.112,,,,18.4034451
1716183342003502359,0.107,,,,18.411138771
1716183342011196030,0.102,,,,18.418832442
1716183342018889701,0.1,,,,18.426526113
1716183342026583372,0.1,,,,18.434219784
1716183342034277043,0.097,,,,18.441913455
1716183342041970714,0.109,,,,18.449607126
1716183342049664385,0.129,,,,18.457300797
1716183342057358056,0.136,,,,18.464994468
1716183342065051727,0.136,,,,18.472688139
1716183342072745398,0.136,,,,18.48038181
1716183342080439069,0.129,,,,18.488075481
1716183342088132740,0.119,,,,18.495769152
1716183342095826411,0.114,,,,18.503462823
1716183342103520082,0.117,,,,18.511156494
1716183342111213753,0.112,,,,18.518850165
1716183342118907424,0.109,,,,18.526543836
1716183342126601124,0.109,78.0,784.0,,18.534237536
1716183342134295074,0.107,,,,18.541931486
1716183342141989024,0.102,,,,18.549625436
1716183342149682974,0.097,,,,18.557319386
1716183342157376924,0.092,,,,18.565013336
1716183342165070874,0.073,,,,18.572707286
1716183342172764824,0.048,,,,18.580401236
1716183342180458774,0.202,,,,18.588095186
1716183342188152724,0.666,,,,18.595789136
1716183342195846674,0.996,,,,18.603483086
1716183342203540624,0.451,,,,18.611177036
1716183342211234574,-0.454,,,,18.618870986
1716183342218928524,-0.395,,,,18.626564936
1716183342226622474,0.161,,,,18.634258886
1716183342234316424,0.102,,,,18.641952836
1716183342242010374,-0.07,,,,18.649646786
1716183342249704324,0.063,,,,18.657340736
1716183342257398274,0.092,,,,18.665034686
1716183342265092224,0.021,,,,18.672728636
1716183342272786174,0.056,,,,18.680422586
1716183342280480124,0.09,,,,18.688116536
1716183342288174074,0.065,,,,18.695810486
1716183342295868024,0.07,,,,18.703504436
1716183342303561974,0.092,,,,18.711198386
1716183342311255924,0.09,,,,18.718892336
1716183342318949874,0.09,,,,18.726586286
1716183342326643824,0.102,,,,18.734280236
1716183342334337774,0.104,,,,18.741974186
1716183342342031724,0.107,,,,18.749668136
1716183342349725674,0.112,,,,18.757362086
1716183342357419624,0.117,,,,18.765056036
1716183342365113574,0.119,,,,18.772749986
1716183342372807524,0.122,,,,18.780443936
1716183342380501474,0.131,,,,18.788137886
1716183342388195424,0.139,,,,18.795831836
1716183342395889374,0.141,,,,18.803525786
1716183342403583324,0.151,,,,18.811219736
1716183342411277274,0.158,,,,18.818913686
1716183342418971224,0.17,,,,18.826607636
1716183342426665174,0.18,,,,18.834301586
1716183342434359124,0.185,,,,18.841995536
1716183342442053074,0.175,,,,18.849689486
1716183342449747024,0.153,,,,18.857383436
1716183342457440974,0.131,,,,18.865077386
1716183342465134924,0.114,,,,18.872771336
1716183342472828874,0.097,,,,18.880465286
1716183342480522824,0.085,,,,18.888159236
1716183342488216774,0.078,,,,18.895853186
1716183342495910724,0.07,,,,18.903547136
1716183342503604674,0.07,,,,18.911241086
1716183342511298624,0.073,,,,18.918935036
1716183342518992574,0.075,,,,18.926628986
1716183342526686524,0.073,,,,18.934322936
1716183342534380474,0.073,,,,18.942016886
1716183342542074424,0.075,,,,18.949710836
1716183342549768374,0.075,,,,18.957404786
1716183342557462324,0.078,,,,18.965098736
1716183342565156274,0.083,,,,18.972792686
1716183342572850224,0.087,,,,18.980486636
1716183342580544174,0.092,,,,18.988180586
1716183342588238124,0.09,,,,18.995874536
1716183342595932074,0.087,,,,19.003568486
1716183342603626024,0.095,,,,19.011262436
1716183342611319974,0.097,,,,19.018956386
1716183342619013924,0.097,,,,19.026650336
1716183342626707874,0.095,,,,19.034344286
1716183342634401824,0.085,,,,19.042038236
1716183342642095774,0.083,,,,19.049732186
1716183342649789724,0.09,,,,19.057426136
1716183342657483674,0.092,,,,19.065120086
1716183342665177624,0.09,,,,19.072814036
1716183342672871574,0.092,,,,19.080507986
1716183342680565524,0.097,,,,19.088201936
1716183342688259482,0.095,77.0,782.0,,19.095895894
1716183342695953083,0.097,,,,19.103589495
1716183342703646684,0.1,,,,19.111283096
1716183342711340285,0.1,,,,19.118976697
1716183342719033886,0.1,,,,19.126670298
1716183342726727487,0.1,,,,19.134363899
1716183342734421088,0.102,,,,19.1420575
1716183342742114689,0.097,,,,19.149751101
1716183342749808290,0.087,,,,19.157444702
1716183342757501891,0.087,,,,19.165138303
1716183342765195492,0.083,,,,19.172831904
1716183342772889093,0.063,,,,19.180525505
1716183342780582694,0.048,,,,19.188219106
1716183342788276295,0.051,,,,19.195912707
1716183342795969896,0.058,,,,19.203606308
1716183342803663497,0.063,,,,19.211299909
1716183342811357098,0.078,,,,19.21899351
1716183342819050699,0.1,,,,19.226687111
1716183342826744300,0.104,,,,19.234380712
1716183342834437901,0.102,,,,19.242074313
1716183342842131502,0.097,,,,19.249767914
1716183342849825103,0.09,,,,19.257461515
1716183342857518704,0.085,,,,19.265155116
1716183342865212305,0.08,,,,19.272848717
1716183342872905906,0.078,,,,19.280542318
1716183342880599507,0.075,,,,19.288235919
1716183342888293108,0.073,,,,19.29592952
1716183342895986709,0.075,,,,19.303623121
1716183342903680310,0.08,,,,19.311316722
1716183342911373911,0.08,,,,19.319010323
1716183342919067512,0.078,,,,19.326703924
1716183342926761113,0.07,,,,19.334397525
1716183342934454714,0.043,,,,19.342091126
1716183342942148315,0.095,,,,19.349784727
1716183342949841916,0.434,,,,19.357478328
1716183342957535517,0.903,,,,19.365171929
1716183342965229118,0.764,,,,19.37286553
1716183342972922719,-0.141,,,,19.380559131
1716183342980616320,-0.5760000000000001,,,,19.388252732
1716183342988309921,-0.051,,,,19.395946333
1716183342996003522,0.19,,,,19.403639934
1716183343003697123,-0.041,,,,19.411333535
1716183343011390724,0.0,,,,19.419027136
1716183343019084325,0.112,,,,19.426720737
1716183343026777926,0.046,,,,19.434414338
1716183343034471527,0.041,,,,19.442107939
1716183343042165128,0.095,,,,19.44980154
1716183343049858729,0.085,,,,19.457495141
1716183343057552330,0.075,,,,19.465188742
1716183343065245931,0.087,,,,19.472882343
1716183343072939532,0.085,,,,19.480575944
1716183343080633133,0.087,,,,19.488269545
1716183343088326734,0.097,,,,19.495963146
1716183343096020335,0.1,,,,19.503656747
1716183343103713936,0.1,,,,19.511350348
1716183343111407537,0.104,,,,19.519043949
1716183343119101138,0.109,,,,19.52673755
1716183343126794739,0.102,,,,19.534431151
1716183343134488340,0.1,,,,19.542124752
1716183343142181941,0.112,,,,19.549818353
1716183343149875542,0.124,,,,19.557511954
1716183343157569143,0.134,,,,19.565205555
1716183343165262744,0.144,,,,19.572899156
1716183343172956345,0.153,,,,19.580592757
1716183343180649946,0.166,,,,19.588286358
1716183343188343547,0.17,,,,19.595979959
1716183343196037148,0.175,,,,19.60367356
1716183343203730749,0.175,,,,19.611367161
1716183343211424350,0.161,,,,19.619060762
1716183343219117951,0.136,,,,19.626754363
1716183343226811552,0.109,,,,19.634447964
1716183343234505153,0.09,,,,19.642141565
1716183343242198754,0.08,,,,19.649835166
1716183343249892410,0.065,,,,19.657528822
1716183343257586290,0.051,,,,19.665222702
1716183343265280170,0.051,,,,19.672916582
1716183343272974050,0.056,,,,19.680610462
1716183343280667930,0.043,,,,19.688304342
1716183343288361810,0.031,,,,19.695998222
1716183343296055690,0.034,,,,19.703692102
1716183343303749570,0.046,,,,19.711385982
1716183343311443450,0.051,,,,19.719079862
1716183343319137330,0.058,,,,19.726773742
1716183343326831210,0.061,,,,19.734467622
1716183343334525090,0.063,,,,19.742161502
1716183343342218970,0.068,,,,19.749855382
1716183343349912850,0.073,,,,19.757549262
1716183343357606730,0.078,,,,19.765243142
1716183343365300610,0.078,,,,19.772937022
1716183343372994490,0.065,,,,19.780630902
1716183343380688370,0.07,,,,19.788324782
1716183343388382250,0.083,,,,19.796018662
1716183343396076130,0.085,,,,19.803712542
1716183343403770010,0.087,,,,19.811406422
1716183343411463890,0.092,,,,19.819100302
1716183343419157770,0.095,,,,19.826794182
1716183343426851650,0.087,,,,19.834488062
1716183343434545530,0.087,,,,19.842181942
1716183343442239410,0.095,,,,19.849875822
1716183343449933290,0.095,,,,19.857569702
1716183343457627170,0.092,,,,19.865263582
1716183343465321050,0.09,,,,19.872957462
1716183343473014930,0.09,,,,19.880651342
1716183343480708810,0.095,,,,19.888345222
1716183343488402690,0.102,,,,19.896039102
1716183343496096570,0.102,,,,19.903732982
1716183343503790450,0.1,,,,19.911426862
1716183343511484330,0.097,,,,19.919120742
1716183343519178210,0.097,,,,19.926814622
1716183343526872090,0.097,,,,19.934508502
1716183343534565970,0.095,,,,19.942202382
1716183343542259850,0.087,,,,19.949896262
1716183343549953730,0.078,,,,19.957590142
1716183343557647610,0.073,,,,19.965284022
1716183343565341490,0.08,,,,19.972977902
1716183343573035370,0.097,,,,19.980671782
1716183343580729250,0.112,,,,19.988365662
1716183343588423130,0.114,,,,19.996059542
1716183343596117010,0.114,,,,20.003753422
1716183343603810890,0.104,,,,20.011447302
1716183343611504770,0.092,,,,20.019141182
1716183343619198650,0.087,,,,20.026835062
1716183343626892530,0.085,,,,20.034528942
1716183343634586410,0.085,,,,20.042222822
1716183343642280290,0.085,,,,20.049916702
1716183343649974170,0.08,,,,20.057610582
1716183343657668050,0.083,,,,20.065304462
1716183343665361930,0.09,,,,20.072998342
1716183343673055810,0.092,,,,20.080692222
1716183343680749690,0.095,,,,20.088386102
1716183343688443570,0.085,,,,20.096079982
1716183343696137450,0.053,,,,20.103773862
1716183343703831330,0.107,,,,20.111467742
1716183343711525210,0.461,,,,20.119161622
1716183343719219090,0.939,,,,20.126855502
1716183343726912970,0.761,,,,20.134549382
1716183343734606850,-0.197,,,,20.142243262
1716183343742300730,-0.62,,,,20.149937142
1716183343749994610,-0.036,,,,20.157631022
1716183343757688490,0.202,,,,20.165324902
1716183343765382370,-0.068,,,,20.173018782
1716183343773076250,-0.017,,,,20.180712662
1716183343780770130,0.112,,,,20.188406542
1716183343788464010,0.031,,,,20.196100422
1716183343796157890,0.017,,,,20.203794302
1716183343803851770,0.078,,,,20.211488182
1716183343811545680,0.068,77.0,776.0,,20.219182092
1716183343819239560,0.058,,770.0,,20.226875972
1716183343826933440,0.075,,,,20.234569852
1716183343834627320,0.075,,,,20.242263732
1716183343842321200,0.07,,,,20.249957612
1716183343850015080,0.078,,,,20.257651492
1716183343857708960,0.078,,,,20.265345372
1716183343865402840,0.068,,,,20.273039252
1716183343873096720,0.07,,,,20.280733132
1716183343880790600,0.078,,,,20.288427012
1716183343888484480,0.08,,,,20.296120892
1716183343896178360,0.09,,,,20.303814772
1716183343903872240,0.104,,,,20.311508652
1716183343911566120,0.107,,,,20.319202532
1716183343919260000,0.114,,,,20.326896412
1716183343926953880,0.122,,,,20.334590292
1716183343934647760,0.134,,,,20.342284172
1716183343942341640,0.153,,,,20.349978052
1716183343950035520,0.161,,,,20.357671932
1716183343957729400,0.168,,,,20.365365812
1716183343965423280,0.163,,,,20.373059692
1716183343973117160,0.141,,,,20.380753572
1716183343980811040,0.122,,,,20.388447452
1716183343988504920,0.104,,,,20.396141332
1716183343996198800,0.085,,,,20.403835212
1716183344003892680,0.068,,,,20.411529092
1716183344011586560,0.061,,,,20.419222972
1716183344019280440,0.061,,,,20.426916852
1716183344026974320,0.061,,,,20.434610732
1716183344034668200,0.056,,,,20.442304612
1716183344042362080,0.056,,,,20.449998492
1716183344050055960,0.061,,,,20.457692372
1716183344057749840,0.063,,,,20.465386252
1716183344065443720,0.056,,,,20.473080132
1716183344073137600,0.065,,,,20.480774012
1716183344080831480,0.078,,,,20.488467892
1716183344088525360,0.075,,,,20.496161772
1716183344096219240,0.075,,,,20.503855652
1716183344103913120,0.083,,,,20.511549532
1716183344111607000,0.075,,,,20.519243412
1716183344119300880,0.065,,,,20.526937292
1716183344126994760,0.068,,,,20.534631172
1716183344134688640,0.08,,,,20.542325052
1716183344142382520,0.085,,,,20.550018932
1716183344150076400,0.083,,,,20.557712812
1716183344157770280,0.083,,,,20.565406692
1716183344165464160,0.083,,,,20.573100572
1716183344173158040,0.085,,,,20.580794452
1716183344180851920,0.087,,,,20.588488332
1716183344188545800,0.095,,,,20.596182212
1716183344196239680,0.097,,,,20.603876092
1716183344203933560,0.092,,,,20.611569972
1716183344211627440,0.09,,,,20.619263852
1716183344219321320,0.097,,,,20.626957732
1716183344227015200,0.097,,,,20.634651612
1716183344234709080,0.092,,,,20.642345492
1716183344242402960,0.087,,,,20.650039372
1716183344250096840,0.087,,,,20.657733252
1716183344257790720,0.083,,,,20.665427132
1716183344265484600,0.075,,,,20.673121012
1716183344273178480,0.075,,,,20.680814892
1716183344280872360,0.083,,,,20.688508772
1716183344288566240,0.085,,,,20.696202652
1716183344296260120,0.08,,,,20.703896532
1716183344303954000,0.07,,,,20.711590412
1716183344311647880,0.063,,,,20.719284292
1716183344319341760,0.073,,,,20.726978172
1716183344327035640,0.085,,,,20.734672052
1716183344334729520,0.087,,,,20.742365932
1716183344342423400,0.092,,,,20.750059812
1716183344350117280,0.107,,,,20.757753692
1716183344357811160,0.112,,,,20.765447572
1716183344365505040,0.092,,,,20.773141452
1716183344373198954,0.078,,,,20.780835366
1716183344380892555,0.083,,,,20.788528967
1716183344388586156,0.083,,,,20.796222568
1716183344396279757,0.068,,,,20.803916169
1716183344403973358,0.068,,,,20.81160977
1716183344411666959,0.083,,,,20.819303371
1716183344419360560,0.087,,,,20.826996972
1716183344427054161,0.085,,,,20.834690573
1716183344434747762,0.085,,,,20.842384174
1716183344442441363,0.085,,,,20.850077775
1716183344450134964,0.08,,,,20.857771376
1716183344457828565,0.063,,,,20.865464977
1716183344465522166,0.043,,,,20.873158578
1716183344473215767,0.141,,,,20.880852179
1716183344480909368,0.541,,,,20.88854578
1716183344488602969,0.957,,,,20.896239381
1716183344496296570,0.629,,,,20.903932982
1716183344503990171,-0.322,,,,20.911626583
1716183344511683772,-0.554,,,,20.919320184
1716183344519377373,0.041,,,,20.927013785
1716183344527070974,0.156,,,,20.934707386
1716183344534764575,-0.083,,,,20.942400987
1716183344542458176,0.021,,,,20.950094588
1716183344550151777,0.109,,,,20.957788189
1716183344557845378,0.029,,,,20.96548179
1716183344565538979,0.043,,,,20.973175391
1716183344573232580,0.097,,,,20.980868992
1716183344580926181,0.08,,,,20.988562593
1716183344588619782,0.068,,,,20.996256194
1716183344596313383,0.083,,,,21.003949795
1716183344604006984,0.08,,,,21.011643396
1716183344611700585,0.075,,,,21.019336997
1716183344619394186,0.08,,,,21.027030598
1716183344627087787,0.08,,,,21.034724199
1716183344634781388,0.083,,,,21.0424178
1716183344642474989,0.095,,,,21.050111401
1716183344650168590,0.102,,,,21.057805002
1716183344657862191,0.102,,,,21.065498603
1716183344665555792,0.104,,,,21.073192204
1716183344673249393,0.117,,,,21.080885805
1716183344680942994,0.134,,,,21.088579406
1716183344688636595,0.134,,,,21.096273007
1716183344696330196,0.139,,,,21.103966608
1716183344704023797,0.153,,,,21.111660209
1716183344711717398,0.163,,,,21.11935381
1716183344719410999,0.168,,,,21.127047411
1716183344727104600,0.17,,,,21.134741012
1716183344734798201,0.166,,,,21.142434613
1716183344742491802,0.151,,,,21.150128214
1716183344750185403,0.129,,,,21.157821815
1716183344757879004,0.107,,,,21.165515416
1716183344765572605,0.087,,,,21.173209017
1716183344773266206,0.073,,,,21.180902618
1716183344780959807,0.058,,,,21.188596219
1716183344788653408,0.053,,,,21.19628982
1716183344796347009,0.061,,,,21.203983421
1716183344804040610,0.061,,,,21.211677022
1716183344811734211,0.056,,,,21.219370623
1716183344819427812,0.058,,,,21.227064224
1716183344827121413,0.065,,,,21.234757825
1716183344834815014,0.07,,,,21.242451426
1716183344842508615,0.07,,,,21.250145027
1716183344850202216,0.07,,,,21.257838628
1716183344857895817,0.073,,,,21.265532229
1716183344865589418,0.07,,,,21.27322583
1716183344873283019,0.065,,,,21.280919431
1716183344880976620,0.073,,,,21.288613032
1716183344888670221,0.087,,,,21.296306633
1716183344896363822,0.09,,,,21.304000234
1716183344904057423,0.085,,,,21.311693835
1716183344911751024,0.087,,,,21.319387436
1716183344919444625,0.1,,,,21.327081037
1716183344927138226,0.097,,,,21.334774638
1716183344934831880,0.09,77.0,765.0,,21.342468292
1716183344942525830,0.095,,,,21.350162242
1716183344950219780,0.1,,,,21.357856192
1716183344957913730,0.1,,,,21.365550142
1716183344965607680,0.102,,,,21.373244092
1716183344973301630,0.104,,,,21.380938042
1716183344980995580,0.104,,,,21.388631992
1716183344988689530,0.09,,,,21.396325942
1716183344996383480,0.083,,,,21.404019892
1716183345004077430,0.09,,,,21.411713842
1716183345011771380,0.097,,,,21.419407792
1716183345019465330,0.092,,,,21.427101742
1716183345027159280,0.078,,,,21.434795692
1716183345034853230,0.08,,,,21.442489642
1716183345042547180,0.087,,,,21.450183592
1716183345050241130,0.085,,,,21.457877542
1716183345057935080,0.085,,,,21.465571492
1716183345065629030,0.083,,,,21.473265442
1716183345073322980,0.078,,,,21.480959392
1716183345081016930,0.075,,,,21.488653342
1716183345088710880,0.073,,,,21.496347292
1716183345096404830,0.07,,,,21.504041242
1716183345104098780,0.078,,,,21.511735192
1716183345111792730,0.097,,,,21.519429142
1716183345119486680,0.109,,,,21.527123092
1716183345127180630,0.1,,,,21.534817042
1716183345134874580,0.095,,,,21.542510992
1716183345142568530,0.097,,,,21.550204942
1716183345150262480,0.087,,,,21.557898892
1716183345157956430,0.078,,,,21.565592842
1716183345165650380,0.08,,,,21.573286792
1716183345173344330,0.078,,,,21.580980742
1716183345181038280,0.078,,,,21.588674692
1716183345188732230,0.085,,,,21.596368642
1716183345196426180,0.092,,,,21.604062592
1716183345204120130,0.083,,,,21.611756542
1716183345211814080,0.078,,,,21.619450492
1716183345219508030,0.09,,,,21.627144442
1716183345227201980,0.087,,,,21.634838392
1716183345234895930,0.056,,,,21.642532342
1716183345242589880,0.083,,,,21.650226292
1716183345250283830,0.395,,,,21.657920242
1716183345257977780,0.886,,,,21.665614192
1716183345265671730,0.844,,,,21.673308142
1716183345273365680,-0.041,,,,21.681002092
1716183345281059630,-0.622,,,,21.688696042
1716183345288753580,-0.136,,,,21.696389992
1716183345296447530,0.207,,,,21.704083942
1716183345304141480,-0.034,,,,21.711777892
1716183345311835430,-0.039,,,,21.719471842
1716183345319529380,0.109,,,,21.727165792
1716183345327223330,0.053,,,,21.734859742
1716183345334917280,0.019,,,,21.742553692
1716183345342611230,0.068,,,,21.750247642
1716183345350305180,0.061,,,,21.757941592
1716183345357999130,0.041,,,,21.765635542
1716183345365693080,0.061,,,,21.773329492
1716183345373387030,0.08,,,,21.781023442
1716183345381080980,0.078,,,,21.788717392
1716183345388774930,0.075,,,,21.796411342
1716183345396468880,0.08,,,,21.804105292
1716183345404162830,0.092,,,,21.811799242
1716183345411856780,0.097,,,,21.819493192
1716183345419550730,0.092,,,,21.827187142
1716183345427244680,0.097,,,,21.834881092
1716183345434938630,0.109,,,,21.842575042
1716183345442632580,0.112,,,,21.850268992
1716183345450326530,0.114,,,,21.857962942
1716183345458020480,0.136,,,,21.865656892
1716183345465714430,0.156,,,,21.873350842
1716183345473408380,0.161,,,,21.881044792
1716183345481102330,0.166,,,,21.888738742
1716183345488796280,0.173,,,,21.896432692
1716183345496490238,0.175,,,,21.90412665
1716183345504183909,0.17,,,,21.911820321
1716183345511877580,0.156,,,,21.919513992
1716183345519571251,0.141,,,,21.927207663
1716183345527264922,0.119,,,,21.934901334
1716183345534958593,0.092,,,,21.942595005
1716183345542652264,0.075,,,,21.950288676
1716183345550345935,0.078,,,,21.957982347
1716183345558039606,0.073,,,,21.965676018
1716183345565733277,0.056,,,,21.973369689
1716183345573426948,0.051,,,,21.98106336
1716183345581120619,0.058,,,,21.988757031
1716183345588814290,0.048,,,,21.996450702
1716183345596507961,0.043,,,,22.004144373
1716183345604201632,0.051,,,,22.011838044
1716183345611895303,0.061,,,,22.019531715
1716183345619588974,0.063,,,,22.027225386
1716183345627282645,0.063,,,,22.034919057
1716183345634976316,0.065,,,,22.042612728
1716183345642669987,0.073,,,,22.050306399
1716183345650363658,0.078,,,,22.05800007
1716183345658057329,0.083,,,,22.065693741
1716183345665751000,0.087,,,,22.073387412
1716183345673444671,0.095,,,,22.081081083
1716183345681138342,0.097,,,,22.088774754
1716183345688832013,0.09,,,,22.096468425
1716183345696525684,0.087,,,,22.104162096
1716183345704219355,0.09,,,,22.111855767
1716183345711913026,0.102,,,,22.119549438
1716183345719606697,0.112,,,,22.127243109
1716183345727300368,0.102,,,,22.13493678
1716183345734994039,0.095,,,,22.142630451
1716183345742687710,0.104,,,,22.150324122
1716183345750381381,0.109,,,,22.158017793
1716183345758075052,0.1,,,,22.165711464
1716183345765768723,0.09,,,,22.173405135
1716183345773462394,0.09,,,,22.181098806
1716183345781156065,0.095,,,,22.188792477
1716183345788849736,0.1,,,,22.196486148
1716183345796543407,0.104,,,,22.204179819
1716183345804237078,0.102,,,,22.21187349
1716183345811930749,0.097,,,,22.219567161
1716183345819624420,0.095,,,,22.227260832
1716183345827318091,0.097,,,,22.234954503
1716183345835011762,0.102,,,,22.242648174
1716183345842705433,0.097,,,,22.250341845
1716183345850399104,0.092,,,,22.258035516
1716183345858092775,0.09,,,,22.265729187
1716183345865786446,0.09,,,,22.273422858
1716183345873480117,0.095,,,,22.281116529
1716183345881173788,0.109,,,,22.2888102
