HRV_ULF,HRV_VLF,HRV_LF,HRV_HF,HRV_VHF,HRV_TP,HRV_LFHF,HRV_LFn,HRV_HFn,HRV_LnHF,time
,,0.021950761273168196,0.016537727683706514,0.00335181012498682,0.04184029908186153,1.3273142291969635,0.5246320354981453,0.39525835251201386,-4.102110981913599,0.0
,,0.021950761273168196,0.016537727683706514,0.00335181012498682,0.04184029908186153,1.3273142291969635,0.5246320354981453,0.39525835251201386,-4.102110981913599,0.1
,,0.007988960768302342,0.01092588858357519,0.002285192654404306,0.02120004200628184,1.1286079923090153,0.3768370254141531,0.5153710818279376,-4.516620206426961,0.2
,,0.007988960768302342,0.01092588858357519,0.002285192654404306,0.02120004200628184,1.029254873865041,0.3768370254141531,0.5153710818279376,-4.516620206426961,0.3
,,0.007988960768302342,0.01092588858357519,0.002285192654404306,0.02120004200628184,0.9696430027986566,0.3768370254141531,0.5153710818279376,-4.516620206426961,0.4
,,0.024707660616176522,0.019232868307701045,0.0037611783208931124,0.04770170724477068,1.0221455238382964,0.5179617678963704,0.4031903556200173,-3.9511345725376192,0.5
,,0.024707660616176522,0.019232868307701045,0.0037611783208931124,0.04770170724477068,1.0596473245808962,0.5179617678963704,0.4031903556200173,-3.9511345725376192,0.6
,,0.024707660616176522,0.019232868307701045,0.0037611783208931124,0.04770170724477068,1.087773675137846,0.5179617678963704,0.4031903556200173,-3.9511345725376192,0.7
,,0.024707660616176522,0.019232868307701045,0.0037611783208931124,0.04770170724477068,1.1096497255710291,0.5179617678963704,0.4031903556200173,-3.9511345725376192,0.8
,,0.024707660616176522,0.019232868307701045,0.0037611783208931124,0.04770170724477068,1.1271505659175758,0.5179617678963704,0.4031903556200173,-3.9511345725376192,0.9
,,0.01733694765083271,0.011713793219064184,0.0024576494862191475,0.03150839035611604,1.1592319290640847,0.5502327302310911,0.37176742723674044,-4.446988223932007,1.0
,,0.01733694765083271,0.011713793219064184,0.0024576494862191475,0.03150839035611604,1.1859663983528426,0.5502327302310911,0.37176742723674044,-4.446988223932007,1.1
,,0.01733694765083271,0.011713793219064184,0.0024576494862191475,0.03150839035611604,1.2085878723664065,0.5502327302310911,0.37176742723674044,-4.446988223932007,1.2
,,0.01733694765083271,0.011713793219064184,0.0024576494862191475,0.03150839035611604,1.2279777072351759,0.5502327302310911,0.37176742723674044,-4.446988223932007,1.3
,,0.021231714732237117,0.014122395033629396,0.003184517015996615,0.03853862678186312,1.2463396939893532,0.5509203753525824,0.36644780089247014,-4.259993441355453,1.4
,,0.021231714732237117,0.014122395033629396,0.003184517015996615,0.03853862678186312,1.2624064323992585,0.5509203753525824,0.36644780089247014,-4.259993441355453,1.5
,,0.021231714732237117,0.014122395033629396,0.003184517015996615,0.03853862678186312,1.2765829662903512,0.5509203753525824,0.36644780089247014,-4.259993441355453,1.6
,,0.021231714732237117,0.014122395033629396,0.003184517015996615,0.03853862678186312,1.2891843297491006,0.5509203753525824,0.36644780089247014,-4.259993441355453,1.7
,,0.021896995673945378,0.014304256841534082,0.0030201865601356213,0.03922143907561508,1.3019010885780191,0.5582914903180917,0.3647050485311587,-4.247198104788382,1.8
,,0.021896995673945378,0.014304256841534082,0.0030201865601356213,0.03922143907561508,1.313346171524046,0.5582914903180917,0.3647050485311587,-4.247198104788382,1.9
,,0.021896995673945378,0.014304256841534082,0.0030201865601356213,0.03922143907561508,1.3237012465704512,0.5582914903180917,0.3647050485311587,-4.247198104788382,2.0
,,0.021896995673945378,0.014304256841534082,0.0030201865601356213,0.03922143907561508,1.3331149511580922,0.5582914903180917,0.3647050485311587,-4.247198104788382,2.1
,,0.021896995673945378,0.014304256841534082,0.0030201865601356213,0.03922143907561508,1.3417100727381124,0.5582914903180917,0.3647050485311587,-4.247198104788382,2.2
,,0.032339139374450654,0.021445562656539588,0.004861382738054178,0.05864608476904442,1.3486373253974326,0.5514287867946549,0.3656776533505158,-3.8422375241674804,2.3
,,0.032339139374450654,0.021445562656539588,0.004861382738054178,0.05864608476904442,1.3550103978440071,0.5514287867946549,0.3656776533505158,-3.8422375241674804,2.4
,,0.032339139374450654,0.021445562656539588,0.004861382738054178,0.05864608476904442,1.3608932339485376,0.5514287867946549,0.3656776533505158,-3.8422375241674804,2.5
,,0.033524134458018745,0.021485980793354575,0.00462476379070684,0.05963487904208016,1.3682779088981771,0.562156492920244,0.3602921836764928,-3.840354612652615,2.6
,,0.033524134458018745,0.021485980793354575,0.00462476379070684,0.05963487904208016,1.3751351070656994,0.562156492920244,0.3602921836764928,-3.840354612652615,2.7
,,0.033524134458018745,0.021485980793354575,0.00462476379070684,0.05963487904208016,1.3815193950147722,0.562156492920244,0.3602921836764928,-3.840354612652615,2.8
,,0.033524134458018745,0.021485980793354575,0.00462476379070684,0.05963487904208016,1.38747806376724,0.562156492920244,0.3602921836764928,-3.840354612652615,2.9
,,0.033524134458018745,0.021485980793354575,0.00462476379070684,0.05963487904208016,1.393052302277613,0.562156492920244,0.3602921836764928,-3.840354612652615,3.0
,,0.033524134458018745,0.021485980793354575,0.00462476379070684,0.05963487904208016,1.3982781508810878,0.562156492920244,0.3602921836764928,-3.840354612652615,3.1
,,0.033524134458018745,0.021485980793354575,0.00462476379070684,0.05963487904208016,1.403187281387382,0.562156492920244,0.3602921836764928,-3.840354612652615,3.2
,,0.022848001305245245,0.022022582205880235,0.003975134359113798,0.04884571787023928,1.3924312018616132,0.46775853240486565,0.45086003781097367,-3.8156868881740205,3.3
,,0.022848001305245245,0.022022582205880235,0.003975134359113798,0.04884571787023928,1.3822897554516023,0.46775853240486565,0.45086003781097367,-3.8156868881740205,3.4
,,0.022848001305245245,0.022022582205880235,0.003975134359113798,0.04884571787023928,1.3727117227310364,0.46775853240486565,0.45086003781097367,-3.8156868881740205,3.5
,,0.022848001305245245,0.022022582205880235,0.003975134359113798,0.04884571787023928,1.3636514215088795,0.46775853240486565,0.45086003781097367,-3.8156868881740205,3.6
,,0.022848001305245245,0.022022582205880235,0.003975134359113798,0.04884571787023928,1.3550679782457835,0.46775853240486565,0.45086003781097367,-3.8156868881740205,3.7
,,0.022848001305245245,0.022022582205880235,0.003975134359113798,0.04884571787023928,1.3469247115602825,0.46775853240486565,0.45086003781097367,-3.8156868881740205,3.8
,,0.022848001305245245,0.022022582205880235,0.003975134359113798,0.04884571787023928,1.339188608209056,0.46775853240486565,0.45086003781097367,-3.8156868881740205,3.9
,,0.022848001305245245,0.022022582205880235,0.003975134359113798,0.04884571787023928,1.3318298757530116,0.46775853240486565,0.45086003781097367,-3.8156868881740205,4.0
,,0.03661277168561422,0.01999341173272987,0.004305547699444016,0.0609117311177881,1.3437206363257488,0.6010791519750809,0.328235815430489,-3.9123524730601527,4.1
,,0.03998281842225538,0.020225216837120925,0.003711509191244272,0.06391954445062058,1.3584452632170447,0.6255178876179741,0.316416786304624,-3.900825094852981,4.2
,,0.03998281842225538,0.020225216837120925,0.003711509191244272,0.06391954445062058,1.3725005888860091,0.6255178876179741,0.316416786304624,-3.900825094852981,4.3
,,0.03998281842225538,0.020225216837120925,0.003711509191244272,0.06391954445062058,1.3859312334141305,0.6255178876179741,0.316416786304624,-3.900825094852981,4.4
,,0.03998281842225538,0.020225216837120925,0.003711509191244272,0.06391954445062058,1.398777936875812,0.6255178876179741,0.316416786304624,-3.900825094852981,4.5
,,0.03998281842225538,0.020225216837120925,0.003711509191244272,0.06391954445062058,1.4110779721050812,0.6255178876179741,0.316416786304624,-3.900825094852981,4.6
,,0.03998281842225538,0.020225216837120925,0.003711509191244272,0.06391954445062058,1.4228655058664648,0.6255178876179741,0.316416786304624,-3.900825094852981,4.7
,,0.03729652612734403,0.018151921688987948,0.003989211278945021,0.05943765909527699,1.4357598317511835,0.6274898220261111,0.305394289837204,-4.0089788456948225,4.8
,,0.03729652612734403,0.018151921688987948,0.003989211278945021,0.05943765909527699,1.4481383846005138,0.6274898220261111,0.305394289837204,-4.0089788456948225,4.9
,,0.03729652612734403,0.018151921688987948,0.003989211278945021,0.05943765909527699,1.4600315040047722,0.6274898220261111,0.305394289837204,-4.0089788456948225,5.0
,,0.03729652612734403,0.018151921688987948,0.003989211278945021,0.05943765909527699,1.4714671957396361,0.6274898220261111,0.305394289837204,-4.0089788456948225,5.1
,,0.023226810407899732,0.017610476826410083,0.0044725776183380285,0.045309864852647846,1.4685889470977063,0.5126214894578832,0.3886676087797015,-4.039261279815608,5.2
,,0.023226810407899732,0.017610476826410083,0.0044725776183380285,0.045309864852647846,1.4658173002573291,0.5126214894578832,0.3886676087797015,-4.039261279815608,5.3
,,0.023226810407899732,0.017610476826410083,0.0044725776183380285,0.045309864852647846,1.463146440574784,0.5126214894578832,0.3886676087797015,-4.039261279815608,5.4
,,0.023727483901821066,0.017673030011609536,0.00420315817829969,0.045603672091730295,1.4609934959745765,0.520297660550098,0.3875352400583184,-4.035715529614343,5.5
,,0.023727483901821066,0.017673030011609536,0.00420315817829969,0.045603672091730295,1.458916093290166,0.520297660550098,0.3875352400583184,-4.035715529614343,5.6
,,0.023727483901821066,0.017673030011609536,0.00420315817829969,0.045603672091730295,1.4569103251810795,0.520297660550098,0.3875352400583184,-4.035715529614343,5.7
,,0.023727483901821066,0.017673030011609536,0.00420315817829969,0.045603672091730295,1.4549725492112846,0.520297660550098,0.3875352400583184,-4.035715529614343,5.8
,,0.023727483901821066,0.017673030011609536,0.00420315817829969,0.045603672091730295,1.4530993657738158,0.520297660550098,0.3875352400583184,-4.035715529614343,5.9
,,0.023727483901821066,0.017673030011609536,0.00420315817829969,0.045603672091730295,1.4512875981867561,0.520297660550098,0.3875352400583184,-4.035715529614343,6.0
,,0.03905965161570736,0.0158918217378537,0.004272117968049643,0.0592235913216107,1.467522412260625,0.659528588929974,0.26833600231289534,-4.141950658192263,6.1
,,0.03937347105214639,0.016075943247022693,0.003970904437176939,0.05942031873634602,1.4831048636255626,0.6626263858807367,0.27054623046290416,-4.1304313326936075,6.2
,,0.03937347105214639,0.016075943247022693,0.003970904437176939,0.05942031873634602,1.4982003633853465,0.6626263858807367,0.27054623046290416,-4.1304313326936075,6.3
,,0.03937347105214639,0.016075943247022693,0.003970904437176939,0.05942031873634602,1.5128313862294445,0.6626263858807367,0.27054623046290416,-4.1304313326936075,6.4
,,0.03937347105214639,0.016075943247022693,0.003970904437176939,0.05942031873634602,1.5270190447449334,0.6626263858807367,0.27054623046290416,-4.1304313326936075,6.5
,,0.03937347105214639,0.016075943247022693,0.003970904437176939,0.05942031873634602,1.5407831910659302,0.6626263858807367,0.27054623046290416,-4.1304313326936075,6.6
,,0.03937347105214639,0.016075943247022693,0.003970904437176939,0.05942031873634602,1.5541425095539565,0.6626263858807367,0.27054623046290416,-4.1304313326936075,6.7
,,0.03937347105214639,0.016075943247022693,0.003970904437176939,0.05942031873634602,1.5671146014191415,0.6626263858807367,0.27054623046290416,-4.1304313326936075,6.8
,,0.03937347105214639,0.016075943247022693,0.003970904437176939,0.05942031873634602,1.579716062088178,0.6626263858807367,0.27054623046290416,-4.1304313326936075,6.9
,,0.03489108769378146,0.012840145548407428,0.0026648636318792837,0.050396096874068166,1.5957389855574553,0.6923371026325459,0.2547845238986049,-4.355178645238819,7.0
,,0.03489108769378146,0.012840145548407428,0.0026648636318792837,0.050396096874068166,1.6113168278192525,0.6923371026325459,0.2547845238986049,-4.355178645238819,7.1
,,0.03489108769378146,0.012840145548407428,0.0026648636318792837,0.050396096874068166,1.626467879882096,0.6923371026325459,0.2547845238986049,-4.355178645238819,7.2
,,0.03489108769378146,0.012840145548407428,0.0026648636318792837,0.050396096874068166,1.6412094440513494,0.6923371026325459,0.2547845238986049,-4.355178645238819,7.3
,,0.03489108769378146,0.012840145548407428,0.0026648636318792837,0.050396096874068166,1.6555578998427563,0.6923371026325459,0.2547845238986049,-4.355178645238819,7.4
,,0.03489108769378146,0.012840145548407428,0.0026648636318792837,0.050396096874068166,1.6695287646922836,0.6923371026325459,0.2547845238986049,-4.355178645238819,7.5
,,0.03489108769378146,0.012840145548407428,0.0026648636318792837,0.050396096874068166,1.6831367499353298,0.6923371026325459,0.2547845238986049,-4.355178645238819,7.6
,,0.038782910184352384,0.014406353256848846,0.0037429802629528226,0.05693224370415405,1.6960717905101699,0.6812116941304142,0.2530438345572825,-4.240085971307294,7.7
,,0.03768458806928499,0.013953721534481791,0.0031036513764675557,0.05474196098023434,1.7087883967478323,0.6884040577737388,0.25489992109563003,-4.272009029627968,7.8
,,0.03768458806928499,0.013953721534481791,0.0031036513764675557,0.05474196098023434,1.7211870878295539,0.6884040577737388,0.25489992109563003,-4.272009029627968,7.9
,,0.03768458806928499,0.013953721534481791,0.0031036513764675557,0.05474196098023434,1.7332796383907387,0.6884040577737388,0.25489992109563003,-4.272009029627968,8.0
,,0.03768458806928499,0.013953721534481791,0.0031036513764675557,0.05474196098023434,1.7450772486943338,0.6884040577737388,0.25489992109563003,-4.272009029627968,8.1
,,0.03768458806928499,0.013953721534481791,0.0031036513764675557,0.05474196098023434,1.7565905792315775,0.6884040577737388,0.25489992109563003,-4.272009029627968,8.2
,,0.03768458806928499,0.013953721534481791,0.0031036513764675557,0.05474196098023434,1.7678297828512672,0.6884040577737388,0.25489992109563003,-4.272009029627968,8.3
,,0.03768458806928499,0.013953721534481791,0.0031036513764675557,0.05474196098023434,1.7788045346210821,0.6884040577737388,0.25489992109563003,-4.272009029627968,8.4
,,0.037753799435259125,0.013552124437655026,0.003609820353875184,0.05491574422678933,1.790514034052198,0.6874858925583283,0.24678031097398742,-4.301211958879129,8.5
,,0.037753799435259125,0.013552124437655026,0.003609820353875184,0.05491574422678933,1.8019543495883454,0.6874858925583283,0.24678031097398742,-4.301211958879129,8.6
,,0.03495232225620281,0.012000347435357776,0.0028292092936793895,0.04978187898523998,1.8145754273513433,0.7021093411633972,0.241058547406694,-4.4228196766667836,8.7
,,0.03495232225620281,0.012000347435357776,0.0028292092936793895,0.04978187898523998,1.82691288538933,0.7021093411633972,0.241058547406694,-4.4228196766667836,8.8
,,0.03495232225620281,0.012000347435357776,0.0028292092936793895,0.04978187898523998,1.8389761776931388,0.7021093411633972,0.241058547406694,-4.4228196766667836,8.9
,,0.03495232225620281,0.012000347435357776,0.0028292092936793895,0.04978187898523998,1.8565905661768634,0.7021093411633972,0.241058547406694,-4.4228196766667836,9.0
,,0.03495232225620281,0.012000347435357776,0.0028292092936793895,0.04978187898523998,1.874204954660588,0.7021093411633972,0.241058547406694,-4.4228196766667836,9.1
,,0.03495232225620281,0.012000347435357776,0.0028292092936793895,0.04978187898523998,1.8984428843739105,0.7021093411633972,0.241058547406694,-4.4228196766667836,9.2
,,0.03660319234712503,0.013020956578143693,0.0035047471223953637,0.05312889604766409,1.9215529182195983,0.6889507418766394,0.2450823854209593,-4.341195174996986,9.3
,,0.03660319234712503,0.013020956578143693,0.0035047471223953637,0.05312889604766409,1.944662952065286,0.6889507418766394,0.2450823854209593,-4.341195174996986,9.4
,,0.03546031641569952,0.013158534155448449,0.0030440187445793555,0.05166286931572732,1.9603317849539195,0.6863791517074066,0.25470002595157254,-4.330684745652987,9.5
,,0.03546031641569952,0.013158534155448449,0.0030440187445793555,0.05166286931572732,1.9760006178425524,0.6863791517074066,0.25470002595157254,-4.330684745652987,9.6
,,0.03546031641569952,0.013158534155448449,0.0030440187445793555,0.05166286931572732,1.9916694507311854,0.6863791517074066,0.25470002595157254,-4.330684745652987,9.7
,,0.03546031641569952,0.013158534155448449,0.0030440187445793555,0.05166286931572732,2.0073382836198186,0.6863791517074066,0.25470002595157254,-4.330684745652987,9.8
,,0.03546031641569952,0.013158534155448449,0.0030440187445793555,0.05166286931572732,2.023007116508452,0.6863791517074066,0.25470002595157254,-4.330684745652987,9.9
,,0.03436119201205669,0.011879830108352465,0.0035515582201813773,0.04979258034059053,2.038699916870556,0.6900865907534763,0.23858635216516624,-4.432913265793625,10.0
,,0.03436119201205669,0.011879830108352465,0.0035515582201813773,0.04979258034059053,2.0543927172326617,0.6900865907534763,0.23858635216516624,-4.432913265793625,10.1
,,0.03436119201205669,0.011879830108352465,0.0035515582201813773,0.04979258034059053,2.0700855175947663,0.6900865907534763,0.23858635216516624,-4.432913265793625,10.2
,,0.0342849387022688,0.013234691638622335,0.0030214602408211856,0.05054109058171232,2.082424294851841,0.6783577146369372,0.2618600328227018,-4.324913742507452,10.3
,,0.0342849387022688,0.013234691638622335,0.0030214602408211856,0.05054109058171232,2.094503494908709,0.6783577146369372,0.2618600328227018,-4.324913742507452,10.4
,,0.0342849387022688,0.013234691638622335,0.0030214602408211856,0.05054109058171232,2.106582694965577,0.6783577146369372,0.2618600328227018,-4.324913742507452,10.5
,,0.0342849387022688,0.013234691638622335,0.0030214602408211856,0.05054109058171232,2.1186618950224445,0.6783577146369372,0.2618600328227018,-4.324913742507452,10.6
,,0.0342849387022688,0.013234691638622335,0.0030214602408211856,0.05054109058171232,2.1307410950793124,0.6783577146369372,0.2618600328227018,-4.324913742507452,10.7
,,0.03375394719327329,0.012608833154014822,0.0038088386323740955,0.05017161897966221,2.143476708968951,0.6727697427295688,0.2513140578366824,-4.373357666671812,10.8
,,0.03375394719327329,0.012608833154014822,0.0038088386323740955,0.05017161897966221,2.156212322858589,0.6727697427295688,0.2513140578366824,-4.373357666671812,10.9
,,0.03375394719327329,0.012608833154014822,0.0038088386323740955,0.05017161897966221,2.1689479367482276,0.6727697427295688,0.2513140578366824,-4.373357666671812,11.0
,,0.03300354014949916,0.013790785972463606,0.0034975039922290185,0.05029183011419179,2.178529670133623,0.6562405876772007,0.2742152341871528,-4.283754592973454,11.1
,,0.03300354014949916,0.013790785972463606,0.0034975039922290185,0.05029183011419179,2.1881114035190183,0.6562405876772007,0.2742152341871528,-4.283754592973454,11.2
,,0.03300354014949916,0.013790785972463606,0.0034975039922290185,0.05029183011419179,2.197946899248155,0.6562405876772007,0.2742152341871528,-4.283754592973454,11.3
,,0.03300354014949916,0.013790785972463606,0.0034975039922290185,0.05029183011419179,2.2077823949772917,0.6562405876772007,0.2742152341871528,-4.283754592973454,11.4
,,0.03300354014949916,0.013790785972463606,0.0034975039922290185,0.05029183011419179,2.217617890706429,0.6562405876772007,0.2742152341871528,-4.283754592973454,11.5
,,0.033390312983925904,0.013099657808010345,0.0032866412112476477,0.049776612003183895,2.2286030682452096,0.6708032475530905,0.26316893177005385,-4.335169170642132,11.6
,,0.033390312983925904,0.013099657808010345,0.0032866412112476477,0.049776612003183895,2.239588245783991,0.6708032475530905,0.26316893177005385,-4.335169170642132,11.7
,,0.033390312983925904,0.013099657808010345,0.0032866412112476477,0.049776612003183895,2.2505734233227717,0.6708032475530905,0.26316893177005385,-4.335169170642132,11.8
,,0.03241267688219972,0.01386363324483973,0.002920144205724242,0.04919645433276369,2.2592143638422533,0.6588417259292938,0.2818014719326403,-4.278486180695447,11.9
,,0.03241267688219972,0.01386363324483973,0.002920144205724242,0.04919645433276369,2.267855304361735,0.6588417259292938,0.2818014719326403,-4.278486180695447,12.0
,,0.03241267688219972,0.01386363324483973,0.002920144205724242,0.04919645433276369,2.2764962448812165,0.6588417259292938,0.2818014719326403,-4.278486180695447,12.1
,,0.03241267688219972,0.01386363324483973,0.002920144205724242,0.04919645433276369,2.285137185400698,0.6588417259292938,0.2818014719326403,-4.278486180695447,12.2
,,0.03241267688219972,0.01386363324483973,0.002920144205724242,0.04919645433276369,2.2995870023654863,0.6588417259292938,0.2818014719326403,-4.278486180695447,12.3
,,0.03268931693476722,0.013417017927206345,0.0032001355555533696,0.04930647041752693,2.315130629727396,0.6629822953854587,0.2721147511389704,-4.3112313832185984,12.4
,,0.03268931693476722,0.013417017927206345,0.0032001355555533696,0.04930647041752693,2.3306742570893064,0.6629822953854587,0.2721147511389704,-4.3112313832185984,12.5
,,0.03268931693476722,0.013417017927206345,0.0032001355555533696,0.04930647041752693,2.346217884451216,0.6629822953854587,0.2721147511389704,-4.3112313832185984,12.6
,,0.03254291750559068,0.017898437331668626,0.0042310399297948165,0.05467239476705412,2.3548925315088476,0.5952349013473471,0.32737613576155844,-4.023041869853067,12.7
,,0.03254291750559068,0.017898437331668626,0.0042310399297948165,0.05467239476705412,2.363567178566479,0.5952349013473471,0.32737613576155844,-4.023041869853067,12.8
,,0.03254291750559068,0.017898437331668626,0.0042310399297948165,0.05467239476705412,2.3722418256241107,0.5952349013473471,0.32737613576155844,-4.023041869853067,12.9
,,0.03254291750559068,0.017898437331668626,0.0042310399297948165,0.05467239476705412,2.3809164726817422,0.5952349013473471,0.32737613576155844,-4.023041869853067,13.0
,,0.03254291750559068,0.017898437331668626,0.0042310399297948165,0.05467239476705412,2.3807715503805214,0.5952349013473471,0.32737613576155844,-4.023041869853067,13.1
,,0.03254291750559068,0.017898437331668626,0.0042310399297948165,0.05467239476705412,2.379008430603261,0.5952349013473471,0.32737613576155844,-4.023041869853067,13.2
,,0.032386714578800053,0.01376571796472012,0.003093551402171472,0.04924598394569164,2.38318430163254,0.6576518932897361,0.2795297577950909,-4.285573983032193,13.3
,,0.032386714578800053,0.01376571796472012,0.003093551402171472,0.04924598394569164,2.3873601726618188,0.6576518932897361,0.2795297577950909,-4.285573983032193,13.4
,,0.03186838225330475,0.014687027135673087,0.0026990747096520577,0.0492544840986299,2.389504088896266,0.6470148421307134,0.2981865997472022,-4.220790682614033,13.5
,,0.03186838225330475,0.014687027135673087,0.0026990747096520577,0.0492544840986299,2.391648005130713,0.6470148421307134,0.2981865997472022,-4.220790682614033,13.6
,,0.03186838225330475,0.014687027135673087,0.0026990747096520577,0.0492544840986299,2.3937919213651604,0.6470148421307134,0.2981865997472022,-4.220790682614033,13.7
,,0.03186838225330475,0.014687027135673087,0.0026990747096520577,0.0492544840986299,2.395071305582205,0.6470148421307134,0.2981865997472022,-4.220790682614033,13.8
,,0.03186838225330475,0.014687027135673087,0.0026990747096520577,0.0492544840986299,2.3963506897992497,0.6470148421307134,0.2981865997472022,-4.220790682614033,13.9
,,0.03186838225330475,0.014687027135673087,0.0026990747096520577,0.0492544840986299,2.3976300740162944,0.6470148421307134,0.2981865997472022,-4.220790682614033,14.0
,,0.03186838225330475,0.014687027135673087,0.0026990747096520577,0.0492544840986299,2.3989094582333395,0.6470148421307134,0.2981865997472022,-4.220790682614033,14.1
,,0.03224713733978259,0.01408088072213251,0.002962544750214198,0.049290562812129304,2.409700751254581,0.6542253831162848,0.28567092601076005,-4.262937378920671,14.2
,,0.035120543891872254,0.024786219913491274,0.005149167524693353,0.06505593133005688,2.4107898430935606,0.539851527352526,0.3809986177546219,-3.6974674288906653,14.3
,,0.03198044062148719,0.014924369779183252,0.002525099477234847,0.049429909877905284,2.4199444381543316,0.646985614590047,0.3019299411236497,-4.204759846445376,14.4
,,0.03198044062148719,0.014924369779183252,0.002525099477234847,0.049429909877905284,2.4288361273790375,0.646985614590047,0.3019299411236497,-4.204759846445376,14.5
,,0.03198044062148719,0.014924369779183252,0.002525099477234847,0.049429909877905284,2.437727816603744,0.646985614590047,0.3019299411236497,-4.204759846445376,14.6
,,0.03198044062148719,0.014924369779183252,0.002525099477234847,0.049429909877905284,2.44661950582845,0.646985614590047,0.3019299411236497,-4.204759846445376,14.7
,,0.03198044062148719,0.014924369779183252,0.002525099477234847,0.049429909877905284,2.4555111950531563,0.646985614590047,0.3019299411236497,-4.204759846445376,14.8
,,0.03198044062148719,0.014924369779183252,0.002525099477234847,0.049429909877905284,2.4644028842778622,0.646985614590047,0.3019299411236497,-4.204759846445376,14.9
,,0.03198044062148719,0.014924369779183252,0.002525099477234847,0.049429909877905284,2.473294573502568,0.646985614590047,0.3019299411236497,-4.204759846445376,15.0
,,0.03178088306081989,0.014869930215734208,0.0027788510705162336,0.04942966434707033,2.469732488122256,0.6429516259238673,0.30083008679413664,-4.208414211477763,15.1
,,0.03178088306081989,0.014869930215734208,0.0027788510705162336,0.04942966434707033,2.466266282992109,0.6429516259238673,0.30083008679413664,-4.208414211477763,15.2
,,0.03178088306081989,0.014869930215734208,0.0027788510705162336,0.04942966434707033,2.4628000778619614,0.6429516259238673,0.30083008679413664,-4.208414211477763,15.3
,,0.03178088306081989,0.014869930215734208,0.0027788510705162336,0.04942966434707033,2.4593338727318144,0.6429516259238673,0.30083008679413664,-4.208414211477763,15.4
,,0.03178088306081989,0.014869930215734208,0.0027788510705162336,0.04942966434707033,2.4558676676016673,0.6429516259238673,0.30083008679413664,-4.208414211477763,15.5
,,0.03178088306081989,0.014869930215734208,0.0027788510705162336,0.04942966434707033,2.4524014624715207,0.6429516259238673,0.30083008679413664,-4.208414211477763,15.6
,,0.03178088306081989,0.014869930215734208,0.0027788510705162336,0.04942966434707033,2.4489352573413736,0.6429516259238673,0.30083008679413664,-4.208414211477763,15.7
,,0.03123037164945768,0.014283656793089579,0.0025996899165399248,0.04811371835908718,2.446015524766201,0.6490949507659334,0.2968728520727985,-4.24863927690561,15.8
,,0.031837796557132425,0.014974558321909505,0.002857827598478434,0.049670182477520364,2.442425625539934,0.6409840868118718,0.30147983307060855,-4.2014026297788964,15.9
,,0.031024440824531558,0.014594593026508623,0.0025351059434537875,0.04815413979449397,2.4358523513527364,0.6442735963498396,0.30308075460995765,-4.227104159510975,16.0
,,0.031024440824531558,0.014594593026508623,0.0025351059434537875,0.04815413979449397,2.4292790771655386,0.6442735963498396,0.30308075460995765,-4.227104159510975,16.1
,,0.031024440824531558,0.014594593026508623,0.0025351059434537875,0.04815413979449397,2.4227058029783404,0.6442735963498396,0.30308075460995765,-4.227104159510975,16.2
,,0.031024440824531558,0.014594593026508623,0.0025351059434537875,0.04815413979449397,2.416132528791143,0.6442735963498396,0.30308075460995765,-4.227104159510975,16.3
,,0.031024440824531558,0.014594593026508623,0.0025351059434537875,0.04815413979449397,2.409559254603945,0.6442735963498396,0.30308075460995765,-4.227104159510975,16.4
,,0.031024440824531558,0.014594593026508623,0.0025351059434537875,0.04815413979449397,2.402985980416747,0.6442735963498396,0.30308075460995765,-4.227104159510975,16.5
,,0.031024440824531558,0.014594593026508623,0.0025351059434537875,0.04815413979449397,2.3964127062295493,0.6442735963498396,0.30308075460995765,-4.227104159510975,16.6
,,0.031117603916633645,0.014529482697535024,0.0025537919064204267,0.048200878520589095,2.390297340285478,0.6455816755153477,0.3014360555965537,-4.231575404405712,16.7
,,0.02966944687625091,0.014088908575679508,0.002261902727931486,0.04602025817986191,2.3836883285193364,0.6447040509919176,0.30614579606693076,-4.2623674169887975,16.8
,,0.02966944687625091,0.014088908575679508,0.002261902727931486,0.04602025817986191,2.3770793167531945,0.6447040509919176,0.30614579606693076,-4.2623674169887975,16.9
,,0.02966944687625091,0.014088908575679508,0.002261902727931486,0.04602025817986191,2.3704703049870535,0.6447040509919176,0.30614579606693076,-4.2623674169887975,17.0
,,0.02966944687625091,0.014088908575679508,0.002261902727931486,0.04602025817986191,2.3638612932209115,0.6447040509919176,0.30614579606693076,-4.2623674169887975,17.1
,,0.02966944687625091,0.014088908575679508,0.002261902727931486,0.04602025817986191,2.3572522814547696,0.6447040509919176,0.30614579606693076,-4.2623674169887975,17.2
,,0.02966944687625091,0.014088908575679508,0.002261902727931486,0.04602025817986191,2.350643269688628,0.6447040509919176,0.30614579606693076,-4.2623674169887975,17.3
,,0.02966944687625091,0.014088908575679508,0.002261902727931486,0.04602025817986191,2.3440342579224867,0.6447040509919176,0.30614579606693076,-4.2623674169887975,17.4
,,0.040969209541605614,0.03101899768562893,0.006408001224280094,0.07839620845151464,2.3277559969045223,0.5225917216002055,0.39566961589492067,-3.4731554336310606,17.5
,,0.028236592319340222,0.013546562298614031,0.002021608800016353,0.043804763417970606,2.3199625379196105,0.6446009546933508,0.30924861228805645,-4.301622468744293,17.6
,,0.040969209541605614,0.03101899768562893,0.006408001224280094,0.07839620845151464,2.3022755246012565,0.5225917216002055,0.39566961589492067,-3.4731554336310606,17.7
,,0.040833243778942804,0.03052259715834842,0.006229074589897038,0.07758491552718826,2.2847776859266817,0.5263039020082908,0.39340891139660156,-3.489287979254951,17.8
,,0.040833243778942804,0.03052259715834842,0.006229074589897038,0.07758491552718826,2.2672798472521074,0.5263039020082908,0.39340891139660156,-3.489287979254951,17.9
,,0.040833243778942804,0.03052259715834842,0.006229074589897038,0.07758491552718826,2.249782008577532,0.5263039020082908,0.39340891139660156,-3.489287979254951,18.0
,,0.040833243778942804,0.03052259715834842,0.006229074589897038,0.07758491552718826,2.232284169902958,0.5263039020082908,0.39340891139660156,-3.489287979254951,18.1
,,0.040833243778942804,0.03052259715834842,0.006229074589897038,0.07758491552718826,2.2147863312283826,0.5263039020082908,0.39340891139660156,-3.489287979254951,18.2
,,0.040833243778942804,0.03052259715834842,0.006229074589897038,0.07758491552718826,2.198416388421443,0.5263039020082908,0.39340891139660156,-3.489287979254951,18.3
,,0.027244096588043012,0.012693578401139828,0.001875197455399461,0.0418128724445823,2.191029623267066,0.6515719919541915,0.30358063579495925,-4.36665905110097,18.4
,,0.024916049037228882,0.012063170924640406,0.0016565272159937863,0.03863574717786307,2.1840364146361875,0.6448962646568126,0.31222822918647164,-4.417598193168229,18.5
,,0.02444613899707312,0.01185223092364829,0.0016111219033477522,0.037909491824069164,2.1770111248475708,0.6448553599853848,0.312645470919322,-4.435239165521352,18.6
,,0.02444613899707312,0.01185223092364829,0.0016111219033477522,0.037909491824069164,2.1699858350589536,0.6448553599853848,0.312645470919322,-4.435239165521352,18.7
,,0.02444613899707312,0.01185223092364829,0.0016111219033477522,0.037909491824069164,2.162960545270336,0.6448553599853848,0.312645470919322,-4.435239165521352,18.8
,,0.02444613899707312,0.01185223092364829,0.0016111219033477522,0.037909491824069164,2.1559352554817193,0.6448553599853848,0.312645470919322,-4.435239165521352,18.9
,,0.02444613899707312,0.01185223092364829,0.0016111219033477522,0.037909491824069164,2.1467150267586006,0.6448553599853848,0.312645470919322,-4.435239165521352,19.0
,,0.02444613899707312,0.01185223092364829,0.0016111219033477522,0.037909491824069164,2.137494798035482,0.6448553599853848,0.312645470919322,-4.435239165521352,19.1
,,0.023525626104425382,0.011009083617432898,0.00150048718456186,0.03603519690642014,2.12910069857877,0.6528513265938055,0.30550918442383995,-4.509034563552301,19.2
,,0.023525626104425382,0.011009083617432898,0.00150048718456186,0.03603519690642014,2.1240606222270872,0.6528513265938055,0.30550918442383995,-4.509034563552301,19.3
,,0.021871385637203433,0.010705060441057856,0.0013798375934590472,0.033956283671720336,2.117977877379904,0.6441042208461253,0.3152600721725418,-4.537038710897779,19.4
,,0.023525626104425382,0.011009083617432898,0.00150048718456186,0.03603519690642014,2.1129378010282216,0.6528513265938055,0.30550918442383995,-4.509034563552301,19.5
,,0.02848258679950836,0.028545005835569206,0.005338504367175026,0.06236609700225259,2.095240887670796,0.456699844444003,0.4577006932875436,-3.556273285131912,19.6
,,0.02848258679950836,0.028545005835569206,0.005338504367175026,0.06236609700225259,2.0775439743133703,0.456699844444003,0.4577006932875436,-3.556273285131912,19.7
,,0.02848258679950836,0.028545005835569206,0.005338504367175026,0.06236609700225259,2.058886255579277,0.456699844444003,0.4577006932875436,-3.556273285131912,19.8
,,0.02848258679950836,0.028545005835569206,0.005338504367175026,0.06236609700225259,2.040228536845184,0.456699844444003,0.4577006932875436,-3.556273285131912,19.9
,,0.02848258679950836,0.028545005835569206,0.005338504367175026,0.06236609700225259,2.0215708181110905,0.456699844444003,0.4577006932875436,-3.556273285131912,20.0
,,0.044735187664994985,0.02708693911031439,0.004829492771022321,0.07665161954633169,2.013330619699548,0.5836169924362136,0.35337725765783495,-3.6087036189214223,20.1
,,0.044735187664994985,0.02708693911031439,0.004829492771022321,0.07665161954633169,2.0050904212880054,0.5836169924362136,0.35337725765783495,-3.6087036189214223,20.2
,,0.044735187664994985,0.02708693911031439,0.004829492771022321,0.07665161954633169,1.9968502228764635,0.5836169924362136,0.35337725765783495,-3.6087036189214223,20.3
,,0.044735187664994985,0.02708693911031439,0.004829492771022321,0.07665161954633169,1.988610024464921,0.5836169924362136,0.35337725765783495,-3.6087036189214223,20.4
,,0.01867529314460373,0.009392277586259958,0.0011321043910550057,0.029199675121918695,1.9841123363624942,0.6395719495723139,0.321656920737781,-4.66786746072626,20.5
,,0.01867529314460373,0.009392277586259958,0.0011321043910550057,0.029199675121918695,1.977883685105679,0.6395719495723139,0.321656920737781,-4.66786746072626,20.6
,,0.01867529314460373,0.009392277586259958,0.0011321043910550057,0.029199675121918695,1.9716550338488636,0.6395719495723139,0.321656920737781,-4.66786746072626,20.7
,,0.01867529314460373,0.009392277586259958,0.0011321043910550057,0.029199675121918695,1.9654263825920482,0.6395719495723139,0.321656920737781,-4.66786746072626,20.8
,,0.0179901474780694,0.009023172102840616,0.0007801293194361487,0.027793448900346164,1.961602025370101,0.6472801393800874,0.3246510404373828,-4.707959332357969,20.9
,,0.0179901474780694,0.009023172102840616,0.0007801293194361487,0.027793448900346164,1.9577776681481536,0.6472801393800874,0.3246510404373828,-4.707959332357969,21.0
,,0.0179901474780694,0.009023172102840616,0.0007801293194361487,0.027793448900346164,1.9539533109262064,0.6472801393800874,0.3246510404373828,-4.707959332357969,21.1
,,0.0179901474780694,0.009023172102840616,0.0007801293194361487,0.027793448900346164,1.9501289537042592,0.6472801393800874,0.3246510404373828,-4.707959332357969,21.2
,,0.0179901474780694,0.009023172102840616,0.0007801293194361487,0.027793448900346164,1.9463045964823118,0.6472801393800874,0.3246510404373828,-4.707959332357969,21.3
,,0.0179901474780694,0.009023172102840616,0.0007801293194361487,0.027793448900346164,1.9413864288632425,0.6472801393800874,0.3246510404373828,-4.707959332357969,21.4
,,0.04416661617141124,0.024762091954987252,0.004140878627566545,0.07306958675396504,1.9341334431191513,0.6044459553346877,0.3388837005246039,-3.6984413454380225,21.5
,,0.04416661617141124,0.024762091954987252,0.004140878627566545,0.07306958675396504,1.92688045737506,0.6044459553346877,0.3388837005246039,-3.6984413454380225,21.6
,,0.04416661617141124,0.024762091954987252,0.004140878627566545,0.07306958675396504,1.9264964519352479,0.6044459553346877,0.3388837005246039,-3.6984413454380225,21.7
,,0.015919467931863277,0.008356758364379583,0.0007218610147089559,0.02499808731095182,1.9274607011547575,0.6368274393892871,0.3342959107402763,-4.784684682539101,21.8
,,0.015919467931863277,0.008356758364379583,0.0007218610147089559,0.02499808731095182,1.9284249503742672,0.6368274393892871,0.3342959107402763,-4.784684682539101,21.9
,,0.015919467931863277,0.008356758364379583,0.0007218610147089559,0.02499808731095182,1.9293891995937773,0.6368274393892871,0.3342959107402763,-4.784684682539101,22.0
,,0.015919467931863277,0.008356758364379583,0.0007218610147089559,0.02499808731095182,1.9303534488132867,0.6368274393892871,0.3342959107402763,-4.784684682539101,22.1
,,0.015919467931863277,0.008356758364379583,0.0007218610147089559,0.02499808731095182,1.9313176980327966,0.6368274393892871,0.3342959107402763,-4.784684682539101,22.2
,,0.01513858753593312,0.008275583281700081,0.0009665524480396597,0.024380723265672862,1.925502138390003,0.6209244644209418,0.3394314102794395,-4.794445872988606,22.3
,,0.014803370869664741,0.008189323560031058,0.0009495616848132599,0.02394225611450906,1.9194458573317108,0.6182947337487491,0.34204477309338904,-4.804923977930983,22.4
,,0.014803370869664741,0.008189323560031058,0.0009495616848132599,0.02394225611450906,1.9154215310682505,0.6182947337487491,0.34204477309338904,-4.804923977930983,22.5
,,0.014392993992467797,0.007999180468669419,0.0007047495445982078,0.023096924005735424,1.9113046035018653,0.6231563124550148,0.34633098618166924,-4.828416183966104,22.6
,,0.014392993992467797,0.007999180468669419,0.0007047495445982078,0.023096924005735424,1.9071876759354804,0.6231563124550148,0.34633098618166924,-4.828416183966104,22.7
,,0.014392993992467797,0.007999180468669419,0.0007047495445982078,0.023096924005735424,1.9030707483690956,0.6231563124550148,0.34633098618166924,-4.828416183966104,22.8
,,0.014392993992467797,0.007999180468669419,0.0007047495445982078,0.023096924005735424,1.8989538208027108,0.6231563124550148,0.34633098618166924,-4.828416183966104,22.9
,,0.014392993992467797,0.007999180468669419,0.0007047495445982078,0.023096924005735424,1.8948368932363255,0.6231563124550148,0.34633098618166924,-4.828416183966104,23.0
,,0.014392993992467797,0.007999180468669419,0.0007047495445982078,0.023096924005735424,1.8907199656699407,0.6231563124550148,0.34633098618166924,-4.828416183966104,23.1
,,0.014392993992467797,0.007999180468669419,0.0007047495445982078,0.023096924005735424,1.8852663232604736,0.6231563124550148,0.34633098618166924,-4.828416183966104,23.2
,,0.014392993992467797,0.007999180468669419,0.0007047495445982078,0.023096924005735424,1.8895148820332686,0.6231563124550148,0.34633098618166924,-4.828416183966104,23.3
,,0.013363500163031887,0.007865674974868482,0.000986951787486387,0.022216126925386756,1.8845830000692698,0.6015224979544559,0.3540524863440638,-4.8452469260819475,23.4
,,0.013363500163031887,0.007865674974868482,0.000986951787486387,0.022216126925386756,1.8796511181052706,0.6015224979544559,0.3540524863440638,-4.8452469260819475,23.5
,,0.013363500163031887,0.007865674974868482,0.000986951787486387,0.022216126925386756,1.8747192361412715,0.6015224979544559,0.3540524863440638,-4.8452469260819475,23.6
,,0.013363500163031887,0.007865674974868482,0.000986951787486387,0.022216126925386756,1.8697873541772727,0.6015224979544559,0.3540524863440638,-4.8452469260819475,23.7
,,0.013363500163031887,0.007865674974868482,0.000986951787486387,0.022216126925386756,1.8648554722132735,0.6015224979544559,0.3540524863440638,-4.8452469260819475,23.8
,,0.013363500163031887,0.007865674974868482,0.000986951787486387,0.022216126925386756,1.8599235902492746,0.6015224979544559,0.3540524863440638,-4.8452469260819475,23.9
,,0.013363500163031887,0.007865674974868482,0.000986951787486387,0.022216126925386756,1.8549917082852754,0.6015224979544559,0.3540524863440638,-4.8452469260819475,24.0
,,0.013363500163031887,0.007865674974868482,0.000986951787486387,0.022216126925386756,1.8501217728395902,0.6015224979544559,0.3540524863440638,-4.8452469260819475,24.1
,,0.012935830434004184,0.007512944421458718,0.0009355769371790009,0.021384351792641903,1.8455056317380758,0.604920390360172,0.3513290697005757,-4.891127823272054,24.2
,,0.012125818313930116,0.007497823819472387,0.0009803776434573674,0.020604019776859873,1.8397277055633143,0.5885171168175871,0.3639010203190109,-4.893142457947358,24.3
,,0.012125818313930116,0.007497823819472387,0.0009803776434573674,0.020604019776859873,1.8339497793885529,0.5885171168175871,0.3639010203190109,-4.893142457947358,24.4
,,0.012125818313930116,0.007497823819472387,0.0009803776434573674,0.020604019776859873,1.8281718532137912,0.5885171168175871,0.3639010203190109,-4.893142457947358,24.5
,,0.012125818313930116,0.007497823819472387,0.0009803776434573674,0.020604019776859873,1.8223939270390295,0.5885171168175871,0.3639010203190109,-4.893142457947358,24.6
,,0.012125818313930116,0.007497823819472387,0.0009803776434573674,0.020604019776859873,1.816616000864268,0.5885171168175871,0.3639010203190109,-4.893142457947358,24.7
,,0.012125818313930116,0.007497823819472387,0.0009803776434573674,0.020604019776859873,1.8102916021345312,0.5885171168175871,0.3639010203190109,-4.893142457947358,24.8
,,0.012125818313930116,0.007497823819472387,0.0009803776434573674,0.020604019776859873,1.8046373700558898,0.5885171168175871,0.3639010203190109,-4.893142457947358,24.9
,,0.010717372355103847,0.00753428514399447,0.0010892973150397956,0.01934095481413811,1.7968232741681172,0.5541284004897999,0.3895508374016239,-4.888291322805121,25.0
,,0.010717372355103847,0.00753428514399447,0.0010892973150397956,0.01934095481413811,1.789009178280345,0.5541284004897999,0.3895508374016239,-4.888291322805121,25.1
,,0.00923339916233253,0.0064293876503708595,0.0008357764723163489,0.016498563285019738,1.7813466809828264,0.5596486798772481,0.3896937896531012,-5.046875978491397,25.2
,,0.00923339916233253,0.0064293876503708595,0.0008357764723163489,0.016498563285019738,1.7736841836853077,0.5596486798772481,0.3896937896531012,-5.046875978491397,25.3
,,0.00923339916233253,0.0064293876503708595,0.0008357764723163489,0.016498563285019738,1.7660216863877893,0.5596486798772481,0.3896937896531012,-5.046875978491397,25.4
,,0.00923339916233253,0.0064293876503708595,0.0008357764723163489,0.016498563285019738,1.7583591890902708,0.5596486798772481,0.3896937896531012,-5.046875978491397,25.5
,,0.00923339916233253,0.0064293876503708595,0.0008357764723163489,0.016498563285019738,1.750696691792752,0.5596486798772481,0.3896937896531012,-5.046875978491397,25.6
,,0.00923339916233253,0.0064293876503708595,0.0008357764723163489,0.016498563285019738,1.7428571052924846,0.5596486798772481,0.3896937896531012,-5.046875978491397,25.7
,,0.010839452615585596,0.006941607644461065,0.0007846467165533541,0.018565706976600014,1.736808732310184,0.5838427068383395,0.3738940646434946,-4.970221882232134,25.8
,,0.01041368135783845,0.006783769756068867,0.0009859497202713789,0.018183400834178694,1.7304666773425907,0.5727026232773917,0.3730748619541871,-4.9932223203272015,25.9
,,0.010839452615585596,0.006941607644461065,0.0007846467165533541,0.018565706976600014,1.7244183043602899,0.5838427068383395,0.3738940646434946,-4.970221882232134,26.0
,,0.010191051971702867,0.0066686370834048905,0.0009637304022136926,0.017823419457321448,1.7179997875934705,0.571778720469748,0.37415026333039414,-5.010339775255517,26.1
,,0.010191051971702867,0.0066686370834048905,0.0009637304022136926,0.017823419457321448,1.7115812708266516,0.571778720469748,0.37415026333039414,-5.010339775255517,26.2
,,0.010191051971702867,0.0066686370834048905,0.0009637304022136926,0.017823419457321448,1.7051627540598326,0.571778720469748,0.37415026333039414,-5.010339775255517,26.3
,,0.010191051971702867,0.0066686370834048905,0.0009637304022136926,0.017823419457321448,1.6987442372930133,0.571778720469748,0.37415026333039414,-5.010339775255517,26.4
,,0.010191051971702867,0.0066686370834048905,0.0009637304022136926,0.017823419457321448,1.7010489941956668,0.571778720469748,0.37415026333039414,-5.010339775255517,26.5
,,0.0117965507282004,0.004657474486838715,0.0004444379174531483,0.016898463132492263,1.706031340349054,0.6980842361645341,0.27561527047293144,-5.369281933369618,26.6
,,0.0117965507282004,0.004657474486838715,0.0004444379174531483,0.016898463132492263,1.719498488535493,0.6980842361645341,0.27561527047293144,-5.369281933369618,26.7
,,0.0117965507282004,0.004657474486838715,0.0004444379174531483,0.016898463132492263,1.7327764620781525,0.6980842361645341,0.27561527047293144,-5.369281933369618,26.8
,,0.009512183002731241,0.0062630980946413025,0.0009522310602970815,0.016727512157669624,1.7347871587118233,0.5686549746950786,0.37441898326581996,-5.073080312997043,26.9
,,0.009512183002731241,0.0062630980946413025,0.0009522310602970815,0.016727512157669624,1.7367978553454941,0.5686549746950786,0.37441898326581996,-5.073080312997043,27.0
,,0.009512183002731241,0.0062630980946413025,0.0009522310602970815,0.016727512157669624,1.7388085519791647,0.5686549746950786,0.37441898326581996,-5.073080312997043,27.1
,,0.009512183002731241,0.0062630980946413025,0.0009522310602970815,0.016727512157669624,1.7408192486128355,0.5686549746950786,0.37441898326581996,-5.073080312997043,27.2
,,0.009483746356546703,0.006153671725475351,0.0007902692873141586,0.016427687369336214,1.7430786792159956,0.5773025833355574,0.37459148004981785,-5.090706346781763,27.3
,,0.009483746356546703,0.006153671725475351,0.0007902692873141586,0.016427687369336214,1.7363549321665928,0.5773025833355574,0.37459148004981785,-5.090706346781763,27.4
,,0.009483746356546703,0.006153671725475351,0.0007902692873141586,0.016427687369336214,1.7305292449895973,0.5773025833355574,0.37459148004981785,-5.090706346781763,27.5
,,0.009483746356546703,0.006153671725475351,0.0007902692873141586,0.016427687369336214,1.7247356389703403,0.5773025833355574,0.37459148004981785,-5.090706346781763,27.6
,,0.009483746356546703,0.006153671725475351,0.0007902692873141586,0.016427687369336214,1.718942032951084,0.5773025833355574,0.37459148004981785,-5.090706346781763,27.7
,,0.00886052659059056,0.005795311344780566,0.0009201548107184974,0.015575992746089623,1.7130124323565916,0.5688579042780441,0.37206690059838965,-5.15070607718315,27.8
,,0.00886052659059056,0.005795311344780566,0.0009201548107184974,0.015575992746089623,1.707082831762099,0.5688579042780441,0.37206690059838965,-5.15070607718315,27.9
,,0.00886052659059056,0.005795311344780566,0.0009201548107184974,0.015575992746089623,1.7011532311676063,0.5688579042780441,0.37206690059838965,-5.15070607718315,28.0
,,0.008869594978476052,0.005678065301028,0.0007652582022968685,0.01531291848180092,1.6955921586486744,0.5792230259057003,0.3708022940092224,-5.171144720288085,28.1
,,0.008869594978476052,0.005678065301028,0.0007652582022968685,0.01531291848180092,1.6892049568633356,0.5792230259057003,0.3708022940092224,-5.171144720288085,28.2
,,0.008869594978476052,0.005678065301028,0.0007652582022968685,0.01531291848180092,1.6828177550779975,0.5792230259057003,0.3708022940092224,-5.171144720288085,28.3
,,0.008869594978476052,0.005678065301028,0.0007652582022968685,0.01531291848180092,1.67747322178816,0.5792230259057003,0.3708022940092224,-5.171144720288085,28.4
,,0.008869594978476052,0.005678065301028,0.0007652582022968685,0.01531291848180092,1.6710860200028215,0.5792230259057003,0.3708022940092224,-5.171144720288085,28.5
,,0.008869594978476052,0.005678065301028,0.0007652582022968685,0.01531291848180092,1.6773556552232265,0.5792230259057003,0.3708022940092224,-5.171144720288085,28.6
,,0.008260580195022488,0.0053011488532205015,0.0008718946879919388,0.014433623736234929,1.6835828657671863,0.5723150572565289,0.36727775020989484,-5.239831717155561,28.7
,,0.008260580195022488,0.0053011488532205015,0.0008718946879919388,0.014433623736234929,1.6898100763111459,0.5723150572565289,0.36727775020989484,-5.239831717155561,28.8
,,0.007983955639832884,0.004983066256387268,0.0006994706040461537,0.013666492500266306,1.696525677692512,0.5841993210531018,0.3646192507909522,-5.301709863285763,28.9
,,0.007983955639832884,0.004983066256387268,0.0006994706040461537,0.013666492500266306,1.7032412790738782,0.5841993210531018,0.3646192507909522,-5.301709863285763,29.0
,,0.007983955639832884,0.004983066256387268,0.0006994706040461537,0.013666492500266306,1.702693240636937,0.5841993210531018,0.3646192507909522,-5.301709863285763,29.1
,,0.007983955639832884,0.004983066256387268,0.0006994706040461537,0.013666492500266306,1.7021452021999954,0.5841993210531018,0.3646192507909522,-5.301709863285763,29.2
,,0.007983955639832884,0.004983066256387268,0.0006994706040461537,0.013666492500266306,1.7015971637630543,0.5841993210531018,0.3646192507909522,-5.301709863285763,29.3
,,0.007983955639832884,0.004983066256387268,0.0006994706040461537,0.013666492500266306,1.701049125326113,0.5841993210531018,0.3646192507909522,-5.301709863285763,29.4
,,0.007983955639832884,0.004983066256387268,0.0006994706040461537,0.013666492500266306,1.6967585765800561,0.5841993210531018,0.3646192507909522,-5.301709863285763,29.5
,,0.007983955639832884,0.004983066256387268,0.0006994706040461537,0.013666492500266306,1.6924680278339987,0.5841993210531018,0.3646192507909522,-5.301709863285763,29.6
,,0.00662283787981103,0.0040066519769719165,0.0007243315938663935,0.011353821450649339,1.688741292089726,0.5833135485349967,0.35289016956865843,-5.519799304863072,29.7
,,0.00662283787981103,0.0040066519769719165,0.0007243315938663935,0.011353821450649339,1.6850145563454533,0.5833135485349967,0.35289016956865843,-5.519799304863072,29.8
,,0.00662283787981103,0.0040066519769719165,0.0007243315938663935,0.011353821450649339,1.6812277635856112,0.5833135485349967,0.35289016956865843,-5.519799304863072,29.9
,,0.00662283787981103,0.0040066519769719165,0.0007243315938663935,0.011353821450649339,1.6774409708257698,0.5833135485349967,0.35289016956865843,-5.519799304863072,30.0
,,0.00662283787981103,0.0040066519769719165,0.0007243315938663935,0.011353821450649339,1.673654178065928,0.5833135485349967,0.35289016956865843,-5.519799304863072,30.1
,,0.00662283787981103,0.0040066519769719165,0.0007243315938663935,0.011353821450649339,1.669867385306086,0.5833135485349967,0.35289016956865843,-5.519799304863072,30.2
,,0.00662283787981103,0.0040066519769719165,0.0007243315938663935,0.011353821450649339,1.6660805925462445,0.5833135485349967,0.35289016956865843,-5.519799304863072,30.3
,,0.00662283787981103,0.0040066519769719165,0.0007243315938663935,0.011353821450649339,1.6622937997864025,0.5833135485349967,0.35289016956865843,-5.519799304863072,30.4
,,0.00668660724066834,0.0020748325608677893,0.0002896399872640848,0.009051079788800213,1.6782836114590935,0.7387634842134895,0.2292359154136706,-6.1778748221130675,30.5
,,0.006062238736376076,0.0019436758448026347,0.00022729706123404765,0.008233211642412757,1.6931204705235732,0.7363151829046782,0.23607747853704353,-6.243174333348335,30.6
,,0.006062238736376076,0.0019436758448026347,0.00022729706123404765,0.008233211642412757,1.7079573295880526,0.7363151829046782,0.23607747853704353,-6.243174333348335,30.7
,,0.006062238736376076,0.0019436758448026347,0.00022729706123404765,0.008233211642412757,1.7214459339932098,0.7363151829046782,0.23607747853704353,-6.243174333348335,30.8
,,0.006062238736376076,0.0019436758448026347,0.00022729706123404765,0.008233211642412757,1.734934538398367,0.7363151829046782,0.23607747853704353,-6.243174333348335,30.9
,,0.006062238736376076,0.0019436758448026347,0.00022729706123404765,0.008233211642412757,1.7484231428035242,0.7363151829046782,0.23607747853704353,-6.243174333348335,31.0
,,0.006062238736376076,0.0019436758448026347,0.00022729706123404765,0.008233211642412757,1.7619117472086816,0.7363151829046782,0.23607747853704353,-6.243174333348335,31.1
,,0.006062238736376076,0.0019436758448026347,0.00022729706123404765,0.008233211642412757,1.7754003516138388,0.7363151829046782,0.23607747853704353,-6.243174333348335,31.2
,,0.005434067521903561,0.0030138641061768128,0.0005587208902689403,0.009006652518349315,1.7751083048052332,0.6033393106742708,0.33462644417963794,-5.804532267326883,31.3
,,0.005434067521903561,0.0030138641061768128,0.0005587208902689403,0.009006652518349315,1.7750569794121267,0.6033393106742708,0.33462644417963794,-5.804532267326883,31.4
,,0.0048777110345654216,0.002738010063391701,0.0004921367464360804,0.008107857844393202,1.7747662863738216,0.601602929920446,0.3376983311671044,-5.900523876669128,31.5
,,0.0048777110345654216,0.002738010063391701,0.0004921367464360804,0.008107857844393202,1.7745681946384417,0.601602929920446,0.3376983311671044,-5.900523876669128,31.6
,,0.0048777110345654216,0.002738010063391701,0.0004921367464360804,0.008107857844393202,1.774370102903061,0.601602929920446,0.3376983311671044,-5.900523876669128,31.7
,,0.0048777110345654216,0.002738010063391701,0.0004921367464360804,0.008107857844393202,1.7741720111676806,0.601602929920446,0.3376983311671044,-5.900523876669128,31.8
,,0.0048777110345654216,0.002738010063391701,0.0004921367464360804,0.008107857844393202,1.7739739194323003,0.601602929920446,0.3376983311671044,-5.900523876669128,31.9
,,0.004741511716808373,0.002588154518084483,0.0003839806090695963,0.007713646843962453,1.774337211775491,0.6146913143320272,0.33552929897357914,-5.956810198529005,32.0
,,0.004741511716808373,0.002588154518084483,0.0003839806090695963,0.007713646843962453,1.7747005041186814,0.6146913143320272,0.33552929897357914,-5.956810198529005,32.1
,,0.004460569773317856,0.0024115725340151492,0.00042698697127928136,0.0072991292786122874,1.775259874668986,0.6111098465385587,0.3303918100315711,-6.027476240526855,32.2
,,0.004403827456890206,0.002377011180735698,0.00041627728748783383,0.007197115925113738,1.7758528268736218,0.6118878037692037,0.3302727377839386,-6.041911386897979,32.3
,,0.004403827456890206,0.002377011180735698,0.00041627728748783383,0.007197115925113738,1.7775607165932605,0.6118878037692037,0.3302727377839386,-6.041911386897979,32.4
,,0.004403827456890206,0.002377011180735698,0.00041627728748783383,0.007197115925113738,1.7792686063128993,0.6118878037692037,0.3302727377839386,-6.041911386897979,32.5
,,0.004403827456890206,0.002377011180735698,0.00041627728748783383,0.007197115925113738,1.7809764960325383,0.6118878037692037,0.3302727377839386,-6.041911386897979,32.6
,,0.004403827456890206,0.002377011180735698,0.00041627728748783383,0.007197115925113738,1.7826843857521768,0.6118878037692037,0.3302727377839386,-6.041911386897979,32.7
,,0.004306187008692488,0.002262550404580109,0.00032215697914842004,0.0068908943924210165,1.7849541688437824,0.6249097379040766,0.3283391495694065,-6.091262604370899,32.8
,,0.004306187008692488,0.002262550404580109,0.00032215697914842004,0.0068908943924210165,1.787223951935388,0.6249097379040766,0.3283391495694065,-6.091262604370899,32.9
,,0.004306187008692488,0.002262550404580109,0.00032215697914842004,0.0068908943924210165,1.7894937350269935,0.6249097379040766,0.3283391495694065,-6.091262604370899,33.0
,,0.005011924005527289,0.0018925940265318054,0.00020972121339541276,0.007114239245454507,1.8000405441559464,0.7044919115883757,0.26602901044423527,-6.26980689011841,33.1
,,0.005011924005527289,0.0018925940265318054,0.00020972121339541276,0.007114239245454507,1.8103335589407286,0.7044919115883757,0.26602901044423527,-6.26980689011841,33.2
,,0.005011924005527289,0.0018925940265318054,0.00020972121339541276,0.007114239245454507,1.821788358798758,0.7044919115883757,0.26602901044423527,-6.26980689011841,33.3
,,0.005011924005527289,0.0018925940265318054,0.00020972121339541276,0.007114239245454507,1.8332431586567874,0.7044919115883757,0.26602901044423527,-6.26980689011841,33.4
,,0.005011924005527289,0.0018925940265318054,0.00020972121339541276,0.007114239245454507,1.844697958514817,0.7044919115883757,0.26602901044423527,-6.26980689011841,33.5
,,0.004058628540944326,0.0020602901533903276,0.00027566335885762053,0.006394582053192274,1.8486166866455853,0.634698015786379,0.32219309037747024,-6.1849084549388875,33.6
,,0.004058628540944326,0.0020602901533903276,0.00027566335885762053,0.006394582053192274,1.852535414776353,0.634698015786379,0.32219309037747024,-6.1849084549388875,33.7
,,0.004058628540944326,0.0020602901533903276,0.00027566335885762053,0.006394582053192274,1.8564541429071215,0.634698015786379,0.32219309037747024,-6.1849084549388875,33.8
,,0.003976566568982521,0.0019944714524279643,0.0003161099050632708,0.006287147926473756,1.860638027885419,0.6324913323954252,0.31722992297186087,-6.217376199868419,33.9
,,0.003976566568982521,0.0019944714524279643,0.0003161099050632708,0.006287147926473756,1.8669859651876102,0.6324913323954252,0.31722992297186087,-6.217376199868419,34.0
,,0.003976566568982521,0.0019944714524279643,0.0003161099050632708,0.006287147926473756,1.8733339024898013,0.6324913323954252,0.31722992297186087,-6.217376199868419,34.1
,,0.003976566568982521,0.0019944714524279643,0.0003161099050632708,0.006287147926473756,1.8795302412017387,0.6324913323954252,0.31722992297186087,-6.217376199868419,34.2
,,0.003976566568982521,0.0019944714524279643,0.0003161099050632708,0.006287147926473756,1.885726579913676,0.6324913323954252,0.31722992297186087,-6.217376199868419,34.3
,,0.003947790808083206,0.0019486857321302361,0.00024116350132584436,0.0061376400415392865,1.8922793501058282,0.6432098952308584,0.3174975591500339,-6.240600117158436,34.4
,,0.003947790808083206,0.0019486857321302361,0.00024116350132584436,0.0061376400415392865,1.8988321202979805,0.6432098952308584,0.3174975591500339,-6.240600117158436,34.5
,,0.003947790808083206,0.0019486857321302361,0.00024116350132584436,0.0061376400415392865,1.9053848904901327,0.6432098952308584,0.3174975591500339,-6.240600117158436,34.6
,,0.0020717302738340786,0.002502329300820293,0.00028014070721379074,0.004854200281868162,1.8986270740922142,0.4267912639642391,0.515497745358224,-5.990533260561828,34.7
,,0.0020717302738340786,0.002502329300820293,0.00028014070721379074,0.004854200281868162,1.8904759814593695,0.4267912639642391,0.515497745358224,-5.990533260561828,34.8
,,0.0020717302738340786,0.002502329300820293,0.00028014070721379074,0.004854200281868162,1.882618570811817,0.4267912639642391,0.515497745358224,-5.990533260561828,34.9
,,0.0020717302738340786,0.002502329300820293,0.00028014070721379074,0.004854200281868162,1.8744674781789727,0.4267912639642391,0.515497745358224,-5.990533260561828,35.0
,,0.0020717302738340786,0.002502329300820293,0.00028014070721379074,0.004854200281868162,1.8666865293306465,0.4267912639642391,0.515497745358224,-5.990533260561828,35.1
,,0.0020717302738340786,0.002502329300820293,0.00028014070721379074,0.004854200281868162,1.85890558048232,0.4267912639642391,0.515497745358224,-5.990533260561828,35.2
,,0.003960430957397507,0.0018693509927293947,0.00028771785639302984,0.006117499806519932,1.8654656548546749,0.6473937200907705,0.30557434439753817,-6.282163971067397,35.3
,,0.004027190528142401,0.0019422715993447214,0.00027076808414632327,0.006240230211633445,1.871523848619878,0.6453592882895008,0.3112499913422764,-6.243897063410551,35.4
,,0.004027190528142401,0.0019422715993447214,0.00027076808414632327,0.006240230211633445,1.8775820423850806,0.6453592882895008,0.3112499913422764,-6.243897063410551,35.5
,,0.004027190528142401,0.0019422715993447214,0.00027076808414632327,0.006240230211633445,1.8724778448664974,0.6453592882895008,0.3112499913422764,-6.243897063410551,35.6
,,0.004027190528142401,0.0019422715993447214,0.00027076808414632327,0.006240230211633445,1.8673736473479143,0.6453592882895008,0.3112499913422764,-6.243897063410551,35.7
,,0.004027190528142401,0.0019422715993447214,0.00027076808414632327,0.006240230211633445,1.8622694498293315,0.6453592882895008,0.3112499913422764,-6.243897063410551,35.8
,,0.004027190528142401,0.0019422715993447214,0.00027076808414632327,0.006240230211633445,1.8684325292197368,0.6453592882895008,0.3112499913422764,-6.243897063410551,35.9
,,0.004027190528142401,0.0019422715993447214,0.00027076808414632327,0.006240230211633445,1.8745956086101427,0.6453592882895008,0.3112499913422764,-6.243897063410551,36.0
,,0.004190389049311152,0.002005086765497264,0.0002648860037212075,0.006460361818529623,1.8809413058656683,0.6486307063007322,0.3103675648237333,-6.2120679445976945,36.1
,,0.004190389049311152,0.002005086765497264,0.0002648860037212075,0.006460361818529623,1.8872870031211941,0.6486307063007322,0.3103675648237333,-6.2120679445976945,36.2
,,0.004190389049311152,0.002005086765497264,0.0002648860037212075,0.006460361818529623,1.89338396640723,0.6486307063007322,0.3103675648237333,-6.2120679445976945,36.3
,,0.004190389049311152,0.002005086765497264,0.0002648860037212075,0.006460361818529623,1.8994809296932664,0.6486307063007322,0.3103675648237333,-6.2120679445976945,36.4
,,0.004190389049311152,0.002005086765497264,0.0002648860037212075,0.006460361818529623,1.9055778929793026,0.6486307063007322,0.3103675648237333,-6.2120679445976945,36.5
,,0.004190389049311152,0.002005086765497264,0.0002648860037212075,0.006460361818529623,1.9116748562653387,0.6486307063007322,0.3103675648237333,-6.2120679445976945,36.6
,,0.004190389049311152,0.002005086765497264,0.0002648860037212075,0.006460361818529623,1.9177718195513749,0.6486307063007322,0.3103675648237333,-6.2120679445976945,36.7
,,0.004190389049311152,0.002005086765497264,0.0002648860037212075,0.006460361818529623,1.9240047774126472,0.6486307063007322,0.3103675648237333,-6.2120679445976945,36.8
,,0.004435175258059447,0.002117715711594807,0.00026997131560371626,0.006822862285257969,1.9302870825819332,0.6500461349839124,0.31038523467936846,-6.157417265743525,36.9
,,0.004435175258059447,0.002117715711594807,0.00026997131560371626,0.006822862285257969,1.93656938775122,0.6500461349839124,0.31038523467936846,-6.157417265743525,37.0
,,0.004435175258059447,0.002117715711594807,0.00026997131560371626,0.006822862285257969,1.9424831648449457,0.6500461349839124,0.31038523467936846,-6.157417265743525,37.1
,,0.004435175258059447,0.002117715711594807,0.00026997131560371626,0.006822862285257969,1.9483969419386713,0.6500461349839124,0.31038523467936846,-6.157417265743525,37.2
,,0.004435175258059447,0.002117715711594807,0.00026997131560371626,0.006822862285257969,1.954310719032397,0.6500461349839124,0.31038523467936846,-6.157417265743525,37.3
,,0.004435175258059447,0.002117715711594807,0.00026997131560371626,0.006822862285257969,1.960224496126123,0.6500461349839124,0.31038523467936846,-6.157417265743525,37.4
,,0.004435175258059447,0.002117715711594807,0.00026997131560371626,0.006822862285257969,1.9661382732198487,0.6500461349839124,0.31038523467936846,-6.157417265743525,37.5
,,0.004644186633966558,0.002228385565209146,0.00026995440256983753,0.007142526601745542,1.9719385313670144,0.6502162180021253,0.3119884166290059,-6.106477917486616,37.6
,,0.004788446894219006,0.002284472047067997,0.00028696001816600766,0.007359878959453011,1.9779143361962976,0.6506148974187593,0.31039532846308926,-6.081620332943885,37.7
,,0.004788446894219006,0.002284472047067997,0.00028696001816600766,0.007359878959453011,1.983890141025581,0.6506148974187593,0.31039532846308926,-6.081620332943885,37.8
,,0.004788446894219006,0.002284472047067997,0.00028696001816600766,0.007359878959453011,1.9893775550174582,0.6506148974187593,0.31039532846308926,-6.081620332943885,37.9
,,0.004788446894219006,0.002284472047067997,0.00028696001816600766,0.007359878959453011,1.994864969009335,0.6506148974187593,0.31039532846308926,-6.081620332943885,38.0
,,0.004788446894219006,0.002284472047067997,0.00028696001816600766,0.007359878959453011,2.0003523830012115,0.6506148974187593,0.31039532846308926,-6.081620332943885,38.1
,,0.004788446894219006,0.002284472047067997,0.00028696001816600766,0.007359878959453011,2.0058397969930883,0.6506148974187593,0.31039532846308926,-6.081620332943885,38.2
,,0.004788446894219006,0.002284472047067997,0.00028696001816600766,0.007359878959453011,2.011327210984965,0.6506148974187593,0.31039532846308926,-6.081620332943885,38.3
,,0.004788446894219006,0.002284472047067997,0.00028696001816600766,0.007359878959453011,2.016814624976842,0.6506148974187593,0.31039532846308926,-6.081620332943885,38.4
,,0.005282928457392754,0.002503208172884514,0.0003179795290655905,0.008104116159342858,2.0224617989207516,0.6518821242835113,0.30888108260870395,-5.990182100640293,38.5
,,0.005282928457392754,0.002503208172884514,0.0003179795290655905,0.008104116159342858,2.0281089728646617,0.6518821242835113,0.30888108260870395,-5.990182100640293,38.6
,,0.005282928457392754,0.002503208172884514,0.0003179795290655905,0.008104116159342858,2.0331923338067877,0.6518821242835113,0.30888108260870395,-5.990182100640293,38.7
,,0.005282928457392754,0.002503208172884514,0.0003179795290655905,0.008104116159342858,2.0382756947489136,0.6518821242835113,0.30888108260870395,-5.990182100640293,38.8
,,0.005282928457392754,0.002503208172884514,0.0003179795290655905,0.008104116159342858,2.0433590556910395,0.6518821242835113,0.30888108260870395,-5.990182100640293,38.9
,,0.005282928457392754,0.002503208172884514,0.0003179795290655905,0.008104116159342858,2.0484424166331654,0.6518821242835113,0.30888108260870395,-5.990182100640293,39.0
,,0.005282928457392754,0.002503208172884514,0.0003179795290655905,0.008104116159342858,2.053525777575291,0.6518821242835113,0.30888108260870395,-5.990182100640293,39.1
,,0.008651084400612675,0.005683773055519721,0.0007439341695920504,0.015078791625724446,2.0520714061251386,0.5737253100476506,0.3769382319617173,-5.170139996440984,39.2
,,0.003111785895958754,0.005511965938204061,0.0007263141192190772,0.009350065953381892,2.0399779660860555,0.33280897819049393,0.5895109152904316,-5.20083392486098,39.3
,,0.005935217809525511,0.0027590164366316713,0.00036229771675794513,0.00905653196291513,2.0455140465460153,0.6553521628178602,0.30464381376108957,-5.892881026304903,39.4
,,0.005935217809525511,0.0027590164366316713,0.00036229771675794513,0.00905653196291513,2.0336083406984637,0.6553521628178602,0.30464381376108957,-5.892881026304903,39.5
,,0.005935217809525511,0.0027590164366316713,0.00036229771675794513,0.00905653196291513,2.0228555874591234,0.6553521628178602,0.30464381376108957,-5.892881026304903,39.6
,,0.005935217809525511,0.0027590164366316713,0.00036229771675794513,0.00905653196291513,2.0121028342197835,0.6553521628178602,0.30464381376108957,-5.892881026304903,39.7
,,0.005935217809525511,0.0027590164366316713,0.00036229771675794513,0.00905653196291513,2.001350080980443,0.6553521628178602,0.30464381376108957,-5.892881026304903,39.8
,,0.005935217809525511,0.0027590164366316713,0.00036229771675794513,0.00905653196291513,1.990597327741103,0.6553521628178602,0.30464381376108957,-5.892881026304903,39.9
,,0.008588033031618696,0.005701157101186923,0.0007826176711953478,0.015071807804000966,1.9726796725191245,0.5698077591819419,0.37826630854949544,-5.167086124535155,40.0
,,0.008601660353797466,0.005842318474738771,0.0008783221267442458,0.015322300955280482,1.9543835270211398,0.5613817649778704,0.381295113037533,-5.142627561826188,40.1
,,0.006768418400965964,0.00303117766445632,0.00041668463003399813,0.010216280695456282,1.944538837503468,0.6625129636440232,0.29670070300676493,-5.798804066835355,40.2
,,0.006768418400965964,0.00303117766445632,0.00041668463003399813,0.010216280695456282,1.949315617255323,0.6625129636440232,0.29670070300676493,-5.798804066835355,40.3
,,0.006768418400965964,0.00303117766445632,0.00041668463003399813,0.010216280695456282,1.9540923970071784,0.6625129636440232,0.29670070300676493,-5.798804066835355,40.4
,,0.006768418400965964,0.00303117766445632,0.00041668463003399813,0.010216280695456282,1.9591085444042315,0.6625129636440232,0.29670070300676493,-5.798804066835355,40.5
,,0.006768418400965964,0.00303117766445632,0.00041668463003399813,0.010216280695456282,1.9641246918012847,0.6625129636440232,0.29670070300676493,-5.798804066835355,40.6
,,0.006768418400965964,0.00303117766445632,0.00041668463003399813,0.010216280695456282,1.9691408391983383,0.6625129636440232,0.29670070300676493,-5.798804066835355,40.7
,,0.007055323632136949,0.0030695440223524454,0.00035902292924395464,0.010483890583733349,1.9748854179944226,0.6729680718991751,0.29278672815558615,-5.786226255335274,40.8
,,0.008515444484031208,0.005824546776067245,0.0009194249473204401,0.015259416207418892,1.9713355548564717,0.5580452337286095,0.38170180935463577,-5.145674089241204,40.9
,,0.007745800530205007,0.0032732391805406643,0.00047617917090479614,0.011495218881650468,1.9772733032646759,0.6738280157996327,0.28474787772555205,-5.721975209279834,41.0
,,0.007745800530205007,0.0032732391805406643,0.00047617917090479614,0.011495218881650468,1.9832110516728803,0.6738280157996327,0.28474787772555205,-5.721975209279834,41.1
,,0.007745800530205007,0.0032732391805406643,0.00047617917090479614,0.011495218881650468,1.9889527218739702,0.6738280157996327,0.28474787772555205,-5.721975209279834,41.2
,,0.007745800530205007,0.0032732391805406643,0.00047617917090479614,0.011495218881650468,1.9946608104207295,0.6738280157996327,0.28474787772555205,-5.721975209279834,41.3
,,0.007745800530205007,0.0032732391805406643,0.00047617917090479614,0.011495218881650468,2.0003688989674884,0.6738280157996327,0.28474787772555205,-5.721975209279834,41.4
,,0.007745800530205007,0.0032732391805406643,0.00047617917090479614,0.011495218881650468,2.0060769875142475,0.6738280157996327,0.28474787772555205,-5.721975209279834,41.5
,,0.008559575476577477,0.005732229974271299,0.0007780994351858657,0.015069904886034642,2.002083235378281,0.5679913404436733,0.38037598894093794,-5.161650648699043,41.6
,,0.008559575476577477,0.005732229974271299,0.0007780994351858657,0.015069904886034642,1.9980894832423142,0.5679913404436733,0.38037598894093794,-5.161650648699043,41.7
,,0.008559575476577477,0.005732229974271299,0.0007780994351858657,0.015069904886034642,1.9935338377343812,0.5679913404436733,0.38037598894093794,-5.161650648699043,41.8
,,0.008815863049668714,0.003457075683245159,0.000529207140105245,0.012802145873019118,2.000721036686742,0.688623855493507,0.2700387667454284,-5.66733222552986,41.9
,,0.008815863049668714,0.003457075683245159,0.000529207140105245,0.012802145873019118,2.0079082356391034,0.688623855493507,0.2700387667454284,-5.66733222552986,42.0
,,0.008815863049668714,0.003457075683245159,0.000529207140105245,0.012802145873019118,2.0068184085541168,0.688623855493507,0.2700387667454284,-5.66733222552986,42.1
,,0.008815863049668714,0.003457075683245159,0.000529207140105245,0.012802145873019118,2.00572858146913,0.688623855493507,0.2700387667454284,-5.66733222552986,42.2
,,0.008815863049668714,0.003457075683245159,0.000529207140105245,0.012802145873019118,2.0046387543841435,0.688623855493507,0.2700387667454284,-5.66733222552986,42.3
,,0.00908499086747169,0.003406432997641442,0.00045359172447073,0.012945015589583862,2.0048480097342223,0.7018138220537856,0.26314630322905214,-5.682089576917585,42.4
,,0.00908499086747169,0.003406432997641442,0.00045359172447073,0.012945015589583862,2.005057265084301,0.7018138220537856,0.26314630322905214,-5.682089576917585,42.5
,,0.00908499086747169,0.003406432997641442,0.00045359172447073,0.012945015589583862,2.0128025921616413,0.7018138220537856,0.26314630322905214,-5.682089576917585,42.6
,,0.009959739586959266,0.0035653079634954065,0.0005717322384179392,0.014096779788872613,2.021953525092503,0.7065258687534477,0.2529164828345908,-5.6365048435746665,42.7
,,0.009959739586959266,0.0035653079634954065,0.0005717322384179392,0.014096779788872613,2.0311044580233646,0.7065258687534477,0.2529164828345908,-5.6365048435746665,42.8
,,0.009959739586959266,0.0035653079634954065,0.0005717322384179392,0.014096779788872613,2.0399902341066958,0.7065258687534477,0.2529164828345908,-5.6365048435746665,42.9
,,0.009959739586959266,0.0035653079634954065,0.0005717322384179392,0.014096779788872613,2.048876010190028,0.7065258687534477,0.2529164828345908,-5.6365048435746665,43.0
,,0.009959739586959266,0.0035653079634954065,0.0005717322384179392,0.014096779788872613,2.05776178627336,0.7065258687534477,0.2529164828345908,-5.6365048435746665,43.1
,,0.010161837904641698,0.003452924842188928,0.0004832919861585041,0.01409805473298913,2.0683081262205154,0.7207971664958306,0.24492207666843296,-5.6685336267570285,43.2
,,0.010161837904641698,0.003452924842188928,0.0004832919861585041,0.01409805473298913,2.078854466167671,0.7207971664958306,0.24492207666843296,-5.6685336267570285,43.3
,,0.010161837904641698,0.003452924842188928,0.0004832919861585041,0.01409805473298913,2.0890443746346112,0.7207971664958306,0.24492207666843296,-5.6685336267570285,43.4
,,0.010994829602688654,0.003566424050289657,0.0005909291843323004,0.01515218283731061,2.100788804639505,0.7256267773917746,0.2353736150482374,-5.636191851779349,43.5
,,0.010994829602688654,0.003566424050289657,0.0005909291843323004,0.01515218283731061,2.1125332346443995,0.7256267773917746,0.2353736150482374,-5.636191851779349,43.6
,,0.010994829602688654,0.003566424050289657,0.0005909291843323004,0.01515218283731061,2.137588251239364,0.7256267773917746,0.2353736150482374,-5.636191851779349,43.7
,,0.010994829602688654,0.003566424050289657,0.0005909291843323004,0.01515218283731061,2.162643267834329,0.7256267773917746,0.2353736150482374,-5.636191851779349,43.8
,,0.011075263173518968,0.003389669779144806,0.0004887195318159471,0.014953652484479722,2.189748121606269,0.7406393310941188,0.2266783839374974,-5.687022772616236,43.9
,,0.011075263173518968,0.003389669779144806,0.0004887195318159471,0.014953652484479722,2.2168529753782087,0.7406393310941188,0.2266783839374974,-5.687022772616236,44.0
,,0.011075263173518968,0.003389669779144806,0.0004887195318159471,0.014953652484479722,2.2439578291501485,0.7406393310941188,0.2266783839374974,-5.687022772616236,44.1
,,0.011075263173518968,0.003389669779144806,0.0004887195318159471,0.014953652484479722,2.271062682922089,0.7406393310941188,0.2266783839374974,-5.687022772616236,44.2
,,0.011848049341471748,0.003471348400479472,0.0005851421388054726,0.015904539880756692,2.2854458422976602,0.7449476332105026,0.21826147920692412,-5.663212172469716,44.3
,,0.011848049341471748,0.003471348400479472,0.0005851421388054726,0.015904539880756692,2.300330882280384,0.7449476332105026,0.21826147920692412,-5.663212172469716,44.4
,,0.011848049341471748,0.003471348400479472,0.0005851421388054726,0.015904539880756692,2.315215922263108,0.7449476332105026,0.21826147920692412,-5.663212172469716,44.5
,,0.011848049341471748,0.003471348400479472,0.0005851421388054726,0.015904539880756692,2.3301009622458317,0.7449476332105026,0.21826147920692412,-5.663212172469716,44.6
,,0.01180470613375936,0.003268155368014095,0.00047488557918879684,0.015547747080962251,2.3471964722528975,0.7592550915761851,0.21020121764238453,-5.723529560882501,44.7
,,0.01180470613375936,0.003268155368014095,0.00047488557918879684,0.015547747080962251,2.3642919822599637,0.7592550915761851,0.21020121764238453,-5.723529560882501,44.8
,,0.01180470613375936,0.003268155368014095,0.00047488557918879684,0.015547747080962251,2.38138749226703,0.7592550915761851,0.21020121764238453,-5.723529560882501,44.9
,,0.012341205414964357,0.003304865834179186,0.0005591443311754684,0.016205215580319014,2.3998409314248876,0.7615576203720833,0.2039384059902847,-5.712359401304541,45.0
,,0.005918762354404933,0.0035779205423349864,0.0006412143333521817,0.010137897230092102,2.3950005679541624,0.5838254442781683,0.35292531193892185,-5.632973501426995,45.1
,,0.005918762354404933,0.0035779205423349864,0.0006412143333521817,0.010137897230092102,2.3901602044834367,0.5838254442781683,0.35292531193892185,-5.632973501426995,45.2
,,0.005918762354404933,0.0035779205423349864,0.0006412143333521817,0.010137897230092102,2.3853198410127123,0.5838254442781683,0.35292531193892185,-5.632973501426995,45.3
,,0.005918762354404933,0.0035779205423349864,0.0006412143333521817,0.010137897230092102,2.380479477541987,0.5838254442781683,0.35292531193892185,-5.632973501426995,45.4
,,0.005918762354404933,0.0035779205423349864,0.0006412143333521817,0.010137897230092102,2.375639114071262,0.5838254442781683,0.35292531193892185,-5.632973501426995,45.5
,,0.0122708075667716,0.0030978849814014948,0.0004439767491196827,0.01581266929729278,2.3964296510290732,0.7760111424623567,0.1959115771764019,-5.777035664403113,45.6
,,0.0122708075667716,0.0030978849814014948,0.0004439767491196827,0.01581266929729278,2.417220187986884,0.7760111424623567,0.1959115771764019,-5.777035664403113,45.7
,,0.0122708075667716,0.0030978849814014948,0.0004439767491196827,0.01581266929729278,2.4380107249446956,0.7760111424623567,0.1959115771764019,-5.777035664403113,45.8
,,0.005206299726254719,0.003017363458172385,0.0005353571484709347,0.00875902033289804,2.4339121277072553,0.5943929261929393,0.34448640869566854,-5.8033718560006955,45.9
,,0.005206299726254719,0.003017363458172385,0.0005353571484709347,0.00875902033289804,2.429813530469815,0.5943929261929393,0.34448640869566854,-5.8033718560006955,46.0
,,0.005206299726254719,0.003017363458172385,0.0005353571484709347,0.00875902033289804,2.4257149332323746,0.5943929261929393,0.34448640869566854,-5.8033718560006955,46.1
,,0.005206299726254719,0.003017363458172385,0.0005353571484709347,0.00875902033289804,2.4216163359949348,0.5943929261929393,0.34448640869566854,-5.8033718560006955,46.2
,,0.005206299726254719,0.003017363458172385,0.0005353571484709347,0.00875902033289804,2.4175177387574944,0.5943929261929393,0.34448640869566854,-5.8033718560006955,46.3
,,0.012534765955409092,0.0029154598274860615,0.00039892367570730475,0.015849149458602458,2.4420187677016476,0.7908794089013771,0.18395055426167584,-5.837727726341923,46.4
,,0.012534765955409092,0.0029154598274860615,0.00039892367570730475,0.015849149458602458,2.4665197966458012,0.7908794089013771,0.18395055426167584,-5.837727726341923,46.5
,,0.012534765955409092,0.0029154598274860615,0.00039892367570730475,0.015849149458602458,2.4911343445365146,0.7908794089013771,0.18395055426167584,-5.837727726341923,46.6
,,0.012534765955409092,0.0029154598274860615,0.00039892367570730475,0.015849149458602458,2.5156157704215554,0.7908794089013771,0.18395055426167584,-5.837727726341923,46.7
,,0.012951158003403372,0.0029696851248066794,0.0004593909777663777,0.01638023410597643,2.540782847368809,0.7906576865515043,0.1812968670406958,-5.819299350371506,46.8
,,0.012951158003403372,0.0029696851248066794,0.0004593909777663777,0.01638023410597643,2.5659499243160626,0.7906576865515043,0.1812968670406958,-5.819299350371506,46.9
,,0.012951158003403372,0.0029696851248066794,0.0004593909777663777,0.01638023410597643,2.591117001263316,0.7906576865515043,0.1812968670406958,-5.819299350371506,47.0
,,0.012951158003403372,0.0029696851248066794,0.0004593909777663777,0.01638023410597643,2.6162840782105694,0.7906576865515043,0.1812968670406958,-5.819299350371506,47.1
,,0.012766408292476503,0.0027957115896291448,0.00034984798139292843,0.015911967863498577,2.6437323077823263,0.8023148614925334,0.17569866993273636,-5.879668610993548,47.2
,,0.012766408292476503,0.0027957115896291448,0.00034984798139292843,0.015911967863498577,2.6711805373540827,0.8023148614925334,0.17569866993273636,-5.879668610993548,47.3
,,0.012766408292476503,0.0027957115896291448,0.00034984798139292843,0.015911967863498577,2.6986287669258395,0.8023148614925334,0.17569866993273636,-5.879668610993548,47.4
,,0.012766408292476503,0.0027957115896291448,0.00034984798139292843,0.015911967863498577,2.725917236545563,0.8023148614925334,0.17569866993273636,-5.879668610993548,47.5
,,0.012766408292476503,0.0027957115896291448,0.00034984798139292843,0.015911967863498577,2.7532057061652866,0.8023148614925334,0.17569866993273636,-5.879668610993548,47.6
,,0.013095897337674928,0.002877564201315994,0.00040307339766749756,0.01637653493665842,2.780323179324849,0.7996744969755553,0.17571264082700708,-5.850811106125911,47.7
,,0.013095897337674928,0.002877564201315994,0.00040307339766749756,0.01637653493665842,2.8074406524844115,0.7996744969755553,0.17571264082700708,-5.850811106125911,47.8
,,0.013095897337674928,0.002877564201315994,0.00040307339766749756,0.01637653493665842,2.834558125643974,0.7996744969755553,0.17571264082700708,-5.850811106125911,47.9
,,0.004196121833952655,0.002147643411219378,0.0002665147718710719,0.006610280017043105,2.8328177150680056,0.6347873044914751,0.3248944682649097,-6.143384125791055,48.0
,,0.004196121833952655,0.002147643411219378,0.0002665147718710719,0.006610280017043105,2.831077304492037,0.6347873044914751,0.3248944682649097,-6.143384125791055,48.1
,,0.004196121833952655,0.002147643411219378,0.0002665147718710719,0.006610280017043105,2.8358746263083474,0.6347873044914751,0.3248944682649097,-6.143384125791055,48.2
,,0.004196121833952655,0.002147643411219378,0.0002665147718710719,0.006610280017043105,2.8513110167135878,0.6347873044914751,0.3248944682649097,-6.143384125791055,48.3
,,0.004196121833952655,0.002147643411219378,0.0002665147718710719,0.006610280017043105,2.849117886619786,0.6347873044914751,0.3248944682649097,-6.143384125791055,48.4
,,0.004196121833952655,0.002147643411219378,0.0002665147718710719,0.006610280017043105,2.8469247565259845,0.6347873044914751,0.3248944682649097,-6.143384125791055,48.5
,,0.013109698613550037,0.0028390994748853427,0.00035651453665385324,0.016305312625089233,2.8743286162734263,0.8040139379712318,0.1741211309568378,-5.864268363399493,48.6
,,0.013109698613550037,0.0028390994748853427,0.00035651453665385324,0.016305312625089233,2.901732476020868,0.8040139379712318,0.1741211309568378,-5.864268363399493,48.7
,,0.004107264110767509,0.0020390719899989543,0.000226742564457417,0.00637307866522388,2.9002110673884918,0.6444709576832479,0.3199508584643092,-6.195260481490787,48.8
,,0.004107264110767509,0.0020390719899989543,0.000226742564457417,0.00637307866522388,2.898689658756116,0.6444709576832479,0.3199508584643092,-6.195260481490787,48.9
,,0.004107264110767509,0.0020390719899989543,0.000226742564457417,0.00637307866522388,2.904333152106378,0.6444709576832479,0.3199508584643092,-6.195260481490787,49.0
,,0.004107264110767509,0.0020390719899989543,0.000226742564457417,0.00637307866522388,2.910355135732646,0.6444709576832479,0.3199508584643092,-6.195260481490787,49.1
,,0.004107264110767509,0.0020390719899989543,0.000226742564457417,0.00637307866522388,2.907925663378602,0.6444709576832479,0.3199508584643092,-6.195260481490787,49.2
,,0.004107264110767509,0.0020390719899989543,0.000226742564457417,0.00637307866522388,2.905496191024557,0.6444709576832479,0.3199508584643092,-6.195260481490787,49.3
,,0.004107264110767509,0.0020390719899989543,0.000226742564457417,0.00637307866522388,2.903066718670513,0.6444709576832479,0.3199508584643092,-6.195260481490787,49.4
,,0.013002183648488496,0.0028605230410089647,0.00031747679455481167,0.01618018348405227,2.928760643221165,0.8035869099571017,0.1767917554104619,-5.856750789399488,49.5
,,0.013023023554295902,0.0028237714281445572,0.00031260460559678975,0.01615939958803725,2.955193887139087,0.8059101133891636,0.17474482345464037,-5.869681901669178,49.6
,,0.013023023554295902,0.0028237714281445572,0.00031260460559678975,0.01615939958803725,2.9816271310570106,0.8059101133891636,0.17474482345464037,-5.869681901669178,49.7
,,0.013023023554295902,0.0028237714281445572,0.00031260460559678975,0.01615939958803725,3.007331943575902,0.8059101133891636,0.17474482345464037,-5.869681901669178,49.8
,,0.013023023554295902,0.0028237714281445572,0.00031260460559678975,0.01615939958803725,3.0423311980288297,0.8059101133891636,0.17474482345464037,-5.869681901669178,49.9
,,0.013023023554295902,0.0028237714281445572,0.00031260460559678975,0.01615939958803725,3.0672814568570312,0.8059101133891636,0.17474482345464037,-5.869681901669178,50.0
,,0.013023023554295902,0.0028237714281445572,0.00031260460559678975,0.01615939958803725,3.0922317156852324,0.8059101133891636,0.17474482345464037,-5.869681901669178,50.1
,,0.013023023554295902,0.0028237714281445572,0.00031260460559678975,0.01615939958803725,3.117181974513434,0.8059101133891636,0.17474482345464037,-5.869681901669178,50.2
,,0.013115318915254972,0.0027837086164905073,0.0003051520006986038,0.01620417953244408,3.143238120420104,0.8093787710137018,0.17178954422943496,-5.883971205604498,50.3
,,0.012998297878466512,0.0029737583135373154,0.0002951349810159142,0.01626719117301974,3.1655114299436082,0.7990499244900426,0.18280711660102075,-5.817928700710051,50.4
,,0.012998297878466512,0.0029737583135373154,0.0002951349810159142,0.01626719117301974,3.1877847394671126,0.7990499244900426,0.18280711660102075,-5.817928700710051,50.5
,,0.012998297878466512,0.0029737583135373154,0.0002951349810159142,0.01626719117301974,3.2197598896733415,0.7990499244900426,0.18280711660102075,-5.817928700710051,50.6
,,0.012998297878466512,0.0029737583135373154,0.0002951349810159142,0.01626719117301974,3.2517350398795712,0.7990499244900426,0.18280711660102075,-5.817928700710051,50.7
,,0.012998297878466512,0.0029737583135373154,0.0002951349810159142,0.01626719117301974,3.2837101900858006,0.7990499244900426,0.18280711660102075,-5.817928700710051,50.8
,,0.012998297878466512,0.0029737583135373154,0.0002951349810159142,0.01626719117301974,3.3039424958317367,0.7990499244900426,0.18280711660102075,-5.817928700710051,50.9
,,0.012998297878466512,0.0029737583135373154,0.0002951349810159142,0.01626719117301974,3.324174801577672,0.7990499244900426,0.18280711660102075,-5.817928700710051,51.0
,,0.013213138884533336,0.0029847862084514433,0.00029480431764361407,0.016492729410628397,3.3450274312101596,0.8011493158930021,0.1809758793791863,-5.814227156661862,51.1
,,0.013213138884533336,0.0029847862084514433,0.00029480431764361407,0.016492729410628397,3.3658800608426462,0.8011493158930021,0.1809758793791863,-5.814227156661862,51.2
,,0.013024233409178784,0.0032007556551878267,0.0002941464734599593,0.016519135537826572,3.3827580549618106,0.7884331101561012,0.19376048146457373,-5.744368354807452,51.3
,,0.013213138884533336,0.0029847862084514433,0.00029480431764361407,0.016492729410628397,3.4023116021592323,0.8011493158930021,0.1809758793791863,-5.814227156661862,51.4
,,0.012962356370649854,0.0032328244888017556,0.0002919557449704892,0.0164871366044221,3.4172293489135486,0.7862102851245348,0.19608162207709637,-5.734399069122986,51.5
,,0.012962356370649854,0.0032328244888017556,0.0002919557449704892,0.0164871366044221,3.4321470956678652,0.7862102851245348,0.19608162207709637,-5.734399069122986,51.6
,,0.012962356370649854,0.0032328244888017556,0.0002919557449704892,0.0164871366044221,3.4456592365686607,0.7862102851245348,0.19608162207709637,-5.734399069122986,51.7
,,0.012962356370649854,0.0032328244888017556,0.0002919557449704892,0.0164871366044221,3.4591713774694566,0.7862102851245348,0.19608162207709637,-5.734399069122986,51.8
,,0.013296809018891124,0.003344737230005895,0.00022969435658287088,0.01687124060547989,3.47230390547182,0.7881346327650756,0.19825081677274534,-5.700367144539683,51.9
,,0.013296809018891124,0.003344737230005895,0.00022969435658287088,0.01687124060547989,3.485436433474183,0.7881346327650756,0.19825081677274534,-5.700367144539683,52.0
,,0.013296809018891124,0.003344737230005895,0.00022969435658287088,0.01687124060547989,3.4985689614765465,0.7881346327650756,0.19825081677274534,-5.700367144539683,52.1
,,0.013296809018891124,0.003344737230005895,0.00022969435658287088,0.01687124060547989,3.510040925615086,0.7881346327650756,0.19825081677274534,-5.700367144539683,52.2
,,0.013296809018891124,0.003344737230005895,0.00022969435658287088,0.01687124060547989,3.5215128897536254,0.7881346327650756,0.19825081677274534,-5.700367144539683,52.3
,,0.013296809018891124,0.003344737230005895,0.00022969435658287088,0.01687124060547989,3.5329848538921658,0.7881346327650756,0.19825081677274534,-5.700367144539683,52.4
,,0.012941750261668205,0.0035573895279101654,0.00030436278713248503,0.016803502576710858,3.5391528378449517,0.7701817048312937,0.21170523893278054,-5.6387282817754265,52.5
,,0.012941750261668205,0.0035573895279101654,0.00030436278713248503,0.016803502576710858,3.5453208217977394,0.7701817048312937,0.21170523893278054,-5.6387282817754265,52.6
,,0.0058482492317465905,0.0028201372134382253,0.00024661144648705765,0.008914997891671874,3.534108312131011,0.6560011906687999,0.316336273738518,-5.870969737968243,52.7
,,0.0058482492317465905,0.0028201372134382253,0.00024661144648705765,0.008914997891671874,3.5228958024642827,0.6560011906687999,0.316336273738518,-5.870969737968243,52.8
,,0.0058482492317465905,0.0028201372134382253,0.00024661144648705765,0.008914997891671874,3.5096334556205786,0.6560011906687999,0.316336273738518,-5.870969737968243,52.9
,,0.0058482492317465905,0.0028201372134382253,0.00024661144648705765,0.008914997891671874,3.4963711087768754,0.6560011906687999,0.316336273738518,-5.870969737968243,53.0
,,0.0058482492317465905,0.0028201372134382253,0.00024661144648705765,0.008914997891671874,3.4831087619331718,0.6560011906687999,0.316336273738518,-5.870969737968243,53.1
,,0.0058482492317465905,0.0028201372134382253,0.00024661144648705765,0.008914997891671874,3.4698464150894686,0.6560011906687999,0.316336273738518,-5.870969737968243,53.2
,,0.0058482492317465905,0.0028201372134382253,0.00024661144648705765,0.008914997891671874,3.4549647394214515,0.6560011906687999,0.316336273738518,-5.870969737968243,53.3
,,0.013284604534718253,0.003993029352381549,0.0003379689980050018,0.017615602885104803,3.4540075364005647,0.754138511259884,0.2266757134811394,-5.5232050999685045,53.4
,,0.006823196220154383,0.0032645583185693765,0.00040047005087427766,0.010488224589598036,3.4393073736217294,0.6505577909650658,0.3112593833857339,-5.724630803024991,53.5
,,0.006823196220154383,0.0032645583185693765,0.00040047005087427766,0.010488224589598036,3.4246072108428938,0.6505577909650658,0.3112593833857339,-5.724630803024991,53.6
,,0.006823196220154383,0.0032645583185693765,0.00040047005087427766,0.010488224589598036,3.4076965780397157,0.6505577909650658,0.3112593833857339,-5.724630803024991,53.7
,,0.006823196220154383,0.0032645583185693765,0.00040047005087427766,0.010488224589598036,3.390785945236539,0.6505577909650658,0.3112593833857339,-5.724630803024991,53.8
,,0.006823196220154383,0.0032645583185693765,0.00040047005087427766,0.010488224589598036,3.373875312433361,0.6505577909650658,0.3112593833857339,-5.724630803024991,53.9
,,0.006823196220154383,0.0032645583185693765,0.00040047005087427766,0.010488224589598036,3.3556067504793923,0.6505577909650658,0.3112593833857339,-5.724630803024991,54.0
,,0.014071015575405844,0.004541959838191553,0.00039625040582410545,0.0190092258194215,3.371648515297733,0.7402203387488645,0.23893449850814477,-5.394396677655884,54.1
,,0.01483906382753614,0.00445756680667861,0.00041925512069843237,0.01971588575491318,3.390256449195111,0.7526450503923345,0.22609011140003124,-5.413152220862316,54.2
,,0.01431081045463643,0.0047021205726615065,0.000451087066021238,0.01946401809331917,3.405692378794171,0.7352444077078037,0.24158015832689048,-5.359741686347113,54.3
,,0.01431081045463643,0.0047021205726615065,0.000451087066021238,0.01946401809331917,3.421128308393231,0.7352444077078037,0.24158015832689048,-5.359741686347113,54.4
,,0.01431081045463643,0.0047021205726615065,0.000451087066021238,0.01946401809331917,3.436564237992291,0.7352444077078037,0.24158015832689048,-5.359741686347113,54.5
,,0.01431081045463643,0.0047021205726615065,0.000451087066021238,0.01946401809331917,3.426369267162814,0.7352444077078037,0.24158015832689048,-5.359741686347113,54.6
,,0.01431081045463643,0.0047021205726615065,0.000451087066021238,0.01946401809331917,3.4161742963333377,0.7352444077078037,0.24158015832689048,-5.359741686347113,54.7
,,0.01431081045463643,0.0047021205726615065,0.000451087066021238,0.01946401809331917,3.4059793255038615,0.7352444077078037,0.24158015832689048,-5.359741686347113,54.8
,,0.01431081045463643,0.0047021205726615065,0.000451087066021238,0.01946401809331917,3.4206241415616216,0.7352444077078037,0.24158015832689048,-5.359741686347113,54.9
,,0.008555339818861873,0.0038329972904107973,0.0005162744634290776,0.012904611572701747,3.42625277241866,0.6629676353033153,0.2970253904053239,-5.564108199494797,55.0
,,0.008555339818861873,0.0038329972904107973,0.0005162744634290776,0.012904611572701747,3.4318814032756975,0.6629676353033153,0.2970253904053239,-5.564108199494797,55.1
,,0.014048785549827986,0.00497827371297185,0.0004910218793305078,0.019518081142130345,3.444065545972869,0.7197831307045484,0.25505958688869784,-5.3026720920220445,55.2
,,0.014048785549827986,0.00497827371297185,0.0004910218793305078,0.019518081142130345,3.456249688670041,0.7197831307045484,0.25505958688869784,-5.3026720920220445,55.3
,,0.014048785549827986,0.00497827371297185,0.0004910218793305078,0.019518081142130345,3.4398342051856186,0.7197831307045484,0.25505958688869784,-5.3026720920220445,55.4
,,0.014048785549827986,0.00497827371297185,0.0004910218793305078,0.019518081142130345,3.4234187217011973,0.7197831307045484,0.25505958688869784,-5.3026720920220445,55.5
,,0.014048785549827986,0.00497827371297185,0.0004910218793305078,0.019518081142130345,3.407003238216776,0.7197831307045484,0.25505958688869784,-5.3026720920220445,55.6
,,0.014048785549827986,0.00497827371297185,0.0004910218793305078,0.019518081142130345,3.390587754732354,0.7197831307045484,0.25505958688869784,-5.3026720920220445,55.7
,,0.014640957731212136,0.005075337281344515,0.0004979206721922938,0.020214215684748946,3.3741833596446473,0.724290170815696,0.2510776257905328,-5.283362296884383,55.8
,,0.014640957731212136,0.005075337281344515,0.0004979206721922938,0.020214215684748946,3.3577789645569407,0.724290170815696,0.2510776257905328,-5.283362296884383,55.9
,,0.014640957731212136,0.005075337281344515,0.0004979206721922938,0.020214215684748946,3.341374569469234,0.724290170815696,0.2510776257905328,-5.283362296884383,56.0
,,0.014122455071260507,0.005339160497446668,0.0005304374727020095,0.019992053041409184,3.322307333018832,0.706403441507929,0.26706414225631353,-5.232686848584835,56.1
,,0.014122455071260507,0.005339160497446668,0.0005304374727020095,0.019992053041409184,3.3009589439439257,0.706403441507929,0.26706414225631353,-5.232686848584835,56.2
,,0.014122455071260507,0.005339160497446668,0.0005304374727020095,0.019992053041409184,3.279610554869021,0.706403441507929,0.26706414225631353,-5.232686848584835,56.3
,,0.014122455071260507,0.005339160497446668,0.0005304374727020095,0.019992053041409184,3.2582621657941155,0.706403441507929,0.26706414225631353,-5.232686848584835,56.4
,,0.014122455071260507,0.005339160497446668,0.0005304374727020095,0.019992053041409184,3.2369137767192098,0.706403441507929,0.26706414225631353,-5.232686848584835,56.5
,,0.014122455071260507,0.005339160497446668,0.0005304374727020095,0.019992053041409184,3.2155653876443044,0.706403441507929,0.26706414225631353,-5.232686848584835,56.6
,,0.014882492419496254,0.005481249673030156,0.0004718427554563499,0.02083558484798276,3.1951668147578474,0.7142824417015169,0.26307155345153815,-5.206422161496206,56.7
,,0.014882492419496254,0.005481249673030156,0.0004718427554563499,0.02083558484798276,3.1747682418713907,0.7142824417015169,0.26307155345153815,-5.206422161496206,56.8
,,0.014882492419496254,0.005481249673030156,0.0004718427554563499,0.02083558484798276,3.1543696689849337,0.7142824417015169,0.26307155345153815,-5.206422161496206,56.9
,,0.014645054100811055,0.005807852023773311,0.0005695679467306398,0.021022474071315005,3.160678218537422,0.6966379909010858,0.27626872099217276,-5.148544479784674,57.0
,,0.014645054100811055,0.005807852023773311,0.0005695679467306398,0.021022474071315005,3.16698676808991,0.6966379909010858,0.27626872099217276,-5.148544479784674,57.1
,,0.014645054100811055,0.005807852023773311,0.0005695679467306398,0.021022474071315005,3.173295317642398,0.6966379909010858,0.27626872099217276,-5.148544479784674,57.2
,,0.014645054100811055,0.005807852023773311,0.0005695679467306398,0.021022474071315005,3.1796038671948863,0.6966379909010858,0.27626872099217276,-5.148544479784674,57.3
,,0.014645054100811055,0.005807852023773311,0.0005695679467306398,0.021022474071315005,3.1859124167473745,0.6966379909010858,0.27626872099217276,-5.148544479784674,57.4
,,0.015568089893630597,0.00597140597869721,0.0005043584791742512,0.022043854351502058,3.193171084732349,0.7062326599236396,0.2708875627410558,-5.120772871985656,57.5
,,0.015568089893630597,0.00597140597869721,0.0005043584791742512,0.022043854351502058,3.1708327628760813,0.7062326599236396,0.2708875627410558,-5.120772871985656,57.6
,,0.015568089893630597,0.00597140597869721,0.0005043584791742512,0.022043854351502058,3.148494441019813,0.7062326599236396,0.2708875627410558,-5.120772871985656,57.7
,,0.01553454208770618,0.006355277067577264,0.0006061602036492666,0.02249597935893271,3.153273020675167,0.6905474902802007,0.2825072412352525,-5.058469776931185,57.8
,,0.01553454208770618,0.006355277067577264,0.0006061602036492666,0.02249597935893271,3.158051600330521,0.6905474902802007,0.2825072412352525,-5.058469776931185,57.9
,,0.01553454208770618,0.006355277067577264,0.0006061602036492666,0.02249597935893271,3.1628301799858756,0.6905474902802007,0.2825072412352525,-5.058469776931185,58.0
,,0.01553454208770618,0.006355277067577264,0.0006061602036492666,0.02249597935893271,3.1676087596412295,0.6905474902802007,0.2825072412352525,-5.058469776931185,58.1
,,0.01553454208770618,0.006355277067577264,0.0006061602036492666,0.02249597935893271,3.1723873392965833,0.6905474902802007,0.2825072412352525,-5.058469776931185,58.2
,,0.01662788817510381,0.006562733653479349,0.0005329522854259651,0.023723574114009122,3.1781584743590763,0.7009014786387012,0.27663342892350934,-5.026348047358504,58.3
,,0.01662788817510381,0.006562733653479349,0.0005329522854259651,0.023723574114009122,3.1839296094215688,0.7009014786387012,0.27663342892350934,-5.026348047358504,58.4
,,0.010983894004260005,0.004370088393000681,0.0007838107807895472,0.016137793178050232,3.161352267836129,0.6806317247391491,0.2707983888989631,-5.432972042847929,58.5
,,0.010983894004260005,0.004370088393000681,0.0007838107807895472,0.016137793178050232,3.1380356068834176,0.6806317247391491,0.2707983888989631,-5.432972042847929,58.6
,,0.010983894004260005,0.004370088393000681,0.0007838107807895472,0.016137793178050232,3.1147189459307065,0.6806317247391491,0.2707983888989631,-5.432972042847929,58.7
,,0.010983894004260005,0.004370088393000681,0.0007838107807895472,0.016137793178050232,3.0914022849779954,0.6806317247391491,0.2707983888989631,-5.432972042847929,58.8
,,0.010983894004260005,0.004370088393000681,0.0007838107807895472,0.016137793178050232,3.0680856240252834,0.6806317247391491,0.2707983888989631,-5.432972042847929,58.9
,,0.010983894004260005,0.004370088393000681,0.0007838107807895472,0.016137793178050232,3.0447689630725723,0.6806317247391491,0.2707983888989631,-5.432972042847929,59.0
,,0.017862286455440628,0.0071559599604113285,0.0006309270234235081,0.025649173439275468,3.02126024819752,0.6964078783173918,0.2789937842384315,-4.939809708598477,59.1
,,0.017862286455440628,0.0071559599604113285,0.0006309270234235081,0.025649173439275468,2.997751533322468,0.6964078783173918,0.2789937842384315,-4.939809708598477,59.2
,,0.01794477925230367,0.007643834747401678,0.0006556217317549293,0.026244235731460275,2.9714866375991007,0.6837607860225232,0.29125766227738276,-4.873855871440402,59.3
,,0.01794477925230367,0.007643834747401678,0.0006556217317549293,0.026244235731460275,2.9490045782588985,0.6837607860225232,0.29125766227738276,-4.873855871440402,59.4
,,0.01794477925230367,0.007643834747401678,0.0006556217317549293,0.026244235731460275,2.9265225189186967,0.6837607860225232,0.29125766227738276,-4.873855871440402,59.5
,,0.01794477925230367,0.007643834747401678,0.0006556217317549293,0.026244235731460275,2.9040404595784945,0.6837607860225232,0.29125766227738276,-4.873855871440402,59.6
,,0.01794477925230367,0.007643834747401678,0.0006556217317549293,0.026244235731460275,2.881558400238293,0.6837607860225232,0.29125766227738276,-4.873855871440402,59.7
,,0.01794477925230367,0.007643834747401678,0.0006556217317549293,0.026244235731460275,2.859076340898091,0.6837607860225232,0.29125766227738276,-4.873855871440402,59.8
,,0.019107803461433846,0.007832111531685804,0.0006432805705474018,0.027583195563667052,2.837617168551952,0.692733494831284,0.28394503869603727,-4.849523133343856,59.9
,,0.01918377649782814,0.008352372623810994,0.0006558488438563874,0.02819199796549552,2.8145705633993465,0.6804688522362751,0.29626749526704527,-4.785209633917171,60.0
,,0.01918377649782814,0.008352372623810994,0.0006558488438563874,0.02819199796549552,2.7909036343601894,0.6804688522362751,0.29626749526704527,-4.785209633917171,60.1
,,0.01918377649782814,0.008352372623810994,0.0006558488438563874,0.02819199796549552,2.7672367053210323,0.6804688522362751,0.29626749526704527,-4.785209633917171,60.2
,,0.01918377649782814,0.008352372623810994,0.0006558488438563874,0.02819199796549552,2.7475444117951975,0.6804688522362751,0.29626749526704527,-4.785209633917171,60.3
,,0.01918377649782814,0.008352372623810994,0.0006558488438563874,0.02819199796549552,2.7238774827560404,0.6804688522362751,0.29626749526704527,-4.785209633917171,60.4
,,0.01918377649782814,0.008352372623810994,0.0006558488438563874,0.02819199796549552,2.7048463541599883,0.6804688522362751,0.29626749526704527,-4.785209633917171,60.5
,,0.019230114229111053,0.008765675428496652,0.0006184175389582006,0.028614207196565905,2.6846706874335595,0.6720477732271026,0.30633997189859774,-4.736911703852086,60.6
,,0.020349587623525664,0.009090203225888032,0.0006437666834360853,0.030083557532849782,2.6649931457647504,0.6764355446095397,0.3021651683303071,-4.700558013959274,60.7
,,0.020349587623525664,0.009090203225888032,0.0006437666834360853,0.030083557532849782,2.645315604095942,0.6764355446095397,0.3021651683303071,-4.700558013959274,60.8
,,0.020349587623525664,0.009090203225888032,0.0006437666834360853,0.030083557532849782,2.626017675325565,0.6764355446095397,0.3021651683303071,-4.700558013959274,60.9
,,0.020349587623525664,0.009090203225888032,0.0006437666834360853,0.030083557532849782,2.606719746555188,0.6764355446095397,0.3021651683303071,-4.700558013959274,61.0
,,0.020349587623525664,0.009090203225888032,0.0006437666834360853,0.030083557532849782,2.587421817784811,0.6764355446095397,0.3021651683303071,-4.700558013959274,61.1
,,0.020349587623525664,0.009090203225888032,0.0006437666834360853,0.030083557532849782,2.568123889014434,0.6764355446095397,0.3021651683303071,-4.700558013959274,61.2
,,0.019604692664566874,0.004390071014010535,0.0007511085643230839,0.024745872242900493,2.57357107948173,0.7922409229357996,0.1774061940883911,-5.428409875713697,61.3
,,0.019604692664566874,0.004390071014010535,0.0007511085643230839,0.024745872242900493,2.579018269949026,0.7922409229357996,0.1774061940883911,-5.428409875713697,61.4
,,0.021380665509865136,0.009854380813456258,0.000491169667391668,0.03172621599071306,2.562703494497729,0.6739116166933905,0.31060687528386133,-4.6198391700361245,61.5
,,0.021380665509865136,0.009854380813456258,0.000491169667391668,0.03172621599071306,2.5463887190464316,0.6739116166933905,0.31060687528386133,-4.6198391700361245,61.6
,,0.021380665509865136,0.009854380813456258,0.000491169667391668,0.03172621599071306,2.54745443721465,0.6739116166933905,0.31060687528386133,-4.6198391700361245,61.7
,,0.021380665509865136,0.009854380813456258,0.000491169667391668,0.03172621599071306,2.5485201553828682,0.6739116166933905,0.31060687528386133,-4.6198391700361245,61.8
,,0.021380665509865136,0.009854380813456258,0.000491169667391668,0.03172621599071306,2.549585873551087,0.6739116166933905,0.31060687528386133,-4.6198391700361245,61.9
,,0.021380665509865136,0.009854380813456258,0.000491169667391668,0.03172621599071306,2.5506515917193058,0.6739116166933905,0.31060687528386133,-4.6198391700361245,62.0
,,0.02129121807536067,0.010266246133629822,0.0005888091920777474,0.03214627340106824,2.5506533533763442,0.6623230571619898,0.3193603813899209,-4.578893839519726,62.1
,,0.022281033352619793,0.01069893001425809,0.0004652210062061343,0.03344518437308402,2.5507511475448013,0.6661955605946995,0.3198944845066653,-4.537611541181945,62.2
,,0.022281033352619793,0.01069893001425809,0.0004652210062061343,0.03344518437308402,2.5508489417132587,0.6661955605946995,0.3198944845066653,-4.537611541181945,62.3
,,0.022281033352619793,0.01069893001425809,0.0004652210062061343,0.03344518437308402,2.537022263234586,0.6661955605946995,0.3198944845066653,-4.537611541181945,62.4
,,0.022281033352619793,0.01069893001425809,0.0004652210062061343,0.03344518437308402,2.5369385445138617,0.6661955605946995,0.3198944845066653,-4.537611541181945,62.5
,,0.022281033352619793,0.01069893001425809,0.0004652210062061343,0.03344518437308402,2.5368548257931374,0.6661955605946995,0.3198944845066653,-4.537611541181945,62.6
,,0.022281033352619793,0.01069893001425809,0.0004652210062061343,0.03344518437308402,2.536771107072413,0.6661955605946995,0.3198944845066653,-4.537611541181945,62.7
,,0.023169815645979388,0.004493410946176436,0.0006848253776419204,0.028348051969797745,2.570841280329573,0.8173336097543742,0.15850863230262713,-5.40514318942733,62.8
,,0.023169815645979388,0.004493410946176436,0.0006848253776419204,0.028348051969797745,2.604911453586733,0.8173336097543742,0.15850863230262713,-5.40514318942733,62.9
,,0.02301469914025348,0.011571963173160863,0.0005498361359974899,0.03513649844941183,2.603786456143974,0.6550083291136466,0.3293430957504695,-4.459170074282501,63.0
,,0.02301469914025348,0.011571963173160863,0.0005498361359974899,0.03513649844941183,2.5914623166923683,0.6550083291136466,0.3293430957504695,-4.459170074282501,63.1
,,0.02301469914025348,0.011571963173160863,0.0005498361359974899,0.03513649844941183,2.576572008161725,0.6550083291136466,0.3293430957504695,-4.459170074282501,63.2
,,0.02301469914025348,0.011571963173160863,0.0005498361359974899,0.03513649844941183,2.5648537039293995,0.6550083291136466,0.3293430957504695,-4.459170074282501,63.3
,,0.02301469914025348,0.011571963173160863,0.0005498361359974899,0.03513649844941183,2.5531353996970743,0.6550083291136466,0.3293430957504695,-4.459170074282501,63.4
,,0.02301469914025348,0.011571963173160863,0.0005498361359974899,0.03513649844941183,2.541417095464749,0.6550083291136466,0.3293430957504695,-4.459170074282501,63.5
,,0.02301469914025348,0.011571963173160863,0.0005498361359974899,0.03513649844941183,2.529698791232424,0.6550083291136466,0.3293430957504695,-4.459170074282501,63.6
,,0.023682742075163982,0.01253929933806189,0.0005161525627831842,0.03673819397600906,2.5168676949873845,0.6446354464410905,0.3413150724352525,-4.378887619496125,63.7
,,0.023682742075163982,0.01253929933806189,0.0005161525627831842,0.03673819397600906,2.5040365987423447,0.6446354464410905,0.3413150724352525,-4.378887619496125,63.8
,,0.023682742075163982,0.01253929933806189,0.0005161525627831842,0.03673819397600906,2.4912055024973054,0.6446354464410905,0.3413150724352525,-4.378887619496125,63.9
,,0.023682742075163982,0.01253929933806189,0.0005161525627831842,0.03673819397600906,2.4873905914529892,0.6446354464410905,0.3413150724352525,-4.378887619496125,64.0
,,0.023682742075163982,0.01253929933806189,0.0005161525627831842,0.03673819397600906,2.483575680408673,0.6446354464410905,0.3413150724352525,-4.378887619496125,64.1
,,0.023682742075163982,0.01253929933806189,0.0005161525627831842,0.03673819397600906,2.4732052575242225,0.6446354464410905,0.3413150724352525,-4.378887619496125,64.2
,,0.023682742075163982,0.01253929933806189,0.0005161525627831842,0.03673819397600906,2.462834834639772,0.6446354464410905,0.3413150724352525,-4.378887619496125,64.3
,,0.023682742075163982,0.01253929933806189,0.0005161525627831842,0.03673819397600906,2.4524644117553214,0.6446354464410905,0.3413150724352525,-4.378887619496125,64.4
,,0.02431386159940664,0.01289427948062587,0.0005358744218505817,0.03774401550188309,2.4420601022790653,0.6441779253241775,0.34162447501068244,-4.350971517082307,64.5
,,0.02419356865559799,0.013428909518647038,0.000483688248369831,0.03810616642261486,2.430722145164644,0.6348990446134156,0.3524077801402081,-4.310345469163856,64.6
,,0.02419356865559799,0.013428909518647038,0.000483688248369831,0.03810616642261486,2.4193841880502225,0.6348990446134156,0.3524077801402081,-4.310345469163856,64.7
,,0.02419356865559799,0.013428909518647038,0.000483688248369831,0.03810616642261486,2.407349491476874,0.6348990446134156,0.3524077801402081,-4.310345469163856,64.8
,,0.02419356865559799,0.013428909518647038,0.000483688248369831,0.03810616642261486,2.3953147949035243,0.6348990446134156,0.3524077801402081,-4.310345469163856,64.9
,,0.02419356865559799,0.013428909518647038,0.000483688248369831,0.03810616642261486,2.3832800983301756,0.6348990446134156,0.3524077801402081,-4.310345469163856,65.0
,,0.02419356865559799,0.013428909518647038,0.000483688248369831,0.03810616642261486,2.373908243119523,0.6348990446134156,0.3524077801402081,-4.310345469163856,65.1
,,0.023829118958166293,0.004018819670451906,0.00032547070452170694,0.028173409333139905,2.4104006002712444,0.8458017514456976,0.1426458410812438,-5.516767033779776,65.2
,,0.023829118958166293,0.004018819670451906,0.00032547070452170694,0.028173409333139905,2.4468929574229663,0.8458017514456976,0.1426458410812438,-5.516767033779776,65.3
,,0.024437193158496767,0.014059404415389705,0.00045119780277743423,0.03894779537666391,2.4368159378160503,0.6274345677891344,0.3609807507567831,-4.264463753710941,65.4
,,0.024437193158496767,0.014059404415389705,0.00045119780277743423,0.03894779537666391,2.4267389182091352,0.6274345677891344,0.3609807507567831,-4.264463753710941,65.5
,,0.024437193158496767,0.014059404415389705,0.00045119780277743423,0.03894779537666391,2.4166618986022197,0.6274345677891344,0.3609807507567831,-4.264463753710941,65.6
,,0.024437193158496767,0.014059404415389705,0.00045119780277743423,0.03894779537666391,2.4058060592670167,0.6274345677891344,0.3609807507567831,-4.264463753710941,65.7
,,0.024437193158496767,0.014059404415389705,0.00045119780277743423,0.03894779537666391,2.3949502199318133,0.6274345677891344,0.3609807507567831,-4.264463753710941,65.8
,,0.024590264082231278,0.014440932183911338,0.00032979725875889024,0.0393609935249015,2.3837019180835406,0.6247368747609074,0.36688434134101233,-4.2376885919285545,65.9
,,0.024590264082231278,0.014440932183911338,0.00032979725875889024,0.0393609935249015,2.374604377531854,0.6247368747609074,0.36688434134101233,-4.2376885919285545,66.0
,,0.024590264082231278,0.014440932183911338,0.00032979725875889024,0.0393609935249015,2.365506836980167,0.6247368747609074,0.36688434134101233,-4.2376885919285545,66.1
,,0.024187767276951152,0.014263135013987098,0.00041464696262122954,0.03886554925355948,2.356331597466358,0.622344666201673,0.3669865803499694,-4.25007704145557,66.2
,,0.024398881661705278,0.01437721246987416,0.0004199522877796506,0.03919604641935909,2.3471700053920492,0.6224832321265589,0.3668026187144527,-4.24211079319403,66.3
,,0.024398881661705278,0.01437721246987416,0.0004199522877796506,0.03919604641935909,2.338008413317741,0.6224832321265589,0.3668026187144527,-4.24211079319403,66.4
,,0.024398881661705278,0.01437721246987416,0.0004199522877796506,0.03919604641935909,2.327896702810945,0.6224832321265589,0.3668026187144527,-4.24211079319403,66.5
,,0.024277858972016227,0.014597805531587049,0.00030434186992225133,0.039180006373525526,2.3174079336093407,0.6196491838352817,0.37258303105971385,-4.226884067620615,66.6
,,0.024277858972016227,0.014597805531587049,0.00030434186992225133,0.039180006373525526,2.3069191644077356,0.6196491838352817,0.37258303105971385,-4.226884067620615,66.7
,,0.024277858972016227,0.014597805531587049,0.00030434186992225133,0.039180006373525526,2.298238762074326,0.6196491838352817,0.37258303105971385,-4.226884067620615,66.8
,,0.024277858972016227,0.014597805531587049,0.00030434186992225133,0.039180006373525526,2.2895583597409166,0.6196491838352817,0.37258303105971385,-4.226884067620615,66.9
,,0.024277858972016227,0.014597805531587049,0.00030434186992225133,0.039180006373525526,2.2808779574075073,0.6196491838352817,0.37258303105971385,-4.226884067620615,67.0
,,0.024277858972016227,0.014597805531587049,0.00030434186992225133,0.039180006373525526,2.272197555074098,0.6196491838352817,0.37258303105971385,-4.226884067620615,67.1
,,0.024277858972016227,0.014597805531587049,0.00030434186992225133,0.039180006373525526,2.2635171527406888,0.6196491838352817,0.37258303105971385,-4.226884067620615,67.2
,,0.024277858972016227,0.014597805531587049,0.00030434186992225133,0.039180006373525526,2.2538441950001404,0.6196491838352817,0.37258303105971385,-4.226884067620615,67.3
,,0.021454648991448652,0.0037165244554720365,0.00025571046078727,0.025426883907707958,2.2898340722915704,0.8437781471501841,0.14616515609863628,-5.594966333577864,67.4
,,0.0245513629827685,0.014610393936195542,0.0003581339391009819,0.039519890858065024,2.2805782706580504,0.621240657544938,0.3696972238275786,-4.226022090119961,67.5
,,0.0245513629827685,0.014610393936195542,0.0003581339391009819,0.039519890858065024,2.2713224690245304,0.621240657544938,0.3696972238275786,-4.226022090119961,67.6
,,0.0245513629827685,0.014610393936195542,0.0003581339391009819,0.039519890858065024,2.262066667391011,0.621240657544938,0.3696972238275786,-4.226022090119961,67.7
,,0.0245513629827685,0.014610393936195542,0.0003581339391009819,0.039519890858065024,2.252810865757491,0.621240657544938,0.3696972238275786,-4.226022090119961,67.8
,,0.0245513629827685,0.014610393936195542,0.0003581339391009819,0.039519890858065024,2.2435550641239708,0.621240657544938,0.3696972238275786,-4.226022090119961,67.9
,,0.0245513629827685,0.014610393936195542,0.0003581339391009819,0.039519890858065024,2.2342992624904507,0.621240657544938,0.3696972238275786,-4.226022090119961,68.0
,,0.024145489586167534,0.014427345267535335,0.00040929539440675476,0.03898213024810963,2.225159826950458,0.6193989254175875,0.370101509992132,-4.238629896265267,68.1
,,0.024145489586167534,0.014427345267535335,0.00040929539440675476,0.03898213024810963,2.2160203914104653,0.6193989254175875,0.370101509992132,-4.238629896265267,68.2
,,0.024145489586167534,0.014427345267535335,0.00040929539440675476,0.03898213024810963,2.2085312496403198,0.6193989254175875,0.370101509992132,-4.238629896265267,68.3
,,0.02467559555697104,0.014175479296042301,0.0003286375106711004,0.03917971236368444,2.2017880178596747,0.6298054290935218,0.36180661982555823,-4.256241617168016,68.4
,,0.024885787843371584,0.014129191015204526,0.00033177809971551516,0.03934675695829163,2.1952734438216157,0.6324736717120303,0.3590941695698519,-4.259512336918027,68.5
,,0.024885787843371584,0.014129191015204526,0.00033177809971551516,0.03934675695829163,2.1887588697835563,0.6324736717120303,0.3590941695698519,-4.259512336918027,68.6
,,0.024885787843371584,0.014129191015204526,0.00033177809971551516,0.03934675695829163,2.1822442957454973,0.6324736717120303,0.3590941695698519,-4.259512336918027,68.7
,,0.024885787843371584,0.014129191015204526,0.00033177809971551516,0.03934675695829163,2.1757297217074383,0.6324736717120303,0.3590941695698519,-4.259512336918027,68.8
,,0.02442650177601185,0.013952665282453756,0.00024037602314942795,0.03861954308161503,2.1680741066283735,0.632490698411193,0.36128509477617227,-4.272084729290233,68.9
,,0.02442650177601185,0.013952665282453756,0.00024037602314942795,0.03861954308161503,2.1620059243557757,0.632490698411193,0.36128509477617227,-4.272084729290233,69.0
,,0.02442650177601185,0.013952665282453756,0.00024037602314942795,0.03861954308161503,2.1559377420831773,0.632490698411193,0.36128509477617227,-4.272084729290233,69.1
,,0.02442650177601185,0.013952665282453756,0.00024037602314942795,0.03861954308161503,2.1498695598105786,0.632490698411193,0.36128509477617227,-4.272084729290233,69.2
,,0.02442650177601185,0.013952665282453756,0.00024037602314942795,0.03861954308161503,2.1438013775379807,0.632490698411193,0.36128509477617227,-4.272084729290233,69.3
,,0.02442650177601185,0.013952665282453756,0.00024037602314942795,0.03861954308161503,2.137733195265383,0.632490698411193,0.36128509477617227,-4.272084729290233,69.4
,,0.024751594895425034,0.013022165543426507,0.00029514177349899924,0.03806890221235054,2.133332332860962,0.6501788456456981,0.34206832313650953,-4.341102331652164,69.5
,,0.024751594895425034,0.013022165543426507,0.00029514177349899924,0.03806890221235054,2.1300760085869186,0.6501788456456981,0.34206832313650953,-4.341102331652164,69.6
,,0.024313629406109954,0.01272264980411997,0.00021418964056182092,0.037250468850791744,2.1264362562458414,0.6527066680287751,0.34154334687923144,-4.364371424831369,69.7
,,0.024313629406109954,0.01272264980411997,0.00021418964056182092,0.037250468850791744,2.1227965039047634,0.6527066680287751,0.34154334687923144,-4.364371424831369,69.8
,,0.024313629406109954,0.01272264980411997,0.00021418964056182092,0.037250468850791744,2.1191567515636858,0.6527066680287751,0.34154334687923144,-4.364371424831369,69.9
,,0.024313629406109954,0.01272264980411997,0.00021418964056182092,0.037250468850791744,2.115516999222608,0.6527066680287751,0.34154334687923144,-4.364371424831369,70.0
,,0.024313629406109954,0.01272264980411997,0.00021418964056182092,0.037250468850791744,2.111877246881531,0.6527066680287751,0.34154334687923144,-4.364371424831369,70.1
,,0.024313629406109954,0.01272264980411997,0.00021418964056182092,0.037250468850791744,2.1082374945404534,0.6527066680287751,0.34154334687923144,-4.364371424831369,70.2
,,0.024597182453383982,0.011947180450595729,0.00025884233927286426,0.03680320524325257,2.081494585767669,0.6683434850526663,0.3246233683080118,-4.427259974000992,70.3
,,0.023791049314989227,0.01216177724514773,0.00031505717763209647,0.036267883737769055,2.053611537620683,0.6559811839865759,0.335331869184376,-4.4094572580951255,70.4
,,0.024473506107513348,0.011464803542136276,0.00023007578813196293,0.03616838543778159,2.0532226849486133,0.6766546477341026,0.31698411204609955,-4.468473498262931,70.5
,,0.024473506107513348,0.011464803542136276,0.00023007578813196293,0.03616838543778159,2.052833832276544,0.6766546477341026,0.31698411204609955,-4.468473498262931,70.6
,,0.024473506107513348,0.011464803542136276,0.00023007578813196293,0.03616838543778159,2.052444979604474,0.6766546477341026,0.31698411204609955,-4.468473498262931,70.7
,,0.024473506107513348,0.011464803542136276,0.00023007578813196293,0.03616838543778159,2.0520561269324036,0.6766546477341026,0.31698411204609955,-4.468473498262931,70.8
,,0.024473506107513348,0.011464803542136276,0.00023007578813196293,0.03616838543778159,2.0516672742603337,0.6766546477341026,0.31698411204609955,-4.468473498262931,70.9
,,0.024473506107513348,0.011464803542136276,0.00023007578813196293,0.03616838543778159,2.051278421588264,0.6766546477341026,0.31698411204609955,-4.468473498262931,71.0
,,0.024473506107513348,0.011464803542136276,0.00023007578813196293,0.03616838543778159,2.0519535254273737,0.6766546477341026,0.31698411204609955,-4.468473498262931,71.1
,,0.014225845517322443,0.01089394444639855,0.00027944269195288835,0.02539923265567388,2.0433235376014682,0.5600895786961722,0.42890840814299064,-4.519548199501386,71.2
,,0.014225845517322443,0.01089394444639855,0.00027944269195288835,0.02539923265567388,2.0346935497755623,0.5600895786961722,0.42890840814299064,-4.519548199501386,71.3
,,0.024293124404787602,0.01012871643060415,0.00019437145429173638,0.034616212289683486,2.038203469241047,0.7017845916096248,0.2926003673031196,-4.59238067846321,71.4
,,0.024293124404787602,0.01012871643060415,0.00019437145429173638,0.034616212289683486,2.041713388706531,0.7017845916096248,0.2926003673031196,-4.59238067846321,71.5
