HRV_ULF,HRV_VLF,HRV_LF,HRV_HF,HRV_VHF,HRV_TP,HRV_LFHF,HRV_LFn,HRV_HFn,HRV_LnHF,time
,,0.02456607419192189,0.018995368840742325,0.0014559087764852252,0.04501735180914943,1.293266500792088,0.5457023393128385,0.4219566028955453,-3.96356007475048,0.0
,,0.02456607419192189,0.018995368840742325,0.0014559087764852252,0.04501735180914943,1.293266500792088,0.5457023393128385,0.4219566028955453,-3.96356007475048,0.1
,,0.02456607419192189,0.018995368840742325,0.0014559087764852252,0.04501735180914943,1.293266500792088,0.5457023393128385,0.4219566028955453,-3.96356007475048,0.2
,,0.02308334897666813,0.01852370454325338,0.0011980639251924412,0.042805117445113956,1.281487842024699,0.5392661054199025,0.43274509331752326,-3.9887040404339675,0.3
,,0.02308334897666813,0.01852370454325338,0.0011980639251924412,0.042805117445113956,1.2744206467642654,0.5392661054199025,0.43274509331752326,-3.9887040404339675,0.4
,,0.02308334897666813,0.01852370454325338,0.0011980639251924412,0.042805117445113956,1.2697091832573097,0.5392661054199025,0.43274509331752326,-3.9887040404339675,0.5
,,0.022767982451791794,0.01807312391248826,0.001414934213979427,0.04225604057825948,1.2682893247590414,0.5388101237176918,0.42770509648239,-4.0133293109308,0.6
,,0.022767982451791794,0.01807312391248826,0.001414934213979427,0.04225604057825948,1.26722443088534,0.5388101237176918,0.42770509648239,-4.0133293109308,0.7
,,0.022767982451791794,0.01807312391248826,0.001414934213979427,0.04225604057825948,1.2663961800946835,0.5388101237176918,0.42770509648239,-4.0133293109308,0.8
,,0.022767982451791794,0.01807312391248826,0.001414934213979427,0.04225604057825948,1.2657335794621583,0.5388101237176918,0.42770509648239,-4.0133293109308,0.9
,,0.02979576615214132,0.01681912246805578,0.0012342350842043917,0.047849123704401496,1.3117160782702009,0.6227024414534994,0.35150324950483136,-4.08523879773319,1.0
,,0.02979576615214132,0.01681912246805578,0.0012342350842043917,0.047849123704401496,1.350034827276903,0.6227024414534994,0.35150324950483136,-4.08523879773319,1.1
,,0.02979576615214132,0.01681912246805578,0.0012342350842043917,0.047849123704401496,1.3824583841287281,0.6227024414534994,0.35150324950483136,-4.08523879773319,1.2
,,0.021462693286076827,0.017367447953181184,0.0013933692745218993,0.04022351051377991,1.3719827898092196,0.533585781348549,0.4317735506261042,-4.053157632195672,1.3
,,0.021462693286076827,0.017367447953181184,0.0013933692745218993,0.04022351051377991,1.362903941398979,0.533585781348549,0.4317735506261042,-4.053157632195672,1.4
,,0.021462693286076827,0.017367447953181184,0.0013933692745218993,0.04022351051377991,1.3549599490400186,0.533585781348549,0.4317735506261042,-4.053157632195672,1.5
,,0.021462693286076827,0.017367447953181184,0.0013933692745218993,0.04022351051377991,1.3479505440174062,0.533585781348549,0.4317735506261042,-4.053157632195672,1.6
,,0.020777675478308937,0.017262425783202275,0.0011709402480265102,0.03921104150953772,1.3399330640663594,0.5298934860798064,0.44024400063444763,-4.0592230595635845,1.7
,,0.020777675478308937,0.017262425783202275,0.0011709402480265102,0.03921104150953772,1.3327595293733174,0.5298934860798064,0.44024400063444763,-4.0592230595635845,1.8
,,0.020777675478308937,0.017262425783202275,0.0011709402480265102,0.03921104150953772,1.3263033481495796,0.5298934860798064,0.44024400063444763,-4.0592230595635845,1.9
,,0.02070325630455382,0.01696384280966954,0.0013928530537628565,0.03905995216798622,1.3212619668126915,0.5300379328554923,0.4343027031040046,-4.076671093525106,2.0
,,0.02070325630455382,0.01696384280966954,0.0013928530537628565,0.03905995216798622,1.3166788928700657,0.5300379328554923,0.4343027031040046,-4.076671093525106,2.1
,,0.02070325630455382,0.01696384280966954,0.0013928530537628565,0.03905995216798622,1.312494347096364,0.5300379328554923,0.4343027031040046,-4.076671093525106,2.2
,,0.02070325630455382,0.01696384280966954,0.0013928530537628565,0.03905995216798622,1.3086585134704707,0.5300379328554923,0.4343027031040046,-4.076671093525106,2.3
,,0.02628795779515387,0.017289346006962535,0.001509222693648572,0.04508652649576498,1.3171310327880457,0.5830557339036335,0.38347034803372,-4.057664804932189,2.4
,,0.02628795779515387,0.017289346006962535,0.001509222693648572,0.04508652649576498,1.3249518198504224,0.5830557339036335,0.38347034803372,-4.057664804932189,2.5
,,0.02628795779515387,0.017289346006962535,0.001509222693648572,0.04508652649576498,1.3321932893526234,0.5830557339036335,0.38347034803372,-4.057664804932189,2.6
,,0.02033369980133867,0.01676147021488152,0.0014064102385617468,0.03850158025478193,1.3279407252597875,0.5281263695355258,0.43534499373697083,-4.088672466123877,2.7
,,0.02033369980133867,0.01676147021488152,0.0014064102385617468,0.03850158025478193,1.3239814414492161,0.5281263695355258,0.43534499373697083,-4.088672466123877,2.8
,,0.02033369980133867,0.01676147021488152,0.0014064102385617468,0.03850158025478193,1.320286109892683,0.5281263695355258,0.43534499373697083,-4.088672466123877,2.9
,,0.02033369980133867,0.01676147021488152,0.0014064102385617468,0.03850158025478193,1.3168291868236681,0.5281263695355258,0.43534499373697083,-4.088672466123877,3.0
,,0.02377634705707172,0.016752067445281,0.0015448540756884607,0.042073268578041174,1.320031656666373,0.5651176592797699,0.39816415532840765,-4.089233598758849,3.1
,,0.02377634705707172,0.016752067445281,0.0015448540756884607,0.042073268578041174,1.323040037427702,0.5651176592797699,0.39816415532840765,-4.089233598758849,3.2
,,0.02377634705707172,0.016752067445281,0.0015448540756884607,0.042073268578041174,1.3258714546148351,0.5651176592797699,0.39816415532840765,-4.089233598758849,3.3
,,0.02043980621629365,0.01685968063601185,0.0014401109117078317,0.038739597764013325,1.32262793770566,0.527620507079218,0.43520536115822667,-4.082830268698635,3.4
,,0.02043980621629365,0.01685968063601185,0.0014401109117078317,0.038739597764013325,1.3195646161803276,0.527620507079218,0.43520536115822667,-4.082830268698635,3.5
,,0.02043980621629365,0.01685968063601185,0.0014401109117078317,0.038739597764013325,1.3166668796023109,0.527620507079218,0.43520536115822667,-4.082830268698635,3.6
,,0.02029689474176544,0.016961983749740613,0.0012404553111759298,0.03849933380268198,1.3135075118750514,0.5272011938126445,0.44057863018291993,-4.076780689082198,3.7
,,0.02029689474176544,0.016961983749740613,0.0012404553111759298,0.03849933380268198,1.3105101630056002,0.5272011938126445,0.44057863018291993,-4.076780689082198,3.8
,,0.02029689474176544,0.016961983749740613,0.0012404553111759298,0.03849933380268198,1.3076626815796217,0.5272011938126445,0.44057863018291993,-4.076780689082198,3.9
,,0.02029689474176544,0.016961983749740613,0.0012404553111759298,0.03849933380268198,1.3049541016866177,0.5272011938126445,0.44057863018291993,-4.076780689082198,4.0
,,0.021857453534767278,0.016859589560896525,0.0019031099890620766,0.04062015308472588,1.3047513952105665,0.5380938247371152,0.4150548011409667,-4.082835670661062,4.1
,,0.021857453534767278,0.016859589560896525,0.0019031099890620766,0.04062015308472588,1.3045581169427036,0.5380938247371152,0.4150548011409667,-4.082835670661062,4.2
,,0.021857453534767278,0.016859589560896525,0.0019031099890620766,0.04062015308472588,1.3043736240506527,0.5380938247371152,0.4150548011409667,-4.082835670661062,4.3
,,0.020947478230361923,0.017373711503748467,0.001284537566257235,0.03960572730036763,1.3021808695208203,0.5289002287850294,0.43866664464932575,-4.0527970483387685,4.4
,,0.020947478230361923,0.017373711503748467,0.001284537566257235,0.03960572730036763,1.300083452144459,0.5289002287850294,0.43866664464932575,-4.0527970483387685,4.5
,,0.020947478230361923,0.017373711503748467,0.001284537566257235,0.03960572730036763,1.2980752865713472,0.5289002287850294,0.43866664464932575,-4.0527970483387685,4.6
,,0.020947478230361923,0.017373711503748467,0.001284537566257235,0.03960572730036763,1.2961507945637816,0.5289002287850294,0.43866664464932575,-4.0527970483387685,4.7
,,0.02143206292283396,0.01752017115696641,0.0015143089424577653,0.040466543022258133,1.2946636214546823,0.529624260492069,0.4329544816153347,-4.044402424288368,4.8
,,0.02143206292283396,0.01752017115696641,0.0015143089424577653,0.040466543022258133,1.2932359352699467,0.529624260492069,0.4329544816153347,-4.044402424288368,4.9
,,0.02143206292283396,0.01752017115696641,0.0015143089424577653,0.040466543022258133,1.2918642367787303,0.529624260492069,0.4329544816153347,-4.044402424288368,5.0
,,0.021820247578454986,0.017933148096959377,0.0013296324608614296,0.04108302813627579,1.2904198283423995,0.5311255905011536,0.43650989010531666,-4.021104429701688,5.1
,,0.021820247578454986,0.017933148096959377,0.0013296324608614296,0.04108302813627579,1.2890299258847981,0.5311255905011536,0.43650989010531666,-4.021104429701688,5.2
,,0.021820247578454986,0.017933148096959377,0.0013296324608614296,0.04108302813627579,1.2876915012959969,0.5311255905011536,0.43650989010531666,-4.021104429701688,5.3
,,0.021820247578454986,0.017933148096959377,0.0013296324608614296,0.04108302813627579,1.2864017466922428,0.5311255905011536,0.43650989010531666,-4.021104429701688,5.4
,,0.022279151243911808,0.01807554708573969,0.0015514448681919243,0.04190614319784342,1.2854402424023932,0.5316440393650528,0.4313340648029355,-4.013195243857896,5.5
,,0.022279151243911808,0.01807554708573969,0.0015514448681919243,0.04190614319784342,1.2845124751051702,0.5316440393650528,0.4313340648029355,-4.013195243857896,5.6
,,0.022279151243911808,0.01807554708573969,0.0015514448681919243,0.04190614319784342,1.2836166997837135,0.5316440393650528,0.4313340648029355,-4.013195243857896,5.7
,,0.022869936151942775,0.01859509144511301,0.0013702883819453559,0.042835315979001136,1.2827060951943081,0.5339037574312314,0.43410655483967375,-3.984857633891301,5.8
,,0.022869936151942775,0.01859509144511301,0.0013702883819453559,0.042835315979001136,1.2818258440912162,0.5339037574312314,0.43410655483967375,-3.984857633891301,5.9
,,0.022869936151942775,0.01859509144511301,0.0013702883819453559,0.042835315979001136,1.2809744536800292,0.5339037574312314,0.43410655483967375,-3.984857633891301,6.0
,,0.022869936151942775,0.01859509144511301,0.0013702883819453559,0.042835315979001136,1.2801505274756544,0.5339037574312314,0.43410655483967375,-3.984857633891301,6.1
,,0.023308679905909926,0.01874550699233607,0.0015826092263499891,0.043636796124595985,1.2795676231330264,0.5341519537629833,0.42958027758986,-3.9768011823562817,6.2
,,0.023308679905909926,0.01874550699233607,0.0015826092263499891,0.043636796124595985,1.2790029345511054,0.5341519537629833,0.42958027758986,-3.9768011823562817,6.3
,,0.023308679905909926,0.01874550699233607,0.0015826092263499891,0.043636796124595985,1.2784556210024742,0.5341519537629833,0.42958027758986,-3.9768011823562817,6.4
,,0.023510992593074678,0.01889189780172856,0.0013680600079522057,0.04377095040275544,1.2779411625712835,0.5371368996272612,0.43160812429010653,-3.969022136568628,6.5
,,0.023510992593074678,0.01889189780172856,0.0013680600079522057,0.04377095040275544,1.2774420611081878,0.5371368996272612,0.43160812429010653,-3.969022136568628,6.6
,,0.023510992593074678,0.01889189780172856,0.0013680600079522057,0.04377095040275544,1.2769576390998891,0.5371368996272612,0.43160812429010653,-3.969022136568628,6.7
,,0.023510992593074678,0.01889189780172856,0.0013680600079522057,0.04377095040275544,1.2764872583092224,0.5371368996272612,0.43160812429010653,-3.969022136568628,6.8
,,0.02383329317575084,0.018977939545864093,0.0015584488381770877,0.04436968155979202,1.2761923257620627,0.5371526758341368,0.42772314063804273,-3.964478050920727,6.9
,,0.02383329317575084,0.018977939545864093,0.0015584488381770877,0.04436968155979202,1.2759057011739776,0.5371526758341368,0.42772314063804273,-3.964478050920727,7.0
,,0.02383329317575084,0.018977939545864093,0.0015584488381770877,0.04436968155979202,1.2756270383800064,0.5371526758341368,0.42772314063804273,-3.964478050920727,7.1
,,0.02383329317575084,0.018977939545864093,0.0015584488381770877,0.04436968155979202,1.2753560101831303,0.5371526758341368,0.42772314063804273,-3.964478050920727,7.2
,,0.020665514448725726,0.01863416261335016,0.001647196634084697,0.04094687369616059,1.2731081214174456,0.5046908978221564,0.45508144899221953,-3.9827586832907813,7.3
,,0.020665514448725726,0.01863416261335016,0.001647196634084697,0.04094687369616059,1.2709201763521794,0.5046908978221564,0.45508144899221953,-3.9827586832907813,7.4
,,0.020665514448725726,0.01863416261335016,0.001647196634084697,0.04094687369616059,1.2687898087886307,0.5046908978221564,0.45508144899221953,-3.9827586832907813,7.5
,,0.024533822013839093,0.019357404293851754,0.001543545879042617,0.04543477218673347,1.2687719255824574,0.539978981582805,0.4260482305115186,-3.9446802818534583,7.6
,,0.024533822013839093,0.019357404293851754,0.001543545879042617,0.04543477218673347,1.2687545009200323,0.539978981582805,0.4260482305115186,-3.9446802818534583,7.7
,,0.024533822013839093,0.019357404293851754,0.001543545879042617,0.04543477218673347,1.2687375173883013,0.539978981582805,0.4260482305115186,-3.9446802818534583,7.8
,,0.024533822013839093,0.019357404293851754,0.001543545879042617,0.04543477218673347,1.2687209584448638,0.539978981582805,0.4260482305115186,-3.9446802818534583,7.9
,,0.024533822013839093,0.019357404293851754,0.001543545879042617,0.04543477218673347,1.2687048083642272,0.539978981582805,0.4260482305115186,-3.9446802818534583,8.0
,,0.024949046301393378,0.019604860957513313,0.0013378751743369382,0.04589178243324363,1.2687522486502254,0.5436495376418523,0.42719763578656983,-3.9319777354581813,8.1
,,0.024949046301393378,0.019604860957513313,0.0013378751743369382,0.04589178243324363,1.268798545796802,0.5436495376418523,0.42719763578656983,-3.9319777354581813,8.2
,,0.025101101901366316,0.019624662293019228,0.001519667097215267,0.04624543129160081,1.2689206946516847,0.5427801449853756,0.4243589419520345,-3.9309682234607446,8.3
,,0.025101101901366316,0.019624662293019228,0.001519667097215267,0.04624543129160081,1.2690399694158643,0.5427801449853756,0.4243589419520345,-3.9309682234607446,8.4
,,0.025101101901366316,0.019624662293019228,0.001519667097215267,0.04624543129160081,1.2691564703483187,0.5427801449853756,0.4243589419520345,-3.9309682234607446,8.5
,,0.025101101901366316,0.019624662293019228,0.001519667097215267,0.04624543129160081,1.2692702930984177,0.5427801449853756,0.4243589419520345,-3.9309682234607446,8.6
,,0.025101101901366316,0.019624662293019228,0.001519667097215267,0.04624543129160081,1.2693815289678325,0.5427801449853756,0.4243589419520345,-3.9309682234607446,8.7
,,0.025101101901366316,0.019624662293019228,0.001519667097215267,0.04624543129160081,1.269490265154789,0.5427801449853756,0.4243589419520345,-3.9309682234607446,8.8
,,0.025336284056470426,0.01932812548965342,0.0016195783977600627,0.04628398794388391,1.2699498239488105,0.5474092700738946,0.4175985334947243,-3.9461939646155955,8.9
,,0.025336284056470426,0.01932812548965342,0.0016195783977600627,0.04628398794388391,1.2701452023468625,0.5474092700738946,0.4175985334947243,-3.9461939646155955,9.0
,,0.015417553794207905,0.01849505339824014,0.0016626673451228381,0.03557527453757088,1.265037843210196,0.43337835040248246,0.519885050464125,-3.990251966530212,9.1
,,0.015417553794207905,0.01849505339824014,0.0016626673451228381,0.03557527453757088,1.25993048407353,0.43337835040248246,0.519885050464125,-3.990251966530212,9.2
,,0.015417553794207905,0.01849505339824014,0.0016626673451228381,0.03557527453757088,1.2553466208820807,0.43337835040248246,0.519885050464125,-3.990251966530212,9.3
,,0.015417553794207905,0.01849505339824014,0.0016626673451228381,0.03557527453757088,1.2507627576906317,0.43337835040248246,0.519885050464125,-3.990251966530212,9.4
,,0.015417553794207905,0.01849505339824014,0.0016626673451228381,0.03557527453757088,1.2461788944991827,0.43337835040248246,0.519885050464125,-3.990251966530212,9.5
,,0.015417553794207905,0.01849505339824014,0.0016626673451228381,0.03557527453757088,1.2414437167738794,0.43337835040248246,0.519885050464125,-3.990251966530212,9.6
,,0.02573339495009398,0.01988909430838714,0.0012871877811497176,0.04690967703963083,1.2418223202138643,0.5485732704651445,0.4239870227966861,-3.917583722176278,9.7
,,0.02573339495009398,0.01988909430838714,0.0012871877811497176,0.04690967703963083,1.2422009236538492,0.5485732704651445,0.4239870227966861,-3.917583722176278,9.8
,,0.02573339495009398,0.01988909430838714,0.0012871877811497176,0.04690967703963083,1.242579527093834,0.5485732704651445,0.4239870227966861,-3.917583722176278,9.9
,,0.026222923144433467,0.020244924390391633,0.0015152924635668215,0.04798313999839192,1.2372877799914317,0.5465028579895415,0.42191745665394365,-3.899851164234963,10.0
,,0.026222923144433467,0.020244924390391633,0.0015152924635668215,0.04798313999839192,1.2319960328890294,0.5465028579895415,0.42191745665394365,-3.899851164234963,10.1
,,0.026222923144433467,0.020244924390391633,0.0015152924635668215,0.04798313999839192,1.226704285786627,0.5465028579895415,0.42191745665394365,-3.899851164234963,10.2
,,0.026222923144433467,0.020244924390391633,0.0015152924635668215,0.04798313999839192,1.2273652164919473,0.5465028579895415,0.42191745665394365,-3.899851164234963,10.3
,,0.026222923144433467,0.020244924390391633,0.0015152924635668215,0.04798313999839192,1.2280261471972673,0.5465028579895415,0.42191745665394365,-3.899851164234963,10.4
,,0.02666124160784194,0.020523358880216877,0.0013152423360439204,0.04849984282410274,1.2287291258020754,0.5497181033047024,0.4231634101300114,-3.886191583955276,10.5
,,0.02666124160784194,0.020523358880216877,0.0013152423360439204,0.04849984282410274,1.2294321044068832,0.5497181033047024,0.4231634101300114,-3.886191583955276,10.6
,,0.02666124160784194,0.020523358880216877,0.0013152423360439204,0.04849984282410274,1.2304924625534364,0.5497181033047024,0.4231634101300114,-3.886191583955276,10.7
,,0.02666124160784194,0.020523358880216877,0.0013152423360439204,0.04849984282410274,1.2315528206999893,0.5497181033047024,0.4231634101300114,-3.886191583955276,10.8
,,0.027085479362662885,0.02087912408487108,0.0015681507287042488,0.04953275417623821,1.232592996280437,0.5468195704662895,0.421521565519714,-3.8690054668059046,10.9
,,0.027085479362662885,0.02087912408487108,0.0015681507287042488,0.04953275417623821,1.2334465225811473,0.5468195704662895,0.421521565519714,-3.8690054668059046,11.0
,,0.027085479362662885,0.02087912408487108,0.0015681507287042488,0.04953275417623821,1.2343000488818574,0.5468195704662895,0.421521565519714,-3.8690054668059046,11.1
,,0.022804535321517577,0.02147140563835644,0.0015428560772190376,0.04581879703709305,1.2325406518563562,0.49771134984307736,0.46861565616779627,-3.841033199352977,11.2
,,0.022804535321517577,0.02147140563835644,0.0015428560772190376,0.04581879703709305,1.230781254830855,0.49771134984307736,0.46861565616779627,-3.841033199352977,11.3
,,0.022804535321517577,0.02147140563835644,0.0015428560772190376,0.04581879703709305,1.2256881116238545,0.49771134984307736,0.46861565616779627,-3.841033199352977,11.4
,,0.022804535321517577,0.02147140563835644,0.0015428560772190376,0.04581879703709305,1.2205949684168542,0.49771134984307736,0.46861565616779627,-3.841033199352977,11.5
,,0.022804535321517577,0.02147140563835644,0.0015428560772190376,0.04581879703709305,1.2155018252098537,0.49771134984307736,0.46861565616779627,-3.841033199352977,11.6
,,0.022804535321517577,0.02147140563835644,0.0015428560772190376,0.04581879703709305,1.2138236820212605,0.49771134984307736,0.46861565616779627,-3.841033199352977,11.7
,,0.024455014452428182,0.022957153033454653,0.0019103520184363541,0.04932251950431919,1.2121806204903351,0.49581843543671056,0.4654497228480854,-3.7741257120197655,11.8
,,0.027048056097226988,0.020860718887072936,0.0015125219213988695,0.04942129690569879,1.213108184997655,0.5472955545629978,0.42209978679591226,-3.869887367535785,11.9
,,0.027048056097226988,0.020860718887072936,0.0015125219213988695,0.04942129690569879,1.214035749504975,0.5472955545629978,0.42209978679591226,-3.869887367535785,12.0
,,0.027048056097226988,0.020860718887072936,0.0015125219213988695,0.04942129690569879,1.2126723503785504,0.5472955545629978,0.42209978679591226,-3.869887367535785,12.1
,,0.027048056097226988,0.020860718887072936,0.0015125219213988695,0.04942129690569879,1.2113089512521256,0.5472955545629978,0.42209978679591226,-3.869887367535785,12.2
,,0.027048056097226988,0.020860718887072936,0.0015125219213988695,0.04942129690569879,1.209945552125701,0.5472955545629978,0.42209978679591226,-3.869887367535785,12.3
,,0.027048056097226988,0.020860718887072936,0.0015125219213988695,0.04942129690569879,1.2108817069881266,0.5472955545629978,0.42209978679591226,-3.869887367535785,12.4
,,0.027048056097226988,0.020860718887072936,0.0015125219213988695,0.04942129690569879,1.2118178618505522,0.5472955545629978,0.42209978679591226,-3.869887367535785,12.5
,,0.026940318313077836,0.020345708561151594,0.0016924990770243683,0.0489785259512538,1.2130598555954095,0.5500434688436798,0.4154005896665979,-3.8948852708480586,12.6
,,0.026940318313077836,0.020345708561151594,0.0016924990770243683,0.0489785259512538,1.214476709971681,0.5500434688436798,0.4154005896665979,-3.8948852708480586,12.7
,,0.02541130566843245,0.01963727084588786,0.0014659097695863673,0.046514486283906684,1.215559194184618,0.546309498364263,0.4221753783548087,-3.9303259446785224,12.8
,,0.02541130566843245,0.01963727084588786,0.0014659097695863673,0.046514486283906684,1.216641678397555,0.546309498364263,0.4221753783548087,-3.9303259446785224,12.9
,,0.02541130566843245,0.01963727084588786,0.0014659097695863673,0.046514486283906684,1.2177241626104922,0.546309498364263,0.4221753783548087,-3.9303259446785224,13.0
,,0.02541130566843245,0.01963727084588786,0.0014659097695863673,0.046514486283906684,1.2176974298931402,0.546309498364263,0.4221753783548087,-3.9303259446785224,13.1
,,0.02541130566843245,0.01963727084588786,0.0014659097695863673,0.046514486283906684,1.2176706971757885,0.546309498364263,0.4221753783548087,-3.9303259446785224,13.2
,,0.02541130566843245,0.01963727084588786,0.0014659097695863673,0.046514486283906684,1.2176439644584365,0.546309498364263,0.4221753783548087,-3.9303259446785224,13.3
,,0.025135052295172197,0.019502096382230695,0.0012285839984069362,0.04586573267580983,1.2185677290328072,0.5480137529434637,0.42519971326036066,-3.9372333124098144,13.4
,,0.025135052295172197,0.019502096382230695,0.0012285839984069362,0.04586573267580983,1.219491493607178,0.5480137529434637,0.42519971326036066,-3.9372333124098144,13.5
,,0.025135052295172197,0.019502096382230695,0.0012285839984069362,0.04586573267580983,1.2204152581815486,0.5480137529434637,0.42519971326036066,-3.9372333124098144,13.6
,,0.023133289822050238,0.017808437490316253,0.0013734254458028644,0.042315152758169355,1.2214520093245307,0.5466904480826701,0.4208524920633344,-4.028082917684437,13.7
,,0.023133289822050238,0.017808437490316253,0.0013734254458028644,0.042315152758169355,1.222293431111849,0.5466904480826701,0.4208524920633344,-4.028082917684437,13.8
,,0.023133289822050238,0.017808437490316253,0.0013734254458028644,0.042315152758169355,1.2231348528991675,0.5466904480826701,0.4208524920633344,-4.028082917684437,13.9
,,0.023133289822050238,0.017808437490316253,0.0013734254458028644,0.042315152758169355,1.2239762746864857,0.5466904480826701,0.4208524920633344,-4.028082917684437,14.0
,,0.03570871905695826,0.03406890478483268,0.0022567158421243254,0.07203433968391526,1.2221026889976834,0.4957180035750609,0.47295366257712806,-3.3793701938537617,14.1
,,0.03570871905695826,0.03406890478483268,0.0022567158421243254,0.07203433968391526,1.220229103308881,0.4957180035750609,0.47295366257712806,-3.3793701938537617,14.2
,,0.03570871905695826,0.03406890478483268,0.0022567158421243254,0.07203433968391526,1.2183555176200787,0.4957180035750609,0.47295366257712806,-3.3793701938537617,14.3
,,0.03570871905695826,0.03406890478483268,0.0022567158421243254,0.07203433968391526,1.216481931931276,0.4957180035750609,0.47295366257712806,-3.3793701938537617,14.4
,,0.03570871905695826,0.03406890478483268,0.0022567158421243254,0.07203433968391526,1.2144327628161278,0.4957180035750609,0.47295366257712806,-3.3793701938537617,14.5
,,0.01428476352297302,0.016158939707428894,0.0012903719046441077,0.03173407513504602,1.2105600809777857,0.45013958850804564,0.5091983818234399,-4.125281840205814,14.6
,,0.01428476352297302,0.016158939707428894,0.0012903719046441077,0.03173407513504602,1.2066873991394438,0.45013958850804564,0.5091983818234399,-4.125281840205814,14.7
,,0.020553093740329934,0.01565427854236597,0.0012309667711301237,0.03743833905382603,1.207610140833743,0.5489851916448601,0.4181349637295454,-4.157011010071456,14.8
,,0.020553093740329934,0.01565427854236597,0.0012309667711301237,0.03743833905382603,1.208532882528042,0.5489851916448601,0.4181349637295454,-4.157011010071456,14.9
,,0.020553093740329934,0.01565427854236597,0.0012309667711301237,0.03743833905382603,1.209455624222341,0.5489851916448601,0.4181349637295454,-4.157011010071456,15.0
,,0.020553093740329934,0.01565427854236597,0.0012309667711301237,0.03743833905382603,1.2103783659166403,0.5489851916448601,0.4181349637295454,-4.157011010071456,15.1
,,0.020553093740329934,0.01565427854236597,0.0012309667711301237,0.03743833905382603,1.211150701778925,0.5489851916448601,0.4181349637295454,-4.157011010071456,15.2
,,0.020553093740329934,0.01565427854236597,0.0012309667711301237,0.03743833905382603,1.2119230376412098,0.5489851916448601,0.4181349637295454,-4.157011010071456,15.3
,,0.020553093740329934,0.01565427854236597,0.0012309667711301237,0.03743833905382603,1.2126953735034944,0.5489851916448601,0.4181349637295454,-4.157011010071456,15.4
,,0.018131934909968374,0.013345321841305241,0.0010979509590917,0.03257520771036532,1.2139639525991883,0.5566176299222447,0.4096772600795668,-4.316589379420938,15.5
,,0.018131934909968374,0.013345321841305241,0.0010979509590917,0.03257520771036532,1.2152325316948822,0.5566176299222447,0.4096772600795668,-4.316589379420938,15.6
,,0.018131934909968374,0.013345321841305241,0.0010979509590917,0.03257520771036532,1.216501110790576,0.5566176299222447,0.4096772600795668,-4.316589379420938,15.7
,,0.018131934909968374,0.013345321841305241,0.0010979509590917,0.03257520771036532,1.2177696898862698,0.5566176299222447,0.4096772600795668,-4.316589379420938,15.8
,,0.018131934909968374,0.013345321841305241,0.0010979509590917,0.03257520771036532,1.218912262143473,0.5566176299222447,0.4096772600795668,-4.316589379420938,15.9
,,0.018131934909968374,0.013345321841305241,0.0010979509590917,0.03257520771036532,1.2200548344006763,0.5566176299222447,0.4096772600795668,-4.316589379420938,16.0
,,0.018131934909968374,0.013345321841305241,0.0010979509590917,0.03257520771036532,1.2211974066578792,0.5566176299222447,0.4096772600795668,-4.316589379420938,16.1
,,0.01740356933309972,0.012893065012657513,0.0008942439368244756,0.031190878282581706,1.222241824324829,0.5579698389839378,0.41336011432090836,-4.351065708089029,16.2
,,0.04447434639784126,0.043251995187788175,0.003590163623035416,0.09131650520866486,1.2213445899967368,0.4870351345160893,0.47364926076566577,-3.140711915158721,16.3
,,0.04447434639784126,0.043251995187788175,0.003590163623035416,0.09131650520866486,1.2204473556686446,0.4870351345160893,0.47364926076566577,-3.140711915158721,16.4
,,0.04447434639784126,0.043251995187788175,0.003590163623035416,0.09131650520866486,1.2195501213405522,0.4870351345160893,0.47364926076566577,-3.140711915158721,16.5
,,0.04447434639784126,0.043251995187788175,0.003590163623035416,0.09131650520866486,1.2168928807858952,0.4870351345160893,0.47364926076566577,-3.140711915158721,16.6
,,0.04447434639784126,0.043251995187788175,0.003590163623035416,0.09131650520866486,1.2142356402312382,0.4870351345160893,0.47364926076566577,-3.140711915158721,16.7
,,0.04447434639784126,0.043251995187788175,0.003590163623035416,0.09131650520866486,1.2115783996765812,0.4870351345160893,0.47364926076566577,-3.140711915158721,16.8
,,0.01578718374472627,0.010319418133723706,0.0009209076751215092,0.027027509553571485,1.214494392138187,0.584115370061542,0.3818116542802247,-4.573727902909381,16.9
,,0.015675125639751705,0.010107064806253625,0.0009076546320813136,0.026689845078086645,1.217644336557665,0.5873067301024375,0.37868578017906523,-4.594520613893385,17.0
,,0.015675125639751705,0.010107064806253625,0.0009076546320813136,0.026689845078086645,1.2207367019782231,0.5873067301024375,0.37868578017906523,-4.594520613893385,17.1
,,0.015675125639751705,0.010107064806253625,0.0009076546320813136,0.026689845078086645,1.2238290673987813,0.5873067301024375,0.37868578017906523,-4.594520613893385,17.2
,,0.015675125639751705,0.010107064806253625,0.0009076546320813136,0.026689845078086645,1.2268496090661076,0.5873067301024375,0.37868578017906523,-4.594520613893385,17.3
,,0.015675125639751705,0.010107064806253625,0.0009076546320813136,0.026689845078086645,1.2298701507334342,0.5873067301024375,0.37868578017906523,-4.594520613893385,17.4
,,0.015148930288997404,0.009750222349409766,0.0007431741256989598,0.02564232676410613,1.2329217280449187,0.5907783029347682,0.3802393768360377,-4.630465189164744,17.5
,,0.015148930288997404,0.009750222349409766,0.0007431741256989598,0.02564232676410613,1.2359733053564035,0.5907783029347682,0.3802393768360377,-4.630465189164744,17.6
,,0.015148930288997404,0.009750222349409766,0.0007431741256989598,0.02564232676410613,1.239024882667888,0.5907783029347682,0.3802393768360377,-4.630465189164744,17.7
,,0.015377168993964496,0.008967299156506613,0.0008417375044717602,0.02518620565494287,1.2438665037985526,0.6105393247651291,0.35604009906695705,-4.714170745629768,17.8
,,0.015377168993964496,0.008967299156506613,0.0008417375044717602,0.02518620565494287,1.2483548859624418,0.6105393247651291,0.35604009906695705,-4.714170745629768,17.9
,,0.015377168993964496,0.008967299156506613,0.0008417375044717602,0.02518620565494287,1.2528432681263308,0.6105393247651291,0.35604009906695705,-4.714170745629768,18.0
,,0.015377168993964496,0.008967299156506613,0.0008417375044717602,0.02518620565494287,1.2626343878249378,0.6105393247651291,0.35604009906695705,-4.714170745629768,18.1
,,0.015046572054433107,0.00873172395946967,0.0006974284449216928,0.024475724458824472,1.2725188689708469,0.6147549209317977,0.35675037828437134,-4.740792453314778,18.2
,,0.015046572054433107,0.00873172395946967,0.0006974284449216928,0.024475724458824472,1.282403350116756,0.6147549209317977,0.35675037828437134,-4.740792453314778,18.3
,,0.015046572054433107,0.00873172395946967,0.0006974284449216928,0.024475724458824472,1.292287831262665,0.6147549209317977,0.35675037828437134,-4.740792453314778,18.4
,,0.015046572054433107,0.00873172395946967,0.0006974284449216928,0.024475724458824472,1.302172312408574,0.6147549209317977,0.35675037828437134,-4.740792453314778,18.5
,,0.015721450372101847,0.008169979485638051,0.0008001017291463921,0.024691531586886292,1.3142910989032082,0.636714264434351,0.33088184331089204,-4.807288881051193,18.6
,,0.015721450372101847,0.008169979485638051,0.0008001017291463921,0.024691531586886292,1.3212961042325542,0.636714264434351,0.33088184331089204,-4.807288881051193,18.7
,,0.015721450372101847,0.008169979485638051,0.0008001017291463921,0.024691531586886292,1.3283011095619002,0.636714264434351,0.33088184331089204,-4.807288881051193,18.8
,,0.015530721456462008,0.008003564137334458,0.0006678422441696396,0.024202127837966107,1.3354859004893262,0.6417089257787829,0.33069671356661423,-4.8278683193488,18.9
,,0.015530721456462008,0.008003564137334458,0.0006678422441696396,0.024202127837966107,1.342654698708237,0.6417089257787829,0.33069671356661423,-4.8278683193488,19.0
,,0.015530721456462008,0.008003564137334458,0.0006678422441696396,0.024202127837966107,1.349823496927148,0.6417089257787829,0.33069671356661423,-4.8278683193488,19.1
,,0.015530721456462008,0.008003564137334458,0.0006678422441696396,0.024202127837966107,1.356992295146059,0.6417089257787829,0.33069671356661423,-4.8278683193488,19.2
,,0.016513742432027884,0.0075976893230453625,0.0007740674679971077,0.024885499223070352,1.366750493468067,0.6635889553189535,0.30530588335563097,-4.8799111143597,19.3
,,0.016513742432027884,0.0075976893230453625,0.0007740674679971077,0.024885499223070352,1.3765086917900755,0.6635889553189535,0.30530588335563097,-4.8799111143597,19.4
,,0.016513742432027884,0.0075976893230453625,0.0007740674679971077,0.024885499223070352,1.386224842212596,0.6635889553189535,0.30530588335563097,-4.8799111143597,19.5
,,0.0164688216585945,0.007517322075475831,0.0006532581322480829,0.024639401866318415,1.396132785492416,0.6683937275728702,0.30509352930972994,-4.890545311426135,19.6
,,0.0164688216585945,0.007517322075475831,0.0006532581322480829,0.024639401866318415,1.406040728772236,0.6683937275728702,0.30509352930972994,-4.890545311426135,19.7
,,0.0164688216585945,0.007517322075475831,0.0006532581322480829,0.024639401866318415,1.415948672052056,0.6683937275728702,0.30509352930972994,-4.890545311426135,19.8
,,0.0164688216585945,0.007517322075475831,0.0006532581322480829,0.024639401866318415,1.4258767978979812,0.6683937275728702,0.30509352930972994,-4.890545311426135,19.9
,,0.0164688216585945,0.007517322075475831,0.0006532581322480829,0.024639401866318415,1.4358049237439066,0.6683937275728702,0.30509352930972994,-4.890545311426135,20.0
,,0.017710106175983672,0.007257840179345431,0.0007662476682522137,0.02573419402358132,1.4485036213794078,0.688193543569119,0.28203098852424785,-4.925672990364063,20.1
,,0.017710106175983672,0.007257840179345431,0.0007662476682522137,0.02573419402358132,1.4638152423411204,0.688193543569119,0.28203098852424785,-4.925672990364063,20.2
,,0.040770217992472685,0.04123523944065502,0.0031460031691110256,0.08515146060223873,1.4630000657813633,0.4787964610838489,0.4842575705574086,-3.188462061980198,20.3
,,0.040770217992472685,0.04123523944065502,0.0031460031691110256,0.08515146060223873,1.462184889221606,0.4787964610838489,0.4842575705574086,-3.188462061980198,20.4
,,0.040770217992472685,0.04123523944065502,0.0031460031691110256,0.08515146060223873,1.4613697126618488,0.4787964610838489,0.4842575705574086,-3.188462061980198,20.5
,,0.040770217992472685,0.04123523944065502,0.0031460031691110256,0.08515146060223873,1.4605545361020915,0.4787964610838489,0.4842575705574086,-3.188462061980198,20.6
,,0.040770217992472685,0.04123523944065502,0.0031460031691110256,0.08515146060223873,1.4597393595423345,0.4787964610838489,0.4842575705574086,-3.188462061980198,20.7
,,0.04020171617203937,0.040053849715677665,0.0034673321826588295,0.08372289807037588,1.4590554232592858,0.480175878984105,0.47840973782356605,-3.217530487348745,20.8
,,0.04020171617203937,0.040053849715677665,0.0034673321826588295,0.08372289807037588,1.4558008609379929,0.480175878984105,0.47840973782356605,-3.217530487348745,20.9
,,0.01950692703100056,0.007245796925857809,0.0006660672693328446,0.027418791226191213,1.4713071839247849,0.7114437274086316,0.2642639081381683,-4.927333712590936,21.0
,,0.01950692703100056,0.007245796925857809,0.0006660672693328446,0.027418791226191213,1.4868135069115769,0.7114437274086316,0.2642639081381683,-4.927333712590936,21.1
,,0.01950692703100056,0.007245796925857809,0.0006660672693328446,0.027418791226191213,1.5023198298983689,0.7114437274086316,0.2642639081381683,-4.927333712590936,21.2
,,0.01950692703100056,0.007245796925857809,0.0006660672693328446,0.027418791226191213,1.517826152885161,0.7114437274086316,0.2642639081381683,-4.927333712590936,21.3
,,0.01950692703100056,0.007245796925857809,0.0006660672693328446,0.027418791226191213,1.5333324758719533,0.7114437274086316,0.2642639081381683,-4.927333712590936,21.4
,,0.040287052757845034,0.03961235346841986,0.0033608824824084976,0.0832602887086734,1.5302261452833092,0.4838687612387326,0.4757652667650834,-3.2286142530967146,21.5
,,0.040287052757845034,0.03961235346841986,0.0033608824824084976,0.0832602887086734,1.5268139758122332,0.4838687612387326,0.4757652667650834,-3.2286142530967146,21.6
,,0.040287052757845034,0.03961235346841986,0.0033608824824084976,0.0832602887086734,1.5234018063411574,0.4838687612387326,0.4757652667650834,-3.2286142530967146,21.7
,,0.0417715869485101,0.04081005809052002,0.0030301472723893936,0.08561179231141952,1.5203965462336475,0.4879186128537377,0.4766873463187206,-3.1988267061270625,21.8
,,0.0417715869485101,0.04081005809052002,0.0030301472723893936,0.08561179231141952,1.5173912861261378,0.4879186128537377,0.4766873463187206,-3.1988267061270625,21.9
,,0.0417715869485101,0.04081005809052002,0.0030301472723893936,0.08561179231141952,1.514386026018628,0.4879186128537377,0.4766873463187206,-3.1988267061270625,22.0
,,0.0417715869485101,0.04081005809052002,0.0030301472723893936,0.08561179231141952,1.5113807659111183,0.4879186128537377,0.4766873463187206,-3.1988267061270625,22.1
,,0.0417715869485101,0.04081005809052002,0.0030301472723893936,0.08561179231141952,1.5083755058036086,0.4879186128537377,0.4766873463187206,-3.1988267061270625,22.2
,,0.022463527384988684,0.007163176513474447,0.0008070552785122153,0.030433759176975345,1.5288414881302645,0.7381121488923216,0.23536942879188408,-4.938801749258572,22.3
,,0.022463527384988684,0.007163176513474447,0.0008070552785122153,0.030433759176975345,1.5493652038261343,0.7381121488923216,0.23536942879188408,-4.938801749258572,22.4
,,0.022463527384988684,0.007163176513474447,0.0008070552785122153,0.030433759176975345,1.5698889195220043,0.7381121488923216,0.23536942879188408,-4.938801749258572,22.5
,,0.02273336681727694,0.007323276908860182,0.0007020965262236682,0.030758740252360788,1.5900602867770581,0.7390864070101867,0.23808767357753238,-4.91669738603623,22.6
,,0.02273336681727694,0.007323276908860182,0.0007020965262236682,0.030758740252360788,1.610118667463501,0.7390864070101867,0.23808767357753238,-4.91669738603623,22.7
,,0.02273336681727694,0.007323276908860182,0.0007020965262236682,0.030758740252360788,1.630177048149944,0.7390864070101867,0.23808767357753238,-4.91669738603623,22.8
,,0.02273336681727694,0.007323276908860182,0.0007020965262236682,0.030758740252360788,1.650235428836387,0.7390864070101867,0.23808767357753238,-4.91669738603623,22.9
,,0.023767731959688888,0.007208927938832192,0.0008242363385397554,0.03180089623706084,1.6724351885699238,0.7473918905464657,0.2266894582181898,-4.932435029610184,23.0
,,0.023767731959688888,0.007208927938832192,0.0008242363385397554,0.03180089623706084,1.6974224481587858,0.7473918905464657,0.2266894582181898,-4.932435029610184,23.1
,,0.023767731959688888,0.007208927938832192,0.0008242363385397554,0.03180089623706084,1.722409707747648,0.7473918905464657,0.2266894582181898,-4.932435029610184,23.2
,,0.02391980359491537,0.007353397126173423,0.0007173304300323297,0.031990531151121125,1.7469070332336265,0.7477151123849686,0.2298616766141352,-4.912592878498955,23.3
,,0.02391980359491537,0.007353397126173423,0.0007173304300323297,0.031990531151121125,1.771404358719605,0.7477151123849686,0.2298616766141352,-4.912592878498955,23.4
,,0.02391980359491537,0.007353397126173423,0.0007173304300323297,0.031990531151121125,1.7959016842055842,0.7477151123849686,0.2298616766141352,-4.912592878498955,23.5
,,0.02430554087299556,0.0071398991971323225,0.0008212197129169225,0.032266659783044806,1.8239035652790963,0.7532710555236156,0.22127791488613063,-4.942056620778999,23.6
,,0.024393540334477402,0.007113976796802585,0.0008270604790403024,0.03233457761032029,1.8521807168583981,0.754410359969931,0.22001143427746533,-4.945693867085795,23.7
,,0.024393540334477402,0.007113976796802585,0.0008270604790403024,0.03233457761032029,1.8756920724323023,0.754410359969931,0.22001143427746533,-4.945693867085795,23.8
,,0.024393540334477402,0.007113976796802585,0.0008270604790403024,0.03233457761032029,1.8992034280062058,0.754410359969931,0.22001143427746533,-4.945693867085795,23.9
,,0.024393540334477402,0.007113976796802585,0.0008270604790403024,0.03233457761032029,1.9227147835801095,0.754410359969931,0.22001143427746533,-4.945693867085795,24.0
,,0.024420033855604914,0.007227959276022073,0.0007203432110028796,0.032368336342629866,1.945666048966289,0.7544420447535684,0.2233033912991901,-4.929798540465305,24.1
,,0.024420033855604914,0.007227959276022073,0.0007203432110028796,0.032368336342629866,1.9686173143524681,0.7544420447535684,0.2233033912991901,-4.929798540465305,24.2
,,0.024420033855604914,0.007227959276022073,0.0007203432110028796,0.032368336342629866,1.9915685797386478,0.7544420447535684,0.2233033912991901,-4.929798540465305,24.3
,,0.024420033855604914,0.007227959276022073,0.0007203432110028796,0.032368336342629866,2.014519845124827,0.7544420447535684,0.2233033912991901,-4.929798540465305,24.4
,,0.02482655495498981,0.0070344256397684496,0.0008343205710868217,0.032695301165845084,2.038637848894869,0.7593309763093633,0.2151509663142945,-4.9569392349941985,24.5
,,0.02482655495498981,0.0070344256397684496,0.0008343205710868217,0.032695301165845084,2.0627558526649112,0.7593309763093633,0.2151509663142945,-4.9569392349941985,24.6
,,0.02482655495498981,0.0070344256397684496,0.0008343205710868217,0.032695301165845084,2.0868738564349534,0.7593309763093633,0.2151509663142945,-4.9569392349941985,24.7
,,0.02479251135130022,0.007121970983321968,0.0007301076026995154,0.03264458993732171,2.1104567136459544,0.7594676912438587,0.2181669611104413,-4.944570768366532,24.8
,,0.02479251135130022,0.007121970983321968,0.0007301076026995154,0.03264458993732171,2.1340395708569555,0.7594676912438587,0.2181669611104413,-4.944570768366532,24.9
,,0.02479251135130022,0.007121970983321968,0.0007301076026995154,0.03264458993732171,2.157622428067957,0.7594676912438587,0.2181669611104413,-4.944570768366532,25.0
,,0.02479251135130022,0.007121970983321968,0.0007301076026995154,0.03264458993732171,2.1812052852789585,0.7594676912438587,0.2181669611104413,-4.944570768366532,25.1
,,0.02641284993363696,0.023930491577351495,0.0018554020006740224,0.05219874351166248,2.1784707570034647,0.5060054736324388,0.4584495711473368,-3.7326018349681442,25.2
,,0.02641284993363696,0.023930491577351495,0.0018554020006740224,0.05219874351166248,2.1793093222617417,0.5060054736324388,0.4584495711473368,-3.7326018349681442,25.3
,,0.02641284993363696,0.023930491577351495,0.0018554020006740224,0.05219874351166248,2.180147887520018,0.5060054736324388,0.4584495711473368,-3.7326018349681442,25.4
,,0.025008275107499384,0.0070363264872037624,0.0007419873088739408,0.03278658890357709,2.208213501271869,0.7627592849334481,0.2146098975985905,-4.956669050795128,25.5
,,0.025008275107499384,0.0070363264872037624,0.0007419873088739408,0.03278658890357709,2.2362791150237205,0.7627592849334481,0.2146098975985905,-4.956669050795128,25.6
,,0.025008275107499384,0.0070363264872037624,0.0007419873088739408,0.03278658890357709,2.264344728775572,0.7627592849334481,0.2146098975985905,-4.956669050795128,25.7
,,0.025008275107499384,0.0070363264872037624,0.0007419873088739408,0.03278658890357709,2.2924103425274227,0.7627592849334481,0.2146098975985905,-4.956669050795128,25.8
,,0.025202104264135567,0.006918045099749769,0.0008568467856265485,0.03297699614951189,2.3158892268836007,0.7642328655367416,0.20978396784184256,-4.9736220492993715,25.9
,,0.025202104264135567,0.006918045099749769,0.0008568467856265485,0.03297699614951189,2.339134159281907,0.7642328655367416,0.20978396784184256,-4.9736220492993715,26.0
,,0.025202104264135567,0.006918045099749769,0.0008568467856265485,0.03297699614951189,2.3623790916802125,0.7642328655367416,0.20978396784184256,-4.9736220492993715,26.1
,,0.021501549157202777,0.018995511782823823,0.0012986158870641003,0.0417956768270907,2.3577237591080737,0.5144443346654006,0.45448508613482974,-3.9635525496771384,26.2
,,0.021501549157202777,0.018995511782823823,0.0012986158870641003,0.0417956768270907,2.353068426535935,0.5144443346654006,0.45448508613482974,-3.9635525496771384,26.3
,,0.021501549157202777,0.018995511782823823,0.0012986158870641003,0.0417956768270907,2.3484130939637966,0.5144443346654006,0.45448508613482974,-3.9635525496771384,26.4
,,0.021501549157202777,0.018995511782823823,0.0012986158870641003,0.0417956768270907,2.343726725747499,0.5144443346654006,0.45448508613482974,-3.9635525496771384,26.5
,,0.021501549157202777,0.018995511782823823,0.0012986158870641003,0.0417956768270907,2.3390403575312027,0.5144443346654006,0.45448508613482974,-3.9635525496771384,26.6
,,0.025064582134121476,0.006840450739252029,0.0008673229845079314,0.032772355857881436,2.3624900255885524,0.7648086772527123,0.20872624381707264,-4.98490165196736,26.7
,,0.025064582134121476,0.006840450739252029,0.0008673229845079314,0.032772355857881436,2.3841496498267216,0.7648086772527123,0.20872624381707264,-4.98490165196736,26.8
,,0.018982174063229884,0.01658699946452351,0.0011223744163963761,0.03669154794414977,2.3778118249891373,0.5173445964210531,0.452065949623371,-4.099136055241133,26.9
,,0.018982174063229884,0.01658699946452351,0.0011223744163963761,0.03669154794414977,2.371474000151553,0.5173445964210531,0.452065949623371,-4.099136055241133,27.0
,,0.018982174063229884,0.01658699946452351,0.0011223744163963761,0.03669154794414977,2.365136175313969,0.5173445964210531,0.452065949623371,-4.099136055241133,27.1
,,0.018982174063229884,0.01658699946452351,0.0011223744163963761,0.03669154794414977,2.3587049890290825,0.5173445964210531,0.452065949623371,-4.099136055241133,27.2
,,0.018982174063229884,0.01658699946452351,0.0011223744163963761,0.03669154794414977,2.3522738027441967,0.5173445964210531,0.452065949623371,-4.099136055241133,27.3
,,0.024681107733833033,0.006741523766105763,0.0008704572108962791,0.032293088710835076,2.37380547223315,0.7642845178061878,0.2087605749475375,-4.999469301552479,27.4
,,0.024681107733833033,0.006741523766105763,0.0008704572108962791,0.032293088710835076,2.3953371417221025,0.7642845178061878,0.2087605749475375,-4.999469301552479,27.5
,,0.024313066570110918,0.006699446103223168,0.0007566439880673096,0.03176915666140139,2.4142795969021447,0.7653041227767494,0.21087894068534724,-5.005730427163386,27.6
,,0.024313066570110918,0.006699446103223168,0.0007566439880673096,0.03176915666140139,2.4332220520821863,0.7653041227767494,0.21087894068534724,-5.005730427163386,27.7
,,0.024313066570110918,0.006699446103223168,0.0007566439880673096,0.03176915666140139,2.452164507262228,0.7653041227767494,0.21087894068534724,-5.005730427163386,27.8
,,0.024313066570110918,0.006699446103223168,0.0007566439880673096,0.03176915666140139,2.4709271768441896,0.7653041227767494,0.21087894068534724,-5.005730427163386,27.9
,,0.024313066570110918,0.006699446103223168,0.0007566439880673096,0.03176915666140139,2.4896898464261517,0.7653041227767494,0.21087894068534724,-5.005730427163386,28.0
,,0.02405345648829068,0.006605566009429915,0.0008693404775993623,0.031528362975319954,2.5085889189242887,0.7629148556529705,0.20951186125967522,-5.019842650594605,28.1
,,0.02405345648829068,0.006605566009429915,0.0008693404775993623,0.031528362975319954,2.527487991422426,0.7629148556529705,0.20951186125967522,-5.019842650594605,28.2
,,0.023605205682160766,0.0065252992006505596,0.0008061781531965279,0.030936683036007856,2.5435320857435815,0.7630166962206701,0.2109243319025387,-5.032068472318833,28.3
,,0.023605205682160766,0.0065252992006505596,0.0008061781531965279,0.030936683036007856,2.5595761800647368,0.7630166962206701,0.2109243319025387,-5.032068472318833,28.4
,,0.023605205682160766,0.0065252992006505596,0.0008061781531965279,0.030936683036007856,2.5756202743858925,0.7630166962206701,0.2109243319025387,-5.032068472318833,28.5
,,0.023605205682160766,0.0065252992006505596,0.0008061781531965279,0.030936683036007856,2.591472575849748,0.7630166962206701,0.2109243319025387,-5.032068472318833,28.6
,,0.023605205682160766,0.0065252992006505596,0.0008061781531965279,0.030936683036007856,2.607324877313604,0.7630166962206701,0.2109243319025387,-5.032068472318833,28.7
,,0.023196209723192154,0.006424705947104704,0.0008557842032427081,0.030476699873539567,2.6230991797842496,0.7611129098440061,0.2108071403322363,-5.047604416235789,28.8
,,0.023196209723192154,0.006424705947104704,0.0008557842032427081,0.030476699873539567,2.638873482254895,0.7611129098440061,0.2108071403322363,-5.047604416235789,28.9
,,0.022389456151211705,0.006226074903513283,0.0007246370404021435,0.02934016809512713,2.654487879990415,0.7630991096785906,0.21220310951617624,-5.079009176274845,29.0
,,0.022389456151211705,0.006226074903513283,0.0007246370404021435,0.02934016809512713,2.6673317059363586,0.7630991096785906,0.21220310951617624,-5.079009176274845,29.1
,,0.022389456151211705,0.006226074903513283,0.0007246370404021435,0.02934016809512713,2.6801755318823024,0.7630991096785906,0.21220310951617624,-5.079009176274845,29.2
,,0.022383873156166557,0.006224593856301362,0.0007244736794945587,0.02933294069196248,2.70914569653795,0.7630967993024976,0.2122049037520116,-5.079247082727498,29.3
,,0.022389456151211705,0.006226074903513283,0.0007246370404021435,0.02934016809512713,2.7381163200053638,0.7630991096785906,0.21220310951617624,-5.079009176274845,29.4
,,0.021668937487245313,0.006075516791760206,0.000815501818670969,0.028559956097676486,2.766759399638831,0.7587174648706202,0.21272850598865187,-5.10348822477115,29.5
,,0.021668937487245313,0.006075516791760206,0.000815501818670969,0.028559956097676486,2.7954024792722976,0.7587174648706202,0.21272850598865187,-5.10348822477115,29.6
,,0.021668937487245313,0.006075516791760206,0.000815501818670969,0.028559956097676486,2.8240455589057643,0.7587174648706202,0.21272850598865187,-5.10348822477115,29.7
,,0.02056442752982943,0.005767131910288039,0.0006760661948632973,0.027007625634980766,2.8525134069675926,0.7614304125718483,0.2135371686587045,-5.155580391316184,29.8
,,0.02056442752982943,0.005767131910288039,0.0006760661948632973,0.027007625634980766,2.8809812550294205,0.7614304125718483,0.2135371686587045,-5.155580391316184,29.9
,,0.02056442752982943,0.005767131910288039,0.0006760661948632973,0.027007625634980766,2.890688217783164,0.7614304125718483,0.2135371686587045,-5.155580391316184,30.0
,,0.01465248084267609,0.011011957494358635,0.0008055181157439828,0.026469956452778706,2.8755596169463797,0.5535513769663921,0.41601721234424793,-4.508773551647599,30.1
,,0.02056442752982943,0.005767131910288039,0.0006760661948632973,0.027007625634980766,2.885266579700123,0.7614304125718483,0.2135371686587045,-5.155580391316184,30.2
,,0.01987692895403635,0.005641156295538531,0.0007603687135757699,0.026278453963150646,2.8945041844278063,0.7563964372450932,0.21466850003614849,-5.177666217545815,30.3
,,0.01987692895403635,0.005641156295538531,0.0007603687135757699,0.026278453963150646,2.9037417891554886,0.7563964372450932,0.21466850003614849,-5.177666217545815,30.4
,,0.010331834236607652,0.005304576545975551,0.0006223085895320228,0.016258719372115225,2.9140827700806,0.6354642084743419,0.32626041600012173,-5.239185331784382,30.5
,,0.010331834236607652,0.005304576545975551,0.0006223085895320228,0.016258719372115225,2.924423751005711,0.6354642084743419,0.32626041600012173,-5.239185331784382,30.6
,,0.010331834236607652,0.005304576545975551,0.0006223085895320228,0.016258719372115225,2.9347647319308217,0.6354642084743419,0.32626041600012173,-5.239185331784382,30.7
,,0.010331834236607652,0.005304576545975551,0.0006223085895320228,0.016258719372115225,2.9450331736557005,0.6354642084743419,0.32626041600012173,-5.239185331784382,30.8
,,0.010331834236607652,0.005304576545975551,0.0006223085895320228,0.016258719372115225,2.95530161538058,0.6354642084743419,0.32626041600012173,-5.239185331784382,30.9
,,0.018180236046400296,0.005200418787499618,0.0006974305948002964,0.024078085428700213,2.9827722444562332,0.7550532246525758,0.21598140777841518,-5.25901612057999,31.0
,,0.018180236046400296,0.005200418787499618,0.0006974305948002964,0.024078085428700213,3.010242873531886,0.7550532246525758,0.21598140777841518,-5.25901612057999,31.1
,,0.018180236046400296,0.005200418787499618,0.0006974305948002964,0.024078085428700213,3.037713502607539,0.7550532246525758,0.21598140777841518,-5.25901612057999,31.2
,,0.009702893994078565,0.0048903955775038,0.0005712533626766522,0.015164542934259015,3.0249145970992823,0.6398408469112674,0.32248882137130885,-5.320482083572145,31.3
,,0.009702893994078565,0.0048903955775038,0.0005712533626766522,0.015164542934259015,3.0121156915910254,0.6398408469112674,0.32248882137130885,-5.320482083572145,31.4
,,0.009702893994078565,0.0048903955775038,0.0005712533626766522,0.015164542934259015,2.9993167860827694,0.6398408469112674,0.32248882137130885,-5.320482083572145,31.5
,,0.009702893994078565,0.0048903955775038,0.0005712533626766522,0.015164542934259015,2.9868702290153286,0.6398408469112674,0.32248882137130885,-5.320482083572145,31.6
,,0.016812561465389265,0.004807557130462102,0.0006404280280967604,0.02226054662394813,2.991235224323569,0.7552627412707887,0.21596761353964603,-5.337566196960487,31.7
,,0.016812561465389265,0.004807557130462102,0.0006404280280967604,0.02226054662394813,2.9956002196318106,0.7552627412707887,0.21596761353964603,-5.337566196960487,31.8
,,0.016812561465389265,0.004807557130462102,0.0006404280280967604,0.02226054662394813,2.999965214940051,0.7552627412707887,0.21596761353964603,-5.337566196960487,31.9
,,0.016812561465389265,0.004807557130462102,0.0006404280280967604,0.02226054662394813,3.002188831201198,0.7552627412707887,0.21596761353964603,-5.337566196960487,32.0
,,0.016068668329270445,0.004490186737737144,0.0005156999243811953,0.021074554991388782,3.005318092526585,0.7624677406396586,0.2130619953575232,-5.405860988396333,32.1
,,0.016068668329270445,0.004490186737737144,0.0005156999243811953,0.021074554991388782,3.0084473538519725,0.7624677406396586,0.2130619953575232,-5.405860988396333,32.2
,,0.016068668329270445,0.004490186737737144,0.0005156999243811953,0.021074554991388782,3.0120665492802416,0.7624677406396586,0.2130619953575232,-5.405860988396333,32.3
,,0.01574236194511855,0.004429710981731264,0.0005804210353498823,0.020752493962199695,3.015410114274381,0.7585768714735196,0.21345439202632246,-5.419420938197573,32.4
,,0.01574236194511855,0.004429710981731264,0.0005804210353498823,0.020752493962199695,3.0187536792685212,0.7585768714735196,0.21345439202632246,-5.419420938197573,32.5
,,0.01574236194511855,0.004429710981731264,0.0005804210353498823,0.020752493962199695,3.02041620139832,0.7585768714735196,0.21345439202632246,-5.419420938197573,32.6
,,0.01574236194511855,0.004429710981731264,0.0005804210353498823,0.020752493962199695,3.0218034530223306,0.7585768714735196,0.21345439202632246,-5.419420938197573,32.7
,,0.015235486235721173,0.004140842396766284,0.0004639765561716332,0.01984030518865909,3.0245852385451903,0.767905840703999,0.20870860389452223,-5.4868560343638695,32.8
,,0.015235486235721173,0.004140842396766284,0.0004639765561716332,0.01984030518865909,3.0273670240680506,0.767905840703999,0.20870860389452223,-5.4868560343638695,32.9
,,0.015235486235721173,0.004140842396766284,0.0004639765561716332,0.01984030518865909,3.030148809590911,0.767905840703999,0.20870860389452223,-5.4868560343638695,33.0
,,0.014347197097311231,0.005615168828836314,0.00043086717709767147,0.020393233103245215,3.0209991076425164,0.7035273428531611,0.2753447087280516,-5.182283623775126,33.1
,,0.014347197097311231,0.005615168828836314,0.00043086717709767147,0.020393233103245215,3.011849405694122,0.7035273428531611,0.2753447087280516,-5.182283623775126,33.2
,,0.014347197097311231,0.005615168828836314,0.00043086717709767147,0.020393233103245215,3.0026997037457273,0.7035273428531611,0.2753447087280516,-5.182283623775126,33.3
,,0.014347197097311231,0.005615168828836314,0.00043086717709767147,0.020393233103245215,2.9935500017973324,0.7035273428531611,0.2753447087280516,-5.182283623775126,33.4
,,0.014347197097311231,0.005615168828836314,0.00043086717709767147,0.020393233103245215,2.9827253870021795,0.7035273428531611,0.2753447087280516,-5.182283623775126,33.5
,,0.014854827644984473,0.003861140273001818,0.0004230546419335606,0.019139022559919852,2.9862583937912532,0.7761539335918249,0.20174176925250395,-5.556792731616182,33.6
,,0.014854827644984473,0.003861140273001818,0.0004230546419335606,0.019139022559919852,2.989791400580326,0.7761539335918249,0.20174176925250395,-5.556792731616182,33.7
,,0.014854827644984473,0.003861140273001818,0.0004230546419335606,0.019139022559919852,2.99385955392844,0.7761539335918249,0.20174176925250395,-5.556792731616182,33.8
,,0.01496050084926142,0.003838043315576923,0.0004826384614710817,0.019281182626309422,2.998490879969583,0.7759119935334062,0.1990564266706267,-5.562792595484045,33.9
,,0.01496050084926142,0.003838043315576923,0.0004826384614710817,0.019281182626309422,3.0031222060107243,0.7759119935334062,0.1990564266706267,-5.562792595484045,34.0
,,0.01496050084926142,0.003838043315576923,0.0004826384614710817,0.019281182626309422,3.0077535320518667,0.7759119935334062,0.1990564266706267,-5.562792595484045,34.1
,,0.01496050084926142,0.003838043315576923,0.0004826384614710817,0.019281182626309422,3.0388003981697573,0.7759119935334062,0.1990564266706267,-5.562792595484045,34.2
,,0.01496050084926142,0.003838043315576923,0.0004826384614710817,0.019281182626309422,3.069847264287648,0.7759119935334062,0.1990564266706267,-5.562792595484045,34.3
,,0.014903603578580872,0.003633551461988264,0.00038455485491063556,0.018921709895479772,3.103157608416026,0.7876457075447082,0.19203081973348968,-5.617544744807588,34.4
,,0.014903603578580872,0.003633551461988264,0.00038455485491063556,0.018921709895479772,3.109240904050831,0.7876457075447082,0.19203081973348968,-5.617544744807588,34.5
,,0.015254300425589758,0.003628772783396808,0.0004453342577593353,0.0193284074667459,3.116458030745409,0.7892166207606315,0.18774297828934078,-5.6188607640652455,34.6
,,0.015254300425589758,0.003628772783396808,0.0004453342577593353,0.0193284074667459,3.1236751574399877,0.7892166207606315,0.18774297828934078,-5.6188607640652455,34.7
,,0.015254300425589758,0.003628772783396808,0.0004453342577593353,0.0193284074667459,3.130892284134566,0.7892166207606315,0.18774297828934078,-5.6188607640652455,34.8
,,0.015254300425589758,0.003628772783396808,0.0004453342577593353,0.0193284074667459,3.1371229072085542,0.7892166207606315,0.18774297828934078,-5.6188607640652455,34.9
,,0.015254300425589758,0.003628772783396808,0.0004453342577593353,0.0193284074667459,3.1433535302825426,0.7892166207606315,0.18774297828934078,-5.6188607640652455,35.0
,,0.015254300425589758,0.003628772783396808,0.0004453342577593353,0.0193284074667459,3.149584153356531,0.7892166207606315,0.18774297828934078,-5.6188607640652455,35.1
,,0.015907160724520995,0.0034850452310283596,0.0004146194719395411,0.019806825427488895,3.1877227972308053,0.8031151071006184,0.1759517315779257,-5.659274256079595,35.2
,,0.01596761739688302,0.0034784980362997297,0.0004188790982121747,0.019864994531394925,3.2261500098593805,0.8038067854309029,0.17510692141406137,-5.661154677125754,35.3
,,0.01596761739688302,0.0034784980362997297,0.0004188790982121747,0.019864994531394925,3.264577222487956,0.8038067854309029,0.17510692141406137,-5.661154677125754,35.4
,,0.01596761739688302,0.0034784980362997297,0.0004188790982121747,0.019864994531394925,3.303004435116531,0.8038067854309029,0.17510692141406137,-5.661154677125754,35.5
,,0.01596761739688302,0.0034784980362997297,0.0004188790982121747,0.019864994531394925,3.3414316477451065,0.8038067854309029,0.17510692141406137,-5.661154677125754,35.6
,,0.01596761739688302,0.0034784980362997297,0.0004188790982121747,0.019864994531394925,3.3517228241000345,0.8038067854309029,0.17510692141406137,-5.661154677125754,35.7
,,0.01596761739688302,0.0034784980362997297,0.0004188790982121747,0.019864994531394925,3.362014000454964,0.8038067854309029,0.17510692141406137,-5.661154677125754,35.8
,,0.009496592440261516,0.003287108345638175,0.00048797260146125004,0.013271673387360941,3.3813988981048837,0.7155535073147173,0.24767851420820816,-5.71774702298196,35.9
,,0.009496592440261516,0.003287108345638175,0.00048797260146125004,0.013271673387360941,3.4007837957548053,0.7155535073147173,0.24767851420820816,-5.71774702298196,36.0
,,0.01949913698712586,0.0036577649067159896,0.0003695362827807544,0.023526438176622602,3.4473003270230964,0.828818065902618,0.1554746570328943,-5.61090299933573,36.1
,,0.01949913698712586,0.0036577649067159896,0.0003695362827807544,0.023526438176622602,3.493816858291389,0.828818065902618,0.1554746570328943,-5.61090299933573,36.2
,,0.01949913698712586,0.0036577649067159896,0.0003695362827807544,0.023526438176622602,3.5403333895596796,0.828818065902618,0.1554746570328943,-5.61090299933573,36.3
,,0.01949913698712586,0.0036577649067159896,0.0003695362827807544,0.023526438176622602,3.558887065054132,0.828818065902618,0.1554746570328943,-5.61090299933573,36.4
,,0.01949913698712586,0.0036577649067159896,0.0003695362827807544,0.023526438176622602,3.577440740548585,0.828818065902618,0.1554746570328943,-5.61090299933573,36.5
,,0.01949913698712586,0.0036577649067159896,0.0003695362827807544,0.023526438176622602,3.5963493250032235,0.828818065902618,0.1554746570328943,-5.61090299933573,36.6
,,0.017382144574786873,0.0032130408874410416,0.0004816229236084411,0.021076808385836355,3.616135519623495,0.8247047777151923,0.15244437528787375,-5.740537473301922,36.7
,,0.020726415779354454,0.003473364177261403,0.0003849925580196632,0.02458477251463552,3.6421147339504487,0.84305908330109,0.1412811192454061,-5.662631651154838,36.8
,,0.020726415779354454,0.003473364177261403,0.0003849925580196632,0.02458477251463552,3.6680939482774026,0.84305908330109,0.1412811192454061,-5.662631651154838,36.9
,,0.020726415779354454,0.003473364177261403,0.0003849925580196632,0.02458477251463552,3.694073162604357,0.84305908330109,0.1412811192454061,-5.662631651154838,37.0
,,0.020726415779354454,0.003473364177261403,0.0003849925580196632,0.02458477251463552,3.7199159740151355,0.84305908330109,0.1412811192454061,-5.662631651154838,37.1
,,0.020726415779354454,0.003473364177261403,0.0003849925580196632,0.02458477251463552,3.745758785425914,0.84305908330109,0.1412811192454061,-5.662631651154838,37.2
,,0.020726415779354454,0.003473364177261403,0.0003849925580196632,0.02458477251463552,3.771867174910577,0.84305908330109,0.1412811192454061,-5.662631651154838,37.3
,,0.020726415779354454,0.003473364177261403,0.0003849925580196632,0.02458477251463552,3.79797556439524,0.84305908330109,0.1412811192454061,-5.662631651154838,37.4
,,0.01914861335243815,0.00327514902756816,0.00040873520031674536,0.022832497580323057,3.82274388246696,0.8386560990568258,0.14344243401522,-5.72139190632926,37.5
,,0.01914861335243815,0.00327514902756816,0.00040873520031674536,0.022832497580323057,3.847512200538679,0.8386560990568258,0.14344243401522,-5.72139190632926,37.6
,,0.01914861335243815,0.00327514902756816,0.00040873520031674536,0.022832497580323057,3.872280518610399,0.8386560990568258,0.14344243401522,-5.72139190632926,37.7
,,0.01914861335243815,0.00327514902756816,0.00040873520031674536,0.022832497580323057,3.897126835675329,0.8386560990568258,0.14344243401522,-5.72139190632926,37.8
,,0.01914861335243815,0.00327514902756816,0.00040873520031674536,0.022832497580323057,3.9219731527402595,0.8386560990568258,0.14344243401522,-5.72139190632926,37.9
,,0.01914861335243815,0.00327514902756816,0.00040873520031674536,0.022832497580323057,3.9469793745403154,0.8386560990568258,0.14344243401522,-5.72139190632926,38.0
,,0.01914861335243815,0.00327514902756816,0.00040873520031674536,0.022832497580323057,3.9719855963403714,0.8386560990568258,0.14344243401522,-5.72139190632926,38.1
,,0.021775404699906,0.0032080018777841885,0.00043463055204860396,0.02541803712973879,4.00744961361964,0.8566910414348653,0.12620966211552448,-5.7421070036338415,38.2
,,0.020072253013307517,0.0032423365983319926,0.00042164371895220997,0.02373623333059172,4.036278921828889,0.8456376685275505,0.13659861500237303,-5.731461036773013,38.3
,,0.020072253013307517,0.0032423365983319926,0.00042164371895220997,0.02373623333059172,4.065107771226374,0.8456376685275505,0.13659861500237303,-5.731461036773013,38.4
,,0.020072253013307517,0.0032423365983319926,0.00042164371895220997,0.02373623333059172,4.094264164457805,0.8456376685275505,0.13659861500237303,-5.731461036773013,38.5
,,0.020072253013307517,0.0032423365983319926,0.00042164371895220997,0.02373623333059172,4.123420557689235,0.8456376685275505,0.13659861500237303,-5.731461036773013,38.6
,,0.020457126976999036,0.003220685614307315,0.000447522263957122,0.024125334855263473,4.154367143159626,0.8479520429344782,0.13349806888191862,-5.73816101839293,38.7
,,0.020072253013307517,0.0032423365983319926,0.00042164371895220997,0.02373623333059172,4.183532446028318,0.8456376685275505,0.13659861500237303,-5.731461036773013,38.8
,,0.011330863247381879,0.0032156656536809795,0.000458258025503986,0.015004786926566845,4.1830640758726805,0.7551498933530292,0.21430931804752637,-5.7397208964776425,38.9
,,0.020699831253850127,0.0032037579086349253,0.0004360729089892954,0.02433966207147435,4.215234205523301,0.850456805565512,0.13162704967829741,-5.7434308117334645,39.0
,,0.020699831253850127,0.0032037579086349253,0.0004360729089892954,0.02433966207147435,4.272239898764449,0.850456805565512,0.13162704967829741,-5.7434308117334645,39.1
,,0.020699831253850127,0.0032037579086349253,0.0004360729089892954,0.02433966207147435,4.304410028415069,0.850456805565512,0.13162704967829741,-5.7434308117334645,39.2
,,0.020699831253850127,0.0032037579086349253,0.0004360729089892954,0.02433966207147435,4.337049516091751,0.850456805565512,0.13162704967829741,-5.7434308117334645,39.3
,,0.020699831253850127,0.0032037579086349253,0.0004360729089892954,0.02433966207147435,4.369689003768432,0.850456805565512,0.13162704967829741,-5.7434308117334645,39.4
,,0.02107683096413086,0.0031665041527556745,0.0004690134203366403,0.024712348537223174,4.4220052495786915,0.8528866017077945,0.12813448903838914,-5.755127090543096,39.5
,,0.02107683096413086,0.0031665041527556745,0.0004690134203366403,0.024712348537223174,4.47432149538895,0.8528866017077945,0.12813448903838914,-5.755127090543096,39.6
,,0.02107683096413086,0.0031665041527556745,0.0004690134203366403,0.024712348537223174,4.526637741199209,0.8528866017077945,0.12813448903838914,-5.755127090543096,39.7
,,0.020948203429851136,0.003150403921121346,0.00040126597447141116,0.024499873325443892,4.578878294962553,0.8550331322772908,0.128588580000924,-5.76022460543781,39.8
,,0.020948203429851136,0.003150403921121346,0.00040126597447141116,0.024499873325443892,4.631118848725896,0.8550331322772908,0.128588580000924,-5.76022460543781,39.9
,,0.020948203429851136,0.003150403921121346,0.00040126597447141116,0.024499873325443892,4.666157215138465,0.8550331322772908,0.128588580000924,-5.76022460543781,40.0
,,0.020948203429851136,0.003150403921121346,0.00040126597447141116,0.024499873325443892,4.701195581551035,0.8550331322772908,0.128588580000924,-5.76022460543781,40.1
,,0.022235382408286097,0.002902411817443759,0.00048576101930830726,0.025623555245038163,4.747474294818221,0.8677711658530226,0.11327123772200942,-5.842213226440748,40.2
,,0.022235382408286097,0.002902411817443759,0.00048576101930830726,0.025623555245038163,4.810551300235149,0.8677711658530226,0.11327123772200942,-5.842213226440748,40.3
,,0.022235382408286097,0.002902411817443759,0.00048576101930830726,0.025623555245038163,4.873628305652078,0.8677711658530226,0.11327123772200942,-5.842213226440748,40.4
,,0.02084272872112701,0.0030756161223441736,0.00041248100560759265,0.024330825849078776,4.926880460496934,0.8566387696994743,0.1264082091344476,-5.7842500328040645,40.5
,,0.02084272872112701,0.0030756161223441736,0.00041248100560759265,0.024330825849078776,4.980132615341789,0.8566387696994743,0.1264082091344476,-5.7842500328040645,40.6
,,0.02084272872112701,0.0030756161223441736,0.00041248100560759265,0.024330825849078776,5.016573217810963,0.8566387696994743,0.1264082091344476,-5.7842500328040645,40.7
,,0.020975305766164083,0.0030248146815448117,0.0004905925642117673,0.024490713011920663,5.054765429839391,0.8564595794313754,0.12350864101312635,-5.800905451675179,40.8
,,0.020975305766164083,0.0030248146815448117,0.0004905925642117673,0.024490713011920663,5.092957641867821,0.8564595794313754,0.12350864101312635,-5.800905451675179,40.9
,,0.020975305766164083,0.0030248146815448117,0.0004905925642117673,0.024490713011920663,5.13114985389625,0.8564595794313754,0.12350864101312635,-5.800905451675179,41.0
,,0.020975305766164083,0.0030248146815448117,0.0004905925642117673,0.024490713011920663,5.16843642086044,0.8564595794313754,0.12350864101312635,-5.800905451675179,41.1
,,0.020975305766164083,0.0030248146815448117,0.0004905925642117673,0.024490713011920663,5.205722987824629,0.8564595794313754,0.12350864101312635,-5.800905451675179,41.2
,,0.02005828093432786,0.00293978785750464,0.0004118591719043343,0.023409927963736834,5.241772073370202,0.856827964844623,0.12557868021031593,-5.829417857546358,41.3
,,0.02005828093432786,0.00293978785750464,0.0004118591719043343,0.023409927963736834,5.278096789349904,0.856827964844623,0.12557868021031593,-5.829417857546358,41.4
,,0.010381980888712741,0.0028893084957142376,0.00048651236874631623,0.013757801753173295,5.278534881273619,0.7546249811542817,0.21001236589615827,-5.846738080327952,41.5
,,0.010381980888712741,0.0028893084957142376,0.00048651236874631623,0.013757801753173295,5.278972973197335,0.7546249811542817,0.21001236589615827,-5.846738080327952,41.6
,,0.010381980888712741,0.0028893084957142376,0.00048651236874631623,0.013757801753173295,5.2794110651210495,0.7546249811542817,0.21001236589615827,-5.846738080327952,41.7
,,0.010381980888712741,0.0028893084957142376,0.00048651236874631623,0.013757801753173295,5.278454623145914,0.7546249811542817,0.21001236589615827,-5.846738080327952,41.8
,,0.010381980888712741,0.0028893084957142376,0.00048651236874631623,0.013757801753173295,5.277498181170779,0.7546249811542817,0.21001236589615827,-5.846738080327952,41.9
,,0.019096233468482486,0.002614472955109034,0.000569244582304734,0.022279951005896255,5.317772920807181,0.8571039255619899,0.1173464409512,-5.946692748581966,42.0
,,0.019096233468482486,0.002614472955109034,0.000569244582304734,0.022279951005896255,5.370539238102564,0.8571039255619899,0.1173464409512,-5.946692748581966,42.1
,,0.019124098393364975,0.0027622993049004553,0.00048201559387002187,0.02236841329213545,5.41907451623356,0.8549599894995167,0.1234910705924616,-5.891691864587181,42.2
,,0.019124098393364975,0.0027622993049004553,0.00048201559387002187,0.02236841329213545,5.467609794364555,0.8549599894995167,0.1234910705924616,-5.891691864587181,42.3
,,0.019124098393364975,0.0027622993049004553,0.00048201559387002187,0.02236841329213545,5.516145072495551,0.8549599894995167,0.1234910705924616,-5.891691864587181,42.4
,,0.019124098393364975,0.0027622993049004553,0.00048201559387002187,0.02236841329213545,5.5646803506265465,0.8549599894995167,0.1234910705924616,-5.891691864587181,42.5
,,0.019124098393364975,0.0027622993049004553,0.00048201559387002187,0.02236841329213545,5.598858007173315,0.8549599894995167,0.1234910705924616,-5.891691864587181,42.6
,,0.019124098393364975,0.0027622993049004553,0.00048201559387002187,0.02236841329213545,5.633035663720085,0.8549599894995167,0.1234910705924616,-5.891691864587181,42.7
,,0.019124098393364975,0.0027622993049004553,0.00048201559387002187,0.02236841329213545,5.667213320266854,0.8549599894995167,0.1234910705924616,-5.891691864587181,42.8
,,0.019124098393364975,0.0027622993049004553,0.00048201559387002187,0.02236841329213545,5.700827804120595,0.8549599894995167,0.1234910705924616,-5.891691864587181,42.9
,,0.018238775491089335,0.0026582566686086818,0.00048414661906337415,0.02138117877876139,5.733752573813557,0.853029464830372,0.12432694642866059,-5.930084758790055,43.0
,,0.018238775491089335,0.0026582566686086818,0.00048414661906337415,0.02138117877876139,5.766677343506519,0.853029464830372,0.12432694642866059,-5.930084758790055,43.1
,,0.018238775491089335,0.0026582566686086818,0.00048414661906337415,0.02138117877876139,5.799602113199482,0.853029464830372,0.12432694642866059,-5.930084758790055,43.2
,,0.018238775491089335,0.0026582566686086818,0.00048414661906337415,0.02138117877876139,5.832526882892445,0.853029464830372,0.12432694642866059,-5.930084758790055,43.3
,,0.018238775491089335,0.0026582566686086818,0.00048414661906337415,0.02138117877876139,5.86318817457492,0.853029464830372,0.12432694642866059,-5.930084758790055,43.4
,,0.018258042006735923,0.002646057150547007,0.0005087271374112927,0.02141282629469422,5.894281847931339,0.8526684780168414,0.12357346546087009,-5.934684614676439,43.5
,,0.018258042006735923,0.002646057150547007,0.0005087271374112927,0.02141282629469422,5.924241690227984,0.8526684780168414,0.12357346546087009,-5.934684614676439,43.6
,,0.018238775491089335,0.0026582566686086818,0.00048414661906337415,0.02138117877876139,5.953769150850686,0.853029464830372,0.12432694642866059,-5.930084758790055,43.7
,,0.017282602169106313,0.002411255356802876,0.0005652251205995111,0.020259082646508702,5.986699850052353,0.8530792075170623,0.11902095464418344,-6.027607772159296,43.8
,,0.017442905034738807,0.002574952801851877,0.0004907083024342968,0.02050856613902498,6.015259406442223,0.8505180184950794,0.1255549892857744,-5.961924074412335,43.9
,,0.017442905034738807,0.002574952801851877,0.0004907083024342968,0.02050856613902498,6.043818962832093,0.8505180184950794,0.1255549892857744,-5.961924074412335,44.0
,,0.017442905034738807,0.002574952801851877,0.0004907083024342968,0.02050856613902498,6.072378519221963,0.8505180184950794,0.1255549892857744,-5.961924074412335,44.1
,,0.017442905034738807,0.002574952801851877,0.0004907083024342968,0.02050856613902498,6.0969303197819915,0.8505180184950794,0.1255549892857744,-5.961924074412335,44.2
,,0.017442905034738807,0.002574952801851877,0.0004907083024342968,0.02050856613902498,6.121193551587719,0.8505180184950794,0.1255549892857744,-5.961924074412335,44.3
,,0.017442905034738807,0.002574952801851877,0.0004907083024342968,0.02050856613902498,6.145456783393447,0.8505180184950794,0.1255549892857744,-5.961924074412335,44.4
,,0.017442905034738807,0.002574952801851877,0.0004907083024342968,0.02050856613902498,6.169720015199176,0.8505180184950794,0.1255549892857744,-5.961924074412335,44.5
,,0.016554377742773452,0.00248913080261738,0.00048393401188991624,0.01952744255728075,6.192612115790373,0.8477494016030892,0.12746834590939893,-5.995821704700534,44.6
,,0.016554377742773452,0.00248913080261738,0.00048393401188991624,0.01952744255728075,6.215504216381569,0.8477494016030892,0.12746834590939893,-5.995821704700534,44.7
,,0.016554377742773452,0.00248913080261738,0.00048393401188991624,0.01952744255728075,6.238396316972766,0.8477494016030892,0.12746834590939893,-5.995821704700534,44.8
,,0.016554377742773452,0.00248913080261738,0.00048393401188991624,0.01952744255728075,6.280192145344723,0.8477494016030892,0.12746834590939893,-5.995821704700534,44.9
,,0.016554377742773452,0.00248913080261738,0.00048393401188991624,0.01952744255728075,6.321987973716683,0.8477494016030892,0.12746834590939893,-5.995821704700534,45.0
,,0.016554377742773452,0.00248913080261738,0.00048393401188991624,0.01952744255728075,6.33665216847027,0.8477494016030892,0.12746834590939893,-5.995821704700534,45.1
,,0.016554377742773452,0.00248913080261738,0.00048393401188991624,0.01952744255728075,6.351316363223858,0.8477494016030892,0.12746834590939893,-5.995821704700534,45.2
,,0.016554377742773452,0.00248913080261738,0.00048393401188991624,0.01952744255728075,6.365980557977444,0.8477494016030892,0.12746834590939893,-5.995821704700534,45.3
,,0.008214426516242506,0.001981517795072724,0.0005663749888973202,0.010762319300212549,6.352809823819347,0.7632580196798543,0.184116242958299,-6.2238921647671335,45.4
,,0.015702298990317307,0.0020870335403737473,0.0004880614036913321,0.018277393934382387,6.377174846866055,0.8591103877658971,0.11418660383785564,-6.172011579921939,45.5
,,0.015702298990317307,0.0020870335403737473,0.0004880614036913321,0.018277393934382387,6.401539869912764,0.8591103877658971,0.11418660383785564,-6.172011579921939,45.6
,,0.015702298990317307,0.0020870335403737473,0.0004880614036913321,0.018277393934382387,6.425027282793839,0.8591103877658971,0.11418660383785564,-6.172011579921939,45.7
,,0.015702298990317307,0.0020870335403737473,0.0004880614036913321,0.018277393934382387,6.442321675968231,0.8591103877658971,0.11418660383785564,-6.172011579921939,45.8
,,0.015702298990317307,0.0020870335403737473,0.0004880614036913321,0.018277393934382387,6.4596160691426245,0.8591103877658971,0.11418660383785564,-6.172011579921939,45.9
,,0.015702298990317307,0.0020870335403737473,0.0004880614036913321,0.018277393934382387,6.476910462317018,0.8591103877658971,0.11418660383785564,-6.172011579921939,46.0
,,0.015702298990317307,0.0020870335403737473,0.0004880614036913321,0.018277393934382387,6.494204855491411,0.8591103877658971,0.11418660383785564,-6.172011579921939,46.1
,,0.01503268662651079,0.002203488608722942,0.0005476740679043677,0.0177838493031381,6.503704588245119,0.8452999331173007,0.12390391816546259,-6.117713443324393,46.2
,,0.01503268662651079,0.002203488608722942,0.0005476740679043677,0.0177838493031381,6.513204320998826,0.8452999331173007,0.12390391816546259,-6.117713443324393,46.3
,,0.015091081521335533,0.002350099657238622,0.00045705235379010995,0.017898233532364267,6.518251201907169,0.84316038753474,0.13130344136973532,-6.053297544389651,46.4
,,0.015091081521335533,0.002350099657238622,0.00045705235379010995,0.017898233532364267,6.524638154228454,0.84316038753474,0.13130344136973532,-6.053297544389651,46.5
,,0.015091081521335533,0.002350099657238622,0.00045705235379010995,0.017898233532364267,6.5310251065497384,0.84316038753474,0.13130344136973532,-6.053297544389651,46.6
,,0.015091081521335533,0.002350099657238622,0.00045705235379010995,0.017898233532364267,6.537412058871023,0.84316038753474,0.13130344136973532,-6.053297544389651,46.7
,,0.015091081521335533,0.002350099657238622,0.00045705235379010995,0.017898233532364267,6.5437990111923074,0.84316038753474,0.13130344136973532,-6.053297544389651,46.8
,,0.015091081521335533,0.002350099657238622,0.00045705235379010995,0.017898233532364267,6.550185963513593,0.84316038753474,0.13130344136973532,-6.053297544389651,46.9
,,0.014558894139623047,0.0022842777668428704,0.0003758831970439284,0.017219055103509844,6.556040219141481,0.8455106306417148,0.1326598790184053,-6.081705380378372,47.0
,,0.014558894139623047,0.0022842777668428704,0.0003758831970439284,0.017219055103509844,6.56189447476937,0.8455106306417148,0.1326598790184053,-6.081705380378372,47.1
,,0.0076984412370496216,0.0019294761024024466,0.00045692282702936764,0.010084840166481436,6.530806389567599,0.7633676994343065,0.1913244107542097,-6.250506762446847,47.2
,,0.0076984412370496216,0.0019294761024024466,0.00045692282702936764,0.010084840166481436,6.5063534722476115,0.7633676994343065,0.1913244107542097,-6.250506762446847,47.3
,,0.0076984412370496216,0.0019294761024024466,0.00045692282702936764,0.010084840166481436,6.481900554927626,0.7633676994343065,0.1913244107542097,-6.250506762446847,47.4
,,0.0076984412370496216,0.0019294761024024466,0.00045692282702936764,0.010084840166481436,6.457447637607638,0.7633676994343065,0.1913244107542097,-6.250506762446847,47.5
,,0.0076984412370496216,0.0019294761024024466,0.00045692282702936764,0.010084840166481436,6.4329947202876525,0.7633676994343065,0.1913244107542097,-6.250506762446847,47.6
,,0.014400888130352126,0.002260147334227404,0.0003525645080085137,0.017013599972588042,6.433215458455999,0.8464339207195736,0.13284356854921395,-6.092325275686838,47.7
,,0.014400888130352126,0.002260147334227404,0.0003525645080085137,0.017013599972588042,6.435226388863307,0.8464339207195736,0.13284356854921395,-6.092325275686838,47.8
,,0.014400888130352126,0.002260147334227404,0.0003525645080085137,0.017013599972588042,6.466870992294945,0.8464339207195736,0.13284356854921395,-6.092325275686838,47.9
,,0.014755964127488173,0.0023119968490664844,0.00041720224792972166,0.017485163224484377,6.4659958416062295,0.8439134332372419,0.1322262091227726,-6.069643691033452,48.0
,,0.014755964127488173,0.0023119968490664844,0.00041720224792972166,0.017485163224484377,6.465120690917514,0.8439134332372419,0.1322262091227726,-6.069643691033452,48.1
,,0.014755964127488173,0.0023119968490664844,0.00041720224792972166,0.017485163224484377,6.464245540228799,0.8439134332372419,0.1322262091227726,-6.069643691033452,48.2
,,0.014755964127488173,0.0023119968490664844,0.00041720224792972166,0.017485163224484377,6.463370389540084,0.8439134332372419,0.1322262091227726,-6.069643691033452,48.3
,,0.014755964127488173,0.0023119968490664844,0.00041720224792972166,0.017485163224484377,6.4624952388513695,0.8439134332372419,0.1322262091227726,-6.069643691033452,48.4
,,0.01473377159395756,0.0022844488616552265,0.00033893918190905717,0.017357159637521845,6.460199825111762,0.8488584481361123,0.13161421046775526,-6.08163048212932,48.5
,,0.01473377159395756,0.0022844488616552265,0.00033893918190905717,0.017357159637521845,6.457904411372157,0.8488584481361123,0.13161421046775526,-6.08163048212932,48.6
,,0.01473377159395756,0.0022844488616552265,0.00033893918190905717,0.017357159637521845,6.455608997632549,0.8488584481361123,0.13161421046775526,-6.08163048212932,48.7
,,0.01473377159395756,0.0022844488616552265,0.00033893918190905717,0.017357159637521845,6.453389275939858,0.8488584481361123,0.13161421046775526,-6.08163048212932,48.8
,,0.013927113644478975,0.0018308426933714593,0.0004222498566930286,0.016180206194543464,6.464028954143451,0.8607500718486325,0.11315323620467112,-6.302978929939827,48.9
,,0.013927113644478975,0.0018308426933714593,0.0004222498566930286,0.016180206194543464,6.474668632347047,0.8607500718486325,0.11315323620467112,-6.302978929939827,49.0
,,0.013927113644478975,0.0018308426933714593,0.0004222498566930286,0.016180206194543464,6.485308310550641,0.8607500718486325,0.11315323620467112,-6.302978929939827,49.1
,,0.013927113644478975,0.0018308426933714593,0.0004222498566930286,0.016180206194543464,6.484707641899622,0.8607500718486325,0.11315323620467112,-6.302978929939827,49.2
,,0.015345447294372634,0.0023338065759464324,0.0003305252190615757,0.018009779089380642,6.4726441396161185,0.8520619391395525,0.12958551930948156,-6.06025462089702,49.3
,,0.015345447294372634,0.0023338065759464324,0.0003305252190615757,0.018009779089380642,6.460580637332615,0.8520619391395525,0.12958551930948156,-6.06025462089702,49.4
,,0.015345447294372634,0.0023338065759464324,0.0003305252190615757,0.018009779089380642,6.458341985621186,0.8520619391395525,0.12958551930948156,-6.06025462089702,49.5
,,0.015345447294372634,0.0023338065759464324,0.0003305252190615757,0.018009779089380642,6.456103333909757,0.8520619391395525,0.12958551930948156,-6.06025462089702,49.6
,,0.014326629678592695,0.001807267641767927,0.0004111925716156249,0.016545089891976245,6.468886295603228,0.8659142846688659,0.10923286930247413,-6.315939164467146,49.7
,,0.014326629678592695,0.001807267641767927,0.0004111925716156249,0.016545089891976245,6.479917647737443,0.8659142846688659,0.10923286930247413,-6.315939164467146,49.8
,,0.014326629678592695,0.001807267641767927,0.0004111925716156249,0.016545089891976245,6.490948999871658,0.8659142846688659,0.10923286930247413,-6.315939164467146,49.9
,,0.016377522234357567,0.0024389194292880004,0.000335108746023606,0.01915155040966917,6.4885119209531155,0.8551538587752634,0.12734840663639677,-6.016200194616262,50.0
,,0.016377522234357567,0.0024389194292880004,0.000335108746023606,0.01915155040966917,6.48607484203457,0.8551538587752634,0.12734840663639677,-6.016200194616262,50.1
,,0.016377522234357567,0.0024389194292880004,0.000335108746023606,0.01915155040966917,6.483637763116028,0.8551538587752634,0.12734840663639677,-6.016200194616262,50.2
,,0.016377522234357567,0.0024389194292880004,0.000335108746023606,0.01915155040966917,6.4824381656161005,0.8551538587752634,0.12734840663639677,-6.016200194616262,50.3
,,0.016377522234357567,0.0024389194292880004,0.000335108746023606,0.01915155040966917,6.481238568116174,0.8551538587752634,0.12734840663639677,-6.016200194616262,50.4
,,0.01512946909708431,0.0018098223440918835,0.00040508531667655847,0.017344376757852754,6.534198596143629,0.8722982271608213,0.10434634633224726,-6.314526590957092,50.5
,,0.01512946909708431,0.0018098223440918835,0.00040508531667655847,0.017344376757852754,6.587158624171084,0.8722982271608213,0.10434634633224726,-6.314526590957092,50.6
,,0.017789690643790552,0.0026090234591879843,0.0003545061275993517,0.02075322023057789,6.6229951119444666,0.8572014581900471,0.12571656013864477,-5.948779281228267,50.7
,,0.017789690643790552,0.0026090234591879843,0.0003545061275993517,0.02075322023057789,6.658831599717851,0.8572014581900471,0.12571656013864477,-5.948779281228267,50.8
,,0.017789690643790552,0.0026090234591879843,0.0003545061275993517,0.02075322023057789,6.694668087491233,0.8572014581900471,0.12571656013864477,-5.948779281228267,50.9
,,0.017789690643790552,0.0026090234591879843,0.0003545061275993517,0.02075322023057789,6.689273393653078,0.8572014581900471,0.12571656013864477,-5.948779281228267,51.0
,,0.017789690643790552,0.0026090234591879843,0.0003545061275993517,0.02075322023057789,6.683878699814924,0.8572014581900471,0.12571656013864477,-5.948779281228267,51.1
,,0.017789690643790552,0.0026090234591879843,0.0003545061275993517,0.02075322023057789,6.682715045141155,0.8572014581900471,0.12571656013864477,-5.948779281228267,51.2
,,0.018632494564981332,0.002733338534740021,0.0004737147123959361,0.02183954781211729,6.681531709692375,0.8531538622170289,0.12515545460256627,-5.902231510428184,51.3
,,0.018632494564981332,0.002733338534740021,0.0004737147123959361,0.02183954781211729,6.680348374243595,0.8531538622170289,0.12515545460256627,-5.902231510428184,51.4
,,0.019382781627223747,0.0028292757404950407,0.0003909684549388595,0.022603025822657646,6.6795432541405795,0.8575303934659105,0.1251724332261271,-5.867734522167194,51.5
,,0.019382781627223747,0.0028292757404950407,0.0003909684549388595,0.022603025822657646,6.6787381340375624,0.8575303934659105,0.1251724332261271,-5.867734522167194,51.6
,,0.019382781627223747,0.0028292757404950407,0.0003909684549388595,0.022603025822657646,6.677933013934546,0.8575303934659105,0.1251724332261271,-5.867734522167194,51.7
,,0.019382781627223747,0.0028292757404950407,0.0003909684549388595,0.022603025822657646,6.67712789383153,0.8575303934659105,0.1251724332261271,-5.867734522167194,51.8
,,0.019382781627223747,0.0028292757404950407,0.0003909684549388595,0.022603025822657646,6.676322773728513,0.8575303934659105,0.1251724332261271,-5.867734522167194,51.9
,,0.02024668991115936,0.0029638907913517656,0.0005313293023083305,0.02374191000481946,6.675988768018102,0.8527826913272526,0.12483792545545469,-5.821252417250112,52.0
,,0.02024668991115936,0.0029638907913517656,0.0005313293023083305,0.02374191000481946,6.6756547623076905,0.8527826913272526,0.12483792545545469,-5.821252417250112,52.1
,,0.02024668991115936,0.0029638907913517656,0.0005313293023083305,0.02374191000481946,6.675320756597278,0.8527826913272526,0.12483792545545469,-5.821252417250112,52.2
,,0.02088722827208787,0.003072676105918314,0.00044136866434004536,0.024401273042346232,6.674615785658419,0.8559892853065473,0.12592277872494434,-5.785206401350255,52.3
,,0.02088722827208787,0.003072676105918314,0.00044136866434004536,0.024401273042346232,6.673910814719561,0.8559892853065473,0.12592277872494434,-5.785206401350255,52.4
,,0.02088722827208787,0.003072676105918314,0.00044136866434004536,0.024401273042346232,6.6727734621067585,0.8559892853065473,0.12592277872494434,-5.785206401350255,52.5
,,0.02088722827208787,0.003072676105918314,0.00044136866434004536,0.024401273042346232,6.671636109493956,0.8559892853065473,0.12592277872494434,-5.785206401350255,52.6
,,0.02088722827208787,0.003072676105918314,0.00044136866434004536,0.024401273042346232,6.6709311385550984,0.8559892853065473,0.12592277872494434,-5.785206401350255,52.7
,,0.01878364194130238,0.0019467008568569968,0.00043589869251676414,0.02116624149067614,6.698503260164143,0.8874339806420847,0.091971966667513,-6.24161920751041,52.8
,,0.01878364194130238,0.0019467008568569968,0.00043589869251676414,0.02116624149067614,6.730446524584986,0.8874339806420847,0.091971966667513,-6.24161920751041,52.9
,,0.01878364194130238,0.0019467008568569968,0.00043589869251676414,0.02116624149067614,6.7623897890058275,0.8874339806420847,0.091971966667513,-6.24161920751041,53.0
,,0.02220807481201611,0.003329678176661134,0.0005004578628617679,0.02603821085153901,6.761230547400171,0.8529032558588211,0.12787661163225933,-5.704879623305388,53.1
,,0.02220807481201611,0.003329678176661134,0.0005004578628617679,0.02603821085153901,6.760071305794516,0.8529032558588211,0.12787661163225933,-5.704879623305388,53.2
,,0.02220807481201611,0.003329678176661134,0.0005004578628617679,0.02603821085153901,6.75891206418886,0.8529032558588211,0.12787661163225933,-5.704879623305388,53.3
,,0.02220807481201611,0.003329678176661134,0.0005004578628617679,0.02603821085153901,6.757752822583203,0.8529032558588211,0.12787661163225933,-5.704879623305388,53.4
,,0.019716263925905402,0.001996248824808351,0.0004519873772699936,0.022164500127983745,6.792226029584385,0.8895424580774854,0.0900651408008968,-6.216485447134861,53.5
,,0.019716263925905402,0.001996248824808351,0.0004519873772699936,0.022164500127983745,6.8280703678000965,0.8895424580774854,0.0900651408008968,-6.216485447134861,53.6
,,0.019716263925905402,0.001996248824808351,0.0004519873772699936,0.022164500127983745,6.863914706015809,0.8895424580774854,0.0900651408008968,-6.216485447134861,53.7
,,0.02005893465393905,0.0020841249900141246,0.00039031508256655957,0.022533374726519735,6.89695876448435,0.8901877724658573,0.09249058409175163,-6.173406180875051,53.8
,,0.02005893465393905,0.0020841249900141246,0.00039031508256655957,0.022533374726519735,6.930002822952893,0.8901877724658573,0.09249058409175163,-6.173406180875051,53.9
,,0.02005893465393905,0.0020841249900141246,0.00039031508256655957,0.022533374726519735,6.963046881421435,0.8901877724658573,0.09249058409175163,-6.173406180875051,54.0
,,0.02005893465393905,0.0020841249900141246,0.00039031508256655957,0.022533374726519735,6.996090939889978,0.8901877724658573,0.09249058409175163,-6.173406180875051,54.1
,,0.02032224887693387,0.002037889290845767,0.000467320172538768,0.022827458340318407,7.032996923235074,0.8902545598359597,0.08927359588020352,-6.195840668107678,54.2
,,0.02032224887693387,0.002037889290845767,0.000467320172538768,0.022827458340318407,7.069902906580171,0.8902545598359597,0.08927359588020352,-6.195840668107678,54.3
,,0.02032224887693387,0.002037889290845767,0.000467320172538768,0.022827458340318407,7.1346438188369525,0.8902545598359597,0.08927359588020352,-6.195840668107678,54.4
,,0.02032224887693387,0.002037889290845767,0.000467320172538768,0.022827458340318407,7.161848973888928,0.8902545598359597,0.08927359588020352,-6.195840668107678,54.5
,,0.023722487061687815,0.0037994648305836203,0.0006225494298606606,0.028144501322132098,7.147625623508504,0.8428817689881424,0.13499847757458117,-5.572895056224786,54.6
,,0.023722487061687815,0.0037994648305836203,0.0006225494298606606,0.028144501322132098,7.133402273128081,0.8428817689881424,0.13499847757458117,-5.572895056224786,54.7
,,0.023748842978912645,0.003825197513612143,0.000797538857332705,0.02837157934985749,7.118788791352314,0.8370645386377453,0.13482497630613421,-5.566145175491152,54.8
,,0.023748842978912645,0.003825197513612143,0.000797538857332705,0.02837157934985749,7.104175309576547,0.8370645386377453,0.13482497630613421,-5.566145175491152,54.9
,,0.023748842978912645,0.003825197513612143,0.000797538857332705,0.02837157934985749,7.08956182780078,0.8370645386377453,0.13482497630613421,-5.566145175491152,55.0
,,0.023748842978912645,0.003825197513612143,0.000797538857332705,0.02837157934985749,7.074948346025012,0.8370645386377453,0.13482497630613421,-5.566145175491152,55.1
,,0.023748842978912645,0.003825197513612143,0.000797538857332705,0.02837157934985749,7.068129524669931,0.8370645386377453,0.13482497630613421,-5.566145175491152,55.2
,,0.023748842978912645,0.003825197513612143,0.000797538857332705,0.02837157934985749,7.06131070331485,0.8370645386377453,0.13482497630613421,-5.566145175491152,55.3
,,0.023708746853157835,0.003953060930306911,0.0006770395783986713,0.028338847361863418,7.056600728470241,0.836616484446842,0.13949265048890747,-5.533265081098822,55.4
,,0.02368360844571003,0.003966711092810513,0.0008573752861997421,0.028507694824720285,7.051591019816206,0.8307794997571295,0.1391452769927508,-5.5298179677272845,55.5
,,0.02368360844571003,0.003966711092810513,0.0008573752861997421,0.028507694824720285,7.04658131116217,0.8307794997571295,0.1391452769927508,-5.5298179677272845,55.6
,,0.02368360844571003,0.003966711092810513,0.0008573752861997421,0.028507694824720285,7.041571602508133,0.8307794997571295,0.1391452769927508,-5.5298179677272845,55.7
,,0.02368360844571003,0.003966711092810513,0.0008573752861997421,0.028507694824720285,7.036561893854098,0.8307794997571295,0.1391452769927508,-5.5298179677272845,55.8
,,0.02368360844571003,0.003966711092810513,0.0008573752861997421,0.028507694824720285,7.031552185200062,0.8307794997571295,0.1391452769927508,-5.5298179677272845,55.9
,,0.02368360844571003,0.003966711092810513,0.0008573752861997421,0.028507694824720285,7.027075173239423,0.8307794997571295,0.1391452769927508,-5.5298179677272845,56.0
,,0.02368360844571003,0.003966711092810513,0.0008573752861997421,0.028507694824720285,7.022598161278782,0.8307794997571295,0.1391452769927508,-5.5298179677272845,56.1
,,0.02351142359126452,0.004106662589351354,0.0009170762033581418,0.028535162383974015,7.041879019988579,0.8239456735830268,0.1439158654186509,-5.4951446023981205,56.2
,,0.02351142359126452,0.004106662589351354,0.0009170762033581418,0.028535162383974015,7.061159878698375,0.8239456735830268,0.1439158654186509,-5.4951446023981205,56.3
,,0.02351142359126452,0.004106662589351354,0.0009170762033581418,0.028535162383974015,7.080440737408172,0.8239456735830268,0.1439158654186509,-5.4951446023981205,56.4
,,0.02351142359126452,0.004106662589351354,0.0009170762033581418,0.028535162383974015,7.099721596117969,0.8239456735830268,0.1439158654186509,-5.4951446023981205,56.5
,,0.02351142359126452,0.004106662589351354,0.0009170762033581418,0.028535162383974015,7.119002454827766,0.8239456735830268,0.1439158654186509,-5.4951446023981205,56.6
,,0.02351142359126452,0.004106662589351354,0.0009170762033581418,0.028535162383974015,7.111819465810267,0.8239456735830268,0.1439158654186509,-5.4951446023981205,56.7
,,0.023428595425541154,0.004086947955165404,0.0009822238257269807,0.02849776720643354,7.104718151053551,0.8221203877422372,0.1434129181265384,-5.49995680872003,56.8
,,0.023189082682667006,0.004248770138083891,0.0009713524533267835,0.02840920527407768,7.094564541287371,0.8162524244853185,0.1495561068003804,-5.461125717198452,56.9
,,0.023189082682667006,0.004248770138083891,0.0009713524533267835,0.02840920527407768,7.084292185835284,0.8162524244853185,0.1495561068003804,-5.461125717198452,57.0
,,0.023189082682667006,0.004248770138083891,0.0009713524533267835,0.02840920527407768,7.074019830383197,0.8162524244853185,0.1495561068003804,-5.461125717198452,57.1
,,0.023189082682667006,0.004248770138083891,0.0009713524533267835,0.02840920527407768,7.063747474931111,0.8162524244853185,0.1495561068003804,-5.461125717198452,57.2
,,0.023189082682667006,0.004248770138083891,0.0009713524533267835,0.02840920527407768,7.053475119479024,0.8162524244853185,0.1495561068003804,-5.461125717198452,57.3
,,0.023189082682667006,0.004248770138083891,0.0009713524533267835,0.02840920527407768,7.043202764026938,0.8162524244853185,0.1495561068003804,-5.461125717198452,57.4
,,0.02017519378641922,0.0022044064106198687,0.0005414820413103141,0.0229210822383494,7.073231828707672,0.8802024955289406,0.09617374902707095,-6.117297007857504,57.5
,,0.02017519378641922,0.0022044064106198687,0.0005414820413103141,0.0229210822383494,7.103260893388406,0.8802024955289406,0.09617374902707095,-6.117297007857504,57.6
,,0.02017519378641922,0.0022044064106198687,0.0005414820413103141,0.0229210822383494,7.133289958069141,0.8802024955289406,0.09617374902707095,-6.117297007857504,57.7
,,0.02017519378641922,0.0022044064106198687,0.0005414820413103141,0.0229210822383494,7.163319022749875,0.8802024955289406,0.09617374902707095,-6.117297007857504,57.8
,,0.02017519378641922,0.0022044064106198687,0.0005414820413103141,0.0229210822383494,7.180488687534325,0.8802024955289406,0.09617374902707095,-6.117297007857504,57.9
,,0.02017519378641922,0.0022044064106198687,0.0005414820413103141,0.0229210822383494,7.197658352318773,0.8802024955289406,0.09617374902707095,-6.117297007857504,58.0
,,0.02017519378641922,0.0022044064106198687,0.0005414820413103141,0.0229210822383494,7.214828017103222,0.8802024955289406,0.09617374902707095,-6.117297007857504,58.1
,,0.02227352016085001,0.004499009891739849,0.0010799712945200515,0.027852501347109912,7.18531489183141,0.7996955060972001,0.1615298330182716,-5.403897930472518,58.2
,,0.02227352016085001,0.004499009891739849,0.0010799712945200515,0.027852501347109912,7.167264600192078,0.7996955060972001,0.1615298330182716,-5.403897930472518,58.3
,,0.02227352016085001,0.004499009891739849,0.0010799712945200515,0.027852501347109912,7.1492143085527475,0.7996955060972001,0.1615298330182716,-5.403897930472518,58.4
,,0.02227352016085001,0.004499009891739849,0.0010799712945200515,0.027852501347109912,7.1311640169134165,0.7996955060972001,0.1615298330182716,-5.403897930472518,58.5
,,0.02227352016085001,0.004499009891739849,0.0010799712945200515,0.027852501347109912,7.113113725274086,0.7996955060972001,0.1615298330182716,-5.403897930472518,58.6
,,0.02227352016085001,0.004499009891739849,0.0010799712945200515,0.027852501347109912,7.080041820229853,0.7996955060972001,0.1615298330182716,-5.403897930472518,58.7
,,0.0221352477243124,0.004425434245180458,0.0011229920126845814,0.02768367398217744,7.047537299463715,0.7995776766683107,0.15985718687590103,-5.420386870833061,58.8
,,0.021697142359642183,0.004605897423237218,0.0011290063738995785,0.02743204615677898,7.01179839730358,0.7909414498517241,0.16790207325088702,-5.380417748079736,58.9
,,0.021697142359642183,0.004605897423237218,0.0011290063738995785,0.02743204615677898,6.989527926196203,0.7909414498517241,0.16790207325088702,-5.380417748079736,59.0
,,0.021697142359642183,0.004605897423237218,0.0011290063738995785,0.02743204615677898,6.967257455088827,0.7909414498517241,0.16790207325088702,-5.380417748079736,59.1
,,0.021697142359642183,0.004605897423237218,0.0011290063738995785,0.02743204615677898,6.944986983981451,0.7909414498517241,0.16790207325088702,-5.380417748079736,59.2
,,0.021697142359642183,0.004605897423237218,0.0011290063738995785,0.02743204615677898,6.922716512874073,0.7909414498517241,0.16790207325088702,-5.380417748079736,59.3
,,0.021697142359642183,0.004605897423237218,0.0011290063738995785,0.02743204615677898,6.900446041766698,0.7909414498517241,0.16790207325088702,-5.380417748079736,59.4
,,0.021697142359642183,0.004605897423237218,0.0011290063738995785,0.02743204615677898,6.859902569187928,0.7909414498517241,0.16790207325088702,-5.380417748079736,59.5
,,0.009293140457342164,0.002302537635016812,0.0005586195084885473,0.012154297600847524,6.811862564533279,0.7645970801878464,0.18944226236950584,-6.0737434446842204,59.6
